freq,mag,phase
6.0,0.9999953610750097,68.64533690611859
6.008,0.9999952747791788,68.48593975628799
6.016,0.9999951891262874,68.32650830236535
6.024,0.9999951041347316,68.1670425629583
6.032,0.9999950198224303,68.00754255695168
6.04,0.9999949362068313,67.84800830350765
6.048,0.9999948533049141,67.68843982206567
6.056,0.999994771133196,67.52883713234266
6.064,0.9999946897077362,67.36920025433291
6.072,0.9999946090441413,67.20952920830824
6.08,0.9999945291575695,67.04982401481803
6.088,0.999994450062735,66.89008469468922
6.096,0.9999943717739137,66.73031126902637
6.104,0.9999942943049465,66.5705037592117
6.112,0.9999942176692453,66.4106621869052
6.12,0.9999941418797971,66.25078657404444
6.128,0.999994066949168,66.09087694284483
6.136,0.9999939928895091,65.93093331579958
6.144,0.999993919712559,65.7709557156796
6.152,0.9999938474296515,65.6109441655337
6.16,0.9999937760517165,65.45089868868844
6.168,0.9999937055892874,65.2908193087483
6.176,0.9999936360525044,65.1307060495955
6.184,0.9999935674511188,64.97055893539022
6.192,0.9999934997944978,64.8103779905704
6.2,0.999993433091629,64.65016323985188
6.208,0.9999933673511247,64.48991470822831
6.216,0.9999933025812261,64.3296324209712
6.224,0.9999932387898077,64.16931640362985
6.232,0.9999931759843824,64.0089666820314
6.24,0.999993114172105,63.84858328228077
6.248,0.9999930533597765,63.68816623076065
6.256,0.9999929935538491,63.52771555413147
6.264,0.9999929347604298,63.36723127933136
6.272,0.9999928769852847,63.20671343357618
6.28,0.999992820233844,63.0461620443594
6.288,0.9999927645112049,62.8855771394521
6.296,0.9999927098221377,62.72495874690303
6.304,0.9999926561710876,62.56430689503831
6.312,0.9999926035621807,62.40362161246167
6.32,0.9999925519992273,62.24290292805422
6.328,0.9999925014857269,62.08215087097447
6.336,0.9999924520248709,61.92136547065823
6.344,0.9999924036195474,61.76054675681862
6.352,0.999992356272346,61.599694759445875
6.36,0.9999923099855602,61.438809508807445
6.368,0.9999922647611927,61.27789103544779
6.376,0.9999922206009595,61.1169393701884
6.384,0.9999921775062928,60.955954544127636
6.392,0.9999921354783455,60.794936588640724
6.4,0.9999920945179956,60.63388553537964
6.408,0.9999920546258494,60.47280141627299
6.416,0.9999920158022456,60.311684263526
6.424,0.9999919780472598,60.150534109620345
6.432,0.999991941360707,59.98935098731409
6.44,0.9999919057421469,59.828134929641585
6.448,0.9999918711908865,59.666885969913395
6.456,0.9999918377059851,59.5056041417161
6.464,0.9999918052862569,59.34428947891231
6.472,0.9999917739302755,59.182942015640414
6.48,0.9999917436363771,59.02156178631465
6.4879999999999995,0.9999917144026648,58.860148825624776
6.496,0.9999916862270115,58.69870316853605
6.504,0.9999916591070646,58.5372248502892
6.5120000000000005,0.999991633040249,58.37571390640002
6.52,0.9999916080237707,58.21417037265963
6.5280000000000005,0.9999915840546201,58.05259428513392
6.536,0.9999915611295768,57.89098568016376
6.5440000000000005,0.9999915392452117,57.729344594364576
6.552,0.9999915183978914,57.56767106462649
6.5600000000000005,0.9999914985837818,57.40596512811389
6.568,0.9999914797988507,57.244226822265475
6.5760000000000005,0.9999914620388726,57.08245618479395
6.584,0.9999914452994307,56.920653253686076
6.592,0.9999914295759221,56.75881806720227
6.6,0.999991414863559,56.59695066387657
6.608,0.9999914011573742,56.435051082516445
6.616,0.9999913884522232,56.27311936220262
6.624,0.9999913767427882,56.11115554228891
6.632,0.9999913660235804,55.94915966240202
6.64,0.999991356288945,55.787131762441334
6.648,0.9999913475330632,55.625071882578844
6.656,0.9999913397499555,55.46298006325879
6.664,0.9999913329334862,55.30085634519761
6.672,0.999991327077364,55.13870076938371
6.68,0.9999913221751492,54.97651337707717
6.688,0.9999913182202527,54.814294209809695
6.696,0.9999913152059416,54.652043309384275
6.704,0.9999913131253422,54.48976071787507
6.712,0.9999913119714422,54.32744647762712
6.72,0.9999913117370949,54.16510063125621
6.728,0.9999913124150207,54.002723221648516
6.736,0.9999913139978126,53.84031429196058
6.744,0.9999913164779363,53.6778738856189
6.752,0.9999913198477359,53.51540204631981
6.76,0.9999913240994348,53.35289881802915
6.768,0.9999913292251404,53.19036424498217
6.776,0.9999913352168457,53.02779837168313
6.784,0.9999913420664327,52.865201242905194
6.792,0.9999913497656756,52.702572903690104
6.8,0.9999913583062435,52.539913399347896
6.808,0.9999913676797033,52.37722277545677
6.816,0.9999913778775222,52.214501077862714
6.824,0.9999913888910712,52.05174835267932
6.832,0.9999914007116267,51.88896464628747
6.84,0.9999914133303751,51.72615000533507
6.848,0.9999914267384145,51.56330447673682
6.856,0.9999914409267563,51.40042810767393
6.864,0.9999914558863304,51.23752094559378
6.872,0.9999914716079864,51.07458303820973
6.88,0.9999914880824959,50.91161443350077
6.888,0.9999915053005565,50.748615179711265
6.896,0.9999915232527931,50.58558532535062
6.904,0.9999915419297617,50.42252491919307
6.912,0.9999915613219511,50.25943401027731
6.92,0.9999915814197856,50.096312647906196
6.928,0.9999916022136277,49.933160881646415
6.936,0.9999916236937816,49.76997876132836
6.944,0.9999916458504937,49.60676633704551
6.952,0.9999916686739565,49.44352365915438
6.96,0.9999916921543115,49.28025077827408
6.968,0.9999917162816491,49.11694774528603
6.976,0.9999917410460148,48.953614611333585
6.984,0.9999917664374086,48.79025142782177
6.992,0.9999917924457888,48.62685824641693
7.0,0.9999918190610733,48.46343511904634
7.008,0.9999918462731436,48.29998209789796
7.016,0.9999918740718456,48.13649923542002
7.024,0.9999919024469922,47.972986584320694
7.032,0.9999919313883663,47.80944419756776
7.04,0.9999919608857227,47.64587212838824
7.048,0.9999919909287901,47.48227043026806
7.056,0.9999920215072728,47.318639156951626
7.064,0.9999920526108541,47.15497836244161
7.072,0.9999920842291986,46.99128810099838
7.08,0.9999921163519525,46.827568427139774
7.088,0.9999921489687476,46.66381939564072
7.096,0.9999921820692027,46.5000410615328
7.104,0.9999922156429255,46.33623348010391
7.112,0.9999922496795149,46.17239670689785
7.12,0.9999922841685635,46.008530797713945
7.128,0.999992319099659,45.844635808606725
7.136,0.9999923544623859,45.680711795885394
7.144,0.9999923902463288,45.51675881611358
7.152,0.9999924264410734,45.3527769261088
7.16,0.9999924630362079,45.188766182942175
7.168,0.9999925000213267,45.02472664393794
7.176,0.9999925373860306,44.86065836667307
7.184,0.9999925751199293,44.69656140897687
7.192,0.9999926132126442,44.53243582893056
7.2,0.9999926516538085,44.36828168486681
7.208,0.99999269043307,44.20409903536937
7.216,0.9999927295400932,44.03988793927262
7.224,0.9999927689645605,43.87564845566118
7.232,0.9999928086961744,43.71138064386939
7.24,0.9999928487246585,43.54708456348094
7.248,0.9999928890397605,43.382760274328454
7.256,0.9999929296312525,43.21840783649291
7.264,0.9999929704889338,43.0540273103034
7.272,0.9999930116026319,42.889618756336496
7.28,0.9999930529622043,42.72518223541589
7.288,0.9999930945575406,42.56071780861193
7.296,0.9999931363785637,42.396225537241165
7.304,0.9999931784152303,42.23170548286579
7.312,0.9999932206575352,42.06715770729331
7.32,0.9999932630955104,41.90258227257602
7.328,0.9999933057192272,41.73797924101048
7.336,0.9999933485187985,41.57334867513711
7.344,0.9999933914843794,41.408690637739674
7.352,0.9999934346061691,41.24400519184484
7.36,0.9999934778744125,41.0792924007216
7.368,0.9999935212794013,40.91455232788087
7.376,0.9999935648114752,40.749785037074965
7.384,0.9999936084610236,40.584990592297075
7.392,0.9999936522184877,40.420169057780846
7.4,0.9999936960743607,40.2553204979998
7.4079999999999995,0.9999937400191892,40.09044497766681
7.416,0.9999937840435752,39.92554256173367
7.4239999999999995,0.9999938281381773,39.760613315390565
7.432,0.9999938722937118,39.5956573040655
7.4399999999999995,0.9999939165009534,39.43067459342383
7.448,0.9999939607507369,39.26566524936767
7.4559999999999995,0.9999940050339593,39.10062933803557
7.464,0.9999940493415794,38.93556692580162
7.4719999999999995,0.9999940936646202,38.770478079275385
7.48,0.9999941379941694,38.605362865300854
7.4879999999999995,0.9999941823213806,38.440221350956364
7.496,0.9999942266374753,38.27505360355377
7.504,0.9999942709337423,38.10985969063807
7.5120000000000005,0.9999943152015403,37.9446396799866
7.52,0.9999943594322986,37.77939363960893
7.5280000000000005,0.9999944036175179,37.61412163774573
7.536,0.9999944477487713,37.448823742868804
7.5440000000000005,0.9999944918177052,37.28350002368001
7.552,0.9999945358160413,37.11815054911113
7.5600000000000005,0.9999945797355759,36.9527753883229
7.568,0.9999946235681826,36.78737461070483
7.5760000000000005,0.999994667305812,36.62194828587429
7.584,0.9999947109404929,36.45649648367621
7.5920000000000005,0.9999947544643336,36.29101927418224
7.6,0.9999947978695227,36.12551672769043
7.6080000000000005,0.999994841148329,35.959988914724406
7.616,0.9999948842931045,35.79443590603297
7.6240000000000006,0.9999949272962824,35.628857772589335
7.632,0.9999949701503802,35.46325458559073
7.640000000000001,0.9999950128479996,35.29762641645753
7.648,0.9999950553818276,35.13197333683302
7.656000000000001,0.9999950977446362,34.966295418582355
7.664,0.9999951399292852,34.800592733792385
7.672,0.9999951819287201,34.63486535477066
7.68,0.9999952237359764,34.4691133540451
7.688,0.9999952653441764,34.303336804363234
7.696,0.999995306746533,34.13753577869159
7.704,0.9999953479363484,33.971710350215155
7.712,0.999995388907016,33.80586059233661
7.72,0.9999954296520203,33.639986578675824
7.728,0.9999954701649377,33.47408838306918
7.736,0.9999955104394369,33.30816607956886
7.744,0.9999955504692796,33.14221974244239
7.752,0.999995590248322,32.97624944617177
7.76,0.9999956297705132,32.81025526545303
7.768,0.9999956690298974,32.64423727519542
7.776,0.9999957080206147,32.478195550520894
7.784,0.9999957467369,32.31213016676337
7.792,0.9999957851730841,32.146041199468094
7.8,0.9999958233235956,31.979928724390962
7.808,0.999995861182959,31.8137928174979
7.816,0.999995898745797,31.647633554964195
7.824,0.9999959360068293,31.481451013173782
7.832,0.999995972960875,31.315245268718545
7.84,0.9999960096028507,31.14901639839778
7.848,0.9999960459277729,30.982764479217355
7.856,0.9999960819307564,30.816489588389146
7.864,0.9999961176070163,30.650191803330273
7.872,0.9999961529518685,30.483871201662485
7.88,0.9999961879607273,30.31752786121139
7.888,0.9999962226291087,30.151161860005836
7.896,0.9999962569526297,29.98477327627715
7.904,0.9999962909270071,29.818362188458522
7.912,0.9999963245480611,29.6519286751842
7.92,0.9999963578117109,29.485472815288883
7.928,0.9999963907139792,29.318994687806946
7.936,0.9999964232509897,29.152494371971756
7.944,0.999996455418969,28.985971947214942
7.952,0.9999964872142447,28.819427493165733
7.96,0.999996518633248,28.652861089650163
7.968,0.999996549672512,28.48627281669041
7.976,0.9999965803286726,28.319662754504023
7.984,0.9999966105984677,28.15303098350324
7.992,0.9999966404787393,27.986377584294228
8.0,0.9999966699664311,27.819702637676357
8.008,0.9999966990585902,27.653006224641498
8.016,0.999996727752367,27.486288426373154
8.024000000000001,0.9999967560450141,27.319549324245948
8.032,0.9999967839338878,27.152788999824708
8.04,0.9999968114164473,26.986007534863717
8.048,0.9999968384902539,26.819205011306007
8.056000000000001,0.9999968651529734,26.652381511282663
8.064,0.9999968914023731,26.48553711711203
8.072,0.9999969172363243,26.318671911298846
8.08,0.9999969426528004,26.15178597653362
8.088000000000001,0.9999969676498776,25.984879395691834
8.096,0.9999969922257348,25.81795225183323
8.104,0.9999970163786535,25.651004628200834
8.112,0.9999970401070176,25.484036608220407
8.120000000000001,0.9999970634093129,25.317048275499626
8.128,0.9999970862841281,25.150039713827276
8.136,0.999997108730153,24.983011007172394
8.144,0.9999971307461796,24.8159622396836
8.152000000000001,0.9999971523311011,24.648893495688316
8.16,0.9999971734839129,24.48180485969196
8.168,0.9999971942037106,24.314696416377053
8.176,0.9999972144896918,24.147568250602518
8.184000000000001,0.9999972343411534,23.980420447402967
8.192,0.9999972537574944,23.813253091987796
8.2,0.9999972727382125,23.646066269740352
8.208,0.9999972912829067,23.47886006621717
8.216000000000001,0.9999973093912746,23.31163456714727
8.224,0.9999973270631136,23.144389858431275
8.232,0.9999973442983205,22.977126026140482
8.24,0.9999973610968899,22.8098431565162
8.248000000000001,0.9999973774589154,22.642541335968954
8.256,0.999997393384589,22.475220651077596
8.264,0.9999974088741996,22.307881188588443
8.272,0.9999974239281336,22.140523035414507
8.280000000000001,0.9999974385468753,21.973146278634736
8.288,0.9999974527310042,21.805751005493153
8.296,0.9999974664811968,21.63833730339791
8.304,0.9999974797982253,21.470905259920528
8.312,0.9999974926829569,21.30345496279524
8.32,0.999997505136354,21.135986499917802
8.328,0.9999975171594735,20.96849995934503
8.336,0.9999975287534665,20.800995429293604
8.344,0.9999975399195763,20.633472998139588
8.352,0.9999975506591415,20.465932754417192
8.36,0.9999975609735917,20.298374786818332
8.368,0.999997570864449,20.130799184191385
8.376,0.9999975803333271,19.963206035540694
8.384,0.9999975893819311,19.795595430025404
8.392,0.9999975980120565,19.62796745695888
8.4,0.9999976062255883,19.460322205807575
8.408,0.9999976140245019,19.292659766190454
8.416,0.9999976214108609,19.12498022787785
8.424,0.999997628386818,18.957283680790866
8.432,0.9999976349546126,18.789570215000232
8.44,0.9999976411165729,18.621839920725723
8.448,0.9999976468751123,18.45409288833498
8.456,0.999997652232731,18.286329208342966
8.464,0.9999976571920144,18.118548971410757
8.472,0.999997661755633,17.95075226834498
8.48,0.9999976659263412,17.78293919009661
8.488,0.9999976697069773,17.615109827760413
8.496,0.9999976731004624,17.447264272573765
8.504,0.9999976761097993,17.27940261591603
8.512,0.9999976787380734,17.111524949307395
8.52,0.9999976809884509,16.943631364408272
8.528,0.9999976828641777,16.775721953018113
8.536,0.9999976843685796,16.607796807074802
8.544,0.9999976855050615,16.439856018653458
8.552,0.9999976862771064,16.271899679965863
8.56,0.999997686688275,16.1039278833592
8.568,0.9999976867422048,15.935940721315509
8.576,0.999997686442609,15.76793828645045
8.584,0.9999976857932766,15.599920671512725
8.592,0.9999976847980709,15.431887969382824
8.6,0.9999976834609299,15.263840273072427
8.608,0.9999976817858637,15.095777675723223
8.616,0.9999976797769552,14.927700270606277
8.624,0.9999976774383594,14.759608151120768
8.632,0.9999976747743019,14.591501410793448
8.64,0.999997671789078,14.423380143277363
8.648,0.9999976684870526,14.255244442351252
8.656,0.9999976648726597,14.087094401918318
8.664,0.9999976609504001,13.918930116005606
8.672,0.9999976567248422,13.750751678762763
8.68,0.9999976522006204,13.582559184461426
8.688,0.9999976473824347,13.414352727493958
8.696,0.9999976422750486,13.246132402372869
8.704,0.9999976368832907,13.077898303729516
8.712,0.9999976312120517,12.909650526313506
8.72,0.9999976252662843,12.741389164991455
8.728,0.9999976190510025,12.573114314746336
8.736,0.9999976125712811,12.404826070676236
8.744,0.9999976058322539,12.236524527993703
8.752,0.9999975988391138,12.06820978202455
8.76,0.9999975915971108,11.899881928207128
8.768,0.9999975841115525,11.731541062091148
8.776,0.9999975763878026,11.563187279336988
8.784,0.9999975684312797,11.394820675714456
8.792,0.999997560247457,11.226441347102133
8.8,0.9999975518418607,11.058049389486126
8.808,0.99999754322007,10.889644898959387
8.815999999999999,0.9999975343877158,10.721227971720518
8.824,0.9999975253504794,10.552798704072913
8.832,0.9999975161140924,10.384357192423863
8.84,0.9999975066843356,10.215903533283532
8.847999999999999,0.999997497067037,10.047437823263904
8.856,0.9999974872680727,9.878960159077906
8.864,0.9999974772933643,9.710470637538497
8.872,0.9999974671488797,9.541969355557635
8.879999999999999,0.9999974568406302,9.373456410145232
8.888,0.9999974463746719,9.204931898408258
8.896,0.9999974357571018,9.036395917549834
8.904,0.9999974249940601,8.867848564868181
8.911999999999999,0.999997414091727,8.699289937755575
8.92,0.9999974030563226,8.530720133697455
8.928,0.9999973918941063,8.36213925027149
8.936,0.9999973806113744,8.193547385146548
8.943999999999999,0.9999973692144615,8.02494463608163
8.952,0.9999973577097375,7.8563311009249635
8.96,0.9999973461036071,7.687706877613092
8.968,0.9999973344025105,7.519072064169807
8.975999999999999,0.9999973226129198,7.350426758705095
8.984,0.9999973107413394,7.181771059414239
8.992,0.999997298794306,7.013105064576861
9.0,0.999997286778386,6.844428872555898
9.008,0.999997274700175,6.675742581796514
9.016,0.9999972625662975,6.507046290825188
9.024000000000001,0.9999972503834056,6.338340098248788
9.032,0.9999972381581773,6.169624102753513
9.04,0.9999972258973169,6.000898403103805
9.048,0.9999972136075528,5.832163098141444
9.056000000000001,0.9999972012956372,5.663418286784606
9.064,0.999997188968345,5.494664068026803
9.072,0.999997176632473,5.3259005409357885
9.08,0.9999971642948384,5.157127804652652
9.088000000000001,0.9999971519622786,4.98834595839088
9.096,0.9999971396416494,4.81955510143527
9.104,0.9999971273398249,4.650755333140858
9.112,0.9999971150636954,4.481946752931991
9.120000000000001,0.9999971028201682,4.313129460301377
9.128,0.9999970906161645,4.144303554809025
9.136,0.9999970784586201,3.975469136081144
9.144,0.9999970663544836,3.806626303809211
9.152000000000001,0.9999970543107163,3.6377751577490294
9.16,0.9999970423342892,3.468915797719662
9.168,0.9999970304321851,3.3000483236023164
9.176,0.9999970186113941,3.1311728353394246
9.184000000000001,0.9999970068789166,2.96228943293369
9.192,0.9999969952417587,2.7933982164470064
9.2,0.9999969837069334,2.6244992859993617
9.208,0.9999969722814587,2.4555927417678984
9.216000000000001,0.9999969609723572,2.2866786839859543
9.224,0.999996949786655,2.117757212942
9.232,0.9999969387313805,1.9488284289785145
9.24,0.9999969278135631,1.7798924324910481
9.248000000000001,0.9999969170402342,1.6109493239272852
9.256,0.9999969064184228,1.4419992037859315
9.264,0.9999968959551573,1.2730421726156278
9.272,0.9999968856574649,1.1040783310139979
9.280000000000001,0.9999968755323682,0.9351077796266909
9.288,0.9999968655868856,0.7661306191462988
9.296,0.999996855828031,0.5971469503112355
9.304,0.9999968462628122,0.428156873904803
9.312000000000001,0.9999968368982292,0.2591604907542169
9.32,0.9999968277412744,0.09015790172953825
9.328,0.9999968187989312,-0.07885079225747145
9.336,0.9999968100781739,-0.2478654902542723
9.344,0.9999968015859648,-0.4168860912684751
9.352,0.9999967933292552,-0.5859124942691343
9.36,0.9999967853149837,-0.7549445981874887
9.368,0.999996777550075,-0.9239823019182598
9.376,0.9999967700414398,-1.0930255043204256
9.384,0.9999967627959729,-1.262074104218524
9.392,0.9999967558205531,-1.4311280004033948
9.4,0.9999967491220423,-1.6001870916335146
9.408,0.9999967427072832,-1.7692512766357342
9.416,0.9999967365831003,-1.9383204541065997
9.424,0.9999967307562986,-2.1073945227130984
9.432,0.999996725233661,-2.276473381093986
9.44,0.9999967200219497,-2.4455569278605327
9.448,0.9999967151279036,-2.6146450615978427
9.456,0.9999967105582385,-2.7837376808656265
9.464,0.9999967063196461,-2.952834684199477
9.472,0.9999967024187918,-3.121935970111653
9.48,0.9999966988623161,-3.29104143709242
9.488,0.9999966956568312,-3.4601509836107542
9.496,0.999996692808923,-3.6292645081156962
9.504,0.9999966903251472,-3.798381909037112
9.512,0.9999966882120304,-3.9675030847869777
9.52,0.9999966864760693,-4.1366279337601775
9.528,0.999996685123729,-4.305756354335814
9.536,0.9999966841614414,-4.474888244877932
9.544,0.999996683595607,-4.6440235037368875
9.552,0.999996683432592,-4.813162029250072
9.56,0.999996683678727,-4.982303719743246
9.568,0.9999966843403084,-5.151448473531307
9.576,0.9999966854235958,-5.320596188919583
9.584,0.9999966869348114,-5.48974676420462
9.592,0.9999966888801404,-5.658900097675493
