freq,mag,phase
6.0,0.99999478635749,-128.97436201972033
6.008,0.9999937127040328,-129.33646888050924
6.016,0.9999926803314506,-129.698209651001
6.024,0.9999916883387088,-130.0595864768977
6.032,0.99999073583752,-130.42060151246102
6.04,0.9999898219522417,-130.7812569203663
6.048,0.9999889458197665,-131.1415548715575
6.056,0.9999881065894183,-131.50149754510443
6.064,0.9999873034228458,-131.86108712806137
6.072,0.9999865354939169,-132.22032581532764
6.08,0.9999858019886121,-132.5792158095097
6.088,0.9999851021049171,-132.937759320785
6.096,0.99998443505272,-133.29595856676758
6.104,0.9999838000537005,-133.65381577237514
6.112,0.9999831963412286,-134.01133316969808
6.12,0.9999826231602547,-134.36851299786989
6.128,0.9999820797672051,-134.7253575029394
6.136,0.9999815654298778,-135.0818689377447
6.144,0.9999810794273318,-135.43804956178832
6.152,0.9999806210497879,-135.7939016411146
6.16,0.9999801895985176,-136.1494274481881
6.168,0.9999797843857413,-136.50462926177417
6.176,0.9999794047345223,-136.85950936682048
6.184,0.9999790499786618,-137.21407005434077
6.192,0.9999787194625919,-137.5683136212997
6.2,0.9999784125412766,-137.92224237049933
6.208,0.9999781285801034,-138.2758586104676
6.216,0.9999778669547779,-138.62916465534758
6.224,0.9999776270512271,-138.98216282478884
6.232,0.9999774082654875,-139.33485544384027
6.24,0.9999772100036096,-139.68724484284394
6.248,0.9999770316815505,-140.03933335733126
6.256,0.9999768727250732,-140.39112332791956
6.264,0.9999767325696456,-140.74261710021136
6.272,0.9999766106603359,-141.09381702469403
6.28,0.9999765064517163,-141.44472545664152
6.288,0.9999764194077574,-141.79534475601739
6.296,0.9999763490017314,-142.14567728737885
6.304,0.999976294716107,-142.49572541978327
6.312,0.9999762560424584,-142.84549152669467
6.32,0.999976232481359,-143.19497798589273
6.328,0.9999762235422839,-143.54418717938262
6.336,0.999976228743515,-143.8931214933065
6.344,0.9999762476120403,-144.24178331785603
6.352,0.9999762796834565,-144.59017504718642
6.36,0.999976324501877,-144.9382990793319
6.368,0.9999763816198267,-145.2861578161222
6.376,0.999976450598155,-145.6337536631008
6.384,0.9999765310059362,-145.9810890294439
6.392,0.9999766224203763,-146.32816632788115
6.4,0.9999767244267185,-146.67498797461727
6.408,0.9999768366181473,-147.0215563892553
6.416,0.9999769585956985,-147.36787399472072
6.424,0.9999770899681654,-147.7139432171871
6.432,0.999977230352007,-148.05976648600273
6.44,0.999977379371257,-148.40534623361867
6.448,0.99997753665743,-148.7506848955176
6.456,0.9999777018494355,-149.09578491014454
6.464,0.9999778745934851,-149.4406487188379
6.472,0.9999780545430038,-149.7852787657624
6.48,0.9999782413585419,-150.1296774978426
6.4879999999999995,0.9999784347076884,-150.47384736469783
6.496,0.999978634264979,-150.8177908185785
6.504,0.9999788397118146,-151.1615103143024
6.5120000000000005,0.9999790507363704,-151.505008309194
6.52,0.9999792670335157,-151.84828726302254
6.5280000000000005,0.9999794883047215,-152.19134963794338
6.536,0.9999797142579822,-152.53419789843846
6.5440000000000005,0.9999799446077305,-152.87683451125946
6.552,0.9999801790747507,-153.21926194537073
6.5600000000000005,0.9999804173861003,-153.56148267189405
6.568,0.9999806592750254,-153.90349916405378
6.5760000000000005,0.9999809044808807,-154.24531389712368
6.584,0.9999811527490469,-154.5869293483738
6.592,0.9999814038308531,-154.92834799701942
6.6,0.9999816574834944,-155.26957232416993
6.608,0.9999819134699539,-155.61060481277931
6.616,0.9999821715589278,-155.95144794759733
6.624,0.9999824315247399,-156.29210421512147
6.632,0.9999826931472728,-156.63257610355006
6.64,0.999982956211886,-156.9728661027362
6.648,0.9999832205093421,-157.3129767041424
6.656,0.999983485835732,-157.6529104007963
6.664,0.9999837519923976,-157.99266968724714
6.672,0.9999840187858623,-158.33225705952307
6.68,0.9999842860277524,-158.67167501508928
6.688,0.9999845535347283,-159.010926052807
6.696,0.9999848211284108,-159.35001267289323
6.704,0.9999850886353094,-159.68893737688123
6.712,0.9999853558867524,-160.02770266758213
6.72,0.9999856227188143,-160.3663110490467
6.728,0.9999858889722493,-160.7047650265284
6.736,0.9999861544924199,-161.04306710644698
6.744,0.9999864191292288,-161.38121979635264
6.752,0.9999866827370523,-161.7192256048914
6.76,0.9999869451746716,-162.05708704177053
6.768,0.9999872063052063,-162.39480661772524
6.776,0.9999874659960496,-162.73238684448566
6.784,0.9999877241188018,-163.0698302347448
6.792,0.999987980549205,-163.4071393021269
6.8,0.9999882351670807,-163.74431656115667
6.808,0.9999884878562643,-164.08136452722889
6.816,0.9999887385045432,-164.41828571657902
6.824,0.9999889870035942,-164.75508264625392
6.832,0.999989233248921,-165.09175783408375
6.84,0.9999894771397934,-165.42831379865393
6.848,0.9999897185791875,-165.76475305927806
6.856,0.9999899574737242,-166.1010781359712
6.864,0.99999019373361,-166.4372915494237
6.872,0.9999904272725786,-166.77339582097585
6.88,0.9999906580078332,-167.10939347259267
6.888,0.9999908858599866,-167.44528702683948
6.896,0.999991110753006,-167.78107900685796
6.904,0.9999913326141554,-168.11677193634262
6.912,0.9999915513739401,-168.45236833951773
6.92,0.9999917669660506,-168.78787074111497
6.928,0.9999919793273081,-169.12328166635132
6.936,0.9999921883976102,-169.45860364090737
6.944,0.9999923941198764,-169.79383919090637
6.952,0.9999925964399957,-170.12899084289333
6.96,0.9999927953067733,-170.46406112381482
6.968,0.9999929906718787,-170.79905256099912
6.976,0.9999931824897939,-171.13396768213673
6.984,0.9999933707177623,-171.46880901526126
6.992,0.9999935553157382,-171.8035790887308
7.0,0.9999937362463367,-172.13828043120947
7.008,0.9999939134747843,-172.4729155716496
7.016,0.9999940869688703,-172.807487039274
7.024,0.9999942566988967,-173.14199736355874
7.032,0.9999944226376328,-173.47644907421613
7.04,0.999994584760266,-173.81084470117815
7.048,0.9999947430443541,-174.14518677458003
7.056,0.9999948974697823,-174.4794778247443
7.064,0.9999950480187135,-174.81372038216503
7.072,0.9999951946755445,-175.1479169774922
7.08,0.9999953374268624,-175.48207014151677
7.088,0.9999954762613971,-175.81618240515533
7.096,0.9999956111699801,-176.1502562994358
7.104,0.9999957421455005,-176.4842943554826
7.112,0.999995869182861,-176.8182991045026
7.12,0.9999959922789358,-177.1522730777709
7.128,0.9999961114325295,-177.4862188066171
7.136,0.9999962266443347,-177.82013882241168
7.144,0.9999963379168918,-178.1540356565523
7.152,0.9999964452545471,-178.48791184045075
7.16,0.9999965486634128,-178.82176990551957
7.168,0.9999966481513295,-179.15561238315925
7.176,0.999996743727824,-179.48944180474527
7.184,0.9999968354040726,-179.82326070161528
7.192,0.9999969231928624,179.84292839494333
7.2,0.9999970071085518,179.50912295370597
7.208,0.9999970871670361,179.1753204435234
7.216,0.9999971633857081,178.84151833333382
7.224,0.9999972357834214,178.5077140921754
7.232,0.9999973043804564,178.1739051891981
7.24,0.9999973691984824,177.84008909367603
7.248,0.9999974302605238,177.50626327501936
7.256,0.9999974875909241,177.17242520278646
7.264,0.9999975412153128,176.83857234669583
7.272,0.9999975911605701,176.504702176638
7.28,0.9999976374547932,176.17081216268767
7.288,0.9999976801272641,175.83689977511546
7.296,0.9999977192084168,175.5029624844001
7.304,0.9999977547298037,175.16899776124023
7.312,0.9999977867240637,174.8350030765666
7.32,0.9999978152248918,174.500975901554
7.328,0.9999978402670089,174.1669137076335
7.336,0.9999978618861253,173.83281396650452
7.344,0.9999978801189173,173.49867415014717
7.352,0.9999978950029917,173.1644917308345
7.36,0.9999979065768607,172.83026418114517
7.368,0.9999979148799075,172.4959889739756
7.376,0.9999979199523623,172.16166358255285
7.384,0.9999979218352688,171.82728548044742
7.392,0.9999979205704607,171.49285214158596
7.4,0.9999979162005295,171.15836104026448
7.4079999999999995,0.9999979087688007,170.82380965116144
7.416,0.9999978983193037,170.48919544935103
7.4239999999999995,0.9999978848967466,170.15451591031697
7.432,0.9999978685464892,169.81976850996583
7.4399999999999995,0.9999978493145157,169.4849507246413
7.448,0.9999978272474116,169.15006003113785
7.4559999999999995,0.999997802392336,168.81509390671556
7.464,0.9999977747969967,168.4800498291141
7.4719999999999995,0.9999977445096256,168.144925276568
7.48,0.9999977115789549,167.80971772782112
7.4879999999999995,0.9999976760541919,167.47442466214252
7.496,0.9999976379849953,167.13904355934133
7.504,0.9999975974214528,166.80357189978304
7.5120000000000005,0.9999975544140559,166.4680071644052
7.52,0.9999975090136791,166.13234683473414
7.5280000000000005,0.9999974612715553,165.79658839290124
7.536,0.999997411239255,165.46072932166027
7.5440000000000005,0.9999973589686637,165.12476710440427
7.552,0.9999973045119602,164.7886992251838
7.5600000000000005,0.9999972479215955,164.452523168724
7.568,0.9999971892502708,164.11623642044398
7.5760000000000005,0.9999971285509178,163.77983646647456
7.584,0.9999970658766781,163.44332079367794
7.5920000000000005,0.9999970012808816,163.1066868896668
7.6,0.9999969348170287,162.7699322428244
7.6080000000000005,0.9999968665387685,162.43305434232457
7.616,0.9999967964998804,162.09605067815258
7.6240000000000006,0.9999967247542556,161.75891874112594
7.632,0.9999966513558773,161.42165602291638
7.640000000000001,0.9999965763588023,161.0842600160711
7.648,0.9999964998171428,160.7467282140361
7.656000000000001,0.9999964217850478,160.40905811117804
7.664,0.9999963423166879,160.0712472028085
7.672,0.9999962614662331,159.7332929852072
7.68,0.9999961792878402,159.39519295564668
7.688,0.999996095835633,159.05694461241697
7.696,0.9999960111636865,158.71854545485104
7.704,0.9999959253260103,158.37999298335066
7.712,0.9999958383765323,158.04128469941278
7.72,0.9999957503690827,157.70241810565665
7.728,0.9999956613573785,157.3633907058512
7.736,0.9999955713950077,157.02420000494322
7.744,0.9999954805354132,156.68484350908602
7.752,0.9999953888318809,156.34531872566888
7.76,0.9999952963375197,156.00562316334657
7.768,0.9999952031052523,155.6657543320702
7.776,0.9999951091877969,155.32570974311815
7.784,0.9999950146376557,154.98548690912793
7.792,0.9999949195070994,154.64508334412847
7.8,0.9999948238481543,154.30449656357317
7.808,0.9999947277125887,153.96372408437372
7.816,0.9999946311518997,153.62276342493448
7.824,0.9999945342173,153.28161210518746
7.832,0.9999944369597056,152.94026764662817
7.84,0.999994339429723,152.59872757235215
7.848,0.9999942416776367,152.25698940709205
7.856,0.9999941437533969,151.91505067725566
7.864,0.9999940457066085,151.57290891096468
7.872,0.9999939475865187,151.23056163809392
7.88,0.9999938494420052,150.88800639031166
7.888,0.9999937513215658,150.54524070112066
7.896,0.999993653273306,150.2022621058997
7.904,0.9999935553449302,149.8590681419464
7.912,0.9999934575837286,149.5156563485204
7.92,0.9999933600365684,149.17202426688746
7.928,0.9999932627498826,148.82816944036475
7.936,0.9999931657696611,148.48408941436645
7.944,0.9999930691414387,148.13978173645046
7.952,0.9999929729102878,147.79524395636605
7.96,0.9999928771208069,147.45047362610222
7.968,0.9999927818171125,147.10546829993703
7.976,0.9999926870428293,146.76022553448774
7.984,0.9999925928410819,146.41474288876208
7.992,0.9999924992544854,146.06901792421002
8.0,0.9999924063251372,145.72304820477694
8.008,0.9999923140946082,145.37683129695745
8.016,0.999992222603935,145.03036476985002
8.024000000000001,0.9999921318936118,144.6836461952132
8.032,0.999992042003582,144.3366731475221
8.04,0.9999919529732316,143.98944320402612
8.048,0.9999918648413804,143.64195394480748
8.056000000000001,0.9999917776462759,143.29420295284174
8.064,0.9999916914255853,142.94618781405777
8.072,0.9999916062163886,142.59790611739973
8.08,0.9999915220551723,142.24935545488998
8.088000000000001,0.9999914389778223,141.90053342169307
8.096,0.9999913570196174,141.55143761618044
8.104,0.9999912762152234,141.20206563999636
8.112,0.999991196598687,140.85241509812514
8.120000000000001,0.999991118203429,140.50248359895934
8.128,0.999991041062239,140.15226875436898
8.136,0.9999909652072708,139.8017681797717
8.144,0.9999908906700351,139.45097949420438
8.152000000000001,0.9999908174813953,139.09990032039605
8.16,0.9999907456715621,138.74852828484126
8.168,0.9999906752700883,138.39686101787512
8.176,0.9999906063058656,138.04489615374933
8.184000000000001,0.9999905388071165,137.69263133070956
8.192,0.9999904728013934,137.340064191074
8.2,0.9999904083155723,136.98719238131258
8.208,0.9999903453758483,136.634013552128
8.216000000000001,0.9999902840077342,136.2805253585381
8.224,0.9999902242360521,135.92672545995885
8.232,0.9999901660849351,135.57261152028863
8.24,0.9999901095778193,135.21818120799435
8.248000000000001,0.9999900547374424,134.86343219619854
8.256,0.9999900015858405,134.50836216276738
8.264,0.9999899501443438,134.15296879040028
8.272,0.9999899004335759,133.79724976672065
8.280000000000001,0.9999898524734481,133.44120278436841
8.288,0.9999898062831598,133.08482554109312
8.296,0.9999897618811929,132.72811573984868
8.304,0.9999897192853124,132.37107108888955
8.312,0.999989678512562,132.01368930186828
8.32,0.9999896395792632,131.65596809793382
8.328,0.9999896025010132,131.2979052018323
8.336,0.9999895672926836,130.93949834400757
8.344,0.9999895339684175,130.58074526070513
8.352,0.9999895025416289,130.2216436940752
8.36,0.9999894730250022,129.86219139227927
8.368,0.9999894454304897,129.5023861095964
8.376,0.9999894197693114,129.142225606532
8.384,0.9999893960519532,128.78170764992737
8.392,0.999989374288168,128.42083001307122
8.4,0.9999893544869733,128.05959047581175
8.408,0.9999893366566522,127.69798682467149
8.416,0.9999893208047513,127.33601685296199
8.424,0.9999893069380834,126.97367836090154
8.432,0.9999892950627242,126.61096915573283
8.44,0.9999892851840153,126.2478870518436
8.448,0.9999892773065632,125.88442987088713
8.456,0.9999892714342395,125.520595441906
8.464,0.9999892675701827,125.15638160145542
8.472,0.9999892657167974,124.79178619372989
8.48,0.9999892658757564,124.42680707068973
8.488,0.9999892680480016,124.06144209219053
8.496,0.9999892722337441,123.6956891261128
8.504,0.9999892784324674,123.32954604849442
8.512,0.9999892866429273,122.9630107436632
8.52,0.9999892968631535,122.59608110437256
8.528,0.9999893090904532,122.22875503193706
8.536,0.9999893233214102,121.86103043637098
8.544,0.9999893395518897,121.49290523652718
8.552,0.999989357777039,121.12437736023858
8.56,0.999989377991289,120.75544474446012
8.568,0.9999894001883591,120.38610533541335
8.576,0.9999894243612576,120.01635708873148
8.584,0.999989450502286,119.64619796960717
8.592,0.9999894786030409,119.2756259529404
8.6,0.9999895086544169,118.90463902348958
8.608,0.9999895406466112,118.53323517602266
8.616,0.9999895745691252,118.16141241547103
8.624,0.9999896104107688,117.78916875708407
8.632,0.9999896481596651,117.41650222658583
8.64,0.9999896878032514,117.04341086033297
8.648,0.9999897293282861,116.66989270547458
8.656,0.9999897727208505,116.29594582011296
8.664,0.9999898179663544,115.92156827346692
8.672,0.9999898650495397,115.54675814603536
8.68,0.999989913954485,115.17151352976394
8.688,0.9999899646646109,114.79583252821158
8.696,0.9999900171626832,114.41971325672034
8.704,0.9999900714308195,114.04315384258513
8.712,0.9999901274504931,113.66615242522647
8.72,0.9999901852025387,113.2887071563634
8.728,0.9999902446671579,112.91081620018934
8.736,0.9999903058239236,112.53247773354813
8.744,0.9999903686517869,112.15368994611283
8.752,0.9999904331290826,111.77445104056491
8.76,0.9999904992335343,111.39475923277612
8.768,0.999990566942261,111.01461275199065
8.776,0.9999906362317831,110.63400984101007
8.784,0.9999907070780294,110.25294875637847
8.792,0.9999907794563422,109.87142776857048
8.8,0.9999908533414854,109.48944516217931
8.808,0.9999909287076498,109.1069992361077
8.815999999999999,0.9999910055284614,108.72408830375916
8.824,0.999991083776987,108.34071069323129
8.832,0.9999911634257422,107.95686474751068
8.84,0.999991244446699,107.5725488246688
8.847999999999999,0.9999913268112925,107.18776129805936
8.856,0.9999914104904283,106.80250055651742
8.864,0.999991495454491,106.41676500455984
8.872,0.9999915816733518,106.0305530625869
8.879999999999999,0.9999916691163762,105.6438631670853
8.888,0.9999917577524322,105.2566937708326
8.896,0.9999918475498989,104.86904334310339
8.904,0.9999919384766744,104.48091036987624
8.911999999999999,0.9999920305001848,104.09229335404198
8.92,0.9999921235873921,103.70319081561362
8.928,0.9999922177048041,103.31360129193762
8.936,0.9999923128184827,102.92352333790603
8.943999999999999,0.9999924088940526,102.53295552616993
8.952,0.999992505896711,102.1418964473543
8.96,0.9999926037912377,101.75034471027432
8.968,0.9999927025420022,101.35829894215232
8.975999999999999,0.9999928021129766,100.96575778883599
8.984,0.9999929024677418,100.57271991501811
8.992,0.9999930035694999,100.17918400445727
9.0,0.9999931053810838,99.78514876019946
9.008,0.999993207864966,99.39061290480073
9.016,0.9999933109832703,98.99557518055121
9.024000000000001,0.9999934146977815,98.60003434970011
9.032,0.9999935189699556,98.20398919468145
9.04,0.999993623760931,97.80743851834079
9.048,0.9999937290315394,97.4103811441631
9.056000000000001,0.9999938347423153,97.01281591650167
9.064,0.999993940853509,96.61474170080756
9.072,0.9999940473250958,96.2161573838598
9.08,0.9999941541167887,95.8170618739969
9.088000000000001,0.9999942611880482,95.41745410134907
9.096,0.9999943684980952,95.01733301807073
9.104,0.9999944760059225,94.61669759857408
9.112,0.9999945836703048,94.21554683976336
9.120000000000001,0.9999946914498126,93.81387976127
9.128,0.9999947993028222,93.4116954056879
9.136,0.9999949071875289,93.00899283880935
9.144,0.9999950150619599,92.6057711498619
9.152000000000001,0.9999951228839836,92.20202945174562
9.16,0.9999952306113253,91.79776688127058
9.168,0.999995338201577,91.3929825993947
9.176,0.9999954456122119,90.98767579146241
9.184000000000001,0.9999955528005948,90.58184566744355
9.192,0.9999956597239975,90.17549146217227
9.2,0.9999957663396095,89.76861243558633
9.208,0.9999958726045515,89.36120787296669
9.216000000000001,0.9999959784758882,88.95327708517742
9.224,0.9999960839106431,88.5448194089056
9.232,0.9999961888658083,88.13583420690078
9.24,0.9999962932983604,87.72632086821541
9.248000000000001,0.9999963971652734,87.31627880844475
9.256,0.9999965004235316,86.90570746996673
9.264,0.9999966030301427,86.4946063221815
9.272,0.9999967049421519,86.08297486175115
9.280000000000001,0.9999968061166561,85.6708126128394
9.288,0.9999969065108166,85.25811912735043
9.296,0.999997006081873,84.84489398516752
9.304,0.9999971047871571,84.4311367943916
9.312000000000001,0.9999972025841071,84.01684719157957
9.32,0.9999972994302813,83.60202484198132
9.328,0.9999973952833718,83.18666943977671
9.336,0.9999974901012192,82.77078070831195
9.344,0.9999975838418256,82.35435840033557
9.352,0.9999976764633691,81.93740229823277
9.36,0.9999977679242198,81.51991221426015
9.368,0.9999978581829508,81.10188799077844
9.376,0.9999979471983546,80.68332950048554
9.384,0.9999980349294567,80.26423664664722
9.392,0.9999981213355297,79.84460936332823
9.4,0.9999982063761081,79.42444761562088
9.408,0.9999982900110023,79.00375139987386
9.416,0.999998372200313,78.58252074391848
9.424,0.9999984529044458,78.16075570729492
9.432,0.9999985320841246,77.73845638147577
9.44,0.9999986097004072,77.31562289008954
9.448,0.9999986857146993,76.89225538914127
9.456,0.9999987600887679,76.46835406723301
9.464,0.9999988327847574,76.04391914578109
9.472,0.9999989037652021,75.61895087923335
9.48,0.9999989729930416,75.19344955528295
9.488,0.999999040431635,74.76741549508189
9.496,0.9999991060447755,74.34084905345102
9.504,0.999999169796703,73.91375061908973
9.512,0.9999992316521206,73.48612061478183
9.52,0.9999992915762066,73.057959497601
9.528,0.9999993495346311,72.6292677591124
9.536,0.9999994054935671,72.20004592557342
9.544,0.9999994594197067,71.77029455813074
9.552,0.9999995112802749,71.34001425301634
