freq,mag,phase
6.0,0.999996293490878,69.11555601520291
6.008,0.9999939868804436,68.89783995920573
6.016,0.999991711541357,68.67985032455223
6.024,0.9999894673875005,68.46158714340785
6.032,0.9999872543308915,68.2430504532449
6.04,0.999985072281694,68.02424029687462
6.048,0.9999829211482275,67.805156722479
6.056,0.9999808008369809,67.58579978364273
6.064,0.999978711252622,67.36616953938496
6.072,0.9999766522980092,67.14626605419105
6.08,0.999974623874204,66.92608939804428
6.088,0.9999726258804806,66.70563964645744
6.096,0.9999706582143398,66.48491688050436
6.104,0.9999687207715199,66.26392118685143
6.112,0.9999668134460079,66.04265265778899
6.12,0.9999649361300532,65.82111139126256
6.128,0.9999630887141783,65.59929749090419
6.136,0.9999612710871922,65.37721106606352
6.144,0.9999594831362016,65.15485223183887
6.152,0.9999577247466254,64.93222110910818
6.16,0.9999559958022047,64.70931782455989
6.168,0.9999542961850174,64.48614251072361
6.176,0.9999526257754909,64.2626953060009
6.184,0.9999509844524148,64.0389763546957
6.192,0.9999493720929531,63.81498580704485
6.2,0.9999477885726595,63.59072381924827
6.208,0.9999462337654883,63.366190553499244
6.216,0.9999447075438095,63.14138617801445
6.224,0.999943209778422,62.916310867063935
6.232,0.9999417403385671,62.69096480100077
6.24,0.9999402990919416,62.46534816629087
6.248,0.9999388859047135,62.23946115554251
6.256,0.9999375006415339,62.01330396753551
6.264,0.9999361431655525,61.78687680725071
6.272,0.9999348133384314,61.56017988589882
6.28,0.9999335110203593,61.333213420949484
6.288,0.9999322360700662,61.10597763616002
6.296,0.999930988344838,60.8784727616039
6.304,0.9999297677005307,60.65069903369927
6.312,0.9999285739915857,60.42265669523716
6.32,0.9999274070710449,60.19434599540955
6.328,0.999926266790565,59.96576718983724
6.336,0.9999251530004323,59.73692054059755
6.344,0.9999240655495805,59.507806316251894
6.352,0.9999230042856022,59.27842479187294
6.36,0.9999219690547676,59.04877624907192
6.368,0.9999209597020384,58.81886097602534
6.376,0.9999199760710837,58.588679267501796
6.384,0.9999190180042964,58.35823142488845
6.392,0.9999180853428083,58.12751775621727
6.4,0.9999171779265067,57.896538576191105
6.408,0.9999162955940505,57.6652942062095
6.416,0.999915438182886,57.43378497439429
6.424,0.999914605529263,57.20201121561493
6.432,0.9999137974682526,56.96997327151366
6.44,0.9999130138337625,56.7376714905304
6.448,0.9999122544585535,56.5051062279273
6.456,0.9999115191742574,56.27227784581316
6.464,0.9999108078113929,56.039186713167574
6.472,0.9999101201993823,55.805833205864786
6.48,0.9999094561665707,55.5722177066972
6.4879999999999995,0.9999088155402397,55.338340605398855
6.496,0.9999081981466275,55.10420229866825
6.504,0.9999076038109451,54.869803190191455
6.5120000000000005,0.9999070323573941,54.63514369066414
6.52,0.9999064836091839,54.40022421781428
6.5280000000000005,0.999905957388549,54.16504519642351
6.536,0.9999054535167686,53.929607058349305
6.5440000000000005,0.9999049718141819,53.69391024254574
6.552,0.9999045121002078,53.45795519508494
6.5600000000000005,0.9999040741933624,53.22174236917736
6.568,0.9999036579112767,52.985272225192595
6.5760000000000005,0.9999032630707159,52.74854523067893
6.584,0.9999028894875964,52.51156186038356
6.592,0.9999025369770048,52.27432259627152
6.6,0.9999022053532168,52.03682792754508
6.608,0.9999018944297152,51.799078350662334
6.616,0.9999016040192085,51.56107436935557
6.624,0.9999013339336497,51.32281649464928
6.632,0.9999010839842556,51.08430524487789
6.64,0.9999008539815246,50.84554114570305
6.648,0.9999006437352576,50.60652473013056
6.656,0.9999004530545743,50.367256538526966
6.664,0.9999002817479348,50.12773711863581
6.672,0.9999001296231578,49.88796702559342
6.68,0.9998999964874393,49.6479468219444
6.688,0.9998998821473731,49.40767707765671
6.696,0.9998997864089693,49.16715837013631
6.704,0.9998997090776743,48.92639128424148
6.712,0.9998996499583895,48.68537641229672
6.72,0.9998996088554933,48.44411435410618
6.728,0.9998995855728573,48.20260571696684
6.736,0.9998995799138684,47.960851115681066
6.744,0.9998995916814478,47.718851172568954
6.752,0.9998996206780715,47.47660651748012
6.76,0.9998996667057896,47.23411778780509
6.768,0.9998997295662458,46.99138562848631
6.776,0.999899809060699,46.74841069202868
6.784,0.9998999049900414,46.505193638509645
6.792,0.9999000171548206,46.26173513558886
6.8,0.9999001453552582,46.01803585851745
6.808,0.9999002893912705,45.774096490146675
6.816,0.999900449062489,45.52991772093633
6.824,0.9999006241682811,45.285500248962556
6.832,0.9999008145077688,45.0408447799252
6.84,0.9999010198798511,44.79595202715482
6.848,0.999901240083223,44.55082271161899
6.856,0.9999014749163964,44.30545756192841
6.864,0.9999017241777208,44.05985731434228
6.872,0.9999019876654035,43.81402271277341
6.88,0.9999022651775294,43.567954508792624
6.888,0.9999025565120839,43.32165346163286
6.896,0.9999028614669706,43.075120338192676
6.904,0.9999031798400334,42.828355913039246
6.912,0.9999035114290775,42.58136096841096
6.92,0.9999038560318886,42.33413629421931
6.928,0.9999042134462554,42.08668268805059
6.936,0.9999045834699878,41.83900095516661
6.944,0.99990496590094,41.591091908505454
6.952,0.9999053605370298,41.342956368681236
6.96,0.9999057671762596,41.094595163983584
6.968,0.9999061856167366,40.84600913037651
6.976,0.9999066156566941,40.59719911149682
6.984,0.999907057094512,40.34816595865185
6.992,0.9999075097287375,40.0989105308168
7.0,0.9999079733581051,39.84943369463153
7.008,0.9999084477815584,39.59973632439658
7.016,0.9999089327982689,39.34981930206902
7.024,0.9999094282076583,39.09968351725737
7.032,0.9999099338094187,38.849329867216206
7.04,0.9999104494035326,38.59875925684017
7.048,0.9999109747902934,38.347972598657286
7.056,0.9999115097703267,38.096970812821866
7.064,0.9999120541446096,37.845754827106816
7.072,0.9999126077144924,37.59432557689525
7.08,0.9999131702817178,37.34268400517173
7.088,0.9999137416484419,37.09083106251275
7.096,0.9999143216172544,36.838767707076705
7.104,0.9999149099911985,36.58649490459335
7.112,0.9999155065737924,36.3340136283526
7.12,0.9999161111690468,36.081324859192705
7.128,0.9999167235814883,35.828429585487925
7.136,0.9999173436161765,35.57532880313556
7.144,0.9999179710787256,35.322023515542476
7.152,0.9999186057753245,35.06851473361083
7.16,0.9999192475127562,34.81480347572343
7.168,0.9999198960984161,34.560890767728324
7.176,0.9999205513403349,34.30677764292299
7.184,0.999921213047195,34.05246514203764
7.192,0.9999218810283522,33.79795431321814
7.2,0.9999225550938546,33.54324621200827
7.208,0.9999232350544616,33.288341901331286
7.216,0.9999239207216631,33.0332424514711
7.224,0.9999246119077,32.777948940052454
7.232,0.9999253084255815,32.522462452020974
7.24,0.9999260100891055,32.2667840796222
7.248,0.9999267167128768,32.010914922380174
7.256,0.9999274281123265,31.75485608707544
7.264,0.9999281441037299,31.498608687722424
7.272,0.9999288645042261,31.242173845545974
7.28,0.9999295891318357,30.98555268895768
7.288,0.9999303178054797,30.728746353531204
7.296,0.999931050344997,30.471755981977193
7.304,0.9999317865711642,30.214582724117538
7.312,0.9999325263057117,29.95722773685895
7.32,0.9999332693713422,29.69969218416598
7.328,0.9999340155917497,29.44197723703335
7.336,0.9999347647916353,29.184084073457743
7.344,0.9999355167967261,28.92601387840897
7.352,0.9999362714337916,28.667767843800327
7.36,0.9999370285306618,28.409347168458627
7.368,0.9999377879162434,28.150753058093407
7.376,0.9999385494205378,27.891986725265483
7.384,0.9999393128746563,27.63304938935509
7.392,0.9999400781108387,27.373942276529196
7.4,0.9999408449624687,27.114666619708256
7.4079999999999995,0.9999416132640893,26.85522365853246
7.416,0.999942382851421,26.595614639327007
7.4239999999999995,0.9999431535613765,26.335840815067453
7.432,0.9999439252320769,26.07590344534347
7.4399999999999995,0.9999446977028668,25.815803796323042
7.448,0.9999454708143307,25.555543140715
7.4559999999999995,0.999946244408308,25.295122757731992
7.464,0.9999470183279073,25.034543933051793
7.4719999999999995,0.9999477924175227,24.773807958778995
7.48,0.9999485665228479,24.512916133405174
7.4879999999999995,0.9999493404908906,24.251869761769306
7.496,0.9999501141699868,23.990670155016712
7.504,0.9999508874098159,23.72931863055831
7.5120000000000005,0.9999516600614137,23.467816512028314
7.52,0.999952431977187,23.20616512924227
7.5280000000000005,0.9999532030109265,22.944365818153592
7.536,0.9999539730178205,22.682419920810368
7.5440000000000005,0.9999547418544686,22.4203287853107
7.552,0.9999555093788937,22.15809376575837
7.5600000000000005,0.9999562754505558,21.895716222216937
7.568,0.9999570399303638,21.633197520664254
7.5760000000000005,0.9999578026806881,21.37053903294541
7.584,0.9999585635653735,21.107742136726035
7.5920000000000005,0.9999593224497493,20.844808215444147
7.6,0.9999600792006433,20.58173865826221
7.6080000000000005,0.9999608336863914,20.31853486001792
7.616,0.9999615857768499,20.055198221175083
7.6240000000000006,0.9999623353434058,19.79173014777324
7.632,0.9999630822589887,19.52813205137747
7.640000000000001,0.9999638263980798,19.26440534902686
7.648,0.9999645676367237,19.000551463183207
7.656000000000001,0.9999653058525377,18.736571821678353
7.664,0.9999660409247219,18.47246785766182
7.672,0.999966772734068,18.208241009547063
7.68,0.9999675011629707,17.94389272095789
7.688,0.9999682260954347,17.679424440673916
7.696,0.9999689474170844,17.41483762257564
7.704,0.9999696650151721,17.150133725588972
7.712,0.9999703787785883,16.88531421362923
7.72,0.9999710885978663,16.62038055554464
7.728,0.9999717943651933,16.35533422505929
7.736,0.9999724959744172,16.0901767007156
7.744,0.9999731933210523,15.824909465816301
7.752,0.999973886302288,15.559534008365878
7.76,0.999974574816996,15.29405182101152
7.768,0.9999752587657356,15.028464400983628
7.776,0.9999759380507601,14.762773250035815
7.784,0.9999766125760244,14.496979874384365
7.792,0.9999772822471892,14.231085784647359
7.8,0.9999779469716266,13.96509249578319
7.808,0.9999786066584264,13.699001527028692
7.816,0.9999792612184,13.432814401836817
7.824,0.9999799105640854,13.166532647813836
7.832,0.9999805546097529,12.90015779665607
7.84,0.999981193271407,12.633691384086275
7.848,0.9999818264667917,12.367134949789493
7.856,0.9999824541153941,12.100490037348523
7.864,0.9999830761384474,11.83375819417899
7.872,0.999983692458934,11.566940971463964
7.88,0.999984303001589,11.300039924088168
7.888,0.9999849076929012,11.03305661057185
7.896,0.9999855064611165,10.765992593004167
7.904,0.99998609923624,10.498849436976256
7.912,0.999986685950037,10.231628711513888
7.92,0.9999872665360343,9.96433198900975
7.928,0.9999878409295228,9.696960845155381
7.936,0.9999884090675557,9.429516858872713
7.944,0.999988970888952,9.162001612245293
7.952,0.9999895263342947,8.894416690449136
7.96,0.9999900753459319,8.626763681683236
7.968,0.9999906178679753,8.359044177099786
7.976,0.9999911538463014,8.091259770734004
7.984,0.9999916832285497,7.823412059433696
7.992,0.999992205964121,7.555502642788496
8.0,0.9999927220041765,7.2875331230587985
8.008,0.9999932313016376,7.01950510510441
8.016,0.9999937338111816,6.751420196312774
8.024000000000001,0.9999942294892402,6.483280006527292
8.032,0.9999947182939979,6.215086147974988
8.04,0.999995200185388,5.946840235193909
8.048,0.999995675125091,5.678543884960522
8.056000000000001,0.9999961430765297,5.410198716216881
8.064,0.9999966040048663,5.14180634999727
8.072,0.9999970578769987,4.873368409354658
8.08,0.9999975046615556,4.6048865192871355
8.088000000000001,0.9999979443288932,4.336362306664154
8.096,0.9999983768510895,4.067797400152307
8.104,0.9999988022019397,3.79919343014092
8.112,0.9999992203569508,3.5305520286676795
8.120000000000001,0.9999996312933366,3.26187482934407
8.128,0.9999999999999999,2.9931634672804215
8.136,1.0,2.724419579010766
8.144,1.0,2.4556448024177837
8.152000000000001,1.0,2.18684077665759
8.16,0.9999999999999999,1.9180091420841572
8.168,1.0,1.6491515401735908
8.176,0.9999999999999999,1.3802696134485155
8.184000000000001,1.0,1.1113650054023554
8.192,1.0,0.8424393604232547
8.2,1.0,0.5734943237179111
8.208,1.0,0.3045315412355495
8.216000000000001,1.0,0.0355526595918141
8.224,0.9999999999999999,-0.23344067400766266
8.232,0.9999999999999998,-0.5024468118437294
8.24,1.0,-0.7714641057600374
8.248000000000001,1.0,-1.0404909072393789
8.256,1.0,-1.3095255674803445
8.264,0.9999999999999998,-1.5785664374739448
8.272,1.0,-1.8476118680801004
8.280000000000001,1.0,-2.116660210104074
8.288,1.0,-2.385709814373189
8.296,0.9999999999999999,-2.6547590318135224
8.304,0.9999999999999999,-2.923806213526359
8.312,0.9999999999999999,-3.192849710864557
8.32,0.9999999999999999,-3.4618878755094844
8.328,0.9999999999999999,-3.7309190595470256
8.336,0.9999999999999999,-3.999941615544497
8.344,1.0,-4.268953896626518
8.352,1.0,-4.537954256551849
8.36,0.9999999999999999,-4.806941049789122
8.368,0.9999999999999999,-5.075912631593482
8.376,1.0,-5.34486735808219
8.384,1.0,-5.613803586311059
8.392,1.0,-5.882719674349848
8.4,0.9999999999999999,-6.15161398135849
8.408,0.9999999999999999,-6.420484867662236
8.416,1.0,-6.6893306948276186
8.424,1.0,-6.958149825737346
8.432,1.0,-7.2269406246659535
8.44,1.0,-7.4957014573543885
8.448,1.0,-7.764430691085369
8.456,1.0,-8.033126694757593
8.464,1.0,-8.301787838960765
8.472,0.9999999999999999,-8.570412496049407
8.48,1.0,-8.838999040217516
8.488,1.0,-9.10754584757197
8.496,1.0,-9.376051296206748
8.504,0.9999999999999999,-9.644513766275916
8.512,0.9999999999999999,-9.912931640067365
8.52,1.0,-10.181303302075353
8.528,1.0,-10.449627139073748
8.536,0.9999999999999999,-10.717901540188064
8.544,1.0,-10.986124896968189
8.552,0.9999999999999998,-11.254295603459882
8.56,1.0,-11.522412056276961
8.568,0.9999999999999999,-11.790472654672248
8.576,0.9999999999999999,-12.05847580060914
8.584,0.9999999999999999,-12.32641989883198
8.592,0.9999999999999999,-12.594303356937042
8.6,1.0000000000000002,-12.862124585442237
8.608,1.0,-13.12988199785749
8.616,1.0,-13.397574010753768
8.624,1.0,-13.665199043832798
8.632,0.9999999999999999,-13.932755519995437
8.64,1.0,-14.200241865410662
8.648,0.9999999999999999,-14.467656509583236
8.656,0.9999999999999999,-14.734997885421965
8.664,1.0,-15.002264429306669
8.672,0.9999999999999999,-15.269454581155632
8.68,1.0,-15.536566784491834
8.688,0.9999999999999999,-15.803599486509638
8.696,1.0,-16.070551138140196
8.704,1.0,-16.337420194117364
8.712,0.9999999999999999,-16.60420511304225
8.72,0.9999999999999999,-16.870904357448346
8.728,1.0,-17.1375163938652
8.736,1.0,-17.404039692882726
8.744,1.0,-17.670472729213984
8.752,1.0,-17.936813981758572
8.76,1.0,-18.203061933664618
8.768,0.9999999999999999,-18.46921507239118
8.776,1.0,-18.735271889769358
8.784,1.0,-19.001230882063776
8.792,0.9999999999999998,-19.267090550032727
8.8,1.0,-19.53284939898876
8.808,1.0,-19.798505938857815
8.815999999999999,1.0,-20.064058684238812
8.824,1.0,-20.329506154462095
8.832,1.0,-20.59484687364751
8.84,1.0,-20.860079370762115
8.847999999999999,1.0000000000000002,-21.125202179677515
8.856,0.9999999999999998,-21.390213839226348
8.864,1.0,-21.65511289325828
8.872,1.0,-21.919897890695736
8.879999999999999,1.0,-22.184567385589084
8.888,0.9999999999999999,-22.44911993717108
8.896,0.9999999999999999,-22.713554109910742
8.904,1.0,-22.97786847356697
8.911999999999999,1.0,-23.242061603241567
8.92,0.9999999999999999,-23.50613207943152
8.928,1.0,-23.770078488080724
8.936,1.0,-24.033899420631418
8.943999999999999,1.0,-24.297593474074926
8.952,1.0,-24.56115925100185
8.96,0.9999999999999999,-24.82459535965145
8.968,1.0000000000000002,-25.087900413960842
8.975999999999999,1.0,-25.351073033613563
8.984,1.0,-25.614111844087375
8.992,1.0,-25.877015476701448
9.0,1.0,-26.139782568663193
9.008,1.0,-26.4024117631146
9.016,1.0,-26.6649017091776
9.024000000000001,1.0000000000000002,-26.927251061999005
9.032,1.0,-27.18945848279497
9.04,1.0,-27.451522638894975
9.048,1.0,-27.713442203784812
9.056000000000001,1.0,-27.975215857149177
9.064,0.9999999999999999,-28.236842284913735
9.072,0.9999999999999999,-28.498320179286672
9.08,1.0,-28.759648238799365
9.088000000000001,0.9999999999999999,-29.02082516834649
9.096,1.0,-29.281849679225715
9.104,1.0,-29.542720489176798
9.112,1.0,-29.80343632241986
9.120000000000001,1.0,-30.063995909693055
9.128,1.0,-30.324397988289753
9.136,1.0,-30.584641302095353
9.144,1.0,-30.844724601622914
9.152000000000001,0.9999999999999999,-31.104646644048486
9.16,0.9999999999999999,-31.364406193245827
9.168,1.0,-31.624002019820665
9.176,0.9999999999999999,-31.883432901144023
9.184000000000001,1.0,-32.14269762138492
9.192,0.9999998289459238,-32.40179497154272
9.2,0.999999603357474,-32.66072374947884
9.208,0.999999377914631,-32.9194827599477
9.216000000000001,0.9999991526954515,-33.17807081462681
9.224,0.9999989277775309,-33.436486732146776
9.232,0.99999870323799,-33.694729338120496
9.24,0.9999984791534595,-33.95279746517149
9.248000000000001,0.9999982556000645,-34.21068995296178
9.256,0.9999980326534107,-34.46840564821915
9.264,0.9999978103885697,-34.725943404763996
9.272,0.9999975888800657,-34.98330208353521
9.280000000000001,0.9999973682018598,-35.240480552615445
9.288,0.9999971484273378,-35.49747768725608
9.296,0.9999969296292948,-35.75429236990146
9.304,0.999996711879923,-36.01092349021239
9.312000000000001,0.9999964952507978,-36.267369945088895
9.32,0.999996279812865,-36.52363063869275
9.328,0.9999960656364268,-36.779704482469235
9.336,0.9999958527911297,-37.035590395168164
9.344,0.999995641345952,-37.29128730286426
9.352,0.999995431369191,-37.546794138977326
9.36,0.9999952229284506,-37.80210984429116
9.368,0.9999950160906294,-38.05723336697265
9.376,0.9999948109219086,-38.31216366258941
9.384,0.9999946074877407,-38.56689969412765
9.392,0.9999944058528376,-38.821440432008636
9.4,0.9999942060811592,-39.07578485410539
9.408,0.9999940082359021,-39.3299319457579
9.416,0.9999938123794895,-39.58388069978867
9.424,0.9999936185735593,-39.83763011651669
9.432,0.999993426878954,-40.09117920377181
9.44,0.9999932373557106,-40.34452697690761
9.448,0.9999930500630503,-40.597672458814515
9.456,0.9999928650593684,-40.850614679931496
9.464,0.999992682402224,-41.103352678258005
9.472,0.9999925021483316,-41.35588549936461
9.48,0.9999923243535506,-41.60821219640375
9.488,0.9999921490728771,-41.86033183011903
9.496,0.9999919763604337,-42.11224346885503
9.504,0.9999918062694623,-42.3639461885655
9.512,0.9999916388523142,-42.61543907282186
9.52,0.9999914741604427,-42.866721212820266
9.528,0.9999913122443934,-43.11779170738919
9.536,0.9999911531537989,-43.36864966299521
9.544,0.9999909969373684,-43.61929419374944
9.552,0.9999908436428822,-43.86972442141234
9.56,0.9999906933171819,-44.11993947539894
9.568,0.999990546006167,-44.36993849278263
9.576,0.9999904017547842,-44.61972061829926
9.584,0.9999902606070231,-44.86928500434987
9.592,0.9999901226059091,-45.118630811003676
9.6,0.9999899877934966,-45.36775720599976
9.608,0.9999898562108634,-45.616663364748995
9.616,0.9999897278981051,-45.86534847033471
9.624,0.9999896028943294,-46.11381171351351
9.632,0.9999894812376495,-46.362052292714914
9.64,0.9999893629651807,-46.61006941404119
9.648,0.999989248113034,-46.857862291265945
9.656,0.9999891367163123,-47.105430145832905
9.664,0.9999890288091045,-47.352772206853544
9.672,0.9999889244244827,-47.599887711104834
9.68,0.9999888235944971,-47.84677590302588
9.688,0.999988726350172,-48.09343603471474
9.696,0.9999886327215023,-48.339867365923986
9.704,0.9999885427374496,-48.58606916405662
9.712,0.99998845642594,-48.832040704160654
9.72,0.9999883738138594,-49.077781268924056
9.728,0.9999882949270517,-49.32329014866844
9.736,0.9999882197903154,-49.568566641343
9.744,0.9999881484274019,-49.81361005251729
9.752,0.9999880808610125,-50.058419695374305
9.76,0.9999880171127965,-50.30299489070224
9.768,0.9999879572033495,-50.54733496688671
9.776,0.9999879011522114,-50.79143925990169
9.784,0.9999878489778649,-51.03530711330075
9.792,0.9999878006977357,-51.278937878207095
