freq,mag,phase
6.0,0.9997369383356799,12.140935956106283
6.007174656,0.9997112630158491,11.941601440907863
6.014349824,0.9997023611449272,11.742456395861685
6.02152448,0.9997099691454628,11.543342003100294
6.028699648,0.9997334702863429,11.343987048740054
6.035874304,0.9997717054350023,11.14420770061588
6.043049472,0.9998225447717196,10.943841819426414
6.050224128,0.9998832109433012,10.742700933581064
6.057399296,0.999950212355275,10.540639855226814
6.064573952,1.0000199579893017,10.33771510068589
6.07174912,1.000088635995393,10.133777671055892
6.078923776,1.0001521954431738,9.92900060108011
6.086098432,1.0002072539926004,9.723346427570636
6.0932736,1.0002508866193216,9.517031019236857
6.100448256,1.000280365482476,9.310228984247086
6.107623424,1.0002942975387799,9.10308779248663
6.11479808,1.0002917634959023,8.895852753375234
6.121973248,1.0002728702233652,8.688792504637876
6.129147904,1.0002386449913472,8.482069812068294
6.136323072,1.0001910625203363,8.275882367888066
6.143497728,1.000132719699815,8.070385324257042
6.150672896,1.0000667397481695,7.865746256395329
6.157847552,0.9999969257505926,7.662007536129803
6.165022208,0.9999269509182195,7.459241467106954
6.172197376,0.9998608894414743,7.257360266581713
6.179372032,0.9998024090250359,7.056359102951083
6.1865472,0.9997545375359569,6.856016053835615
6.193721856,0.9997202569359731,6.656268341494636
6.200897024,0.9997012904674779,6.4568352148000425
6.20807168,0.9996986068798799,6.257570910931726
6.215246848,0.9997127057716753,6.058219296653208
6.222421504,0.9997425764329708,5.858549376736925
6.22959616,0.9997866703436745,5.658366245348606
6.236771328,0.9998423710291404,5.457486359219532
6.243945984,0.999906924855416,5.255870861942725
6.251121152,0.9999764309718092,5.053271121209771
6.258295808,1.0000472529412707,4.849692741693675
6.265470976,1.0001153600410073,4.645155557370088
6.272645632,1.00017694772435,4.4397576152445515
6.2798208,1.0002287455372432,4.233563097018339
6.286995456,1.0002676582744445,4.026740404578157
6.294170624,1.0002916670434607,3.8194928748041974
6.30134528,1.0002994112681407,3.612016492731609
6.308519936,1.0002902608402653,3.40451086121321
6.315695104,1.0002649423299188,3.197272685286697
6.32286976,1.000224621685966,2.990444978618439
6.330044928,1.00017186081108,2.7842434348326113
6.337219584,1.0001092195119798,2.578801879458196
6.344394752,1.0000402550834948,2.374280617522849
6.351569408,0.9999688912385474,2.1706462442545207
6.358744576,0.9998990467973242,1.968045512844052
6.365919232,0.9998345268316468,1.7662618766576568
6.3730944,0.9997789454858607,1.5653187804998705
6.380269056,0.9997354768017406,1.3650563312640718
6.387443712,0.9997064216931287,1.165264099472177
6.39461888,0.9996934851119094,0.965759306432705
6.401793536,0.9996974566506618,0.7663305208559297
6.408968704,0.9997180956758667,0.566710829379911
6.41614336,0.999754221298272,0.366696122301433
6.423318528,0.9998038087418188,0.16606654778620983
6.430493184,0.9998642314842348,-0.0352920356456822
6.437668352,0.999932179987565,-0.23753557790912966
6.444843008,1.0000037798568693,-0.4407583901546725
6.452018176,1.0000750432920504,-0.6449616496007705
6.459192832,1.0001421415075213,-0.8500677417477234
6.466367488,1.0002011337831929,-1.0560828975690308
6.473542656,1.0002488961194067,-1.2628099931276335
6.480717312,1.000282830720706,-1.4701424911233556
6.48789248,1.0003009299524848,-1.6777846789593813
6.495067136,1.0003021993570234,-1.8855734718057229
6.502242304,1.000286414577093,-2.093311756292873
6.50941696,1.000254679119903,-2.300727894449789
6.516592128,1.0002085523519246,-2.5076130023437133
6.523766784,1.000150659370756,-2.713811879395425
6.530941952,1.0000841559523805,-2.9192046930904976
6.538116608,1.0000126718682996,-3.1236346092170693
6.545291264,0.9999403876190017,-3.3271112045997673
6.552466432,0.9998710009761581,-3.5296335153709593
6.559641088,0.9998086432723197,-3.7312632893513333
6.566816256,0.9997565453392717,-3.9320918417035378
6.573990912,0.9997178185571592,-4.1323790836613075
6.58116608,0.9996945070868704,-4.332204721058644
6.588340736,0.9996881044312975,-4.531839190664302
6.595515904,0.9996986286946917,-4.731519197124352
6.60269056,0.9997258219422468,-4.931457772239627
6.609865216,0.9997681812618758,-5.131841780362185
6.617040384,0.9998233035543197,-5.332939346848513
6.62421504,0.9998879336131523,-5.5348664168906945
6.631390208,0.9999588340364896,-5.7377004164721495
6.638564864,1.0000319895886032,-5.941543754667587
6.645740032,1.0001031381918821,-6.146356564413441
6.652914688,1.0001684753765572,-6.352095722792192
6.660089856,1.000224508609015,-6.558702474214094
6.667264512,1.000267882176012,-6.76596232629531
6.67443968,1.000296217735831,-6.9737532360029695
6.681614336,1.000308029987398,-7.181829433858345
6.688788992,1.0003026213164123,-7.389924236121973
6.69596416,1.0002801103961156,-7.597893543794823
6.703138816,1.0002420077682515,-7.805411328952528
6.710313984,1.0001900905717076,-8.012366355358088
6.71748864,1.0001275725273584,-8.218534496016277
6.724663808,1.0000575402128833,-8.423801618828525
6.731838464,0.9999841482449475,-8.628169193147954
6.739013632,0.9999112666852837,-8.83148565212573
6.746188288,0.9998432230287843,-9.03386142721492
6.753363456,0.9997834830395111,-9.235409106973428
6.760538112,0.9997355929381981,-9.436173051249913
6.767712768,0.9997021751938248,-9.636429962984563
6.774887936,0.9996849945830186,-9.83638825737165
6.782062592,0.999685010658551,-10.036173435307846
6.78923776,0.9997024714777962,-10.236135745314897
6.796412416,0.9997362260877437,-10.436408144175132
6.803587584,0.9997845565999381,-10.63727430713374
6.81076224,0.9998448652788533,-10.83886183848136
6.817937408,0.9999134399743974,-11.04135584982165
6.825112064,0.9999867619114162,-11.24479389069856
6.832287232,1.0000607062978144,-11.449282785287105
6.839461888,1.000131236240242,-11.654780384609207
6.846636544,1.0001944566290104,-11.86113973102596
6.853811712,1.0002467274474982,-12.068328006280758
6.860986368,1.0002851721220414,-12.276117237404945
6.868161536,1.0003076270103948,-12.484386738084849
6.875336192,1.0003128243734032,-12.692818542538973
6.88251136,1.0003005558575608,-12.901213064927237
6.889686016,1.0002713634646014,-13.109357569935757
6.896861184,1.0002269609860035,-13.316980086123914
6.90403584,1.000169631001391,-13.523973908500171
6.911211008,1.0001026741375918,-13.730058383757124
6.918385664,1.000029729249686,-13.935271374988588
6.92556032,0.9999547886360943,-14.139446341324348
6.932735488,0.9998821160020599,-14.342704018602234
6.939910144,0.999815763740259,-14.544931441082296
6.947085312,0.9997592683625312,-14.746375547096262
6.954259968,0.9997159470571584,-14.947153917204137
6.961435136,0.9996882521878595,-15.147440479408907
6.968609792,0.9996775682982473,-15.34748491429688
6.97578496,0.9996844945099574,-15.547501435517379
6.982959616,0.9997088381508705,-15.747733387653504
6.990134784,0.9997492062445471,-15.94844487295668
6.99730944,0.9998032409371755,-16.149783014248662
7.004484096,0.9998682749414048,-16.35193821202909
7.011659264,0.9999403884583017,-16.555020012285446
7.01883392,1.0000157099503744,-16.75912117357459
7.026009088,1.0000900000941295,-16.964287362354654
7.033183744,1.0001593219539806,-17.170378604534772
7.040358912,1.0002196841723823,-17.377437557856414
7.047533568,1.0002675881759353,-17.585179207412047
7.054708736,1.000300623899506,-17.79350646676241
7.061883392,1.000316846335252,-18.002178840339916
7.069058048,1.0003152759237854,-18.21095077805235
7.076233216,1.0002959810166236,-18.419628359024113
7.083407872,1.00025995321189,-18.627915923526974
7.09058304,1.0002094331020688,-18.83564433366455
7.097757696,1.0001469569292372,-19.042594224282222
7.104932864,1.0000759568419801,-19.24865876674296
7.11210752,1.0000007040214398,-19.453755906189123
7.119282688,0.9999248275935043,-19.657801800514807
7.126457344,0.9998529534460145,-19.86088095573893
7.133632512,0.9997890045776795,-20.06302014387298
7.140807168,0.9997363926982675,-20.264428697760458
7.147981824,0.9996982233224355,-20.465160450056754
7.155156992,0.9996765611768494,-20.665532353580637
7.162331648,0.9996726127002181,-20.86572846013296
7.169506816,0.9996866361312919,-21.06602152403632
7.176681472,0.9997178398556938,-21.266613677741496
7.18385664,0.9997646471152498,-21.46776318343564
7.191031296,0.9998243338260924,-21.669591695819488
7.198206464,0.9998937447514477,-21.872331195710018
7.20538112,0.9999687889528576,-22.076102902970664
7.212556288,1.0000456814158067,-22.280862542074846
7.219730944,1.000119685667663,-22.48667080200869
7.2269056,1.0001871054176734,-22.69344937822936
7.234080768,1.0002439446323792,-22.901111419738502
7.241255424,1.0002871671198186,-23.10945303865909
7.248430592,1.0003142512605852,-23.31825347535495
7.255605248,1.000323799841284,-23.52732990708094
7.262780416,1.0003151579407328,-23.736451024418535
7.269955072,1.0002887783944652,-23.945343308089946
7.27713024,1.0002461588234357,-24.153775255004398
7.284304896,1.0001897446310661,-24.36154222431737
7.291480064,1.0001222705320454,-24.56848852238765
7.29865472,1.000047871595509,-24.774480017784473
7.305829376,0.9999704735585825,-24.97943833640919
7.313004544,0.9998944485792917,-25.18337866329215
7.3201792,0.9998239366945754,-25.38633976272024
7.327354368,0.9997629050814637,-25.588390427242366
7.334529024,0.9997148140143601,-25.789730271990788
7.341704192,0.999682200660605,-25.990480719926758
7.348878848,0.9996670088896464,-26.190974831201622
7.356054016,0.9996701823720261,-26.391349893712572
7.363228672,0.9996915013351515,-26.591918155033582
7.37040384,0.9997295644433065,-26.792902138677004
7.377578496,0.9997826649356315,-26.994514896359874
7.384753152,0.9998476492306483,-27.196930487961396
7.39192832,0.9999209928001628,-27.400316648801528
7.399102976,0.9999985272798031,-27.604694953522667
7.406278144,1.0000760263102995,-27.810200480379
7.4134528,1.0001493770598622,-28.016696733495213
7.420627968,1.0002142516271868,-28.224139663096555
7.427802624,1.0002670913654697,-28.43240651714393
7.434977792,1.00030496216814,-28.641296859651536
7.442152448,1.0003258355592988,-28.850627484277684
7.449327104,1.0003283413490731,-29.060092981730683
7.456502272,1.0003122810531468,-29.269530985357694
7.463676928,1.000278915471154,-29.47857770422226
7.470852096,1.0002296944360254,-29.687151769726125
7.478026752,1.000167438543554,-29.89491195838309
7.48520192,1.0000956335777866,-30.10184082663474
7.492376576,1.0000182632001977,-30.307703297421853
7.499551744,0.9999395131077311,-30.512555292202883
7.5067264,0.9998637222046454,-30.7163690016852
7.513901568,0.9997952529459107,-30.919175684423504
7.521076224,0.9997378708283267,-31.12116363822743
7.52825088,0.9996948000110795,-31.32246268398649
7.535426048,0.9996682753575836,-31.523320157549154
7.542600704,0.9996599398104924,-31.723940511678965
7.549775872,0.999670482239315,-31.924550699336457
7.556950528,0.9996989518551301,-32.12546637931739
7.564125696,0.999744029011228,-32.32688673265773
7.571300352,0.9998030823367329,-32.52902931015666
7.57847552,0.9998731130805043,-32.732031830248765
7.585650176,0.9999499456053258,-32.936059063557614
7.592825344,1.0000293829597493,-33.14116734817534
7.6,1.0001071375128943,-33.34732648899069
7.607174656,1.0001789299917876,-33.554554432992624
7.614349824,1.0002406141676752,-33.76266254725521
7.62152448,1.0002887816546182,-33.971563145325334
7.628699648,1.0003208548455234,-34.181018667325354
7.635874304,1.0003348730555703,-34.3907962359599
7.643049472,1.00033019197542,-34.600622750364714
7.650224128,1.0003070252857404,-34.810284318723276
7.657399296,1.0002664335619915,-35.01955144164716
7.664573952,1.0002107491583618,-35.228177396008945
7.67174912,1.0001432509303039,-35.43594761991894
7.678923776,1.000067318936748,-35.64276850181976
7.686098432,0.999987434132478,-35.84856854649595
7.6932736,0.9999079412092406,-36.05326892931353
7.700448256,0.9998332171535692,-36.256958666156514
7.707623424,0.9997673806151139,-36.45968410788784
7.71479808,0.9997141747890053,-36.66158996082482
7.721973248,0.9996766403166975,-36.862909468648844
7.729147904,0.9996567529232112,-37.063827890263845
7.736323072,0.9996556551682658,-37.26464882854463
7.743497728,0.9996735436731876,-37.465564870996936
7.750672896,0.9997093291123663,-37.66687060699287
7.757847552,0.9997610706641494,-37.868759860581335
7.765022208,0.9998259992087937,-38.07144130986459
7.772197376,0.9999004877900528,-38.275114783153676
7.779372032,0.9999802896282765,-38.479830337994834
7.7865472,1.0000612186556284,-38.68563939216117
7.793721856,1.0001384864699583,-38.89256393588501
7.800897024,1.0002083201326646,-39.10044666363715
7.80807168,1.0002660064748934,-39.30923761298114
7.815246848,1.0003090130848122,-39.51876957418801
7.822421504,1.0003348514606345,-39.728744756098365
7.82959616,1.0003416988932603,-39.93893438709828
7.836771328,1.0003295375151873,-40.14913733198376
7.843945984,1.0002986710451571,-40.35906704207283
7.851121152,1.0002511578967879,-40.56842783987816
7.858295808,1.000189479921364,-40.77709136856763
7.865470976,1.0001168013958637,-40.9848597535003
7.872645632,1.0000373741518038,-41.19160684747609
7.8798208,0.9999555303378588,-41.39729276685879
7.886995456,0.9998758647789525,-41.601855518625456
7.894170624,0.9998028725987853,-41.80540315439632
7.90134528,0.999740363355737,-42.00803548357952
7.908519936,0.9996919465350068,-42.20991630929635
7.915695104,0.999660385313515,-42.41126227307125
7.92286976,0.9996474514305123,-42.61233366918638
7.930044928,0.9996540402346653,-42.81334621530271
7.937219584,0.9996793985113239,-43.014610608549944
7.944394752,0.9997224357092325,-43.216347934598375
7.951569408,0.9997808237723484,-43.418751466269434
7.958744576,0.9998512604823963,-43.62204386908066
7.965919232,0.9999298882807228,-43.82639413700644
7.9730944,1.000012143395349,-44.03180216916955
7.980269056,1.0000937817996438,-44.23835400910266
7.987443712,1.0001700546445007,-44.44602064859027
7.99461888,1.0002368106453075,-44.65464698396799
8.001793536,1.0002902374303857,-44.864117821220916
8.008968704,1.0003274171130665,-45.07417641644692
8.01614336,1.0003464263581017,-45.28465284036145
8.023318528,1.0003460014754197,-45.49529888381754
8.030493184,1.0003260612027103,-45.70578933545023
8.037668352,1.0002878573987843,-45.915896737764534
8.044843008,1.0002332677851433,-46.12542554111588
8.052018176,1.0001656923689202,-46.33410878006664
8.059192832,1.0000882820230788,-46.541831346520716
8.066367488,1.0000059350682253,-46.7484867419168
8.073542656,0.9999228370561615,-46.95401635556062
8.080717312,0.9998437656295832,-47.158446136305294
8.08789248,0.9997728541106948,-47.36188904665926
8.095067136,0.9997143779907054,-47.5644374540168
8.102242304,0.9996714917746644,-47.76632370571998
8.10941696,0.9996464873522684,-47.96773924538966
8.116592128,0.9996409212696314,-48.16898020890956
8.123766784,0.9996551714828119,-48.37027310464015
8.130941952,0.9996883135108916,-48.57187559335674
8.138116608,0.9997385055140624,-48.77411024955901
8.145291264,0.9998032190590997,-48.977086188974965
8.152466432,0.9998786911144227,-49.181050588723465
8.159641088,0.9999608734276946,-49.386088019119555
8.166816256,1.0000450464111983,-49.5922435336046
8.173990912,1.0001267483989131,-49.79956009623691
8.18116608,1.0002012090106636,-50.007957610006756
8.188340736,1.0002645538416537,-50.21729713911267
8.195515904,1.0003129333576488,-50.4274282980879
8.20269056,1.0003439252544044,-50.63809636899904
8.209865216,1.0003555988427788,-50.84905284497475
8.217040384,1.0003473545710442,-51.060049743043265
8.22421504,1.0003195604971586,-51.27084769249096
8.231390208,1.000273905284425,-51.481134804482465
8.238564864,1.000212810271321,-51.690725888040554
8.245740032,1.000139491425017,-51.8994107096226
8.252914688,1.0000580090279036,-52.10707682364001
8.260089856,0.9999732349052012,-52.31358502742869
8.267264512,0.9998894807488616,-52.51898835834389
8.27443968,0.9998114693094933,-52.72330633510857
8.281614336,0.9997437219976529,-52.926626939261375
8.288788992,0.9996897818053107,-53.12914514771036
8.29596416,0.9996528474494454,-53.33104907163885
8.303138816,0.9996350043902004,-53.53258554375812
8.310313984,0.9996371277478132,-53.73401826348018
8.31748864,0.9996592908377984,-53.9356204763122
8.324663808,0.9997001804533753,-54.137664053274605
8.331838464,0.9997574852803315,-54.34040742273163
8.339013632,0.9998282150601678,-54.54398816014366
8.346188288,0.9999084832792149,-54.748663214613025
8.353363456,0.999993521617909,-54.954425109915526
8.360538112,1.0000790059195104,-55.161371262831096
8.367712768,1.000160091993067,-55.369431704490545
8.374887936,1.0002321203451496,-55.57860233768213
8.382062592,1.000291128864929,-55.788654306918694
8.38923776,1.000333968017372,-55.99941654292186
8.396412416,1.0003579916498226,-56.210643219166535
8.403587584,1.000362241011307,-56.42207554517734
8.41076224,1.0003459355403095,-56.63344039542711
8.417937408,1.0003103196253558,-56.844449989287604
8.425112064,1.0002572288434448,-57.05491342024254
8.432287232,1.0001894796430757,-57.264546211802184
8.439461888,1.0001109551645866,-57.47320021336705
8.446636544,1.0000259823741098,-57.6807696200398
8.453811712,0.9999392464728778,-57.88715468940421
8.460986368,0.9998555407860107,-58.09246562999959
8.468161536,0.999779485731322,-58.29661283620413
8.475336192,0.9997154302265546,-58.49984663672784
8.48251136,0.9996668537766168,-58.70233737666307
8.489686016,0.9996363775265382,-58.90430522058579
8.496861184,0.9996260039403739,-59.10599289546295
8.50403584,0.9996361436264495,-59.30768063639857
8.511211008,0.9996663586142451,-59.50965695637265
8.518385664,0.9997149711193567,-59.71214299466798
8.52556032,0.9997791888846363,-59.91545652989382
8.532735488,0.9998556713889192,-60.119747096503
8.539910144,0.9999399698360389,-60.32509602298949
8.547085312,1.0000276116085525,-60.53165543114746
8.554259968,1.0001137260779263,-60.739367445814565
8.561435136,1.0001933717059937,-60.948254630649345
8.568609792,1.0002622267235395,-61.158152652337066
8.57578496,1.000316460644401,-61.36890210912215
8.582959616,1.000352974627586,-61.58030109961878
8.590134272,1.0003698055756836,-61.79206693925076
8.59730944,1.0003659293568783,-62.00391866098867
8.604484608,1.0003415381001448,-62.215619026192684
8.611658752,1.0002979560366254,-62.42685852145147
8.61883392,1.0002375657023397,-62.63740825872905
8.626009088,1.0001637256986389,-62.847056127496714
8.633184256,1.0000804205094174,-63.05569112327776
8.6403584,0.9999923145679398,-63.26315610426102
8.647533568,0.9999045138092794,-63.469410533161756
8.654708736,0.9998213784588077,-63.6745487282279
8.661883904,0.9997480322482237,-63.878606059108094
8.669058048,0.9996882932649204,-64.08176885142247
8.676233216,0.9996455874198639,-64.28427267853814
8.683408384,0.9996222471905981,-64.48633019216757
8.690582528,0.9996198581508352,-64.68818527606305
8.697757696,0.9996381733623758,-64.89019943970511
8.704932864,0.999676622250886,-65.0925745400663
8.712108032,0.9997328264659434,-65.29559730691672
8.719282176,0.9998036694787066,-65.49951822875988
8.726457344,0.9998854396836913,-65.70446638019375
8.733632512,0.9999735563914857,-65.91061428682015
8.74080768,1.0000629472385212,-66.11795466279347
8.747981824,1.0001488090563506,-66.32651736295549
8.755156992,1.000226555332195,-66.5361889014864
8.76233216,1.000291442524979,-66.74685107053757
8.769506304,1.0003401566679695,-66.95830669152505
8.776681472,1.0003698702845931,-67.17030603060518
8.78385664,1.0003788915893568,-67.38257880836527
8.791031808,1.0003668337316125,-67.59483524617536
8.798205952,1.000334002385676,-67.80683155114149
8.80538112,1.0002824795177168,-68.01825389855613
8.812556288,1.0002150403792553,-68.22890542978166
8.819730432,1.0001353898542251,-68.43853740557144
8.8269056,1.0000478427035697,-68.64705220230171
8.834080768,0.9999573865228729,-68.85440599816357
8.841255936,0.9998688394024992,-69.06053624612814
8.84843008,0.9997873205750638,-69.26553109218267
8.855605248,0.9997173097416727,-69.4694784657232
8.862780416,0.9996626948189165,-69.67259712722831
8.869955584,0.9996265379011796,-69.87511149143079
