freq,mag,phase
6.0,1.0009065727790867,150.6888290739638
6.002287104,1.0010143755079919,150.53054326772792
6.004574208,1.0010570539696462,150.37125864817736
6.006861312,1.001032252819936,150.21190075753913
6.009147904,1.0009413766858204,150.05348022172782
6.011435008,1.0007907232192788,149.8968329809158
6.013722112,1.0005891131000333,149.74284815581044
6.016009216,1.000349570588157,149.59213719398477
6.01829632,1.00008720418638,149.4451351878759
6.020583424,0.999818814746992,149.3020571899629
6.022870016,0.9995612518470487,149.16290818840287
6.02515712,0.9993309193921258,149.02732807945057
6.027444224,0.9991426502017491,148.8949161147474
6.029731328,0.999007967105894,148.76493285833683
6.032018432,0.998935969411549,148.63650264435591
6.034305536,0.9989311655288688,148.5087517552062
6.036592128,0.9989935487415985,148.38061600872572
6.038879232,0.9991196417806192,148.2511998554827
6.041166336,0.99930125201141,148.1195823855987
6.04345344,0.9995267820983691,147.98509496232325
6.045740544,0.9997820306109955,147.84718380758449
6.048027648,1.0000505812649654,147.70551148183702
6.05031424,1.0003156720741797,147.56002412633478
6.052601344,1.0005603726301275,147.4109224744447
6.054888448,1.0007692292064638,147.25860995285487
6.057175552,1.000928919762145,147.10367459144373
6.059462656,1.0010292989689937,146.94690667339947
6.06174976,1.0010639126239074,146.78923286696855
6.064036352,1.0010306767073043,146.63160769513422
6.066323456,1.0009317358428482,146.4750044233123
6.06861056,1.000773030162575,146.32035756781846
6.070897664,1.00056492689324,146.16842165231256
6.073184768,1.0003202773858397,146.0198584147118
6.075471872,1.0000548122355786,145.87509189062698
6.077758464,0.9997852660240453,145.73421780677546
6.080045568,0.9995286266012915,145.5973021740475
6.082332672,0.999301459214748,145.46395549790017
6.084619776,0.9991179580918733,145.33368685779303
6.08690688,0.9989900084285024,145.2057663318888
6.089193984,0.998925745715251,145.07929733437766
6.091481088,0.9989293616147242,144.95335166430672
6.09376768,0.9990004055306504,144.82694749440887
6.096054784,0.9991344579788382,144.69911165315298
6.098341888,0.9993233429456985,144.5689785204152
6.100628992,0.9995545151472203,144.43587679901069
6.102916096,0.9998139259669867,144.2992649599485
6.1052032,1.0000847643538995,144.15885128336308
6.107489792,1.0003499188625988,144.01461957467725
6.109776896,1.0005923711192366,143.8667750227066
6.112064,1.0007968455114014,143.71572599851532
6.114351104,1.0009505046196168,143.56214171096383
6.116638208,1.0010433848005607,143.40683487110067
6.118925312,1.0010699170385629,143.25074135947239
6.121211904,1.0010280124032733,143.09480947995237
6.123499008,1.0009203661254018,142.94005137229507
6.125786112,1.000753915397478,142.78736163233145
6.128073216,1.0005390989523668,142.6374271278485
6.13036032,1.0002895520819168,142.4909807432066
6.132647424,1.0000210029816654,142.34837117224646
6.134934016,0.9997505003260303,142.20974998605732
6.13722112,0.9994952255580901,142.07505125057406
6.139508224,0.9992714598865619,141.94384240052932
6.141795328,0.9990933940353608,141.81567455436942
6.144082432,0.9989723837581035,141.68973775711345
6.146369536,0.9989161353190006,141.56520299068507
6.148656128,0.9989284949014787,141.44104880248074
6.150943232,0.9990083457255086,141.31626121609574
6.153230336,0.9991509602214046,141.18996384939277
6.15551744,0.9993468929221424,141.0612428405349
6.157804544,0.9995842273555617,140.9294417635169
6.160091648,0.9998475680388956,140.79407064361732
6.162378752,1.0001202212445108,140.65483179621054
6.164665344,1.0003848068361212,140.51177700077116
6.166952448,1.000624775458163,140.36511551596973
6.169239552,1.000824562156485,140.21530738054727
6.171526656,1.0009719371795145,140.06303670776504
6.17381376,1.0010571175047662,139.90919624457877
6.176100864,1.001074868783575,139.75462742426168
6.178387456,1.0010240565434783,139.60037095096575
6.18067456,1.0009078719002789,139.447374239685
6.182961664,1.0007334196614253,139.29658196411535
6.185248768,1.0005121224512803,139.14872010868567
6.187535872,1.0002575811746401,139.00433461133207
6.189822976,0.9999861894483251,138.86387996781698
6.192109568,0.9997151149208023,138.72744508935003
6.194396672,0.9994613839924462,138.59488462257258
6.196683776,0.9992413956189569,138.46583185417327
6.19897088,0.9990690175167036,138.33969432925556
6.201257984,0.9989552804316224,138.2157303371935
6.203545088,0.9989076350502412,138.09303976208238
6.20583168,0.998928892111591,137.9705750717184
6.208118784,0.999017810894571,137.8473988322488
6.210405888,0.9991688670649899,137.7225275091793
6.212692992,0.9993722455081463,137.5951180744587
6.214980096,0.9996152130309715,137.4645804766932
6.2172672,0.9998822867571491,137.33034043715784
6.219553792,1.0001565182169427,137.19224036333398
6.221840896,1.0004205311347003,137.05030783667468
6.224128,1.000657422006141,136.90477674507633
6.226415104,1.0008523260421833,136.75618773230255
6.228702208,1.0009928356153897,136.60519033843033
6.230989312,1.001069880029102,136.45269782909475
6.233275904,1.0010787839257649,136.29964476036628
6.235563008,1.001018761269509,136.1470156254917
6.237850112,1.00089360407267,135.99579717530196
6.240137216,1.0007113665140244,135.84689355814126
6.24242432,1.0004833521681693,135.70100997988303
6.244711424,1.000224088574429,135.55869856666604
6.246998528,0.9999500196346764,135.42036571816
6.24928512,0.9996786382746162,135.28604839656748
6.251572224,0.9994268897799086,135.15562175664974
6.253859328,0.9992112031204313,135.02865290452675
6.256146432,0.9990449316288279,134.90452030807222
6.258433536,0.9989390541753919,134.7824792936904
6.26072064,0.9989000571459485,134.66153171842245
6.263007232,0.9989305646363725,134.54074537282997
6.265294336,0.9990288071086847,134.41908028032105
6.26758144,0.9991883504122971,134.29557018573684
6.269868544,0.9993990645509151,134.16945145391603
6.272155648,0.9996475858284815,134.04005253008216
6.274442752,0.9999184032811103,133.90691122134254
6.276729344,1.0001939578287098,133.76985971452237
6.279016448,1.000456883354408,133.6289673579422
6.281303552,1.0006904677493147,133.48452608647682
6.283590656,1.000880081457979,133.33704043401295
6.28587776,1.0010132476646165,133.18731079257023
6.288164864,1.0010818769460879,133.03617143618038
6.290451456,1.0010814489215007,132.88456488351926
6.29273856,1.0010120484520548,132.73353069342414
6.295025664,1.000877877888479,132.58403954621613
6.297312768,1.0006875399156707,132.43698316962715
6.299599872,1.000452985990597,132.29304942577832
6.301886976,1.000189240531036,132.1528107429511
6.304173568,0.9999125619542217,132.01655589593196
6.306460672,0.99964128979584,131.88435532705915
6.308747776,0.999392014276441,131.75601265437086
6.31103488,0.9991807869716431,131.63108581760574
6.313321984,0.9990212778358996,131.50891327811183
6.315609088,0.9989233145880009,131.38870604690175
6.317896192,0.9988935275928806,131.26947749097522
6.320182784,0.9989336863962717,131.1502630160734
6.322469888,0.9990411142603842,131.0300152426204
6.324756992,0.9992093291648781,130.9078468626267
6.327044096,0.9994275069859965,130.78290053062042
6.3293312,0.9996817271836002,130.65458675866142
6.331618304,0.9999557571693138,130.52246892943324
6.333904896,1.0002323675114444,130.3864199201152
6.336192,1.0004939945995204,130.2465002858775
6.338479104,1.0007238400282272,130.1030716675728
6.340766208,1.00090747580975,129.95669830052594
6.343053312,1.0010331215774655,129.80815480437468
6.345340416,1.0010928409851816,129.65828453907108
6.347627008,1.0010829199812303,129.50814315915622
6.349914112,1.0010036698177163,129.3586694992238
6.352201216,1.0008604385257849,129.21089872069356
6.35448832,1.0006620371655355,129.06565665962285
6.356775424,1.000421134893114,128.92365208174323
6.359062528,1.0001526705762016,128.78544013616386
6.36134912,0.999874265749928,128.65123147046057
6.363636224,0.9996030706181367,128.52111027566303
6.365923328,0.9993565359256308,128.39481182808203
6.368210432,0.9991504256447757,128.27185371412227
6.370497536,0.9989978399777143,128.15159282830743
6.37278464,0.9989084690166876,128.03316689904221
6.375071232,0.9988881112812642,127.91559359015166
6.377358336,0.998938119029764,127.7978936484721
6.37964544,0.9990552085629976,127.67900222006656
6.381932544,0.9992320803920276,127.5580247685361
6.384219648,0.9994575066298397,127.43420415601412
6.386506752,0.9997171555366436,127.30690282700064
6.388793344,0.999994470106013,127.17574163419292
6.391080448,1.000271730267352,127.040596681324
6.393367552,1.0005314215300587,126.90162613948627
6.395654656,1.0007572747739921,126.75915410763426
6.39794176,1.0009345137916692,126.61380730900208
6.400228864,1.001052191757418,126.46640947053594
6.402515968,1.001102640761809,126.3178357956078
6.40480256,1.0010828284957072,126.16905976465803
6.407089664,1.0009938469109385,126.02114794951176
6.409376768,1.0008412870181007,125.87506222773695
6.411663872,1.0006348894414994,125.7316161420201
6.413950976,1.0003875236719129,125.59150477656254
6.41623808,1.0001150349297698,125.45526835044234
6.418524672,0.999834633698616,125.32310122702964
6.420811776,0.99956413053704,125.19500281247018
6.42309888,0.9993209582191321,125.07067598681783
6.425385984,0.9991203400008458,124.94969322351113
6.427673088,0.9989751546957243,124.83128429428663
6.429960192,0.9988945965507362,124.71457301912483
6.432246784,0.9988840757893709,124.59858392587981
6.434533888,0.9989442225972666,124.48230108034188
6.436820992,0.9990709687365007,124.36470857368353
6.439108096,0.9992567220057372,124.24487494627307
6.4413952,0.9994893328240374,124.12209025818593
6.443682304,0.9997540634452634,123.99572801670715
6.445968896,1.0000342823382082,123.86542589289404
6.448256,1.0003118970932325,123.73114324847514
6.450543104,1.0005695257189973,123.59303711702013
6.452830208,1.0007905848282126,123.45147313626532
6.455117312,1.0009612771365148,123.30714062275187
6.457404416,1.0010705691381803,123.16081566152488
6.459691008,1.0011114368625627,123.01345018869957
6.461978112,1.0010815293587112,122.86605577695161
6.464265216,1.0009824226697561,122.71966165768994
6.46655232,1.0008205463764879,122.5752114992848
6.468839424,1.0006059864918,122.43355933085256
6.471126528,1.0003524367975836,122.29533781621303
6.473413632,1.00007594291346,122.16103996639194
6.475700224,0.9997941154963002,122.03084822468387
6.477987328,0.9995247219007455,121.90473136870337
6.480274432,0.9992850192064017,121.78238439928322
6.482561536,0.9990903598779098,121.66326226503108
6.48484864,0.9989530043555249,121.54663331216175
6.487135744,0.9988817310129529,121.43158390056558
6.489422336,0.9988813937091667,121.31711702254456
6.49170944,0.9989518226154805,121.20219717163582
6.493996544,0.9990884667326334,121.08580198740476
6.496283648,0.9992829263776895,120.96707739829863
6.498570752,0.9995226147385845,120.8452388598399
6.500857856,0.999792427810222,120.71971040012062
6.503144448,1.000075175882411,120.59026147831862
6.505431552,1.0003528348598303,120.45676227719929
6.507718656,1.0006078578116673,120.31943427323502
6.51000576,1.0008238967154577,120.1787242099677
6.512292864,1.000987380530789,120.0353566211617
6.514579968,1.001087820716255,119.89007133948228
6.51686656,1.0011189399874483,119.74390495467692
6.519153664,1.00107843916561,119.59786025628101
6.521440768,1.0009692063682432,119.45292780092684
6.523727872,1.0007979344677662,119.31012324720206
6.526014976,1.0005754462415732,119.17019497583551
6.52830208,1.0003158136770598,119.03382497065702
6.530588672,1.000035667937626,118.901436918476
6.532875776,0.9997525991579213,118.77320847684916
6.53516288,0.9994847474264156,118.64903670104628
6.537449984,0.9992491194660164,118.52859728895757
6.539737088,0.9990608153730879,118.41132155781096
6.542024192,0.9989317279324355,118.29643220938534
6.544310784,0.998870262493435,118.18295863693052
6.546597888,0.9988801699741193,118.0699190228608
6.548884992,0.9989611898251266,117.95626385501399
6.551172096,0.9991078507059766,117.84105020499973
6.5534592,0.9993110611359954,117.72330591780897
6.555746304,0.9995577483992563,117.60232628303059
6.558033408,0.9998323827550758,117.47759964537693
6.56032,1.0001173649386301,117.34888132497521
6.562607104,1.0003946497184082,117.2160864035039
6.564894208,1.0006465787199712,117.07952766687644
6.567181312,1.0008570968280506,116.93963951698645
6.569468416,1.001012985122298,116.79713688527558
6.57175552,1.0011042163294848,116.65287497445537
6.574042112,1.0011249570410605,116.50786400524552
6.576329216,1.0010738045273093,116.36312792791676
6.57861632,1.0009541599328449,116.21966732909416
6.580903424,1.0007733858423853,116.07844183828468
6.583190528,1.0005430481745472,115.94022860255185
6.585477632,1.000277643042026,115.8056807657053
6.587764224,0.9999940208974951,115.67521713715605
6.590051328,0.9997102169986921,115.54888421048061
6.592338432,0.9994442605907395,115.42662481042434
6.594625536,0.9992131639220643,115.30808022020435
6.59691264,0.9990316014330365,115.19255766212774
6.599199744,0.9989113156466446,115.07931183226759
6.601486336,0.9988598199821623,114.96736676073829
6.60377344,0.9988805718330005,114.85570976775212
6.606060544,0.9989722357073199,114.7432792810434
6.608347648,0.9991289410956851,114.62908416658999
6.610634752,0.9993408725118993,114.51226867029143
6.612921856,0.9995944737083104,114.39209702767238
6.615208448,0.9998736209570266,114.26810207181204
6.617495552,1.0001604648324196,114.14002086019738
6.619782656,1.0004369028007225,114.00791111034097
6.62206976,1.0006854025946226,113.87201166802477
6.624356864,1.0008900840546366,113.73287962275693
6.626643968,1.0010377778750295,113.59123211928994
6.628931072,1.0011194554597895,113.4479450303067
6.631217664,1.00112955482778,113.30407547205895
6.633504768,1.0010675598588321,113.160613676201
6.635791872,1.000937301463233,113.01856586891955
6.638078976,1.0007470777949952,112.8789218455265
6.64036608,1.0005088666122963,112.74242611123945
6.642653184,1.000237806163292,112.60970509337659
6.644939776,0.9999510192168258,112.48104807837643
6.64722688,0.9996669320543261,112.35659890248708
6.649513984,0.9994034055323526,112.2362158022901
6.651801088,0.999177245629144,112.11946600585529
6.654088192,0.9990029709457631,112.00566128121861
6.656375296,0.9988918159154003,111.89401081429298
6.658661888,0.9988507029582828,111.78353460074055
6.660948992,0.9988824650808916,111.67317286870512
6.663236096,0.998984953575016,111.56188583713059
6.6655232,0.9991518969498692,111.44867447047655
6.667810304,0.9993724844480896,111.33268700917345
6.670097408,0.9996327797804896,111.21324871930017
6.672384,0.9999161523416568,111.08989905907912
6.674671104,1.000204560017206,110.9624335215602
6.676958208,1.0004798478592014,110.8308833475573
6.679245312,1.000724343604247,110.69561173810625
6.681532416,1.0009225369640706,110.55719171950916
6.68381952,1.0010618931558914,110.41635406977164
6.686106112,1.0011333853523978,110.27401898419363
6.688393216,1.0011325698251008,110.13122625646155
6.69068032,1.0010595356063356,109.98899624848475
6.692967424,1.0009186264705145,109.84837963014448
6.695254528,1.000718864094833,109.71029652399173
6.697541632,1.000473075988173,109.57545534635403
6.699828224,1.0001966509653728,109.44449373338125
6.702115328,0.9999070876185425,109.31765465510381
6.704402432,0.9996229816940915,109.19506355418055
6.706689536,0.9993622217770104,109.07652935660785
6.70897664,0.9991417131655724,108.96151875383525
6.711263744,0.998975147543427,108.84940539182789
6.713550848,0.998873495126995,108.73927244188194
6.71583744,0.9988432066031556,108.63016498759285
6.718124544,0.9988861672629257,108.52104747231779
6.720411648,0.9989998598404525,108.41080620352079
6.722698752,0.9991767575308087,108.29847728449502
6.724985856,0.9994058857253132,108.18325759495657
6.72727296,0.9996726907194211,108.06447256665588
6.729559552,0.9999599680762421,107.94168547610326
6.731846656,1.0002496369438805,107.81472798238336
6.73413376,1.0005231102238943,107.68376247971739
6.736420864,1.0007631438136093,107.54906154599466
6.738707968,1.0009544320515886,107.41128118205476
6.740995072,1.001084832420834,107.27122017649216
6.743281664,1.001145901878511,107.12980145145255
6.745568768,1.0011338682347493,106.98806462778339
6.747855872,1.0010494239687648,106.84708934295121
6.750142976,1.0008979088419987,106.70783386766018
6.75243008,1.0006888065531672,106.57126377910025
6.754717184,1.0004354354502385,106.4381132405619
6.757003776,1.0001538935483816,106.30884019748896
6.75929088,0.9998619642304429,106.1838281201488
6.761577984,0.9995783053367516,106.06303565587464
6.763865088,0.9993209503977089,105.94626338552787
6.766152192,0.9991063188011329,105.8329718713743
6.768439296,0.9989481214107618,105.72244935753695
6.770725888,0.998856442839258,105.61380728795848
6.773012992,0.9988372372288711,105.50600990496606
6.775300096,0.9988917354511858,105.39801519413409
6.7775872,0.9990165627558368,105.28875878614217
6.779874304,0.9992037265820254,105.17726576295591
6.782161408,0.9994412973392534,105.06272987548331
6.784448512,0.9997143074635119,104.94449718800584
6.786735104,1.0000051674447106,104.82222508349888
6.789022208,1.0002955887589189,104.69574588717971
6.791309312,1.0005668563795638,104.56520021335345
6.793596416,1.0008019391158112,104.43106691615657
6.79588352,1.000985738864172,104.29390414443841
6.798170624,1.0011067918943932,104.15456025344018
6.800457216,1.0011570245443564,104.01402317615718
6.80274432,1.001133486436487,103.87332095094058
6.805031424,1.0010375664398796,103.73351755409394
6.807318528,1.0008752026041463,103.59563741177305
6.809605632,1.0006567835601599,103.4605839023532
6.811892736,1.0003961646044992,103.32904508134325
6.814179328,1.0001097054016053,103.20151725523944
6.816466432,0.999815760929649,103.07825987285332
6.818753536,0.9995329821040793,102.95924085005592
6.82104064,0.9992794608047914,102.84418339091927
6.823327744,0.9990713260429424,102.7325544551135
6.825614848,0.9989218432358864,102.62357235506558
6.82790144,0.9988405928825105,102.51631473400987
6.830188544,0.9988328194238102,102.40979699465508
6.832475648,0.998899177713346,102.30285393355005
6.834762752,0.9990352702700156,102.19449304027906
6.837049856,0.9992324340198325,102.08376703588371
6.83933696,0.9994784975187506,101.9698124758958
6.841623552,0.9997573906523364,101.85209238168567
6.843910656,1.0000514129033622,101.73022701482132
6.84619776,1.00034211719804,101.60417743029602
6.848484864,1.0006107901940935,101.47407114205215
6.850771968,1.000840488369162,101.34035815815838
6.853059072,1.001016469231319,101.20376291415288
6.855345664,1.0011274360733067,101.06513510285896
6.857632768,1.0011666164550028,100.9254398833306
6.859919872,1.0011312556245198,100.78574589343314
6.862206976,1.0010236021818792,100.64714853997125
6.86449408,1.0008505742341594,100.51061645016922
6.866781184,1.0006230152868374,100.37699903756052
6.869068288,1.0003551251642246,100.24708848801929
6.87135488,1.0000642461434337,100.12123576062741
6.873641984,0.9997686771550929,99.99971275225109
6.875929088,0.9994874696721672,99.88239955476502
6.878216192,0.9992382294886616,99.76905480753746
6.880503296,0.9990369524634447,99.65902799541458
6.8827904,0.9988967016473108,99.55150598729998
6.885076992,0.998826385282265,99.44562453120932
6.887364096,0.9988304156525638,99.34024087300453
6.8896512,0.9989084522622111,99.23431666392716
6.891938304,0.9990560355261171,99.12676042721755
6.894225408,0.9992633645595854,99.0166778004368
6.896512512,0.9995174113744968,98.90326920063052
6.898799104,0.9998019886870324,98.78599058207577
6.901086208,1.00009895944152,98.66447612253049
6.903373312,1.0003895173294366,98.53873633694204
6.905660416,1.0006549338965918,98.4090062286571
6.90794752,1.00087856869925,98.27574784966342
6.910234624,1.0010460795539162,98.13968321739745
6.912521216,1.0011468682085165,98.00169810096394
6.91480832,1.0011744848999775,97.8628300311354
6.917095424,1.0011271537859063,97.72410300202164
6.919382528,1.0010076339223393,97.58665217269235
6.921669632,1.0008237560738968,97.45144581734382
6.923956736,1.0005870131462116,97.31933951766244
