freq,mag,phase
6.0,0.9999990129923216,115.70587633657381
6.008,0.9999990229099571,115.61784303945346
6.016,0.9999990331059665,115.5298008368959
6.024,0.9999990435837103,115.44174972092182
6.032,0.9999990543464885,115.35368968355105
6.04,0.9999990653975398,115.26562071680274
6.048,0.9999990767400431,115.17754281269526
6.056,0.9999990883771168,115.08945596324631
6.064,0.9999991003118197,115.00136016047288
6.072,0.9999991125471502,114.91325539639143
6.08,0.999999125086049,114.82514166301785
6.088,0.9999991379313968,114.73701895236744
6.096,0.999999151086016,114.64888725645504
6.104,0.9999991645526706,114.56074656729508
6.112,0.9999991783340659,114.47259687690156
6.12,0.9999991924328511,114.38443817728808
6.128,0.9999992068516165,114.29627046046794
6.136,0.9999992215928952,114.20809371845418
6.144,0.9999992366591647,114.11990794325953
6.152,0.9999992520528447,114.0317131268966
6.16,0.9999992677762989,113.94350926137778
6.168,0.9999992838318356,113.85529633871535
6.176,0.9999993002217067,113.7670743509215
6.184,0.9999993169481091,113.6788432900084
6.192,0.9999993340131842,113.5906031479882
6.2,0.9999993514190195,113.50235391687309
6.208,0.999999369167647,113.41409558867535
6.216,0.999999387261045,113.3258281554074
6.224,0.9999994057011375,113.23755160908173
6.232,0.9999994244897952,113.14926594171119
6.24,0.9999994436288354,113.06097114530874
6.248,0.9999994631200225,112.97266721188768
6.256,0.999999482965068,112.88435413346163
6.264,0.9999995031656307,112.79603190204459
6.272,0.9999995237233172,112.70770050965093
6.28,0.9999995446396829,112.61935994829552
6.288,0.9999995659162308,112.5310102099937
6.296,0.9999995875544135,112.44265128676129
6.304,0.9999996095556314,112.35428317061478
6.312,0.9999996319212354,112.26590585357118
6.32,0.9999996546525254,112.17751932764826
6.328,0.9999996777507508,112.08912358486437
6.336,0.9999997012171119,112.00071861723868
6.344,0.999999725052759,111.9123044167911
6.352,0.9999997492587932,111.82388097554241
6.36,0.999999773836267,111.73544828551417
6.368,0.9999997987861833,111.64700633872893
6.376,0.9999998241094978,111.55855512721011
6.384,0.9999998498071171,111.47009464298219
6.392,0.9999998758799006,111.38162487807062
6.4,0.9999999023286597,111.29314582450198
6.408,0.9999999291541589,111.20465747430386
6.416,0.9999999563571158,111.1161598195051
6.424,0.999999983938201,111.02765285213573
6.432,0.9999999999999999,110.93913656422694
6.44,1.0,110.85061094781128
6.448,1.0,110.76207599492258
6.456,1.0,110.67353169759605
6.464,0.9999999999999999,110.58497804786828
6.472,0.9999999999999999,110.49641503777733
6.48,1.0,110.40784265936273
6.4879999999999995,0.9999999999999999,110.31926090466557
6.496,1.0,110.23066976572846
6.504,1.0,110.14206923459568
6.5120000000000005,0.9999999999999999,110.05345930331313
6.52,1.0,109.96483996392844
6.5280000000000005,0.9999999999999999,109.87621120849093
6.536,1.0,109.78757302905176
6.5440000000000005,1.0,109.69892541766387
6.552,1.0,109.6102683663821
6.5600000000000005,1.0,109.52160186726317
6.568,0.9999999999999999,109.43292591236577
6.5760000000000005,1.0,109.34424049375058
6.584,0.9999999999999999,109.2555456034803
6.592,1.0,109.16684123361976
6.6,1.0,109.07812737623586
6.608,0.9999999999999999,108.98940402339767
6.616,0.9999999999999999,108.9006711671765
6.624,1.0,108.81192879964584
6.632,1.0,108.72317691288156
6.64,1.0,108.63441549896179
6.648,1.0,108.5456445499671
6.656,1.0,108.45686405798043
6.664,0.9999999999999999,108.36807401508717
6.672,1.0,108.27927441337528
6.68,0.9999999999999998,108.19046524493523
6.688,1.0,108.10164650186005
6.696,1.0,108.01281817624545
6.704,1.0,107.92398026018981
6.712,1.0,107.83513274579421
6.72,0.9999999999999999,107.7462756251625
6.728,1.0,107.65740889040133
6.736,1.0000000000000002,107.5685325336202
6.744,0.9999999999999999,107.47964654693153
6.752,1.0,107.39075092245062
6.76,1.0,107.3018456522958
6.768,1.0,107.21293072858836
6.776,1.0,107.12400614345273
6.784,1.0,107.0350718890164
6.792,1.0,106.94612795740997
6.8,1.0,106.85717434076732
6.808,1.0000000000000002,106.76821103122552
6.816,0.9999999999999999,106.6792380209249
6.824,1.0,106.59025530200917
6.832,0.9999999999999999,106.50126286662535
6.84,0.9999999999999999,106.41226070692393
6.848,1.0,106.32324881505878
6.856,0.9999999999999999,106.23422718318731
6.864,1.0,106.14519580347049
6.872,0.9999999999999999,106.05615466807282
6.88,1.0,105.96710376916246
6.888,1.0,105.87804309891126
6.896,1.0,105.78897264949475
6.904,1.0,105.69989241309224
6.912,1.0,105.61080238188681
6.92,0.9999999999999998,105.52170254806546
6.928,0.9999999999999998,105.43259290381897
6.936,0.9999999999999999,105.34347344134214
6.944,0.9999999999999999,105.25434415283375
6.952,1.0,105.16520503049652
6.96,1.0,105.07605606653732
6.968,1.0,104.9868972531671
6.976,1.0000000000000002,104.89772858260096
6.984,1.0,104.80855004705819
6.992,1.0,104.71936163876232
7.0,1.0,104.63016334994121
7.008,1.0,104.54095517282698
7.016,0.9999999999999999,104.4517370996562
7.024,1.0,104.36250912266976
7.032,1.0,104.27327123411312
7.04,1.0,104.18402342623617
7.048,0.9999999999999999,104.09476569129339
7.056,1.0,104.00549802154383
7.064,1.0000000000000002,103.91622040925121
7.072,1.0,103.82693284668389
7.08,1.0,103.737635326115
7.088,1.0,103.64832783982241
7.096,0.9999999999999999,103.55901038008885
7.104,0.9999999999999999,103.46968293920186
7.112,0.9999999999999999,103.3803455094539
7.12,1.0,103.29099808314243
7.128,1.0,103.20164065256984
7.136,1.0,103.11227321004358
7.144,1.0,103.0228957478762
7.152,1.0,102.93350825838537
7.16,0.9999999999999999,102.84411073389394
7.168,1.0,102.75470316672995
7.176,0.9999999999999999,102.66528554922677
7.184,1.0,102.57585787372297
7.192,1.0,102.48642013256259
7.2,0.9999999999999999,102.39697231809498
7.208,1.0,102.307514422675
7.216,0.9999999999999999,102.21804643866291
7.224,0.9999999999999999,102.12856835842463
7.232,1.0,102.03908017433154
7.24,1.0,101.9495818787607
7.248,0.9999999999999999,101.86007346409482
7.256,1.0,101.77055492272233
7.264,1.0,101.68102624703742
7.272,1.0,101.5914874294401
7.28,1.0,101.50193846233617
7.288,1.0,101.41237933813737
7.296,0.9999999999999999,101.32281004926139
7.304,0.9999999999999999,101.23323058813189
7.312,0.9999999999999999,101.14364094717853
7.32,1.0,101.05404111883706
7.328,0.9999999999999999,100.96443109554937
7.336,1.0,100.87481086976352
7.344,0.9999999999999999,100.78518043393376
7.352,1.0,100.69553978052059
7.36,0.9999999999999999,100.60588890199084
7.368,0.9999999999999999,100.51622779081764
7.376,1.0,100.42655643948054
7.384,1.0,100.33687484046555
7.392,1.0,100.24718298626516
7.4,0.9999999999999999,100.15748086937833
7.4079999999999995,1.0,100.0677684823107
7.416,1.0,99.97804581757438
7.4239999999999995,1.0,99.88831286768834
7.432,1.0,99.79856962517806
7.4399999999999995,0.9999999999999998,99.70881608257595
7.448,1.0,99.61905223242108
7.4559999999999995,1.0,99.52927806725953
7.464,1.0,99.43949357964408
7.4719999999999995,1.0,99.34969876213465
7.48,1.0,99.25989360729797
7.4879999999999995,1.0,99.17007810770795
7.496,1.0,99.08025225594547
7.504,1.0,98.99041604459862
7.5120000000000005,1.0,98.90056946626257
7.52,0.9999999999999999,98.8107125135398
7.5280000000000005,1.0,98.72084517903998
7.536,1.0,98.63096745538017
7.5440000000000005,0.9999999999999999,98.54107933518466
7.552,0.9999999999999999,98.45118081108528
7.5600000000000005,0.9999999999999999,98.36127187572119
7.568,1.0,98.27135252173915
7.5760000000000005,0.9999999999999999,98.18142274179336
7.584,1.0000000000000002,98.09148252854568
7.5920000000000005,0.9999999999999999,98.00153187466557
7.6,1.0,97.91157077283019
7.6080000000000005,1.0,97.82159921572436
7.616,0.9999999999999999,97.73161719604077
7.6240000000000006,1.0,97.64162470647985
7.632,1.0,97.55162173974995
7.640000000000001,1.0,97.46160828856726
7.648,1.0,97.37158434565602
7.656000000000001,0.9999999999999999,97.28154990374837
7.664,1.0,97.19150495558462
7.672,1.0,97.10144949391304
7.68,1.0,97.01138351149015
7.688,1.0,96.92130700108062
7.696,1.0,96.83121995545734
7.704,1.0,96.74112236740153
7.712,0.9999999999999999,96.65101422970268
7.72,1.0,96.5608955351587
7.728,1.0,96.47076627657593
7.736,1.0,96.38062644676913
7.744,1.0,96.29047603856161
7.752,1.0,96.20031504478523
7.76,1.0,96.11014345828048
7.768,1.0,96.0199612718965
7.776,1.0,95.92976847849111
7.784,0.9999999999999999,95.83956507093092
7.792,1.0,95.74935104209129
7.8,0.9999999999999999,95.65912638485645
7.808,1.0,95.56889109211953
7.816,1.0,95.47864515678258
7.824,0.9999999999999998,95.38838857175665
7.832,0.9999999999999999,95.29812132996179
7.84,0.9999999999999998,95.20784342432717
7.848,1.0,95.11755484779104
7.856,1.0,95.02725559330091
7.864,1.0,94.93694565381337
7.872,1.0,94.8466250222944
7.88,1.0,94.75629369171926
7.888,1.0,94.66595165507253
7.896,1.0,94.57559890534824
7.904,0.9999999999999999,94.48523543554985
7.912,1.0,94.39486123869035
7.92,0.9999999999999998,94.30447630779227
7.928,1.0,94.21408063588771
7.936,1.0,94.12367421601843
7.944,1.0,94.03325704123593
7.952,1.0,93.94282910460134
7.96,0.9999999999999999,93.85239039918568
7.968,1.0,93.76194091806977
7.976,1.0,93.67148065434425
7.984,1.0,93.5810096011098
7.992,1.0,93.49052775147696
8.0,1.0,93.40003509856639
8.008,0.9999999999999998,93.30953163550876
8.016,1.0,93.21901735544486
8.024000000000001,1.0,93.12849225152564
8.032,1.0,93.03795631691233
8.04,1.0,92.9474095447763
8.048,0.9999999999999999,92.85685192829935
8.056000000000001,0.9999999999999999,92.76628346067352
8.064,1.0,92.67570413510136
8.072,0.9999999999999999,92.5851139447958
8.08,1.0,92.49451288298022
8.088000000000001,0.9999999999999999,92.40390094288867
8.096,1.0,92.31327811776573
8.104,0.9999999999999999,92.22264440086657
8.112,0.9999999999999999,92.1319997854571
8.120000000000001,1.0,92.04134426481396
8.128,0.9999999999999999,91.95067783222456
8.136,0.9999999999999999,91.86000048098715
8.144,0.9999999999999999,91.76931220441082
8.152000000000001,0.9999999999999999,91.67861299581563
8.16,1.0,91.58790284853261
8.168,0.9999999999999999,91.49718175590375
8.176,1.0,91.40644971128215
8.184000000000001,0.9999999999999998,91.31570670803201
8.192,1.0,91.22495273952876
8.2,1.0,91.13418779915892
8.208,1.0,91.04341188032035
8.216000000000001,0.9999999999999999,90.95262497642216
8.224,1.0,90.86182708088488
8.232,0.9999999999999999,90.77101818714038
8.24,0.9999999999999999,90.68019828863198
8.248000000000001,1.0,90.58936737881453
8.256,1.0,90.4985254511544
8.264,1.0,90.40767249912955
8.272,0.9999999999999999,90.31680851622956
8.280000000000001,1.0,90.22593349595572
8.288,1.0,90.13504743182106
8.296,0.9999999999999999,90.04415031735039
8.304,1.0,89.95324214608027
8.312,0.9999999999999999,89.86232291155925
8.32,1.0,89.7713926073477
8.328,1.0,89.68045122701805
8.336,0.9999999999999999,89.5894987641547
8.344,1.0,89.49853521235411
8.352,1.0,89.40756056522486
8.36,1.0,89.31657481638771
8.368,1.0,89.22557795947557
8.376,0.9999999999999999,89.13456998813372
8.384,1.0,89.04355089601961
8.392,1.0,88.95252067680313
8.4,1.0,88.8614793241665
8.408,1.0,88.77042683180449
8.416,1.0,88.67936319342421
8.424,1.0,88.58828840274546
8.432,1.0,88.49720245350052
8.44,0.9999999999999999,88.40610533943439
8.448,1.0,88.3149970543047
8.456,0.9999999999999999,88.2238775918818
8.464,0.9999999999999999,88.13274694594885
8.472,0.9999999999999999,88.04160511030184
8.48,1.0,87.95045207874959
8.488,1.0,87.8592878451139
8.496,1.0,87.76811240322944
8.504,1.0,87.67692574694402
8.512,1.0,87.58572787011842
8.52,1.0,87.49451876662656
8.528,0.9999999999999999,87.40329843035548
8.536,1.0,87.31206685520552
8.544,0.9999999999999999,87.22082403509015
8.552,1.0,87.12956996393622
8.56,1.0,87.03830463568387
8.568,0.9999999999999999,86.9470280442867
8.576,0.9999999999999999,86.85574018371166
8.584,1.0000000000000002,86.76444104793926
8.592,0.9999999999999999,86.6731306309635
8.6,0.9999999999999999,86.58180892679201
8.608,1.0,86.49047592944598
8.616,0.9999999999999999,86.3991316329603
8.624,0.9999999999999999,86.30777603138361
8.632,1.0,86.21640911877829
8.64,0.9999999999999999,86.1250308892205
8.648,1.0,86.03364133680036
8.656,0.9999999999999999,85.94224045562177
8.664,1.0,85.8508282398027
8.672,1.0,85.75940468347504
8.68,1.0,85.66796978078477
8.688,0.9999999999999999,85.57652352589194
8.696,0.9999999999999999,85.48506591297077
8.704,0.9999999999999999,85.39359693620963
8.712,0.9999999999999999,85.30211658981116
8.72,1.0,85.21062486799224
8.728,0.9999999999999999,85.1191217649841
8.736,1.0,85.02760727503235
8.744,0.9999999999999999,84.93608139239701
8.752,1.0,84.84454411135255
8.76,0.9999999999999999,84.75299542618797
8.768,0.9999999999999999,84.66143533120679
8.776,0.9999999999999999,84.56986382072719
8.784,0.9999999999999999,84.47828088908194
8.792,1.0,84.38668653061858
8.8,1.0,84.29508073969927
8.808,0.9999999999999999,84.20346351070108
8.815999999999999,1.0,84.11183483801585
8.824,1.0000000000000002,84.02019471605028
8.832,0.9999999999999999,83.92854313922601
8.84,1.0000000000000002,83.83688010197969
8.847999999999999,0.9999999999999999,83.74520559876292
8.856,1.0,83.65351962404236
8.864,1.0,83.56182217229981
8.872,1.0,83.47011323803221
8.879999999999999,1.0,83.37839281575168
8.888,0.9999999999999999,83.28666089998558
8.896,1.0,83.19491748527652
8.904,1.0,83.1031625661825
8.911999999999999,0.9999999999999999,83.01139613727686
8.92,1.0,82.91961819314832
8.928,1.0,82.82782872840113
8.936,1.0,82.73602773765501
8.943999999999999,1.0,82.64421521554522
8.952,1.0,82.55239115672255
8.96,1.0000000000000002,82.46055555585357
8.968,1.0,82.36870840762047
8.975999999999999,1.0,82.2768497067211
8.984,1.0,82.18497944786911
8.992,1.0,82.093097625794
9.0,1.0,82.00120423524113
9.008,0.9999999999999999,81.90929927097167
9.016,1.0,81.81738272776278
9.024000000000001,1.0,81.72545460040766
9.032,0.9999999999999999,81.63351488371543
9.04,0.9999999999999999,81.54156357251136
9.048,1.0,81.44960066163678
9.056000000000001,1.0,81.35762614594917
9.064,1.0,81.2656400203223
9.072,1.0,81.17364227964603
9.08,1.0,81.0816329188266
9.088000000000001,1.0,80.98961193278653
9.096,1.0,80.89757931646473
9.104,1.0,80.8055350648165
9.112,1.0,80.71347917281354
9.120000000000001,0.9999999999999999,80.6214116354441
9.128,1.0,80.52933244771295
9.136,1.0000000000000002,80.43724160464139
9.144,0.9999999999999999,80.3451391012673
9.152000000000001,1.0,80.25302493264529
9.16,0.9999999999999999,80.16089909384664
9.168,1.0,80.06876157995929
9.176,1.0,79.97661238608796
9.184000000000001,0.9999999999999999,79.88445150735426
9.192,1.0,79.7922789388966
9.2,1.0,79.7000946758702
9.208,1.0,79.60789871344728
9.216000000000001,0.9999999999999999,79.51569104681703
9.224,1.0,79.4234716711856
9.232,1.0,79.33124058177617
9.24,1.0,79.23899777382898
9.248000000000001,1.0,79.14674324260147
9.256,0.9999999999999999,79.05447698336818
9.264,1.0,78.96219899142078
9.272,1.0,78.8699092620682
9.280000000000001,1.0,78.77760779063667
9.288,1.0,78.68529457246966
9.296,1.0,78.59296960292801
9.304,0.9999999999999999,78.50063287738986
9.312000000000001,1.0,78.40828439125082
9.32,1.0,78.31592413992392
9.328,0.9999999999999999,78.22355211883965
9.336,0.9999999999999999,78.13116832344595
9.344,0.9999999999999999,78.03877274920842
9.352,0.9999999999999999,77.94636539161009
9.36,1.0,77.85394624615172
9.368,0.9999999999999999,77.76151530835159
9.376,1.0,77.66907257374578
9.384,1.0,77.57661803788793
9.392,1.0,77.48415169634951
9.4,1.0,77.39167354471971
9.408,1.0,77.29918357860554
9.416,0.9999999999999998,77.20668179363179
9.424,0.9999999999999999,77.11416818544116
9.432,1.0,77.02164274969421
9.44,1.0,76.92910548206937
9.448,0.9999999999999999,76.83655637826308
9.456,1.0,76.74399543398974
9.464,1.0,76.65142264498165
9.472,0.9999999999999998,76.55883800698926
9.48,0.9999999999999999,76.46624151578098
9.488,1.0,76.37363316714338
9.496,1.0,76.28101295688103
9.504,1.0,76.18838088081672
9.512,0.9999999999999998,76.09573693479132
9.52,0.9999999999999999,76.00308111466391
9.528,0.9999999999999999,75.91041341631174
9.536,1.0,75.81773383563034
9.544,0.9999999999999999,75.7250423685334
9.552,0.9999999999999999,75.63233901095295
9.56,1.0,75.53962375883923
9.568,1.0,75.44689660816087
9.576,1.0,75.35415755490472
9.584,1.0,75.26140659507608
9.592,1.0,75.16864372469851
9.6,1.0,75.07586893981404
9.608,1.0,74.98308223648303
9.616,1.0,74.8902836107843
9.624,1.0,74.797473058815
9.632,1.0,74.70465057669088
9.64,1.0,74.61181616054596
9.648,0.9999999999999999,74.51896980653287
9.656,0.9999999999999999,74.42611151082264
9.664,1.0,74.33324126960481
9.672,1.0000000000000002,74.24035907908743
9.68,1.0,74.14746493549704
9.688,1.0,74.05455883507868
9.696,1.0,73.96164077409598
9.704,0.9999999999999999,73.86871074883102
9.712,0.9999999999999999,73.77576875558447
9.72,1.0,73.68281479067548
9.728,1.0,73.58984885044183
9.736,0.9999999999999998,73.49687093123974
9.744,0.9999999999999999,73.40388102944408
9.752,0.9999999999999999,73.31087914144815
9.76,0.9999999999999999,73.21786526366392
9.768,0.9999999999999999,73.1248393925218
9.776,1.0,73.03180152447078
9.784,0.9999999999999999,72.93875165597836
9.792,0.9999999999999999,72.84568978353062
9.8,1.0,72.75261590363208
9.808,0.9999999999999999,72.65953001280583
9.816,1.0,72.56643210759344
9.824,1.0,72.47332218455497
9.832,0.9999999999999999,72.38020024026892
9.84,0.9999999999999999,72.28706627133232
9.847999999999999,1.0,72.19392027436061
9.856,0.9999999999999999,72.1007622459876
9.864,0.9999999999999998,72.0075921828656
9.872,1.0,71.91441008166524
9.879999999999999,1.0,71.82121593907557
9.888,0.9999999999999999,71.7280097518039
9.896,1.0,71.63479151657592
9.904,1.0,71.5415612301356
9.911999999999999,1.0,71.44831888924514
9.92,0.9999999999999999,71.35506449068495
9.928,0.9999999999999999,71.26179803125365
9.936,1.0,71.16851950776805
9.943999999999999,1.0000000000000002,71.07522891706304
9.952,1.0,70.98192625599157
9.96,0.9999999999999999,70.88861152142465
9.968,1.0,70.79528471025128
9.975999999999999,0.9999999999999999,70.7019458193784
9.984,1.0,70.60859484573082
9.992,1.0,70.51523178625126
10.0,0.9999999999999999,70.42185663790018
10.008,1.0,70.32846939765578
10.016,1.0,70.23507006251394
10.024000000000001,1.0,70.14165862948815
10.032,0.9999999999999999,70.04823509560948
10.04,1.0,69.95479945792646
10.048,0.9999999999999999,69.861351713505
10.056000000000001,0.9999999999999998,69.76789185942843
10.064,1.0,69.67441989279732
10.072,0.9999999999999999,69.58093581072937
10.08,0.9999999999999999,69.48743961035943
10.088000000000001,1.0,69.39393128883938
10.096,1.0,69.30041084333804
10.104,0.9999999999999999,69.20687827104102
10.112,1.0,69.11333356915071
10.120000000000001,1.0,69.01977673488615
10.128,0.9999999999999999,68.92620776548294
10.136,0.9999999999999998,68.83262665819306
10.144,1.0,68.73903341028485
10.152000000000001,1.0,68.64542801904288
10.16,0.9999999999999999,68.55181048176777
10.168,0.9999999999999999,68.45818079577617
10.176,1.0,68.36453895840053
10.184000000000001,1.0,68.270884966989
10.192,0.9999999999999999,68.17721881890536
10.2,0.9999999999999998,68.08354051152882
10.208,1.0,67.9898500422538
10.216000000000001,1.0,67.89614740848998
10.224,1.0000000000000002,67.80243260766197
10.232,0.9999999999999999,67.7087056372092
10.24,1.0,67.61496649458574
10.248000000000001,1.0,67.5212151772602
10.256,0.9999999999999999,67.42745168271551
10.264,1.0,67.33367600844872
10.272,1.0,67.23988815197073
10.280000000000001,0.9999999999999999,67.14608811080633
10.288,1.0,67.05227588249386
10.296,1.0,66.95845146458484
10.304,1.0,66.86461485464412
10.312000000000001,0.9999999999999999,66.7707660502493
10.32,1.0,66.67690504899086
10.328,0.9999999999999999,66.58303184847153
10.336,1.0,66.48914644630635
10.344000000000001,1.0,66.39524884012235
10.352,1.0,66.30133902755829
10.36,1.0000000000000002,66.2074170062643
10.368,1.0,66.11348277390172
10.376000000000001,0.9999999999999999,66.01953632814288
10.384,1.0,65.92557766667066
10.392,0.9999999999999999,65.83160678717827
10.4,0.9999999999999999,65.73762368736898
10.408000000000001,1.0,65.64362836495573
