freq,mag,phase
6.0,0.9999945788799495,77.65049195789936
6.008,0.9999950895829961,77.49532440334785
6.016,0.999995586618762,77.34008863536945
6.024,0.9999960702096699,77.18478460165255
6.032,0.9999965405756973,77.02941225029355
6.04,0.999996997934392,76.87397152979831
6.048,0.9999974425008843,76.7184623890837
6.056,0.9999978744879047,76.56288477747891
6.064,0.9999982941057975,76.40723864472704
6.072,0.9999987015625359,76.25152394098653
6.08,0.9999990970637367,76.09574061683246
6.088,0.9999994808126759,75.93988862325823
6.096,0.9999998530103033,75.78396791167678
6.104,1.0,75.62797843392214
6.112,1.0,75.47192014225081
6.12,0.9999999999999999,75.31579298934317
6.128,1.0,75.1595969283049
6.136,0.9999999999999999,75.00333191266839
6.144,1.0,74.84699789639417
6.152,1.0,74.69059483387223
6.16,1.0,74.53412267992344
6.168,1.0,74.37758138980102
6.176,0.9999999999999999,74.22097091919176
6.184,0.9999999999999999,74.06429122421754
6.192,0.9999999999999999,73.90754226143655
6.2,1.0,73.75072398784481
6.208,1.0,73.59383636087739
6.216,0.9999999999999999,73.43687933840987
6.224,1.0,73.27985287875957
6.232,1.0,73.12275694068698
6.24,0.9999999999999999,72.96559148339705
6.248,1.0,72.80835646654049
6.256,0.9999999999999999,72.65105185021515
6.264,1.0,72.49367759496732
6.272,1.0,72.33623366179299
6.28,1.0,72.17872001213918
6.288,0.9999999999999999,72.02113660790525
6.296,0.9999999999999999,71.86348341144416
6.304,0.9999999999999998,71.70576038556382
6.312,0.9999999999999999,71.54796749352823
6.32,1.0,71.39010469905892
6.328,0.9999999999999998,71.2321719663361
6.336,1.0,71.07416925999995
6.344,1.0,70.91609654515185
6.352,1.0,70.75795378735567
6.36,0.9999999999999999,70.59974095263898
6.368,0.9999999999999999,70.44145800749433
6.376,1.0,70.2831049188804
6.384,1.0,70.12468165422322
6.392,1.0,69.96618818141751
6.4,1.0,69.80762446882773
6.408,0.9999999999999999,69.6489904852894
6.416,1.0,69.49028620011018
6.424,1.0,69.3315115830712
6.432,1.0,69.17266660442814
6.44,1.0,69.01375123491239
6.448,1.0,68.85476544573231
6.456,0.9999999999999999,68.69570920857433
6.464,0.9999999999999999,68.53658249560411
6.472,1.0,68.37738527946767
6.48,0.9999999999999999,68.21811753329261
6.4879999999999995,0.9999999999999999,68.05877923068918
6.496,1.0,67.89937034575136
6.504,1.0,67.73989085305814
6.5120000000000005,1.0,67.58034072767444
6.52,1.0,67.42071994515241
6.5280000000000005,0.9999999999999999,67.26102848153235
6.536,0.9999999999999999,67.10126631334398
6.5440000000000005,0.9999999999999998,66.94143341760736
6.552,0.9999999999999999,66.7815297718341
6.5600000000000005,1.0,66.62155535402835
6.568,1.0,66.46151014268793
6.5760000000000005,1.0,66.30139411680534
6.584,0.9999999999999999,66.14120725586888
6.592,0.9999999999999999,65.98094953986356
6.6,1.0,65.82062094927231
6.608,0.9999999999999999,65.66022146507687
6.616,1.0,65.49975106875894
6.624,1.0,65.33920974230108
6.632,1.0,65.17859746818779
6.64,1.0,65.01791422940649
6.648,1.0,64.85716000944852
6.656,0.9999999999999999,64.69633479231014
6.664,1.0,64.5354385624935
6.672,1.0,64.3744713050076
6.68,0.9999999999999999,64.21343300536931
6.688,1.0,64.05232364960425
6.696,1.0,63.89114322424778
6.704,1.0,63.72989171634601
6.712,1.0,63.568569113456626
6.72,1.0,63.40717540364988
6.728,1.0,63.24571057550952
6.736,1.0,63.084174618133666
6.744,1.0,62.92256752113577
6.752,0.9999999999999999,62.760889274645486
6.76,1.0000000000000002,62.599139869309525
6.768,1.0,62.43731929629264
6.776,0.9999999999999999,62.275427547278404
6.784,1.0,62.11346461447016
6.792,1.0,61.95143049059179
6.8,0.9999999999999999,61.78932516888869
6.808,0.9999999999999999,61.62714864312849
6.816,0.9999999999999999,61.46490090760202
6.824,1.0,61.30258195712403
6.832,1.0,61.1401917870341
6.84,1.0,60.97773039319741
6.848,1.0,60.815197772005554
6.856,0.9999999999999999,60.652593920377356
6.864,1.0,60.489918835759646
6.872,1.0,60.3271725161281
6.88,1.0,60.16435495998792
6.888,0.9999999999999999,60.00146616637468
6.896,0.9999999999999999,59.83850613485507
6.904,0.9999999999999999,59.6754748655277
6.912,1.0,59.5123723590237
6.92,1.0,59.349198616507636
6.928,1.0,59.185953639678104
6.936,1.0,59.02263743076856
6.944,1.0,58.85924999254799
6.952,1.0,58.69579132832153
6.96,1.0,58.53226144193139
6.968,1.0,58.36866033775728
6.976,0.9999999999999999,58.20498802071725
6.984,1.0,58.0412444962684
6.992,1.0,57.87742977040739
7.0,1.0,57.71354384967127
7.008,1.0,57.549586741138
7.016,0.9999999999999999,57.3855584524272
7.024,1.0,57.22145899170068
7.032,1.0,57.057288367663126
7.04,1.0,56.89304658956278
7.048,1.0,56.7287336671919
7.056,0.9999999999999999,56.56434961088751
7.064,0.9999999999999999,56.399894431531884
7.072,1.0,56.23536814055323
7.08,1.0,56.070770749926226
7.088,1.0,55.9061022721725
7.096,1.0,55.74136272036138
7.104,0.9999999999999999,55.57655210811028
7.112,1.0,55.41167044958537
7.12,0.9999999999999999,55.246717759502026
7.128,1.0,55.08169405312535
7.136,1.0,54.91659934627079
7.144,0.9999999999999999,54.751433655304574
7.152,1.0,54.586196997144235
7.16,0.9999999999999999,54.42088938925909
7.168,0.9999999999999999,54.25551084967077
7.176,1.0,54.09006139695367
7.184,1.0,53.92454105023542
7.192,0.9999999999999999,53.75894982919734
7.2,0.9999999999999999,53.59328775407496
7.208,1.0,53.42755484565835
7.216,0.9999999999999999,53.26175112529265
7.224,0.9999999897863467,53.09587661487848
7.232,0.9999998878959084,52.92993133687236
7.24,0.9999997864681349,52.76391531428711
7.248,0.9999996855169566,52.59782857069226
7.256,0.9999995850558991,52.43167113021446
7.264,0.9999994850980924,52.26544301753785
7.272,0.9999993856562819,52.099144257904435
7.28,0.9999992867428349,51.9327748771145
7.288,0.9999991883697528,51.76633490152691
7.296,0.999999090548678,51.599824358059514
7.304,0.9999989932909041,51.43324327418946
7.312,0.9999988966073848,51.26659167795357
7.32,0.9999988005087425,51.09986959794862
7.328,0.9999987050052769,50.93307706333168
7.336,0.9999986101069752,50.76621410382046
7.344,0.9999985158235188,50.59928074969356
7.352,0.9999984221642927,50.432277031790804
7.36,0.9999983291383953,50.26520298151349
7.368,0.9999982367546443,50.09805863082475
7.376,0.999998145021587,49.930844012249686
7.384,0.9999980539475082,49.76355915887575
7.392,0.9999979635404372,49.59620410435295
7.4,0.9999978738081583,49.42877888289409
7.4079999999999995,0.999997784758216,49.26128352927506
7.416,0.9999976963979248,49.093718078834904
7.4239999999999995,0.9999976087343762,48.92608256747627
7.432,0.9999975217744475,48.758377031665425
7.4399999999999995,0.9999974355248075,48.59060150843265
7.448,0.9999973499919265,48.422756035372124
7.4559999999999995,0.9999972651820823,48.25484065064252
7.464,0.9999971811013673,48.08685539296681
7.4719999999999995,0.9999970977556969,47.91880030163267
7.48,0.9999970151508161,47.75067541649249
7.4879999999999995,0.9999969332923074,47.5824807779637
7.496,0.9999968521855966,47.41421642702866
7.504,0.9999967718359605,47.245882405235115
7.5120000000000005,0.9999966922485343,47.077478754695946
7.52,0.9999966134283171,46.90900551808971
7.5280000000000005,0.9999965353801802,46.74046273866029
7.536,0.999996458108872,46.571850460217426
7.5440000000000005,0.9999963816190263,46.40316872713647
7.552,0.9999963059151669,46.23441758435875
7.5600000000000005,0.999996231001716,46.06559707739133
7.568,0.9999961568829983,45.89670725230743
7.5760000000000005,0.9999960835632488,45.727748155746134
7.584,0.9999960110466185,45.5587198349128
7.5920000000000005,0.99999593933718,45.38962233757869
7.6,0.9999958684389336,45.220455712081424
7.6080000000000005,0.999995798355813,45.05122000732462
7.616,0.9999957290916919,44.88191527277829
7.6240000000000006,0.9999956606503879,44.71254155847844
7.632,0.9999955930356696,44.54309891502746
7.640000000000001,0.9999955262512618,44.37358739359374
7.648,0.9999954603008497,44.204007045912036
7.656000000000001,0.9999953951880858,44.03435792428307
7.664,0.9999953309165941,43.86464008157383
7.672,0.9999952674899751,43.69485357121725
7.68,0.9999952049118118,43.52499844721232
7.688,0.9999951431856726,43.355074764123955
7.696,0.9999950823151188,43.185082577083
7.704,0.999995022303707,43.015021941786046
7.712,0.999994963154995,42.844892914495446
7.72,0.9999949048725457,42.674695552039125
7.728,0.9999948474599323,42.50442991181057
7.736,0.9999947909207418,42.33409605176863
7.744,0.9999947352585793,42.163694030437505
7.752,0.9999946804770736,41.99322390690651
7.76,0.9999946265798786,41.82268574082994
7.768,0.9999945735706799,41.65207959242704
7.776,0.9999945214531977,41.481405522481765
7.784,0.9999944702311898,41.31066359234259
7.792,0.9999944199084561,41.139853863922426
7.8,0.9999943704888428,40.968976399698334
7.808,0.9999943219762447,40.79803126271149
7.816,0.9999942743746092,40.627018516566814
7.824,0.9999942276879399,40.4559382254329
7.832,0.9999941819202992,40.28479045404173
7.84,0.9999941370758119,40.11357526768852
7.848,0.9999940931586682,39.94229273223139
7.856,0.9999940501731265,39.770942914091265
7.864,0.9999940081235161,39.59952588025147
7.872,0.9999939670142415,39.42804169825764
7.88,0.999993926849782,39.25649043621731
7.888,0.9999938876346978,39.08487216279976
7.896,0.9999938493736298,38.91318694723569
7.904,0.9999938120713034,38.74143485931688
7.912,0.9999937757325307,38.56961596939603
7.92,0.9999937403622119,38.39773034838632
7.928,0.9999937059653393,38.225778067761176
7.936,0.9999936725469966,38.05375919955392
7.944,0.9999936401123635,37.88167381635749
7.952,0.9999936086667156,37.709521991324
7.96,0.9999935782154281,37.53730379816456
7.968,0.9999935487639748,37.36501931114873
7.976,0.9999935203179333,37.19266860510432
7.984,0.999993492882983,37.020251755416965
7.992,0.9999934664649084,36.84776883802969
8.0,0.9999934410696006,36.675219929442655
8.008,0.9999934167030574,36.502605106712636
8.016,0.9999933933713855,36.32992444745267
8.024000000000001,0.9999933710808006,36.157178029831684
8.032,0.9999933498376294,35.98436593257409
8.04,0.9999933296483103,35.81148823495924
8.048,0.9999933105193927,35.63854501682108
8.056000000000001,0.9999932924575401,35.465536358547745
8.064,0.999993275469529,35.29246234108106
8.072,0.9999932595622503,35.11932304591609
8.08,0.9999932447427091,34.9461185551006
8.088000000000001,0.9999932310180257,34.77284895123477
8.096,0.9999932183954354,34.59951431747059
8.104,0.9999932068822892,34.42611473751134
8.112,0.9999931964860531,34.25265029561111
8.120000000000001,0.9999931872143092,34.0791210765744
8.128,0.9999931790747544,33.90552716575555
8.136,0.999993172075202,33.73186864905812
8.144,0.9999931662235793,33.558145612934474
8.152000000000001,0.9999931615279292,33.38435814438522
8.16,0.9999931579964085,33.21050633095875
8.168,0.9999931556372889,33.036590260750465
8.176,0.9999931544589542,32.86261002240238
8.184000000000001,0.9999931544699019,32.68856570510262
8.192,0.9999931556787415,32.51445739858473
8.2,0.9999931580941936,32.34028519312705
8.208,0.9999931617250892,32.166049179552196
8.216000000000001,0.9999931665803691,31.991749449226553
8.224,0.9999931726690819,31.817386094059543
8.232,0.9999931800003843,31.642959206503015
8.24,0.9999931885835386,31.468468879550578
8.248000000000001,0.999993198427912,31.293915206737246
8.256,0.9999932095429763,31.11929828213851
8.264,0.9999932219383036,30.944618200369717
8.272,0.9999932356235681,30.769875056585555
8.280000000000001,0.9999932506085429,30.595068946479362
8.288,0.9999932669030976,30.420199966282404
8.296,0.9999932845171993,30.24526821276323
8.304,0.9999933034609071,30.07027378322689
8.312,0.9999933237443738,29.895216775514534
8.32,0.9999933453778417,29.720097288002314
8.328,0.9999933683716408,29.54491541960108
8.336,0.999993392736188,29.36967126975531
8.344,0.9999934184819844,29.194364938442703
8.352,0.9999934456196117,29.018996526173158
8.36,0.9999934741597325,28.843566133988336
8.368,0.9999935041130853,28.66807386346064
8.376,0.9999935354904841,28.49251981669273
8.384,0.999993568302815,28.316904096316485
8.392,0.999993602561034,28.141226805492526
8.4,0.9999936382761634,27.965488047909187
8.408,0.9999936754592911,27.78968792778197
8.416,0.9999937141215661,27.61382654985252
8.424,0.9999937542741963,27.437904019388085
8.432,0.9999937959284457,27.261920442180458
8.44,0.9999938390956317,27.08587592454544
8.448,0.9999938837871214,26.909770573321723
8.456,0.9999939300143292,26.733604495870384
8.464,0.9999939777887136,26.557377800073755
8.472,0.9999940271217738,26.38109059433487
8.48,0.9999940780250469,26.20474298757632
8.488,0.9999941305101043,26.028335089239725
8.496,0.999994184588548,25.85186700928457
8.504,0.9999942402720082,25.675338858187608
8.512,0.9999942975721391,25.498750746941713
8.52,0.9999943565006155,25.322102787055314
8.528,0.9999944170691296,25.145395090551176
8.536,0.9999944792893872,24.968627769965817
8.544,0.9999945431731038,24.7918009383483
8.552,0.9999946087320017,24.614914709259654
8.56,0.999994675977805,24.43796919677163
8.568,0.9999947449222367,24.260964515466068
8.576,0.9999948155770154,24.083900780433705
8.584,0.9999948879538499,23.906778107273507
8.592,0.9999949620644367,23.729596612091402
8.6,0.9999950379204544,23.55235641149973
8.608,0.9999951155335619,23.375057622615856
8.616,0.9999951949153927,23.197700363061575
8.624,0.999995276077551,23.02028475096184
8.632,0.9999953590316081,22.842810904944066
8.64,0.9999954437890974,22.66527894413685
8.648,0.9999955303615117,22.487688988169268
8.656,0.9999956187602969,22.3100411571696
8.664,0.9999957089968495,22.132335571764578
8.672,0.9999958010825116,21.954572353078113
8.68,0.9999958950285657,21.776751622730583
8.688,0.9999959908462319,21.598873502837435
8.696,0.9999960885466622,21.420938116008543
8.704,0.9999961881409366,21.242945585346792
8.712,0.9999962896400588,21.06489603444736
8.72,0.9999963930549512,20.886789587396375
8.728,0.9999964983964504,20.70862636877012
8.736,0.9999966056753032,20.530406503633696
8.744,0.9999967149021612,20.35213011754021
8.752,0.9999968260875772,20.17379733652943
8.76,0.999996939241999,19.995408287126974
8.768,0.999997054375766,19.816963096342924
8.776,0.999997171499105,19.638461891670993
8.784,0.9999972906221237,19.45990480108715
8.792,0.9999974117548073,19.281291953048804
8.8,0.999997534907013,19.10262347649334
8.808,0.9999976600884665,18.92389950083733
8.815999999999999,0.9999977873087557,18.745120155975105
8.824,0.9999979165773261,18.566285572277742
8.832,0.9999980479034777,18.387395880592
8.84,0.9999981812963579,18.20845121223902
8.847999999999999,0.9999983167649579,18.02945169901319
8.856,0.9999984543181079,17.850397473180934
8.864,0.9999985939644713,17.67128866747971
8.872,0.9999987357125415,17.492125415116693
8.879999999999999,0.9999988795706356,17.31290784976752
8.888,0.9999990255468895,17.13363610557516
8.896,0.9999991736492537,16.954310317148806
8.904,0.9999993238854891,16.774930619562554
8.911999999999999,0.9999994762631601,16.595497148354166
8.92,0.999999630789631,16.416010039523847
8.928,0.9999997874720618,16.23646942953314
8.936,0.999999946317401,16.05687545530359
8.943999999999999,0.9999999999999999,15.877228254215433
8.952,1.0,15.697527964106413
8.96,1.0,15.517774723270605
8.968,0.9999999999999999,15.337968670457066
8.975999999999999,0.9999999999999999,15.158109944868478
8.984,1.0,14.978198686159985
8.992,0.9999999999999999,14.798235034437925
9.0,1.0,14.618219130258513
9.008,0.9999999999999998,14.438151114626438
9.016,1.0,14.258031128993615
9.024000000000001,0.9999999999999999,14.077859315258003
9.032,0.9999999999999999,13.897635815762168
9.04,0.9999999999999999,13.717360773291892
9.048,1.0,13.537034331074898
9.056000000000001,0.9999999999999998,13.356656632779632
9.064,0.9999999999999999,13.176227822513795
9.072,1.0,12.995748044822923
9.08,0.9999999999999999,12.815217444689123
9.088000000000001,0.9999999999999999,12.634636167529768
9.096,0.9999999999999999,12.454004359196043
9.104,1.0,12.2733221659715
9.112,1.0,12.092589734570742
9.120000000000001,1.0,11.911807212138099
9.128,1.0,11.730974746246163
9.136,1.0,11.5500924848943
9.144,1.0,11.369160576507296
9.152000000000001,1.0,11.188179169934047
9.16,1.0,11.007148414446034
9.168,1.0,10.826068459735788
9.176,1.0,10.644939455915576
9.184000000000001,1.0,10.46376155351599
9.192,0.9999999999999999,10.282534903484434
9.2,0.9999999999999999,10.101259657183572
9.208,1.0,9.919935966389952
9.216000000000001,1.0,9.738563983292597
9.224,0.9999999999999999,9.557143860491438
9.232,0.9999999999999999,9.375675750995764
9.24,0.9999999999999999,9.194159808222794
9.248000000000001,1.0,9.012596185996246
9.256,1.0,8.830985038544766
9.264,0.9999999999999998,8.649326520500315
9.272,0.9999999999999999,8.467620786896717
9.280000000000001,1.0,8.28586799316824
9.288,0.9999999999999999,8.104068295147954
9.296,1.0,7.922221849066087
9.304,1.0,7.740328811548605
9.312000000000001,1.0,7.558389339615679
9.32,1.0,7.3764035906800745
9.328,1.0,7.194371722545486
9.336,1.0,7.012293893405034
9.344,1.0,6.830170261839787
9.352,1.0,6.648000986816912
9.36,1.0,6.46578622768838
9.368,1.0,6.283526144189027
9.376,0.9999999999999999,6.101220896435266
9.384,0.9999999999999999,5.918870644923158
9.392,0.9999999999999999,5.736475550527067
9.4,1.0,5.554035774497732
9.408,0.9999999999999999,5.371551478460935
9.416,1.0,5.189022824415514
9.424,1.0,5.006449974732039
9.432,1.0,4.823833092150824
9.44,0.9999999999999999,4.641172339780557
9.448,1.0,4.458467881096308
9.456,1.0,4.275719879938171
9.464,1.0,4.092928500509228
9.472,0.9999999999999999,3.9100939073741765
9.48,1.0,3.7272162654572774
9.488,1.0,3.5442957400409942
9.496,0.9999999999999998,3.3613324967639087
9.504,0.9999999999999999,3.178326701619318
9.512,1.0,2.9952785209531916
9.52,1.0,2.812188121462711
9.528,0.9999999999999999,2.6290556701942114
9.536,1.0,2.445881334541733
9.544,1.0,2.262665282244919
9.552,1.0,2.0794076813875693
9.56,1.0,1.8961087003955364
9.568,0.9999999999999999,1.712768508035218
9.576,1.0,1.529387273411465
9.584,1.0,1.3459651659660754
9.592,1.0,1.162502355475672
9.6,0.9999999999999999,0.9789990120501599
9.608,1.0,0.7954553061306086
9.616,1.0,0.6118714084877026
9.624,1.0,0.42824749021958075
9.632,1.0,0.2445837227503
9.64,0.9999999999999999,0.06088027782763936
9.648,1.0,-0.12286267247845
9.656,1.0,-0.30664495577805195
9.664,0.9999999999999999,-0.49046639936285163
9.672,1.0,-0.6743268302083685
9.68,0.9999999999999999,-0.8582260749755206
9.688,1.0,-1.042163960012895
9.696,0.9999999999999999,-1.2261403113583211
9.704,1.0,-1.4101549547411427
9.712,1.0,-1.594207715583835
9.72,0.9999999999999999,-1.77829841900427
9.728,0.9999999999999999,-1.9624268898173634
9.736,0.9999999999999999,-2.146592952537354
9.744,1.0,-2.330796431379468
9.752,1.0,-2.515037150262212
9.76,0.9999999999999999,-2.6993149328090515
9.768,1.0,-2.88362960235074
9.776,0.9999999999999999,-3.0679809819269988
9.784,0.9999999999999999,-3.2523688942888516
9.792,1.0,-3.4367931619003484
9.8,1.0,-3.6212536069409107
9.808,1.0,-3.805750051307059
9.816,1.0,-3.990282316614783
9.824,1.0,-4.17485022420129
9.832,0.9999999999999999,-4.359453595127406
9.84,1.0,-4.5440922501793075
9.847999999999999,0.9999999999999998,-4.728766009870921
9.856,1.0,-4.9134746944458945
9.864,1.0,-5.0982181238796205
9.872,0.9999999999999998,-5.282996117881427
9.879999999999999,0.9999999999999999,-5.467808495896804
9.888,1.0,-5.652655077109442
9.896,1.0,-5.837535680443303
9.904,0.9999999999999999,-6.022450124564862
9.911999999999999,0.9999999999999999,-6.207398227885336
9.92,1.0,-6.392379808562786
9.928,0.9999999999999999,-6.577394684504229
9.936,1.0,-6.762442673367887
9.943999999999999,1.0,-6.947523592565495
9.952,0.9999999999999999,-7.132637259264412
9.96,1.0,-7.317783490389767
9.968,1.0,-7.502962102626782
9.975999999999999,1.0,-7.688172912423075
9.984,0.9999999999999999,-7.873415735990846
9.992,0.9999999999999999,-8.05869038930904
10.0,1.0,-8.243996688125712
10.008,0.9999999999999999,-8.429334447960375
10.016,1.0,-8.61470348410623
10.024000000000001,1.0,-8.80010361163235
10.032,0.9999999999999998,-8.985534645386108
10.04,0.9999999999999999,-9.17099639999555
10.048,0.9999999999999999,-9.356488689871664
10.056000000000001,1.0,-9.542011329210613
