freq,mag,phase
6.0,0.9999930042135126,-121.5857341648455
6.008,0.9999937429851431,-121.98940899709656
6.016,0.999994469869906,-122.39279246403463
6.024,0.9999951848296331,-122.79588524920194
6.032,0.9999958878293771,-123.19868805221186
6.04,0.9999965788373721,-123.60120158860715
6.048,0.9999972578249964,-124.00342658971837
6.056,0.9999979247667325,-124.40536380252273
6.064,0.9999985796401314,-124.80701398950292
6.072,0.9999992224257709,-125.2083779285063
6.08,0.9999998531072188,-125.60945641260464
6.088,1.0,-126.01025024995366
6.096,1.0,-126.4107602636532
6.104,1.0,-126.81098729160779
6.112,0.9999999999999999,-127.2109321863873
6.12,0.9999999999999999,-127.61059581508819
6.128,1.0,-128.00997905919493
6.136,1.0,-128.40908281444194
6.144,1.0,-128.80790799067594
6.152,1.0,-129.20645551171867
6.16,1.0,-129.60472631523004
6.168,1.0,-130.0027213525716
6.176,1.0,-130.40044158867084
6.184,1.0,-130.79788800188544
6.192,0.9999999999999999,-131.19506158386855
6.2,1.0,-131.591963339434
6.208,1.0,-131.9885942864224
6.216,0.9999999999999999,-132.38495545556773
6.224,1.0000000000000002,-132.78104789036422
6.232,1.0,-133.17687264693402
6.24,1.0,-133.5724307938952
6.248,1.0,-133.96772341223044
6.256,1.0,-134.36275159515634
6.264,1.0,-134.75751644799303
6.272,1.0,-135.15201908803468
6.28,1.0,-135.5462606444204
6.288,1.0,-135.94024225800595
6.296,0.9999999999999999,-136.33396508123542
6.304,1.0,-136.72743027801462
6.312,0.9999999999999999,-137.12063902358418
6.32,1.0,-137.5135925043935
6.328,0.9999999999999999,-137.90629191797558
6.336,1.0,-138.29873847282215
6.344,1.0,-138.6909333882597
6.352,1.0,-139.0828778943262
6.36,1.0,-139.47457323164818
6.368,0.9999999999999999,-139.86602065131868
6.376,1.0,-140.25722141477596
6.384,1.0,-140.64817679368247
6.392,0.9999999999999999,-141.0388880698054
6.4,0.9999999999999998,-141.42935653489664
6.408,0.9999999999999999,-141.81958349057442
6.416,0.9999999999999999,-142.20957024820547
6.424,1.0,-142.59931812878742
6.432,1.0,-142.98882846283243
6.44,1.0,-143.37810259025113
6.448,1.0,-143.76714186023779
6.456,1.0,-144.15594763115536
6.464,1.0,-144.54452127042214
6.472,1.0,-144.93286415439846
6.48,0.9999999999999998,-145.32097766827462
6.4879999999999995,0.9999999999999999,-145.70886320595898
6.496,1.0,-146.09652216996741
6.504,1.0000000000000002,-146.48395597131287
6.5120000000000005,1.0,-146.87116602939605
6.52,0.9999999999999999,-147.2581537718968
6.5280000000000005,0.9999999999999999,-147.64492063466597
6.536,1.0000000000000002,-148.0314680616181
6.5440000000000005,1.0,-148.41779750462538
6.552,1.0,-148.80391042341108
6.5600000000000005,0.9999999999999999,-149.18980828544522
6.568,1.0000000000000002,-149.57549256583968
6.5760000000000005,1.0,-149.96096474724507
6.584,1.0,-150.34622631974733
6.592,1.0,-150.73127878076608
6.6,1.0,-151.11612363495288
6.608,1.0,-151.5007623940907
6.616,1.0,-151.8851965769938
6.624,1.0,-152.26942770940857
6.632,1.0,-152.6534573239151
6.64,0.9999999999999999,-153.03728695982932
6.648,1.0,-153.42091816310577
6.656,0.9999999999999998,-153.80435248624156
6.664,1.0,-154.18759148818043
6.672,1.0,-154.57063673421806
6.68,1.0,-154.9534897959077
6.688,1.0,-155.33615225096688
6.696,1.0,-155.71862568318437
6.704,1.0,-156.10091168232833
6.712,1.0,-156.4830118440549
6.72,1.0,-156.86492776981734
6.728,1.0,-157.2466610667764
6.736,1.0,-157.62821334771078
6.744,0.9999999999999999,-158.00958623092865
6.752,1.0,-158.39078134017979
6.76,1.0,-158.7718003045684
6.768,0.9999999999999999,-159.1526447584665
6.776,0.9999999999999999,-159.5333163414282
6.784,0.9999999999999999,-159.91381669810448
6.792,0.9999999999999999,-160.29414747815878
6.8,1.0,-160.67431033618314
6.808,0.9999999999999999,-161.054306931615
6.816,1.0,-161.4341389286549
6.824,1.0,-161.81380799618438
6.832,1.0,-162.1933158076851
6.84,1.0,-162.57266404115813
6.848,1.0,-162.95185437904414
6.856,0.9999999999999999,-163.3308885081441
6.864,1.0,-163.70976811954083
6.872,0.9999999999999999,-164.08849490852091
6.88,1.0,-164.4670705744973
6.888,1.0,-164.84549682093282
6.896,1.0,-165.2237753552638
6.904,1.0,-165.60190788882483
6.912,0.9999999999999999,-165.97989613677368
6.92,0.9999999999999999,-166.3577418180172
6.928,0.9999999999999999,-166.7354466551375
6.936,0.9999999999999999,-167.11301237431906
6.944,1.0,-167.49044070527592
6.952,0.9999999999999999,-167.8677333811801
6.96,1.0,-168.2448921385901
6.968,1.0,-168.6219187173801
6.976,1.0,-168.9988148606699
6.984,1.0,-169.3755823147552
6.992,0.9999999999999999,-169.7522228290385
7.0,1.0,-170.1287381559606
7.008,0.9999999999999999,-170.5051300509327
7.016,0.9999999999999999,-170.88140027226885
7.024,0.9999999999999999,-171.25755058111898
7.032,0.9999999999999998,-171.63358274140276
7.04,1.0,-172.00949851974354
7.048,1.0,-172.38529968540297
7.056,0.9999999999999998,-172.76098801021632
7.064,0.9999999999999999,-173.1365652685282
7.072,0.9999999999999999,-173.51203323712832
7.08,0.9999999284472472,-173.88739369518873
7.088,0.9999995378339863,-174.26264842420056
7.096,0.9999991455491515,-174.6377992079118
7.104,0.9999987516995249,-175.01284783226538
7.112,0.9999983563914394,-175.3877960853377
7.12,0.9999979597307653,-175.7626457572778
7.128,0.9999975618228999,-176.13739864024666
7.136,0.9999971627727534,-176.5120565283573
7.144,0.9999967626847397,-176.88662121761513
7.152,0.9999963616627626,-177.26109450585875
7.16,0.9999959598102055,-177.63547819270113
7.168,0.9999955572299196,-178.0097740794715
7.176,0.9999951540242136,-178.38398396915724
7.184,0.9999947502948421,-178.75810966634654
7.192,0.9999943461429961,-179.1321529771712
7.2,0.9999939416692909,-179.50611570925005
7.208,0.9999935369737554,-179.8799996716327
7.216,0.9999931321558259,179.74619332525657
7.224,0.999992727314331,179.37246146967405
7.232,0.9999923225474844,178.998802948612
7.24,0.9999919179528756,178.62521594785306
7.248,0.9999915136274585,178.2516986520252
7.256,0.9999911096675449,177.87824924465517
7.264,0.9999907061687923,177.50486590822265
7.272,0.999990303226196,177.1315468242135
7.28,0.9999899009340824,176.75829017317253
7.288,0.9999894993860973,176.38509413475657
7.296,0.999989098675198,176.01195688778665
7.304,0.9999886988936464,175.63887661029997
7.312,0.9999883001329996,175.26585147960182
7.32,0.9999879024841022,174.8928796723169
7.328,0.9999875060370776,174.5199593644404
7.336,0.9999871108813224,174.14708873138915
7.344,0.9999867171054959,173.77426594805172
7.352,0.9999863247975151,173.40148918883907
7.36,0.9999859340445454,173.02875662773434
7.368,0.9999855449329951,172.65606643834275
7.376,0.999985157548508,172.28341679394097
7.384,0.9999847719759557,171.9108058675264
7.392,0.9999843882994313,171.5382318318661
7.4,0.9999840066022426,171.16569285954563
7.4079999999999995,0.9999836269669067,170.79318712301742
7.416,0.9999832494751427,170.42071279464903
7.4239999999999995,0.999982874207866,170.04826804677162
7.432,0.9999825012451815,169.67585105172708
7.4399999999999995,0.9999821306663774,169.30345998191632
7.448,0.9999817625499219,168.93109300984622
7.4559999999999995,0.9999813969734547,168.55874830817734
7.464,0.999981034013783,168.18642404977038
7.4719999999999995,0.9999806737468759,167.81411840773364
7.48,0.9999803162478587,167.44182955546918
7.4879999999999995,0.9999799615910079,167.06955566671994
7.496,0.9999796098497469,166.69729491561526
7.504,0.9999792610966399,166.32504547671792
7.5120000000000005,0.999978915403389,165.9528055250696
7.52,0.9999785728408267,165.58057323623717
7.5280000000000005,0.9999782334789139,165.20834678635796
7.536,0.9999778973867351,164.836124352186
7.5440000000000005,0.9999775646324935,164.46390411113688
7.552,0.999977235283506,164.09168424133372
7.5600000000000005,0.9999769094062018,163.71946292165197
7.568,0.9999765870661159,163.34723833176483
7.5760000000000005,0.9999762683278863,162.97500865218802
7.584,0.9999759532552503,162.60277206432525
7.5920000000000005,0.9999756419110416,162.23052675051238
7.6,0.9999753343571853,161.85827089406297
7.6080000000000005,0.9999750306546956,161.48600267931215
7.616,0.9999747308636725,161.11372029166216
7.6240000000000006,0.9999744350432987,160.741421917626
7.632,0.9999741432518356,160.3691057448727
7.640000000000001,0.999973855546622,159.99676996227123
7.648,0.9999735719840699,159.62441275993532
7.656000000000001,0.9999732926196625,159.2520323292674
7.664,0.9999730175079513,158.87962686300338
7.672,0.9999727467025541,158.50719455525646
7.68,0.9999724802561518,158.1347336015619
7.688,0.9999722182204867,157.76224219892083
7.696,0.99997196064636,157.38971854584486
7.704,0.9999717075836297,157.01716084240002
7.712,0.9999714590812097,156.6445672902511
7.72,0.9999712151870656,156.27193609270603
7.728,0.9999709759482153,155.89926545475979
7.736,0.9999707414107256,155.52655358313913
7.744,0.9999705116197115,155.15379868634645
7.752,0.9999702866193347,154.78099897470426
7.76,0.9999700664528016,154.40815266039957
7.768,0.9999698511623623,154.03525795752833
7.776,0.9999696407893092,153.6623130821396
7.784,0.9999694353739769,153.28931625228034
7.792,0.9999692349557393,152.91626568803974
7.8,0.9999690395730104,152.54315961159384
7.808,0.9999688492632427,152.16999624725034
7.816,0.999968664062926,151.79677382149308
7.824,0.9999684840075872,151.42349056302703
7.832,0.9999683091317901,151.0501447028232
7.84,0.9999681394691345,150.67673447416348
7.848,0.9999679750522555,150.30325811268577
7.856,0.9999678159128236,149.92971385642923
7.864,0.9999676620815439,149.55609994587942
7.872,0.9999675135881575,149.18241462401372
7.88,0.9999673704614388,148.80865613634688
7.888,0.999967232729199,148.43482273097658
7.896,0.9999671004182822,148.06091265862912
7.904,0.9999669735545688,147.6869241727054
7.912,0.9999668521629747,147.31285552932687
7.92,0.9999667362674508,146.9387049873814
7.928,0.999966625890985,146.56447080857012
7.936,0.9999665210556017,146.1901512574533
7.944,0.9999664217823624,145.81574460149713
7.952,0.9999663280913669,145.4412491111206
7.96,0.9999662400017539,145.06666305974213
7.968,0.9999661575317017,144.6919847238268
7.976,0.9999660806984288,144.31721238293355
7.984,0.999966009518196,143.94234431976247
7.992,0.9999659440063059,143.56737882020263
8.0,0.9999658841771057,143.1923141733796
8.008,0.9999658300439879,142.81714867170368
8.016,0.9999657816193902,142.44188061091754
8.024000000000001,0.9999657389147995,142.06650829014535
8.032,0.9999657019407512,141.69103001194082
8.04,0.9999656707068321,141.3154440823359
8.048,0.9999656452216811,140.93974881088988
8.056000000000001,0.9999656254929914,140.56394251073877
8.064,0.9999656115275126,140.1880234986446
8.072,0.9999656033310516,139.81199009504482
8.08,0.9999656009084755,139.4358406241022
8.088000000000001,0.9999656042637134,139.05957341375543
8.096,0.999965613399758,138.68318679576882
8.104,0.9999656283186681,138.30667910578305
8.112,0.9999656490215714,137.930048683366
8.120000000000001,0.9999656755086656,137.5532938720639
8.128,0.9999657077792217,137.17641301945267
8.136,0.9999657458315865,136.79940447718903
8.144,0.9999657896631848,136.42226660106266
8.152000000000001,0.9999658392705223,136.04499775104836
8.16,0.9999658946491872,135.66759629135828
8.168,0.9999659557938553,135.29006059049425
8.176,0.9999660226982902,134.9123890213009
8.184000000000001,0.999966095355348,134.5345799610189
8.192,0.9999661737569796,134.1566317913382
8.2,0.999966257894234,133.77854289845172
8.208,0.9999663477572613,133.4003116731093
8.216000000000001,0.9999664433353157,133.02193651067208
8.224,0.9999665446167595,132.64341581116724
8.232,0.9999666515890653,132.2647479793423
8.24,0.9999667642388205,131.88593142472058
8.248000000000001,0.9999668825517305,131.5069645616568
8.256,0.9999670065126216,131.12784580939257
8.264,0.9999671361054463,130.74857359211245
8.272,0.9999672713132847,130.36914633900022
8.280000000000001,0.99996741211835,129.98956248429576
8.288,0.9999675585019927,129.609820467352
8.296,0.9999677104447021,129.22991873269183
8.304,0.9999678679261133,128.84985573006583
8.312,0.9999680309250089,128.46962991451062
8.32,0.9999681994193252,128.08923974640626
8.328,0.9999683733861551,127.70868369153557
8.336,0.9999685528017512,127.32796022114228
8.344,0.9999687376415343,126.94706781199095
8.352,0.9999689278800931,126.56600494642561
8.36,0.9999691234911917,126.18477011243047
8.368,0.9999693244477729,125.80336180368924
8.376,0.9999695307219634,125.4217785196464
8.384,0.9999697422850787,125.04001876556725
8.392,0.9999699591076274,124.65808105259978
8.4,0.9999701811593156,124.27596389783544
8.408,0.9999704084090533,123.89366582437165
8.416,0.9999706408249585,123.51118536137328
8.424,0.9999708783743625,123.12852104413577
8.432,0.9999711210238146,122.74567141414722
8.44,0.9999713687390874,122.36263501915242
8.448,0.9999716214851836,121.97941041321538
8.456,0.9999718792263393,121.59599615678405
8.464,0.9999721419260302,121.21239081675382
8.472,0.9999724095469785,120.82859296653244
8.48,0.9999726820511555,120.4446011861046
8.488,0.9999729593997905,120.06041406209735
8.496,0.999973241553374,119.6760301878453
8.504,0.9999735284716653,119.29144816345699
8.512,0.9999738201136977,118.90666659588038
8.52,0.999974116437784,118.52168409897021
8.528,0.999974417401523,118.13649929355405
8.536,0.9999747229618063,117.75111080750031
8.544,0.9999750330748225,117.36551727578504
8.552,0.9999753476960658,116.97971734056047
8.56,0.9999756667803404,116.59370965122262
8.568,0.9999759902817684,116.20749286448054
8.576,0.9999763181537948,115.82106564442444
8.584,0.9999766503491954,115.43442666259564
8.592,0.9999769868200824,115.04757459805539
8.6,0.9999773275179117,114.66050813745555
8.608,0.9999776723934893,114.27322597510793
8.616,0.9999780213969786,113.88572681305565
8.624,0.9999783744779062,113.49800936114326
8.632,0.9999787315851704,113.11007233708854
8.64,0.999979092667047,112.72191446655337
8.648,0.9999794576711969,112.33353448321627
8.656,0.9999798265446734,111.9449311288437
8.664,0.999980199233929,111.55610315336328
8.672,0.9999805756848239,111.16704931493585
8.68,0.9999809558426312,110.77776838002917
8.688,0.9999813396520466,110.38825912349061
8.696,0.9999817270571948,109.99852032862145
8.704,0.9999821180016375,109.60855078725021
8.712,0.9999825124283803,109.21834929980758
8.72,0.9999829102798824,108.82791467540018
8.728,0.9999833114980619,108.4372457318862
8.736,0.9999837160243051,108.04634129594972
8.744,0.9999841237994749,107.65520020317683
8.752,0.9999845347639177,107.26382129813064
8.76,0.9999849488574724,106.87220343442782
8.768,0.9999853660194776,106.48034547481416
8.776,0.9999857861887813,106.08824629124176
8.784,0.9999862093037477,105.69590476494497
8.792,0.9999866353022665,105.30331978651819
8.8,0.9999870641217613,104.91049025599227
8.808,0.9999874956991978,104.51741508291275
8.815999999999999,0.9999879299710924,104.12409318641693
8.824,0.999988366873522,103.73052349531207
8.832,0.9999888063421297,103.33670494815378
8.84,0.9999892483121381,102.94263649332417
8.847999999999999,0.9999896927183543,102.5483170891103
8.856,0.99999013949518,102.15374570378319
8.864,0.9999905885766223,101.75892131567699
8.872,0.9999910398962991,101.36384291326804
8.879999999999999,0.9999914933874526,100.9685094952541
8.888,0.9999919489829551,100.5729200706341
8.896,0.9999924066153195,100.1770736587881
8.904,0.9999928662167085,99.7809692895571
8.911999999999999,0.9999933277189449,99.38460600332284
8.92,0.9999937910535194,98.98798285108842
8.928,0.9999942561516014,98.59109889455868
8.936,0.9999947229440485,98.19395320622078
8.943999999999999,0.9999951913614149,97.79654486942458
8.952,0.999995661333963,97.39887297846369
8.96,0.9999961327916719,97.00093663865648
8.968,0.9999966056642475,96.60273496642714
8.975999999999999,0.9999970798811327,96.2042670893864
8.984,0.9999975553715175,95.80553214641316
8.992,0.9999980320643477,95.40652928773582
9.0,0.9999985098883367,95.00725767501362
9.008,0.9999989887719749,94.60771648141787
9.016,0.9999994686435396,94.20790489171358
9.024000000000001,0.9999999494311059,93.80782210234135
9.032,0.9999999999999999,93.40746732149866
9.04,1.0,93.00683976922141
9.048,1.0,92.60593867746569
9.056000000000001,0.9999999999999998,92.20476329018963
9.064,1.0,91.8033128634349
9.072,0.9999999999999999,91.40158666540816
9.08,0.9999999999999999,90.99958397656283
9.088000000000001,0.9999999999999999,90.59730408968093
9.096,0.9999999999999999,90.19474630995434
9.104,1.0,89.79190995506617
9.112,0.9999999999999999,89.38879435527235
9.120000000000001,0.9999999999999998,88.98539885348316
9.128,0.9999999999999999,88.58172280534421
9.136,1.0,88.17776557931758
9.144,1.0,87.77352655676285
9.152000000000001,1.0,87.36900513201827
9.16,0.9999999999999999,86.96420071248137
9.168,1.0,86.55911271868938
9.176,1.0,86.1537405843998
9.184000000000001,1.0,85.74808375667095
9.192,1.0,85.34214169594183
9.2,1.0,84.93591387611181
9.208,0.9999999999999999,84.52939978462052
9.216000000000001,0.9999999999999999,84.12259892252749
9.224,0.9999999999999999,83.71551080459103
9.232,1.0,83.3081349593472
9.24,0.9999999999999999,82.9004709291885
9.248000000000001,1.0,82.49251827044247
9.256,1.0,82.08427655344968
9.264,1.0,81.67574536264121
9.272,0.9999999999999999,81.26692429661634
9.280000000000001,0.9999999999999998,80.85781296821985
9.288,1.0,80.44841100461855
9.296,1.0,80.03871804737746
9.304,0.9999999999999999,79.62873375253606
9.312000000000001,1.0,79.21845779068398
9.32,0.9999999999999999,78.80788984703602
9.328,0.9999999999999999,78.39702962150669
9.336,1.0,77.98587682878467
9.344,0.9999999999999999,77.57443119840691
9.352,1.0,77.1626924748314
9.36,1.0,76.75066041751062
9.368,1.0,76.33833480096321
9.376,0.9999999999999999,75.92571541484647
9.384,1.0,75.51280206402696
9.392,0.9999999999999999,75.09959456865177
9.4,0.9999999999999999,74.68609276421806
9.408,0.9999999999999999,74.27229650164321
9.416,0.9999999999999999,73.85820564733301
9.424,1.0,73.44382008325063
9.432,0.9999999999999999,73.0291397069836
9.44,0.9999999999999999,72.61416443181137
9.448,1.0,72.19889418677101
9.456,0.9999999999999998,71.78332891672335
9.464,1.0,71.36746858241722
9.472,1.0,70.95131316055422
9.48,1.0,70.53486264385148
9.488,1.0,70.11811704110484
9.496,0.9999999999999998,69.70107637725002
9.504,1.0,69.28374069342429
9.512,1.0,68.86611004702604
9.52,1.0,68.44818451177471
9.528,1.0,68.02996417776855
9.536,1.0,67.61144915154301
9.544,1.0,67.19263955612665
9.552,1.0,66.77353553109766
9.56,1.0,66.354137232638
9.568,1.0,65.93444483358796
9.576,0.9999999999999999,65.5144585234984
9.584,1.0,65.09417850868337
9.592,0.9999999999999999,64.67360501227034
9.6,1.0,64.25273827425079
9.608,1.0,63.83157855152831
9.616,1.0,63.41012611796713
9.624,1.0,62.9883812644381
9.632,1.0,62.56634429886497
9.64,1.0,62.14401554626814
9.648,0.9999999999999999,61.72139534880875
9.656,1.0,61.29848406583012
9.664,0.9999999999999999,60.8752820738994
9.672,1.0,60.45178976684675
9.68,0.9999999999999999,60.028007555804564
9.688,0.9999999999999999,59.60393586924414
9.696,0.9999999999999999,59.17957515301247
9.704,0.9999999999999999,58.75492587036639
9.712,1.0,58.329988502006806
9.72,1.0,57.904763546110175
9.728,0.9999999999999999,57.47925151836025
9.736,1.0,57.05345295197676
9.744,0.9999999999999999,56.62736839774449
9.752,0.9999999999999999,56.20099842403923
9.76,1.0,55.774343616854026
9.768,1.0,55.34740457982245
9.776,0.9999999999999999,54.920181934241874
9.784,1.0,54.4926763190938
9.792,1.0,54.064888391064386
9.8,1.0,53.636818824561715
9.808,1.0,53.208468311733334
9.816,1.0,52.77983756248055
9.824,1.0,52.35092730447283
9.832,0.9999999999999999,51.921738283159016
9.84,1.0,51.492271261778654
9.847999999999999,0.9999999999999999,51.06252702137011
9.856,1.0,50.6325063607782
9.864,0.9999999999999999,50.202210096660025
9.872,0.9999999999999999,49.77163906348868
9.879999999999999,1.0,49.340794113555596
9.888,0.9999999999999999,48.9096761169713
9.896,1.0,48.4782859616646
9.904,1.0,48.04662455337976
9.911999999999999,1.0,47.61469281567184
9.92,1.0,47.18249168990071
9.928,1.0000000000000002,46.75002213522343
9.936,0.9999999999999999,46.31728512858434
9.943999999999999,1.0,45.88428166470337
9.952,0.9999999999999999,45.45101275606318
