freq,mag,phase
6.0,0.9999989756699313,109.17768406477721
6.008,0.9999989203235818,109.07507088232958
6.016,0.999998865936678,108.97242630570511
6.024,0.9999988125266268,108.86975029560091
6.032,0.999998760110414,108.76704281277881
6.04,0.9999987087046068,108.66430381806565
6.048,0.9999986583253548,108.56153327235343
6.056,0.9999986089883933,108.45873113659957
6.064,0.9999985607090457,108.35589737182721
6.072,0.999998513502225,108.25303193912528
6.08,0.9999984673824374,108.15013479964887
6.088,0.9999984223637832,108.04720591461944
6.096,0.9999983784599602,107.94424524532495
6.104,0.9999983356842658,107.84125275312023
6.112,0.9999982940495986,107.73822839942711
6.12,0.999998253568462,107.63517214573469
6.128,0.9999982142529654,107.53208395359955
6.136,0.9999981761148264,107.42896378464602
6.144,0.9999981391653757,107.32581160056634
6.152,0.999998103415555,107.22262736312099
6.16,0.999998068875923,107.1194110341388
6.168,0.9999980355566566,107.0161625755173
6.176,0.9999980034675525,106.91288194922285
6.184,0.9999979726180304,106.80956911729095
6.192,0.9999979430171348,106.70622404182639
6.2,0.9999979146735382,106.60284668500358
6.208,0.9999978875955423,106.4994370090667
6.216,0.9999978617910806,106.39599497632992
6.224,0.9999978372677218,106.29252054917772
6.232,0.9999978140326702,106.18901369006504
6.24,0.9999977920927697,106.08547436151757
6.248,0.9999977714545055,105.98190252613189
6.256,0.9999977521240062,105.87829814657583
6.264,0.9999977341070467,105.77466118558856
6.272,0.99999771740905,105.67099160598093
6.28,0.9999977020350895,105.56728937063568
6.288,0.9999976879898917,105.46355444250761
6.296,0.9999976752778387,105.35978678462388
6.304,0.9999976639029693,105.2559863600842
6.312,0.9999976538689831,105.1521531320611
6.32,0.9999976451792415,105.0482870638001
6.328,0.99999763783677,104.94438811862003
6.336,0.9999976318442619,104.84045625991315
6.344,0.9999976272040789,104.73649145114548
6.352,0.9999976239182545,104.63249365585696
6.36,0.9999976219884958,104.52846283766173
6.368,0.9999976214161863,104.42439896024837
6.376,0.9999976222023875,104.32030198738003
6.384,0.9999976243478422,104.21617188289483
6.392,0.9999976278529762,104.1120086107059
6.4,0.9999976327178998,104.00781213480178
6.408,0.9999976389424116,103.90358241924655
6.416,0.9999976465260011,103.79931942818007
6.424,0.9999976554678484,103.69502312581827
6.432,0.9999976657668296,103.59069347645328
6.44,0.9999976774215166,103.48633044445383
6.448,0.9999976904301818,103.38193399426524
6.456,0.9999977047907982,103.27750409040988
6.464,0.9999977205010431,103.17304069748727
6.472,0.9999977375582999,103.06854378017434
6.48,0.9999977559596601,102.9640133032257
6.4879999999999995,0.9999977757019267,102.85944923147379
6.496,0.9999977967816153,102.75485152982917
6.504,0.9999978191949571,102.6502201632808
6.5120000000000005,0.9999978429379008,102.5455550968961
6.52,0.9999978680061152,102.4408562958214
6.5280000000000005,0.9999978943949919,102.336123725282
6.536,0.9999979220996462,102.23135735058248
6.5440000000000005,0.9999979511149208,102.12655713710687
6.552,0.999997981435388,102.02172305031901
6.5600000000000005,0.9999980130553509,101.91685505576264
6.568,0.9999980459688469,101.81195311906167
6.5760000000000005,0.9999980801696491,101.70701720592041
6.584,0.9999981156512698,101.60204728212393
6.592,0.999998152406961,101.49704331353803
6.6,0.9999981904297185,101.3920052661097
6.608,0.9999982297122829,101.28693310586723
6.616,0.9999982702471425,101.18182679892051
6.624,0.9999983120265359,101.0766863114612
6.632,0.9999983550424534,100.97151160976297
6.64,0.9999983992866399,100.86630266018177
6.648,0.9999984447505965,100.76105942915605
6.656,0.999998491425585,100.65578188320693
6.664,0.9999985393026266,100.55046998893849
6.672,0.9999985883725071,100.445123713038
6.68,0.9999986386257785,100.3397430222761
6.688,0.9999986900527603,100.23432788350712
6.696,0.9999987426435427,100.12887826366918
6.704,0.9999987963879886,100.02339412978452
6.712,0.9999988512757361,99.9178754489597
6.72,0.9999989072962009,99.81232218838583
6.728,0.9999989644385772,99.70673431533879
6.736,0.9999990226918425,99.60111179717947
6.744,0.9999990820447576,99.49545460135396
6.752,0.9999991424858701,99.38976269539383
6.76,0.9999992040035157,99.28403604691636
6.768,0.9999992665858218,99.17827462362472
6.776,0.9999993302207087,99.0724783933082
6.784,0.9999993948958926,98.96664732384252
6.792,0.9999994605988866,98.86078138318996
6.8,0.9999995273170049,98.75488053939962
6.808,0.9999995950373634,98.64894476060765
6.816,0.9999996637468831,98.54297401503749
6.824,0.9999997334322913,98.4369682710001
6.832,0.9999998040801248,98.33092749689413
6.84,0.9999998756767319,98.2248516612062
6.848,0.9999999482082741,98.11874073251116
6.856,1.0,98.01259467947217
6.864,0.9999999999999999,97.90641347084116
6.872,1.0,97.80019707545875
6.88,1.0,97.6939454622548
6.888,1.0,97.58765860024836
6.896,1.0,97.48133645854811
6.904,1.0,97.37497900635242
6.912,1.0,97.26858621294964
6.92,1.0,97.16215804771836
6.928,1.0,97.0556944801276
6.936,1.0,96.94919547973697
6.944,1.0,96.84266101619703
6.952,1.0,96.73609105924939
6.96,0.9999999999999999,96.62948557872699
6.968,0.9999999999999999,96.52284454455427
6.976,0.9999999999999999,96.4161679267475
6.984,0.9999999999999999,96.30945569541493
6.992,0.9999999999999998,96.20270782075691
7.0,1.0,96.09592427306634
7.008,0.9999999999999999,95.9891050227287
7.016,0.9999999999999999,95.88225004022232
7.024,1.0,95.77535929611864
7.032,1.0,95.6684327610824
7.04,0.9999999999999999,95.56147040587184
7.048,0.9999999999999999,95.45447220133899
7.056,0.9999999999999999,95.34743811842974
7.064,1.0,95.24036812818424
7.072,1.0,95.13326220173701
7.08,0.9999999999999999,95.02612031031714
7.088,0.9999999999999999,94.91894242524859
7.096,1.0,94.8117285179503
7.104,0.9999999999999999,94.70447855993652
7.112,1.0,94.59719252281693
7.12,0.9999999999999999,94.48987037829691
7.128,0.9999999999999999,94.38251209817771
7.136,1.0,94.27511765435673
7.144,1.0,94.16768701882762
7.152,1.0,94.06022016368064
7.16,1.0,93.95271706110273
7.168,1.0,93.84517768337783
7.176,0.9999999999999999,93.73760200288699
7.184,1.0,93.62998999210868
7.192,1.0,93.52234162361891
7.2,1.0,93.41465687009153
7.208,0.9999999999999999,93.30693570429835
7.216,1.0000000000000002,93.19917809910939
7.224,1.0,93.09138402749306
7.232,0.9999999999999999,92.98355346251643
7.24,0.9999999999999999,92.87568637734535
7.248,1.0,92.76778274524472
7.256,1.0,92.65984253957863
7.264,0.9999999999999999,92.55186573381066
7.272,1.0,92.44385230150395
7.28,1.0,92.33580221632154
7.288,1.0,92.22771545202646
7.296,1.0,92.11959198248198
7.304,1.0,92.01143178165177
7.312,1.0,91.9032348236002
7.32,0.9999999999999999,91.7950010824924
7.328,1.0,91.68673053259457
7.336,1.0,91.57842314827406
7.344,1.0,91.47007890399965
7.352,1.0,91.36169777434176
7.36,1.0,91.25327973397259
7.368,0.9999999999999999,91.14482475766629
7.376,1.0,91.03633282029918
7.384,1.0,90.92780389684998
7.392,1.0,90.81923796239995
7.4,1.0,90.71063499213308
7.4079999999999995,1.0,90.60199496133625
7.416,0.9999999999999999,90.49331784539947
7.4239999999999995,0.9999999999999999,90.38460361981608
7.432,0.9999999999999999,90.27585226018277
7.4399999999999995,1.0,90.16706374220004
7.448,1.0,90.05823804167207
7.4559999999999995,1.0,89.94937513450716
7.464,1.0,89.8404749967177
7.4719999999999995,0.9999999999999998,89.7315376044205
7.48,0.9999999999999999,89.62256293383683
7.4879999999999995,1.0,89.5135509612928
7.496,1.0,89.40450166321921
7.504,0.9999999999999999,89.29541501615205
7.5120000000000005,1.0,89.18629099673242
7.52,1.0,89.0771295817069
7.5280000000000005,0.9999999999999998,88.96793074792748
7.536,1.0,88.85869447235198
7.5440000000000005,0.9999999999999999,88.74942073204397
7.552,0.9999999999999999,88.64010950417315
7.5600000000000005,1.0,88.53076076601528
7.568,0.9999999999999999,88.42137449495256
7.5760000000000005,1.0,88.3119506684736
7.584,1.0,88.20248926417375
7.5920000000000005,0.9999999999999999,88.092990259755
7.6,1.0,87.98345363302643
7.6080000000000005,0.9999999999999999,87.87387936190407
7.616,1.0,87.7642674244113
7.6240000000000006,0.9999999999999999,87.65461779867874
7.632,0.9999999999999999,87.54493046294466
7.640000000000001,1.0,87.43520539555483
7.648,1.0,87.32544257496288
7.656000000000001,1.0000000000000002,87.21564197973032
7.664,0.9999999999999998,87.10580358852675
7.672,1.0,86.99592738012984
7.68,1.0,86.88601333342562
7.688,0.9999999999999999,86.77606142740854
7.696,1.0,86.6660716411815
7.704,1.0,86.55604395395616
7.712,1.0,86.44597834505288
7.72,1.0,86.33587479390086
7.728,0.9999999999999998,86.22573328003834
7.736,0.9999999999999999,86.1155537831126
7.744,0.9999999999999999,86.00533628288018
7.752,1.0,85.89508075920676
7.76,1.0,85.78478719206755
7.768,0.9999999999999998,85.67445556154713
7.776,1.0,85.56408584783972
7.784,0.9999999999999999,85.4536780312491
7.792,0.9999999999999999,85.3432320921888
7.8,1.0,85.2327480111822
7.808,0.9999999999999998,85.12222576886248
7.816,0.9999999999999999,85.01166534597282
7.824,1.0,84.90106672336637
7.832,0.9999999999999999,84.79042988200639
7.84,1.0,84.67975480296626
7.848,1.0000000000000002,84.56904146742949
7.856,1.0,84.45828985668989
7.864,0.9999999999999999,84.3474999521515
7.872,1.0,84.23667173532867
7.88,0.9999999999999999,84.12580518784614
7.888,0.9999999999999999,84.01490029143899
7.896,1.0,83.9039570279527
7.904,0.9999999999999999,83.79297537934318
7.912,1.0,83.68195532767676
7.92,1.0,83.57089685513027
7.928,1.0,83.45979994399089
7.936,1.0,83.34866457665632
7.944,0.9999999999999999,83.23749073563467
7.952,0.9999999999999998,83.12627840354445
7.96,1.0,83.0150275631146
7.968,0.9999999999999999,82.90373819718442
7.976,0.9999999999999999,82.79241028870355
7.984,1.0,82.68104382073189
7.992,1.0,82.56963877643966
8.0,1.0,82.45819513910723
8.008,0.9999999999999999,82.34671289212511
8.016,0.9999999999999999,82.23519201899386
8.024000000000001,0.9999999999999999,82.12363250332405
8.032,1.0,82.01203432883618
8.04,0.9999999999999999,81.90039747936052
8.048,0.9999999999999999,81.78872193883701
8.056000000000001,1.0,81.67700769131528
8.064,1.0,81.56525472095444
8.072,1.0,81.45346301202288
8.08,1.0,81.34163254889823
8.088000000000001,0.9999999999999999,81.22976331606725
8.096,0.9999999999999999,81.1178552981256
8.104,1.0,81.00590847977767
8.112,1.0,80.8939228458364
8.120000000000001,1.0,80.7818983812232
8.128,0.9999999999999999,80.66983507096766
8.136,1.0,80.55773290020734
8.144,1.0,80.44559185418753
8.152000000000001,0.9999999999999999,80.33341191826113
8.16,0.9999999999999999,80.22119307788839
8.168,0.9999999999999999,80.10893531863643
8.176,1.0,79.99663862617929
8.184000000000001,1.0,79.88430298629747
8.192,1.0,79.77192838487771
8.2,0.9999999999999999,79.6595148079126
8.208,1.0,79.5470622415003
8.216000000000001,1.0,79.43457067184427
8.224,0.9999999999999999,79.32204008525287
8.232,0.9999999999999999,79.20947046813892
8.24,1.0,79.09686180701944
8.248000000000001,1.0,78.98421408851524
8.256,1.0,78.87152729935045
8.264,1.0,78.7588014263521
8.272,1.0,78.64603645644969
8.280000000000001,0.9999999999999999,78.53323237667479
8.288,0.9999999999999999,78.42038917416049
8.296,1.0,78.30750683614087
8.304,1.0,78.19458534995054
8.312,1.0,78.08162470302419
8.32,0.9999999999999999,77.96862488289577
8.328,0.9999999999999999,77.85558587719827
8.336,0.9999999999999999,77.7425076736628
8.344,1.0,77.6293902601182
8.352,0.9999999999999999,77.51623362449027
8.36,0.9999999999999999,77.40303775480122
8.368,1.0,77.28980263916881
8.376,1.0,77.17652826580593
8.384,1.0,77.06321462301953
8.392,1.0,76.94986169921023
8.4,0.9999999999999999,76.83646948287121
8.408,1.0,76.72303796258768
8.416,1.0,76.60956712703587
8.424,1.0,76.4960569649823
8.432,1.0,76.38250746528281
8.44,1.0,76.26891861688182
8.448,0.9999999999999999,76.15529040881117
8.456,1.0,76.04162283018941
8.464,0.9999999999999999,75.9279158702206
8.472,1.0,75.81416951819351
8.48,1.0,75.70038376348045
8.488,1.0,75.58655859553625
8.496,1.0,75.47269400389716
8.504,0.9999999999999999,75.35878997817983
8.512,1.0,75.24484650807995
8.52,0.9999999999999999,75.13086358337137
8.528,1.0,75.01684119390464
8.536,0.9999999999999999,74.90277932960598
8.544,1.0,74.7886779804759
8.552,1.0,74.67453713658799
8.56,1.0,74.56035678808763
8.568,1.0,74.44613692519064
8.576,1.0000000000000002,74.33187753818193
8.584,1.0,74.21757861741412
8.592,1.0,74.10324015330616
8.6,0.9999999999999998,73.98886213634201
8.608,0.9999999999999999,73.87444455706898
8.616,1.0,73.75998740609663
8.624,1.0,73.6454906740949
8.632,0.9999999999999999,73.53095435179306
8.64,0.9999999999999999,73.4163784299779
8.648,1.0,73.30176289949245
8.656,1.0,73.1871077512344
8.664,0.9999999999999999,73.07241297615471
8.672,1.0,72.95767856525605
8.68,1.0,72.84290450959143
8.688,0.9999999999999999,72.72809080026268
8.696,1.0,72.61323742841917
8.704,0.9999999999999999,72.49834438525625
8.712,1.0,72.38341166201415
8.72,0.9999999999999999,72.26843924997647
8.728,1.0,72.15342714046918
8.736,1.0,72.03837532485925
8.744,1.0,71.92328379455381
8.752,1.0,71.80815254099903
8.76,1.0,71.69298155567938
8.768,0.9999999999999999,71.57777083011675
8.776,1.0,71.46252035587013
8.784,1.0,71.34723012453493
8.792,1.0,71.231900127743
8.8,0.9999999999999999,71.11653035716247
8.808,0.9999999999999999,71.00112080449813
8.815999999999999,1.0,70.88567146149181
8.824,0.9999999999999999,70.77018231992324
8.832,1.0,70.65465337161132
8.84,1.0,70.53908460841548
8.847999999999999,1.0,70.42347602223776
8.856,1.0,70.3078276050251
8.864,0.9999999999999999,70.19213934877241
8.872,0.9999998731538012,70.07641124552603
8.879999999999999,0.9999997021176692,69.96064328738782
8.888,0.99999953261661,69.84483546652005
8.896,0.999999364848622,69.72898777515101
8.904,0.999999199021069,69.61310020558153
8.911999999999999,0.9999990353511286,69.49717275019228
8.92,0.9999988740662609,69.3812054014523
8.928,0.9999987154047,69.26519815192866
8.936,0.99999855961597,69.14915099429722
8.943999999999999,0.9999984069614234,69.03306392135482
8.952,0.9999982577148073,68.91693692603322
8.96,0.9999981121628538,68.80077000141432
8.968,0.9999979706058979,68.68456314074761
8.975999999999999,0.9999978333585228,68.56831633746926
8.984,0.9999977007502348,68.45202958522366
8.992,0.9999975731261669,68.33570287788729
9.0,0.9999974508478097,68.21933620959524
9.008,0.9999973342937768,68.10292957477043
9.016,0.9999972238605975,67.98648296815635
9.024000000000001,0.99999711996354,67.86999638485294
9.032,0.9999970230374671,67.7534698203563
9.04,0.9999969335377201,67.6369032706024
9.048,0.9999968519410333,67.52029673201558
9.056000000000001,0.9999967787464764,67.40365020156148
9.064,0.9999967144764244,67.28696367680566
9.072,0.9999966596775525,67.17023715597752
9.08,0.9999966149218542,67.05347063804092
9.088000000000001,0.999996580807678,66.9366641227713
9.096,0.9999965579607811,66.81981761084032
9.104,0.9999965470353951,66.70293110390811
9.112,0.9999965487152932,66.58600460472456
9.120000000000001,0.9999965637148622,66.46903811723976
9.128,0.9999965927801587,66.3520316467242
9.136,0.9999966366899515,66.23498519990002
9.144,0.9999966962567305,66.11789878508374
9.152000000000001,0.9999967723276738,66.0007724123415
9.16,0.9999968657855552,65.88360609365745
9.168,0.9999969775495766,65.7663998431163
9.176,0.9999971085761036,65.6491536771011
9.184000000000001,0.9999972598592826,65.53186761450694
9.192,0.9999974324315081,65.41454167697164
9.2,0.9999976273637211,65.29717588912405
9.208,0.9999978457654891,65.17977027885127
9.216000000000001,0.9999980887848435,65.0623248775853
9.224,0.9999983576078234,64.9448397206099
9.232,0.9999986534576782,64.82731484738798
9.24,0.9999989775936793,64.70975030191063
9.248000000000001,0.999999331309473,64.59214613306736
9.256,0.9999997159309209,64.47450239503789
9.264,1.0,64.35681914770481
9.272,1.0,64.23909645708684
9.280000000000001,1.0,64.12133439579118
9.288,1.0,64.00353304348299
9.296,1.0,63.885692487369994
9.304,0.9999999999999999,63.76781282269859
9.312000000000001,0.9999999999999999,63.64989415325766
9.32,0.9999999999999999,63.53193659188459
9.328,1.0,63.41394026096715
9.336,1.0,63.29590529293393
9.344,1.0,63.17783183072381
9.352,1.0,63.05972002822365
9.36,1.0,62.94157005066213
9.368,0.9999999999999998,62.82338207494467
9.376,1.0,62.705156289913994
9.384,0.9999999999999999,62.58689289651721
9.392,1.0,62.46859210785991
9.4,1.0,62.350254149124595
9.408,0.9999999999999998,62.231879257330434
9.416,1.0,62.113467680908535
9.424,0.9999999999999999,61.995019679067696
9.432,0.9999999999999999,61.876535520923355
9.44,0.9999999999999998,61.7580154843654
9.448,1.0,61.63945985463909
9.456,1.0,61.52086892261916
9.464,1.0,61.40224298275758
9.472,0.9999999999999999,61.283582330694934
9.48,1.0,61.16488726052832
9.488,0.9999999999999999,61.04615806174124
9.496,1.0,60.927395015808344
9.504,1.0,60.808598392502724
9.512,1.0,60.68976844594429
9.52,1.0,60.570905410444766
9.528,1.0,60.45200949621743
9.536,1.0,60.333080885036686
9.544,1.0,60.21411972594433
9.552,1.0,60.09512613111341
9.56,0.9999999999999999,59.97610017198717
9.568,0.9999999999999998,59.857041875818986
9.576,1.0,59.73795122273695
9.584,1.0,59.61882814345454
9.592,1.0,59.49967251773651
9.6,1.0,59.38048417371451
9.608,1.0,59.261262888123426
9.616,0.9999999999999999,59.14200838750376
9.624,0.9999999999999999,59.022720350383274
9.632,1.0,58.90339841041909
9.64,0.9999999999999999,58.784042160445495
9.648,1.0,58.66465115734189
9.656,1.0,58.54522492760323
9.664,0.9999999999999999,58.42576297347139
9.672,1.0,58.30626477946595
9.68,1.0,58.1867298191415
9.688,1.0,58.067157561894035
9.696,0.9999999999999999,57.94754747964309
9.704,1.0,57.82789905322654
9.712,1.0,57.7082117783636
9.72,1.0,57.58848517106198
9.728,1.0,57.46871877237396
9.736,1.0,57.34891215243067
9.744,0.9999999999999999,57.22906491371582
9.752,1.0,57.10917669356361
9.76,1.0,56.98924716589405
9.768,0.9999999999999999,56.86927604221716
9.776,1.0,56.74926307195869
9.784,0.9999999999999999,56.62920804217047
9.792,1.0,56.50911077670073
9.8,1.0,56.38897113490332
9.808,1.0,56.26878900996805
9.816,1.0,56.14856432695189
9.824,0.9999999999999999,56.02829704058882
9.832,1.0,55.907987132948406
9.84,0.9999999999999999,55.78763461100838
9.847999999999999,0.9999999999999998,55.66723950419674
9.856,0.9999999999999999,55.54680186195218
9.864,1.0,55.42632175134294
9.872,1.0,55.305799254775785
9.879999999999999,0.9999999999999999,55.1852344678203
9.888,1.0,55.06462749716685
9.896,0.9999999999999999,54.94397845872989
9.904,0.9999999999999998,54.8232874759043
9.911999999999999,1.0,54.70255467797702
9.92,0.9999999999999999,54.5817801986937
9.928,1.0,54.46096417497659
9.936,0.9999999999999999,54.340106745787594
9.943999999999999,0.9999999999999999,54.219208051129584
9.952,1.0,54.09826823117705
9.96,0.9999999999999999,53.97728742552702
9.968,1.0,53.85626577256032
9.975999999999999,0.9999999999999999,53.73520340890382
9.984,0.9999999999999999,53.61410046898378
9.992,1.0,53.49295708466128
10.0,0.9999999999999998,53.371773384940376
10.008,1.0,53.250549495741055
10.016,0.9999999999999999,53.129285539729
10.024000000000001,1.0,53.00798163619497
10.032,1.0,52.88663790097714
10.04,0.9999999999999999,52.76525444642037
10.048,1.0,52.64383138136698
10.056000000000001,1.0,52.52236881117451
10.064,1.0,52.40086683775541
10.072,1.0,52.27932555963525
10.08,0.9999999999999998,52.15774507202629
10.088000000000001,0.9999990458013571,52.03612546691294
10.096,0.9999976351703368,51.91446683314665
10.104,0.9999962408467319,51.792769256548105
10.112,0.9999948627406936,51.6710328200148
10.120000000000001,0.9999935007361097,51.54925760363215
10.128,0.9999921546940618,51.427443684786844
10.136,0.9999908244559614,51.30559113828111
10.144,0.999989509846386,51.18370003644707
10.152000000000001,0.9999882106756401,51.061770449260315
10.16,0.9999869267420662,50.9398024444518
10.168,0.999985657834121,50.8177960876177
10.176,0.9999844037322401,50.695751442326696
10.184000000000001,0.9999831642105089,50.5736685702246
10.192,0.9999819390381557,50.45154753113535
