freq,mag,phase
6.0,0.9999948946454265,79.84152049178448
6.008,0.9999952858281924,79.70259519202307
6.016,0.999995664618301,79.56365097800399
6.024,0.9999960312198111,79.42468783710167
6.032,0.999996385834937,79.28570575675106
6.04,0.999996728664056,79.146704724448
6.048,0.9999970599057143,79.0076847277496
6.056,0.9999973797566349,78.86864575427471
6.064,0.9999976884117233,78.72958779170412
6.072,0.9999979860640735,78.59051082778122
6.08,0.9999982729049769,78.45141485031209
6.088,0.9999985491239266,78.31229984716613
6.096,0.9999988149086255,78.17316580627627
6.104,0.9999990704449928,78.03401271563945
6.112,0.9999993159171706,77.89484056331695
6.12,0.9999995515075314,77.75564933743478
6.128,0.9999997773966839,77.61643902618401
6.136,0.9999999937634806,77.47720961782123
6.144,1.0,77.33796110066882
6.152,0.9999999999999998,77.19869346311538
6.16,0.9999999999999999,77.05940669361607
6.168,1.0,76.92010078069298
6.176,1.0,76.78077571293547
6.184,1.0,76.64143147900053
6.192,1.0,76.50206806761322
6.2,0.9999999999999999,76.36268546756686
6.208,1.0,76.22328366772355
6.216,1.0,76.08386265701438
6.224,1.0,75.94442242443988
6.232,1.0,75.80496295907034
6.24,1.0,75.66548425004606
6.248,0.9999999999999999,75.52598628657789
6.256,0.9999999999999999,75.38646905794734
6.264,1.0,75.24693255350708
6.272,1.0,75.10737676268123
6.28,0.9999999999999999,74.96780167496564
6.288,1.0,74.8282072799283
6.296,1.0,74.6885935672096
6.304,1.0,74.54896052652272
6.312,0.9999999999999999,74.40930814765392
6.32,1.0000000000000002,74.26963642046283
6.328,0.9999999999999999,74.12994533488289
6.336,0.9999999999999999,73.99023488092145
6.344,1.0,73.85050504866031
6.352,1.0,73.71075582825591
6.36,1.0000000000000002,73.57098720993973
6.368,0.9999999999999999,73.4311991840184
6.376,1.0,73.29139174087432
6.384,0.9999999999999999,73.15156487096566
6.392,1.0,73.01171856482685
6.4,1.0,72.8718528130688
6.408,0.9999999999999999,72.73196760637927
6.416,1.0,72.59206293552307
6.424,0.9999999999999999,72.45213879134239
6.432,0.9999999999999999,72.31219516475716
6.44,1.0,72.1722320467652
6.448,0.9999999999999999,72.03224942844268
6.456,0.9999999999999999,71.89224730094425
6.464,1.0,71.75222565550338
6.472,1.0000000000000002,71.6121844834327
6.48,1.0,71.47212377612418
6.4879999999999995,1.0,71.33204352504944
6.496,0.9999999999999999,71.19194372176001
6.504,0.9999999999999999,71.05182435788775
6.5120000000000005,0.9999999999999999,70.91168542514478
6.52,1.0,70.77152691532419
6.5280000000000005,1.0,70.63134882029985
6.536,1.0,70.49115113202707
6.5440000000000005,1.0,70.35093384254256
6.552,0.9999999999999999,70.21069694396492
6.5600000000000005,1.0,70.07044042849463
6.568,1.0,69.93016428841466
6.5760000000000005,1.0,69.78986851609031
6.584,0.9999999999999999,69.64955310396984
6.592,1.0,69.50921804458439
6.6,1.0,69.36886333054849
6.608,0.9999999999999998,69.22848895456012
6.616,1.0,69.08809490940108
6.624,0.9999999999999999,68.94768118793706
6.632,1.0,68.80724778311807
6.64,0.9999999999999999,68.6667946879785
6.648,1.0,68.5263218956375
6.656,0.9999999999999999,68.38582939929904
6.664,1.0,68.2453171922523
6.672,0.9999999999999999,68.10478526787183
6.68,1.0,67.96423361961769
6.688,1.0,67.82366224103578
6.696,1.0,67.68307112575798
6.704,0.9999999999999999,67.54246026750243
6.712,1.0,67.40182966007369
6.72,1.0,67.26117929736297
6.728,0.9999999271700316,67.12050917334827
6.736,0.9999998208366427,66.97981928209474
6.744,0.9999997139851287,66.83910961775469
6.752,0.999999606681156,66.6983801745679
6.76,0.9999994989892241,66.55763094686185
6.768,0.9999993909726708,66.4168619290518
6.776,0.9999992826936822,66.27607311564103
6.784,0.9999991742132996,66.1352645012211
6.792,0.9999990655914281,65.99443608047191
6.8,0.9999989568868444,65.853587848162
6.808,0.9999988481572044,65.7127197991486
6.816,0.9999987394590524,65.57183192837797
6.824,0.9999986308478275,65.43092423088548
6.832,0.9999985223778738,65.28999670179576
6.84,0.9999984141024463,65.1490493363229
6.848,0.9999983060737202,65.00808212977071
6.856,0.9999981983427986,64.86709507753272
6.864,0.9999980909597208,64.72608817509247
6.872,0.9999979839734702,64.58506141802361
6.88,0.9999978774319817,64.4440148019901
6.888,0.9999977713821514,64.30294832274632
6.896,0.9999976658698432,64.16186197613725
6.904,0.9999975609398974,64.02075575809867
6.912,0.9999974566361389,63.87962966465722
6.92,0.999997353001385,63.73848369193058
6.928,0.9999972500774541,63.59731783612765
6.936,0.9999971479051728,63.456132093548646
6.944,0.9999970465243844,63.31492646058525
6.952,0.9999969459739579,63.17370093372078
6.96,0.9999968462917947,63.03245550953028
6.968,0.9999967475148375,62.89119018468067
6.976,0.9999966496790781,62.74990495593088
6.984,0.9999965528195653,62.60859982013197
6.992,0.9999964569704143,62.46727477422726
7.0,0.9999963621648124,62.32592981525242
7.008,0.9999962684350295,62.184564940335676
7.016,0.9999961758124246,62.04318014669781
7.024,0.9999960843274542,61.90177543165234
7.032,0.9999959940096813,61.760350792605664
7.04,0.9999959048877827,61.618906227057074
7.048,0.9999958169895566,61.47744173259897
7.056,0.9999957303419316,61.33595730691684
7.064,0.9999956449709746,61.19445294778953
7.072,0.9999955609018983,61.052928653089154
7.08,0.9999954781590704,60.91138442078132
7.088,0.99999539676602,60.76982024892519
7.096,0.9999953167454474,60.62823613567359
7.104,0.999995238119231,60.48663207927298
7.112,0.9999951609084355,60.345008078063756
7.12,0.9999950851333209,60.203364130480146
7.128,0.9999950108133491,60.06170023505037
7.136,0.9999949379671932,59.92001639039669
7.144,0.9999948666127447,59.77831259523553
7.152,0.9999947967671219,59.63658884837753
7.16,0.9999947284466782,59.494845148727585
7.168,0.9999946616670091,59.353081495284925
7.176,0.9999945964429612,59.21129788714326
7.184,0.9999945327886406,59.06949432349068
7.192,0.9999944707174191,58.927670803609885
7.2,0.9999944102419441,58.78582732687814
7.208,0.9999943513741454,58.6439638927674
7.216,0.9999942941252435,58.50208050084423
7.224,0.9999942385057582,58.36017715077007
7.232,0.9999941845255151,58.21825384230109
7.24,0.9999941321936556,58.07631057528829
7.248,0.9999940815186427,57.93434734967762
7.256,0.9999940325082705,57.79236416550991
7.264,0.999993985169671,57.65036102292099
7.272,0.9999939395093234,57.50833792214169
7.28,0.9999938955330604,57.36629486349784
7.288,0.9999938532460774,57.22423184741038
7.296,0.9999938126529397,57.082148874395315
7.304,0.9999937737575908,56.940045945063744
7.312,0.9999937365633588,56.79792306012198
7.32,0.9999937010729676,56.65578022037139
7.328,0.9999936672885407,56.513617426708635
7.336,0.9999936352116121,56.37143468012544
7.344,0.999993604843132,56.229231981708836
7.352,0.9999935761834766,56.08700933264101
7.36,0.999993549232454,55.94476673419935
7.368,0.9999935239893132,55.80250418775652
7.376,0.9999935004527515,55.66022169478038
7.384,0.9999934786209221,55.517919256833984
7.392,0.9999934584914423,55.37559687557567
7.4,0.9999934400614006,55.233254552758915
7.4079999999999995,0.9999934233273647,55.090892290232425
7.416,0.9999934082853894,54.94851008994011
7.4239999999999995,0.9999933949310241,54.806107953921085
7.432,0.9999933832593204,54.6636858843095
7.4399999999999995,0.9999933732648396,54.52124388333485
7.448,0.999993364941661,54.37878195332153
7.4559999999999995,0.9999933582833884,54.23630009668923
7.464,0.999993353283159,54.09379831595254
7.4719999999999995,0.9999933499336502,53.95127661372124
7.48,0.9999933482270869,53.808734992699975
7.4879999999999995,0.9999933481552497,53.6661734556885
7.496,0.9999933497094822,53.52359200558138
7.504,0.9999933528806986,53.38099064536821
7.5120000000000005,0.9999933576593909,53.238369378133285
7.52,0.9999933640356364,53.09572820705589
7.5280000000000005,0.9999933719991055,52.953067135409874
7.536,0.9999933815390691,52.810386166564015
7.5440000000000005,0.9999933926444061,52.66768530398154
7.552,0.9999934053036091,52.52496455122047
7.5600000000000005,0.9999934195047949,52.38222391193324
7.568,0.9999934352357096,52.239463389866835
7.5760000000000005,0.9999934524837363,52.09668298886268
7.584,0.9999934712359023,51.95388271285655
7.5920000000000005,0.9999934914788878,51.81106256587844
7.6,0.999993513199031,51.66822255205274
7.6080000000000005,0.9999935363823369,51.525362675597805
7.616,0.9999935610144842,51.38248294082623
7.6240000000000006,0.9999935870808319,51.239583352144464
7.632,0.9999936145664269,51.09666391405302
7.640000000000001,0.9999936434560118,50.95372463114612
7.648,0.9999936737340311,50.81076550811188
7.656000000000001,0.9999937053846378,50.66778654973193
7.664,0.9999937383917028,50.524787760881594
7.672,0.999993772738819,50.38176914652962
7.68,0.9999938084093104,50.238730711738164
7.688,0.9999938453862386,50.09567246166271
7.696,0.9999938836524092,49.95259440155186
7.704,0.9999939231903799,49.80949653674737
7.712,0.9999939639824658,49.66637887268394
7.72,0.9999940060107476,49.52324141488921
7.728,0.9999940492570785,49.38008416898352
7.736,0.99999409370309,49.23690714067992
7.744,0.9999941393301998,49.09371033578395
7.752,0.9999941861196178,48.950493760193666
7.76,0.9999942340523533,48.807257419899344
7.768,0.9999942831092214,48.66400132098347
7.776,0.9999943332708507,48.52072546962064
7.784,0.9999943845176883,48.37742987207731
7.792,0.9999944368300074,48.23411453471181
7.8,0.9999944901879144,48.0907794639741
7.808,0.9999945445713544,47.947424666405716
7.816,0.9999945999601182,47.80405014863962
7.824,0.9999946563338497,47.66065591739995
7.832,0.9999947136720503,47.51724197950208
7.84,0.9999947719540878,47.37380834185232
7.848,0.999994831159201,47.230355011447806
7.856,0.9999948912665062,47.08688199537641
7.864,0.9999949522550053,46.943389300816506
7.872,0.9999950141035903,46.799876935036906
7.88,0.99999507679105,46.6563449053966
7.888,0.9999951402960765,46.51279321934472
7.896,0.9999952045972715,46.369221884420256
7.904,0.9999952696731527,46.225630908252015
7.912,0.9999953355021589,46.08202029855836
7.92,0.999995402062657,45.93839006314711
7.928,0.9999954693329483,45.79474020991534
7.936,0.9999955372912734,45.6510707468492
7.944,0.9999956059158199,45.5073816820238
7.952,0.9999956751847269,45.36367302360294
7.96,0.9999957450760908,45.21994477983906
7.968,0.9999958155679731,45.07619695907289
7.976,0.999995886638404,44.932429569733465
7.984,0.9999959582653898,44.78864262033778
7.992,0.9999960304269178,44.64483611949075
8.0,0.9999961031009623,44.501010075884814
8.008,0.9999961762654906,44.3571644983
8.016,0.9999962498984682,44.21329939560349
8.024000000000001,0.9999963239778649,44.069414776749646
8.032,0.9999963984816596,43.925510650779685
8.04,0.9999964733878468,43.78158702682144
8.048,0.9999965486744412,43.63764391408926
8.056000000000001,0.9999966243194848,43.493681321883805
8.064,0.9999967003010495,43.349699259591816
8.072,0.9999967765972451,43.20569773668583
8.08,0.9999968531862238,43.06167676272406
8.088000000000001,0.9999969300461845,42.91763634735022
8.096,0.9999970071553799,42.77357650029326
8.104,0.9999970844921199,42.62949723136709
8.112,0.9999971620347782,42.485398550470435
8.120000000000001,0.9999972397617962,42.34128046758664
8.128,0.9999973176516892,42.19714299278347
8.136,0.9999973956830508,42.052986136212695
8.144,0.9999974738345575,41.90880990811008
8.152000000000001,0.9999975520849749,41.764614318795076
8.16,0.999997630413161,41.62039937867067
8.168,0.9999977087980728,41.47616509822298
8.176,0.9999977872187696,41.33191148802113
8.184000000000001,0.9999978656544182,41.18763855871709
8.192,0.9999979440842981,41.04334632104536
8.2,0.9999980224878058,40.89903478582269
8.208,0.9999981008444594,40.75470396394785
8.216000000000001,0.9999981791339031,40.61035386640156
8.224,0.9999982573359117,40.46598450424603
8.232,0.9999983354303958,40.32159588862482
8.24,0.9999984133974049,40.177188030762515
8.248000000000001,0.9999984912171327,40.032760941964675
8.256,0.9999985688699218,39.88831463361735
8.264,0.9999986463362665,39.74384911718697
8.272,0.9999987235968182,39.59936440422
8.280000000000001,0.9999988006323901,39.45486050634278
8.288,0.9999988774239591,39.31033743526128
8.296,0.9999989539526724,39.1657952027607
8.304,0.9999990301998501,39.0212338207053
8.312,0.9999991061469896,38.87665330103824
8.32,0.999999181775769,38.73205365578111
8.328,0.9999992570680519,38.58743489703386
8.336,0.9999993320058901,38.44279703697438
8.344,0.9999994065715287,38.2981400878584
8.352,0.9999994807474085,38.15346406201899
8.36,0.99999955451617,38.00876897186659
8.368,0.9999996278606579,37.86405482988842
8.376,0.999999700763924,37.71932164864852
8.384,0.9999997732092296,37.57456944078718
8.392,0.9999998451800511,37.429798219020924
8.4,0.9999999166600817,37.28500799614203
8.408,0.9999999876332357,37.14019878501844
8.416,1.0,36.995370598593254
8.424,0.9999999999999999,36.85052344988472
8.432,1.0,36.70565735198568
8.44,1.0,36.56077231806355
8.448,0.9999999999999999,36.41586836135979
8.456,1.0,36.27094549518985
8.464,1.0,36.12600373294264
8.472,1.0,35.98104308808053
8.48,0.9999999999999999,35.836063574138755
8.488,1.0,35.69106520472543
8.496,1.0,35.54604799352096
8.504,1.0,35.401011954278026
8.512,1.0,35.255957100821064
8.52,0.9999999999999999,35.11088344704619
8.528,0.9999999999999998,34.96579100692067
8.536,1.0,34.82067979448285
8.544,0.9999999999999999,34.67554982384168
8.552,0.9999999999999999,34.530401109176545
8.56,1.0,34.3852336647369
8.568,1.0,34.24004750484201
8.576,1.0,34.094842643880604
8.584,1.0,33.94961909631064
8.592,0.9999999999999999,33.80437687665894
8.6,0.9999999999999999,33.659115999520964
8.608,1.0,33.513836479560396
8.616,0.9999999999999999,33.368538331509015
8.624,1.0,33.22322157016616
8.632,0.9999999999999999,33.07788621039869
8.64,0.9999999999999999,32.932532267140424
8.648,0.9999999999999999,32.7871597553921
8.656,1.0,32.64176869022078
8.664,0.9999999999999999,32.496359086759824
8.672,0.9999999999999999,32.3509309602084
8.68,1.0,32.20548432583125
8.688,0.9999999999999999,32.06001919895833
8.696,1.0,31.914535594984653
8.704,0.9999999999999999,31.76903352936972
8.712,1.0,31.623513017637546
8.72,1.0,31.477974075376036
8.728,1.0,31.33241671823689
8.736,1.0,31.186840961935182
8.744,1.0,31.041246822249164
8.752,0.9999999999999999,30.895634315019795
8.76,0.9999999999999999,30.75000345615063
8.768,1.0,30.604354261607334
8.776,1.0,30.458686747417502
8.784,1.0,30.313000929670245
8.792,1.0,30.167296824516058
8.8,0.9999999999999999,30.02157444816621
8.808,1.0,29.875833816892847
8.815999999999999,0.9999999999999999,29.730074947028314
8.824,0.9999999999999999,29.58429785496498
8.832,0.9999999999999999,29.43850255715504
8.84,1.0,29.29268907011014
8.847999999999999,1.0,29.146857410400923
8.856,1.0,29.00100759465691
8.864,0.9999999999999999,28.855139639566197
8.872,1.0,28.70925356187504
8.879999999999999,0.9999999999999999,28.563349378387613
8.888,1.0,28.417427105965633
8.896,0.9999999999999999,28.271486761528216
8.904,1.0,28.125528362051476
8.911999999999999,1.0,27.979551924568145
8.92,1.0,27.83355746616739
8.928,1.0,27.687545003994497
8.936,0.9999999999999999,27.541514555250608
8.943999999999999,1.0,27.395466137192233
8.952,1.0,27.24939976713116
8.96,1.0,27.10331546243409
8.968,1.0,26.957213240522385
8.975999999999999,1.0000000000000002,26.811093118871632
8.984,0.9999999999999999,26.664955115011455
8.992,1.0,26.518799246525276
9.0,1.0,26.372625531049938
9.008,1.0,26.226433986275403
9.016,1.0,26.080224629944485
9.024000000000001,1.0,25.933997479852604
9.032,1.0,25.78775255384754
9.04,1.0,25.641489869828924
9.048,0.9999999999999999,25.495209445748145
9.056000000000001,0.9999999999999999,25.34891129960813
9.064,0.9999999999999999,25.20259544946287
9.072,0.9999999999999999,25.05626191341724
9.08,0.9999999999999999,24.909910709626686
9.088000000000001,0.9999999999999999,24.763541856297014
9.096,0.9999999999999999,24.617155371684127
9.104,1.0,24.470751274093544
9.112,1.0,24.324329581880384
9.120000000000001,1.0,24.177890313448966
9.128,1.0,24.031433487252603
9.136,1.0,23.88495912179326
9.144,0.9999999999999999,23.738467235621272
9.152000000000001,1.0,23.59195784733524
9.16,1.0,23.445430975581637
9.168,1.0,23.298886639054505
9.176,1.0,23.15232485649533
9.184000000000001,0.9999999999999999,23.00574564669272
9.192,1.0,22.859149028482157
9.2,0.9999999999999999,22.71253502074573
9.208,1.0,22.565903642411833
9.216000000000001,1.0,22.419254912455127
9.224,0.9999999999999999,22.272588849896074
9.232,1.0,22.125905473800767
9.24,1.0,21.979204803280627
9.248000000000001,0.9999999999999999,21.832486857492388
9.256,1.0,21.685751655637628
9.264,1.0,21.538999216962583
9.272,1.0,21.392229560757954
9.280000000000001,1.0,21.245442706358702
9.288,1.0,21.09863867314382
9.296,1.0,20.951817480536004
9.304,1.0,20.804979148001507
9.312000000000001,1.0,20.658123695050016
9.32,0.9999999999999999,20.511251141234297
9.328,1.0,20.36436150614999
9.336,1.0,20.21745480943543
9.344,1.0,20.070531070771576
9.352,1.0,19.923590309881508
9.36,1.0,19.776632546530553
9.368,0.9999999999999999,19.629657800525788
9.376,1.0,19.48266609171613
9.384,0.9999999999999999,19.33565743999186
9.392,0.9999999999999999,19.188631865284716
9.4,0.9999999999999998,19.041589387567424
9.408,0.9999999999999999,18.894530026853797
9.416,1.0,18.747453803198287
9.424,1.0,18.60036073669606
9.432,1.0,18.45325084748258
9.44,1.0,18.306124155733677
9.448,1.0,18.158980681665135
9.456,1.0,18.011820445532795
9.464,1.0,17.86464346763213
9.472,1.0,17.71744976829833
9.48,0.9999999999999999,17.570239367905913
9.488,1.0,17.423012286868815
9.496,1.0,17.27576854564002
9.504,1.0,17.128508164711608
9.512,0.9999999999999999,16.981231164614467
9.52,1.0,16.833937565918298
9.528,1.0,16.686627389231294
9.536,0.9999999999999999,16.539300655200257
9.544,1.0,16.391957384510235
9.552,1.0,16.24459759788462
9.56,0.9999999999999999,16.097221316084756
9.568,1.0,15.949828559910213
9.576,1.0,15.80241935019824
9.584,0.9999999999999999,15.654993707824042
9.592,1.0,15.507551653700403
9.6,1.0,15.360093208777812
9.608,0.9999999999999999,15.21261839404412
9.616,1.0,15.06512723052473
9.624,1.0,14.917619739282275
9.632,1.0,14.770095941416722
9.64,1.0,14.622555858065097
9.648,1.0,14.474999510401643
9.656,1.0,14.327426919637523
9.664,1.0,14.179838107020993
9.672,1.0,14.03223309383706
9.68,0.9999999999999999,13.884611901407744
9.688,1.0,13.736974551091725
9.696,1.0,13.589321064284551
9.704,1.0,13.441651462418374
9.712,0.9999999999999999,13.293965766962122
9.72,1.0,13.14626399942124
9.728,1.0,12.998546181337922
9.736,1.0,12.850812334290792
9.744,1.0,12.703062479895186
9.752,1.0,12.555296639802835
9.76,0.9999999999999999,12.407514835702154
9.768,0.9999999999999999,12.259717089317924
9.776,1.0,12.111903422411588
9.784,1.0,11.964073856781013
9.792,1.0,11.816228414260673
9.8,1.0,11.668367116721472
9.808,0.9999999999999999,11.52048998607101
9.816,0.9999999999999999,11.372597044253302
9.824,1.0,11.224688313249109
9.832,0.9999999999999999,11.076763815075688
9.84,1.0,10.928823571787058
9.847999999999999,0.9999999999999999,10.780867605473858
9.856,0.9999999999999999,10.632895938263461
9.864,1.0,10.484908592320073
9.872,1.0,10.33690558984475
9.879999999999999,1.0,10.188886953075365
9.888,1.0,10.040852704286737
9.896,1.0,9.892802865790765
9.904,0.9999999999999999,9.744737459936443
9.911999999999999,1.0,9.596656509109845
9.92,0.9999999999999999,9.448560035734284
9.928,0.9999999999999999,9.300448062270458
9.936,0.9999999999999999,9.152320611216474
9.943999999999999,1.0,9.004177705107876
9.952,0.9999999999999999,8.856019366517796
9.96,0.9999999999999998,8.70784561805713
9.968,1.0,8.559656482374578
9.975999999999999,1.0,8.411451982156693
9.984,1.0,8.263232140128046
9.992,1.0,8.114996979051435
10.0,1.0,7.9667465217279165
10.008,0.9999999999999999,7.8184807909968885
10.016,1.0,7.670199809736282
10.024000000000001,0.9999999999999999,7.521903600862756
10.032,0.9999999999999999,7.373592187331787
10.04,1.0,7.225265592137751
10.048,0.9999999999999999,7.076923838314115
10.056000000000001,1.0,6.928566948933691
10.064,0.9999999999999999,6.780194947108697
10.072,1.0,6.631807855990887
10.08,0.9999999999999999,6.48340569877176
