freq,mag,phase
6.0,1.0003438243024585,54.68372433549672
6.002287616,1.0002479126041652,54.523248090824026
6.004575232,1.000136390733038,54.36425353563821
6.006862848,1.000016262164674,54.20690023275418
6.009150464,0.999895236119943,54.051294335357376
6.011438592,0.999780819537742,53.897370140240085
6.013726208,0.9996804381354135,53.744998989811805
6.016013824,0.9996003327156897,53.59392056757614
6.01830144,0.9995456897988231,53.443797197565495
6.020589056,0.9995199679411795,53.294226114573554
6.022876672,0.9995247097336347,53.144810644194074
6.025164288,0.9995597106803996,52.99507209166274
6.027451904,0.9996228707779022,52.84459131189644
6.029740032,0.999710003269787,52.69300385918027
6.032027648,0.9998156476378145,52.539987295305444
6.034315264,0.9999331979062258,52.38533952105469
6.03660288,1.000055082411934,52.22891781894477
6.038890496,1.0001737105263115,52.070728430799555
6.041178112,1.0002815190136427,51.91086493964305
6.043465728,1.0003716349532565,51.749552087916456
6.045753344,1.0004383476434728,51.5870602322254
6.04804096,1.0004774978837574,51.42378138787556
6.050329088,1.0004865607586113,51.26011325439192
6.052616704,1.0004649824362963,51.0965289959989
6.05490432,1.000414000761329,50.9334440701624
6.057191936,1.0003369793029875,50.771254816252444
6.059479552,1.0002386464013366,50.610313077844026
6.061767168,1.0001252792548647,50.45087790759378
6.064054784,1.0000041180693355,50.293132122694324
6.0663424,0.9998827077155259,50.137128254268454
6.068630016,0.9997688368676473,49.98281088658244
6.070918144,0.999669650058642,49.82999926611467
6.07320576,0.9995914191085604,49.678472684512684
6.075493376,0.9995392695533818,49.52785710676253
6.077780992,0.9995163868486037,49.37776358906504
6.080068608,0.9995242669066472,49.227749480047855
6.082356224,0.9995624037137234,49.07739607556941
6.08464384,0.9996284671710198,48.92624837351044
6.086931456,0.9997181648734412,48.77394265280465
6.089219584,0.9998259366085397,48.62016366426401
6.0915072,0.9999448624607143,48.464726150228785
6.093794816,1.0000674905056275,48.30750306107613
6.096082432,1.000186016613556,48.14849448705032
6.098370048,1.0002929225094992,47.98782031966211
6.100657664,1.0003813981898322,47.825706923157355
6.10294528,1.0004458840165504,47.662461901267726
6.105232896,1.000482297665184,47.49841406220758
6.107520512,1.00048834260363,47.33406130421233
6.10980864,1.0004636292690632,47.16981097645805
6.112096256,1.0004095966878592,47.006092918121105
6.114383872,1.0003297436956642,46.84333169681344
6.116671488,1.0002291506636842,46.68183328807328
6.118959104,1.0001140971194444,46.521895689162626
6.12124672,0.9999918638043166,46.36362897899953
6.123534336,0.9998701603467406,46.20710645687879
6.125821952,0.9997568512910177,46.05226850437525
6.128109568,0.9996588963519321,45.898937982182694
6.130397696,0.9995827216047879,45.74684810738271
6.132685312,0.9995329719583301,45.59562337749354
6.134972928,0.9995129773644027,45.444927797170635
6.137260544,0.9995238782794504,45.29421775481867
6.13954816,0.9995651956544287,45.143122125168816
6.141835776,0.9996342022051398,44.9911898683792
6.144123392,0.9997263966368609,44.838064836859814
6.146411008,0.9998361187889311,44.683443546245456
6.148699136,0.9999564916717159,44.52710559489231
6.150986752,1.0000797286439629,44.368970735048755
6.153274368,1.0001980411131652,44.20904072406787
6.155561984,1.0003040656330173,44.04745508362233
6.1578496,1.0003908900160952,43.88443578064908
6.160137216,1.0004531587057774,43.7203154858557
6.162424832,1.000486872037368,43.555449231846204
6.164712448,1.0004899357941939,43.39028410439731
6.167000064,1.000462058923031,43.22527145307261
6.169288192,1.000405109073889,43.06083543032823
6.171575808,1.0003224834172815,42.897380831445524
6.173863424,1.0002196161680048,42.73524002723785
6.17615104,1.000102873587896,42.574654999757264
6.178438656,0.9999796620339682,42.415778248557594
6.180726272,0.9998578778720699,42.258652573771606
6.183013888,0.9997450487575557,42.10321112744356
6.185301504,0.9996485335094305,41.94922666645044
6.18758912,0.9995741625795186,41.79648823677192
6.189877248,0.999527059728175,41.64457038843601
6.192164864,0.9995099119020798,41.49311439449204
6.19445248,0.9995239757844996,41.341629273634915
6.196740096,0.999568373936581,41.189686554390995
6.199027712,0.9996401215685008,41.036885004381446
6.201315328,0.9997350041596361,40.882818823129526
6.203602944,0.9998466799250688,40.7272157719107
6.20589056,0.9999683695992148,40.56988248772166
6.208178688,1.0000920600156045,40.41074643908583
6.210466304,1.0002102074054502,40.24979756442818
6.21275392,1.0003150757014008,40.08720885462592
6.215041536,1.0004003637083028,39.92318454507634
6.217329152,1.0004603316510565,39.758077865617814
6.219616768,1.0004913492960668,39.59227641748602
6.221904384,1.0004914037918193,39.42621343316767
6.224192,1.0004605193638965,39.2603402092528
6.226479616,1.000400440202871,39.09508971752473
6.228767744,1.000315256191374,38.930840695074295
6.23105536,1.0002101240730823,38.76793100717519
6.233342976,1.0000917266062204,38.606624978665415
6.235630592,0.9999676281556307,38.447022691563745
6.237918208,0.9998457251251642,38.28918298426438
6.240205824,0.9997335479745424,38.13301648730761
6.24249344,0.999638276401427,37.97829472091449
6.244781056,0.9995661165631148,37.82477398308945
6.247068672,0.9995214132452486,37.67206130294088
6.2493568,0.9995071762602786,37.5197507232316
6.251644416,0.9995243371129037,37.36737761488698
6.253932032,0.999571758382303,37.21449031602932
6.256219648,0.9996464244456459,37.06069166081472
6.258507264,0.9997436556783895,36.90559795323245
6.26079488,0.9998572707774696,36.74890739160762
6.263082496,0.9999800136687627,36.590490454792
6.265370112,1.0001043564725576,36.43023007534841
6.26765824,1.0002221479812958,36.26816720824855
6.269945856,1.0003260983210673,36.10445754067973
6.272233472,1.0004095790627046,35.939341128615276
6.274521088,1.000467295193585,35.7731688711232
6.276808704,1.0004955933210637,35.6063309592187
6.27909632,1.0004926584203517,35.439245652131355
6.281383936,1.0004585579570826,35.27240064911644
6.283671552,1.0003957073037937,35.106210202175205
6.285959168,1.0003078427738468,34.94109239732156
6.288247296,1.0002004558135116,34.77733255595472
6.290534912,1.0000805763742626,34.61519003492491
6.292822528,0.9999556259024156,34.45476674506877
6.295110144,0.9998335919313771,34.296109523680734
6.29739776,0.9997220865234886,34.139111369966514
6.299685376,0.9996282063448679,33.98356310674377
6.301972992,0.9995580441766135,33.829151956360036
6.304260608,0.9995159354558831,33.67553553489508
6.306548224,0.9995046672037563,33.52225904135176
6.308836352,0.999524764579112,33.368876145050265
6.311123968,0.9995751526561479,33.21493061039688
6.313411584,0.9996525654523958,33.06003439255755
6.3156992,0.9997521607796188,32.90378972989781
6.317986816,0.9998676281441264,32.74594246643624
6.320274432,0.9999916602044273,32.58630552573266
6.322562048,1.0001163976090472,32.424850433766714
6.324849664,1.000233934441427,32.26155773769656
6.327137792,1.0003367257093743,32.09662775028912
6.329425408,1.000418558135209,31.930323278335916
6.331713024,1.000473982328031,31.76297811993125
6.33400064,1.00049951911931,31.594994587930262
6.336288256,1.0004935416748448,31.426796702457867
6.338575872,1.0004565091191124,31.258887441122646
6.340863488,1.0003907455756595,31.091686194198434
6.343151104,1.0003002677667683,30.92554510090748
6.34543872,1.0001909605253665,30.76085245843786
6.347726848,1.0000695182425219,30.597744626648254
6.350014464,0.9999437451537914,30.436419431255864
6.35230208,0.999821698751169,30.276817139749003
6.354589696,0.9997108803844712,30.11887452715718
6.356877312,0.9996184994577872,29.962365759366648
6.359164928,0.9995503012238792,29.806987039218598
6.361452544,0.9995108142337931,29.6523439767954
6.36374016,0.9995022287346996,29.498001438883342
6.366027776,0.9995254366606733,29.343517194626475
6.368315904,0.9995787150600157,29.188410828889193
6.37060352,0.999658898574277,29.032288941702493
6.372891136,0.9997607965708736,28.874820893225348
6.375178752,0.9998780815423929,28.715689385554494
6.377466368,1.0000032079310184,28.554766924252412
6.379753984,1.0001283272397496,28.391972279659612
6.3820416,1.000245484397679,28.227364424180983
6.384329216,1.0003472693033448,28.061128960814266
6.386617344,1.0004271662079953,27.893503062096254
6.38890496,1.0004803596001475,27.72487291298356
6.391192576,1.0005032023593143,27.55564736873259
6.393480192,1.0004943549061216,27.386259636710633
6.395767808,1.0004543403498594,27.217180356712586
6.398055424,1.0003856940884845,27.048824624898916
6.40034304,1.0002928244241844,26.88161190274834
6.402630656,1.0001813267617448,26.715828842542162
6.404918272,1.0000585518051046,26.5516913423799
6.4072064,0.9999320805966508,26.389313559745897
6.409494016,0.9998099379305825,26.228706474702264
6.411781632,0.9996999494545595,26.06970744662395
6.414069248,0.9996090060568887,25.912138238872345
6.416356864,0.9995428477105129,25.755667994053724
6.41864448,0.9995058512872159,25.599885363766305
6.420932096,0.9995002106621159,25.444371409495375
6.423219712,0.9995263400854302,25.288658756214115
6.425507328,0.9995824814198794,25.132301574281676
6.427795456,0.9996653495403734,24.974881122630535
6.430083072,0.9997695943341174,24.816028122286973
6.432370688,0.999888502276592,24.655526381103165
6.434658304,1.0000146289803726,24.49318149379573
6.43694592,1.000140133885096,24.328987450388045
6.439233536,1.0002568372327454,24.16294748404465
6.441521152,1.0003575142128271,23.99527411401604
6.443808768,1.0004357608358927,23.826261116787922
6.446096896,1.0004865426224216,23.656256771119686
6.448384512,1.0005067608264815,23.485698939842198
6.450672128,1.0004950588754362,23.314990894505964
6.452959744,1.000452082777323,23.14463228636466
6.45524736,1.0003806080839326,22.975057915060006
6.457534976,1.000285271196309,22.80664472792131
6.459822592,1.0001718243502122,22.639679863026544
6.462110208,1.0000476539461618,22.47439421136795
6.464397824,0.9999204870078335,22.310870808313307
6.466685952,0.9997985149582337,22.149120374952012
6.468973568,0.9996892443321159,21.988979602112405
6.471261184,0.9995997508724481,21.83023250563561
6.4735488,0.9995356647897399,21.672554320958728
6.475836416,0.9995010948348179,21.515532790424132
6.478124032,0.9994982526573238,21.35873089694231
6.480411648,0.9995272112654472,21.201705614391372
6.482699264,0.9995862682034935,21.043974565579415
6.48498688,0.9996717102329166,20.885140769215507
6.487275008,0.999778164483358,20.724841028594327
6.489562624,0.9998987731000714,20.56285011368553
6.49185024,1.0000259946203542,20.398992395808044
6.494137856,1.0001516307361278,20.23324584947596
6.496425472,1.0002679773140595,20.06566910261593
6.498713088,1.000367459282214,19.896497725333187
6.501000704,1.0004439654761603,19.72599065350739
6.50328832,1.0004925520439307,19.554497033680374
6.505576448,1.0005100320127136,19.382464748551463
6.507864064,1.0004954686432384,19.210372000399364
6.51015168,1.0004497272192128,19.03864602793491
6.512439296,1.0003755258991966,18.86773444357927
6.514726912,1.0002777153295241,18.698005957097077
6.517014528,1.000162490379569,18.52976420988006
6.519302144,1.0000370039795337,18.36322240998087
6.52158976,0.9999091413679067,18.198449428716557
6.523877376,0.9997871992170111,18.03545054417207
6.526165504,0.999678716696477,17.8740459360839
6.52845312,0.999590801486467,17.71400997758007
6.530740736,0.9995287012925842,17.555025209625974
6.533028352,0.9994966041071119,17.396663241050103
6.535315968,0.9994965110819253,17.238470630696906
6.537603584,0.9995283824108924,17.079993374182646
6.5398912,0.9995902344278587,16.92077013720754
6.542178816,0.9996782091561282,16.760402791680548
6.544466432,0.9997867058539038,16.598547101276736
6.54675456,0.9999089902797649,16.434959525614733
6.549042176,1.000037057476799,16.269510496247996
6.551329792,1.000163058278234,16.102127113742824
6.553617408,1.0002789158028886,15.932942910866755
6.555905024,1.0003772880130113,15.762126647075151
6.55819264,1.0004519761094035,15.590019647762405
6.560480256,1.0004982601344985,15.416946521762512
6.562767872,1.0005132590538695,15.243382502633473
6.565056,1.0004957732394373,15.069746611033151
6.567343616,1.0004471992294597,14.896557351241825
6.569631232,1.0003704174573522,14.724185016936456
6.571918848,1.0002703194159686,14.553055712772569
6.574206464,1.0001532215789424,14.383428959853193
6.57649408,1.0000263386941541,14.215519870764401
6.578781696,0.9998979771555566,14.049386332708535
6.581069312,0.999776144871291,13.885010682228629
6.583356928,0.9996685432388832,13.722249551991325
6.585645056,0.9995819172163859,13.560846364998381
6.587932672,0.9995218536610811,13.400419511681754
6.590220288,0.9994922617867305,13.24059602190311
6.592507904,0.9994947302573656,13.080912678691956
6.59479552,0.9995295397845082,12.920909019483279
6.597083136,0.9995941314913575,12.760094607647165
6.599370752,0.9996844505706882,12.598117029120544
6.601658368,0.999795141077641,12.43459775656998
6.603945984,0.9999189100947079,12.269299015944165
6.606234112,1.0000479630177577,12.10210745086104
6.608521728,1.0001741408762812,11.933013115066647
6.610809344,1.0002895912669565,11.762083176247364
6.61309696,1.0003868401372404,11.589555853646818
6.615384576,1.0004598024440146,11.415726468432771
6.617672192,1.0005038344276225,11.240986098015942
6.619959808,1.0005162579799571,11.065753216767241
6.622247424,1.0004960773393023,10.89052028316759
6.624535552,1.0004447084678876,10.715733493208843
6.626823168,1.0003653646755994,10.541826058126572
6.629110784,1.0002628974663466,10.369168700680234
6.6313984,1.0001440340339782,10.198044590179714
6.633686016,1.0000160441919916,10.028662070453679
6.635973632,0.9998871191219005,9.861073452764638
6.638261248,0.9997653830508421,9.695235908275649
6.640548864,0.9996586014801101,9.530985683514746
6.64283648,0.9995733555323787,9.368076012829258
6.645124608,0.9995153739925207,9.206136796729607
6.647412224,0.9994880742711245,9.044746265693762
6.64969984,0.9994933029736746,8.883452889872565
6.651987456,0.9995307380849028,8.72177347771795
6.654275072,0.9995980010589962,8.559277019700327
6.656562688,0.999690952883617,8.395562355841907
6.658850304,0.9998034731924794,8.230267172657424
6.66113792,0.99992869710782,8.06318039409219
6.663426048,1.0000586737877901,7.894190346187822
6.665713664,1.0001850409872617,7.7232489062696
6.66800128,1.00029990856606,7.550500142209118
6.670288896,1.0003959794345247,7.376144065632932
6.672576512,1.0004673179795824,7.200493280018032
6.674864128,1.0005092306411003,7.023961399600229
6.677151744,1.0005189700339268,6.846984375579049
6.67943936,1.0004962516655629,6.670014552528081
6.681726976,1.0004422477424824,6.493562621080473
6.684015104,1.0003603063348918,6.3179896573782575
6.68630272,1.000255725634901,6.143718105361648
6.688590336,1.0001350604116157,5.970993037862252
6.690877952,1.0000058613238687,5.800012825946288
6.693165568,0.9998764364217146,5.63085281120456
6.695453184,0.9997548852942904,5.463441202456975
6.6977408,0.9996489100748679,5.297603199142593
6.700028416,0.9995651838364357,5.133060870586889
6.702316032,0.9995090494838695,4.969492981423592
6.70460416,0.9994841438713933,4.8064337245068645
6.706891776,0.999491888941767,4.643435879849291
6.709179392,0.9995320655890445,4.480011243670754
6.711467008,0.9996018531125643,4.315708987227644
6.713754624,0.9996970226299843,4.150165970849563
6.71604224,0.99981160991434,3.9830010764492276
6.718329856,0.9999382226793346,3.8140213895490334
6.720617472,1.0000689205007722,3.643087785777922
6.7229056,1.0001955672466691,3.470234439605378
6.725193216,1.000310008705934,3.295534482075386
6.727480832,1.000404931436775,3.119261626136296
6.729768448,1.000474586983771,2.9416955125253494
6.732056064,1.0005142621312701,2.7632776797769423
6.73434368,1.0005218328817935,2.58444694221924
6.736631296,1.0004964128210188,2.4056707318055035
6.738918912,1.0004397470192508,2.227403129505351
6.741206528,1.0003553813052308,2.0500880399689194
6.743494656,1.0002487334276857,1.8740698601225663
6.745782272,1.0001263684082804,1.6996379738966116
6.748069888,0.9999961099561813,1.526975268971721
6.750357504,0.9998662271057024,1.356138454402473
6.75264512,0.9997446785938688,1.187017215545482
6.754932736,0.9996395046522163,1.0194950224591484
6.757220352,0.9995571671411762,0.8532487744531018
6.759507968,0.9995028808898148,0.687942395079932
6.761795584,0.9994801800460197,0.52310609969633
6.764083712,0.9994905480547135,0.3582640556724129
6.766371328,0.9995332438927892,0.19299342397260144
6.768658944,0.9996056459015957,0.026810983990103635
6.77094656,0.9997030236726666,-0.14068993870182198
6.773234176,0.9998194716194602,-0.3098202868873435
6.775521792,0.9999474112266512,-0.48081317339160895
6.777809408,1.0000790466371496,-0.6537481636104358
6.780097024,1.000205695202102,-0.8286563826000074
6.782385152,1.0003196935730796,-1.0053650963706577
6.784672768,1.0004136295744848,-1.1836717407289814
6.786960384,1.0004815380574625,-1.3632323040524703
6.789248,1.000519255696937,-1.5436402598960592
6.791535616,1.0005242892221917,-1.7244373921158858
6.793823232,1.000496472418105,-1.9051406308427232
6.796110848,1.0004372830597479,-2.0853027540447835
6.798398464,1.0003506186379898,-2.2644962835879117
6.80068608,1.0002418627766512,-2.4423305589164266
6.802974208,1.0001179488360512,-2.618589932455113
6.805261824,0.9999866371988541,-2.7930271570903993
6.80754944,0.9998561529393596,-2.9656953241551323
6.809837056,0.9997349208003581,-3.13658663761894
6.812124672,0.9996305022877507,-3.305896120929665
6.814412288,0.9995494827702966,-3.4739790757943516
6.816699904,0.9994970889061563,-3.6411323112127825
6.81898752,0.9994766406683914,-3.8078569256059382
6.821275136,0.9994894189069289,-3.9746094806775307
6.823563264,0.999534481345239,-4.141856129705534
6.82585088,0.9996092151183649,-4.310037729817933
6.828138496,0.9997089426625783,-4.4795930472538
6.830426112,0.999827142336059,-4.6507782468787005
6.832713728,0.9999565918543317,-4.823867234451714
6.835001344,1.0000889078115995,-4.998925458779354
6.83728896,1.0002157956291613,-5.175955308495002
6.839576576,1.0003292812190792,-5.354792470395898
6.841864704,1.0004221021140938,-5.535223067110419
6.84415232,1.0004884724686212,-5.716881308686992
6.846439936,1.0005242362107492,-5.899390736281244
6.848727552,1.0005270046535222,-6.0822459294317
6.851015168,1.0004966027191557,-6.264969093421231
6.853302784,1.000435034466138,-6.447117118343724
6.8555904,1.00034607697439,-6.628281323830908
6.857878016,1.000235299016715,-6.808060738114708
6.860165632,1.000109864256455,-6.986219209776476
6.86245376,0.9999774688946115,-7.162589238647834
6.864741376,0.9998465466228653,-7.337127092422378
6.867028992,0.9997254388631374,-7.509928801792154
6.869316608,0.9996217601679835,-7.6811749016809205
6.871604224,0.9995420599238759,-7.8511564853709155
6.87389184,0.9994913298287209,-8.020284740037367
6.876179456,0.9994729714125868,-8.18899528491174
6.878467072,0.9994880877582684,-8.357752874653562
6.880754688,0.9995356546389199,-8.527046645507411
6.883042816,0.9996128451796819,-8.697352720248446
6.885330432,0.9997145927847715,-8.869020267550498
6.887618048,0.9998345393474236,-9.042387314857057
6.889905664,0.9999652154252154,-9.217675570157878
6.89219328,1.0000982463175994,-9.394947819252058
6.894480896,1.0002253584646679,-9.574198415741138
6.896768512,1.0003383274825033,-9.755261933978542
6.899056128,1.0004301961731337,-9.937909856087833
6.901344256,1.0004950806457544,-10.121774160094303
6.903631872,1.0005288942550654,-10.306453764707753
6.905919488,1.000529444904732,-10.491452617554467
6.908207104,1.0004967983897113,-10.6763151010364
6.91049472,1.0004328113269536,-10.860571645398643
6.912782336,1.0003417142203879,-11.043784241969611
6.915069952,1.0002290268298306,-11.225614009432867
6.917357568,1.0001020279186312,-11.405789649142104
6.919645184,0.999968597397839,-11.584167686465827
6.921933312,0.9998372474911885,-11.760713846588828
6.924220928,0.9997162509072608,-11.935505775394086
6.926508544,0.9996132281068275,-12.108761622700232
