freq,mag,phase
6.0,0.999991601875569,81.44941008135206
6.008,0.9999920000141445,81.28936433792099
6.016,0.9999923875261568,81.12920711438588
6.024,0.9999927645800637,80.9689383241622
6.032,0.9999931313428079,80.80855788129352
6.04,0.9999934879798216,80.64806570045523
6.048,0.9999938346550324,80.48746169695816
6.056,0.9999941715308684,80.3267457867525
6.064,0.9999944987682634,80.16591788643137
6.072,0.9999948165266624,80.00497791323477
6.08,0.9999951249640272,79.84392578505314
6.088,0.9999954242368406,79.68276142043122
6.096,0.999995714500114,79.52148473857184
6.104,0.9999959959073901,79.3600956593396
6.112,0.9999962686107513,79.19859410326477
6.12,0.9999965327608226,79.03697999154696
6.128,0.9999967885067781,78.87525324605896
6.136,0.9999970359963478,78.7134137893505
6.144,0.9999972753758203,78.55146154465206
6.152,0.9999975067900505,78.38939643587868
6.16,0.9999977303824649,78.22721838763377
6.168,0.9999979462950667,78.06492732521285
6.176,0.9999981546684411,77.90252317460742
6.184,0.9999983556417622,77.74000586250881
6.192,0.9999985493527973,77.57737531631183
6.2,0.9999987359379128,77.41463146411886
6.208,0.9999989155320809,77.25177423474337
6.216,0.9999990882688842,77.088803557714
6.224,0.9999992542805216,76.92571936327828
6.232,0.9999994136978146,76.76252158240644
6.24,0.9999995666502123,76.5992101467953
6.248,0.9999997132657977,76.43578498887209
6.256,0.9999998536712935,76.2722460417983
6.264,0.9999999879920672,76.10859323947355
6.272,1.0,75.94482651653938
6.28,0.9999999999999999,75.78094580838315
6.288,0.9999999999999999,75.6169510511419
6.296,0.9999999999999999,75.45284218170615
6.304,1.0,75.28861913772381
6.312,1.0,75.12428185760406
6.32,1.0,74.95983028052115
6.328,1.0,74.79526434641828
6.336,1.0,74.63058399601152
6.344,1.0,74.46578917079367
6.352,0.9999999999999999,74.30087981303802
6.36,1.0,74.13585586580241
6.368,1.0,73.97071727293287
6.376,1.0,73.80546397906778
6.384,1.0,73.64009592964149
6.392,1.0,73.47461307088831
6.4,0.9999999999999999,73.30901534984642
6.408,1.0,73.14330271436165
6.416,0.9999999999999999,72.97747511309146
6.424,1.0,72.81153249550874
6.432,1.0,72.6454748119058
6.44,0.9999999999999999,72.47930201339807
6.448,1.0,72.31301405192816
6.456,1.0,72.14661088026969
6.464,1.0,71.98009245203103
6.472,0.9999999999999999,71.81345872165949
6.48,1.0,71.6467096444448
6.4879999999999995,0.9999999999999999,71.47984517652341
6.496,0.9999999999999999,71.31286527488197
6.504,1.0,71.14576989736155
6.5120000000000005,1.0,70.97855900266124
6.52,1.0,70.81123255034232
6.5280000000000005,1.0,70.64379050083178
6.536,1.0,70.47623281542653
6.5440000000000005,1.0,70.308559456297
6.552,1.0,70.14077038649131
6.5600000000000005,1.0,69.97286556993878
6.568,1.0,69.80484497145412
6.5760000000000005,1.0000000000000002,69.63670855674107
6.584,0.9999999999999999,69.46845629239643
6.592,1.0,69.30008814591379
6.6,0.9999999999999999,69.13160408568747
6.608,1.0000000000000002,68.96300408101635
6.616,1.0,68.79428810210773
6.624,0.9999999999999999,68.62545612008113
6.632,0.9999999999999999,68.45650810697224
6.64,1.0,68.28744403573667
6.648,1.0,68.11826388025385
6.656,0.9999999999999999,67.94896761533082
6.664,1.0,67.77955521670609
6.672,0.9999999999999999,67.61002666105351
6.68,1.0,67.44038192598602
6.688,1.0,67.27062099005948
6.696,0.9999999999999999,67.10074383277656
6.704,1.0,66.93075043459051
6.712,1.0,66.76064077690891
6.72,1.0,66.59041484209759
6.728,0.9999999999999999,66.42007261348434
6.736,1.0,66.24961407536273
6.744,1.0,66.0790392129959
6.752,1.0,65.90834801262035
6.76,1.0,65.73754046144974
6.768,0.9999999999999999,65.56661654767858
6.776,1.0,65.39557626048605
6.784,1.0,65.2244195900398
6.792,1.0,65.05314652749968
6.8,1.0,64.88175706502135
6.808,0.9999999999999999,64.71025119576028
6.816,1.0,64.53862891387527
6.824,1.0,64.36689021453223
6.832,1.0,64.19503509390796
6.84,0.9999999999999999,64.02306354919385
6.848,0.9999999999999999,63.85097557859946
6.856,1.0,63.67877118135635
6.864,0.9999999999999999,63.50645035772181
6.872,1.0,63.33401310898236
6.88,0.9999999843984798,63.16145943745756
6.888,0.9999999291829724,62.988789346503644
6.896,0.9999998740297928,62.816002840517164
6.904,0.9999998189761282,62.643099924938646
6.912,0.9999997640583305,62.47008060625623
6.92,0.9999997093119216,62.2969448920093
6.928,0.9999996547716019,62.123692790792084
6.936,0.9999996004712551,61.95032431225728
6.944,0.9999995464439565,61.77683946711965
6.952,0.9999994927219792,61.60323826715965
6.96,0.9999994393368007,61.429520725226915
6.968,0.999999386319111,61.25568685524394
6.976,0.9999993336988177,61.08173667220958
6.984,0.9999992815050538,60.9076701922026
6.992,0.9999992297661844,60.733487432385196
7.0,0.9999991785098136,60.55918841100662
7.008,0.9999991277627917,60.38477314740656
7.016,0.9999990775512204,60.210241662018696
7.024,0.9999990279004616,60.03559397637426
7.032,0.9999989788351443,59.86083011310543
7.04,0.9999989303791688,59.685950095948826
7.048,0.9999988825557165,59.510953949749
7.056,0.9999988353872554,59.335841700461806
7.064,0.9999987888955474,59.160613375157894
7.072,0.9999987431016545,58.98526900202614
7.08,0.9999986980259461,58.80980861037699
7.088,0.9999986536881056,58.634232230645885
7.096,0.9999986101071383,58.45853989439664
7.104,0.9999985673013759,58.28273163432484
7.112,0.9999985252884862,58.10680748426111
7.12,0.9999984840854774,57.93076747917455
7.128,0.9999984437087068,57.75461165517598
7.136,0.9999984041738866,57.578340049521294
7.144,0.9999983654960912,57.40195270061475
7.152,0.9999983276897632,57.22544964801221
7.16,0.9999982907687217,57.04883093242441
7.168,0.9999982547461675,56.87209659572033
7.176,0.9999982196346915,56.69524668093021
7.184,0.99999818544628,56.518281232248945
7.192,0.9999981521923225,56.34120029503925
7.2,0.9999981198836179,56.164003915834776
7.208,0.9999980885303817,55.98669214234331
7.216,0.9999980581422532,55.80926502345
7.224,0.9999980287283007,55.6317226092204
7.232,0.9999980002970302,55.4540649509036
7.24,0.9999979728563911,55.276292100935386
7.248,0.9999979464137826,55.098404112941246
7.256,0.999997920976062,54.92040104173949
7.264,0.9999978965495491,54.742282943344314
7.272,0.9999978731400355,54.56404987496877
7.28,0.9999978507527897,54.38570189502776
7.288,0.9999978293925638,54.20723906314116
7.296,0.9999978090636014,54.028661440136666
7.304,0.9999977897696428,53.849969088052774
7.312,0.9999977715139337,53.67116207014179
7.32,0.9999977542992287,53.49224045087264
7.328,0.9999977381278017,53.31320429593382
7.336,0.9999977230014493,53.134053672236305
7.344,0.9999977089215005,52.95478864791636
7.352,0.9999976958888207,52.77540929233837
7.36,0.9999976839038194,52.5959156760977
7.368,0.9999976729664575,52.41630787102344
7.376,0.9999976630762522,52.23658595018122
7.384,0.9999976542322857,52.056749987875975
7.392,0.9999976464332104,51.8768000596546
7.4,0.9999976396772551,51.696736242308724
7.4079999999999995,0.999997633962233,51.51655861387742
7.416,0.9999976292855475,51.33626725364975
7.4239999999999995,0.9999976256441984,51.15586224216768
7.432,0.9999976230347886,50.97534366122823
7.4399999999999995,0.9999976214535311,50.794711593886625
7.448,0.999997620896255,50.61396612445844
7.4559999999999995,0.9999976213584119,50.433107338522454
7.464,0.9999976228350828,50.25213532292285
7.4719999999999995,0.9999976253209841,50.07105016577209
7.48,0.9999976288104745,49.88985195645312
7.4879999999999995,0.9999976332975608,49.708540785622
7.496,0.9999976387759045,49.527116745210115
7.504,0.999997645238829,49.34557992842693
7.5120000000000005,0.9999976526793243,49.16393042976198
7.52,0.9999976610900547,48.98216834498759
7.5280000000000005,0.999997670463365,48.80029377116088
7.536,0.9999976807912857,48.618306806626414
7.5440000000000005,0.9999976920655408,48.436207551018065
7.552,0.9999977042775531,48.25399610526173
7.5600000000000005,0.9999977174184503,48.07167257157716
7.568,0.9999977314790722,47.88923705348049
7.5760000000000005,0.9999977464499762,47.706689655786136
7.584,0.999997762321443,47.524030484609185
7.5920000000000005,0.9999977790834833,47.34125964736724
7.6,0.9999977967258453,47.158377252782905
7.6080000000000005,0.999997815238018,46.97538341088539
7.616,0.9999978346092393,46.792278233013015
7.6240000000000006,0.9999978548285017,46.60906183181479
7.632,0.9999978758845578,46.42573432125278
7.640000000000001,0.9999978977659274,46.242295816603736
7.648,0.9999979204609021,46.05874643446131
7.656000000000001,0.9999979439575523,45.875086292737684
7.664,0.9999979682437327,45.69131551066569
7.672,0.9999979933070886,45.50743420880042
7.68,0.9999980191350618,45.323442509021206
7.688,0.9999980457148954,45.139340534533325
7.696,0.9999980730336414,44.95512840986977
7.704,0.9999981010781651,44.770806260892954
7.712,0.9999981298351519,44.58637421479641
7.72,0.999998159291112,44.40183240010643
7.728,0.9999981894323874,44.21718094668372
7.736,0.9999982202451563,44.03241998572504
7.744,0.9999982517154399,43.847549649764616
7.752,0.9999982838291078,43.66257007267585
7.76,0.9999983165718829,43.477481389672725
7.768,0.999998349929348,43.292283737311266
7.776,0.9999983838869506,43.10697725349107
7.784,0.9999984184300093,42.921562077456606
7.792,0.9999984535437182,42.736038349798626
7.8,0.9999984892131538,42.55040621245554
7.808,0.9999985254232783,42.36466580871468
7.816,0.9999985621589478,42.17881728321357
7.824,0.9999985994049154,41.9928607819412
7.832,0.9999986371458378,41.8067964522392
7.84,0.9999986753662802,41.62062444280305
7.848,0.9999987140507214,41.43434490368318
7.856,0.9999987531835595,41.247957986286075
7.864,0.9999987927491171,41.061463843375385
7.872,0.9999988327316462,40.87486262907292
7.88,0.9999988731153332,40.68815449885966
7.888,0.9999989138843051,40.5013396095767
7.896,0.9999989550226331,40.314418119426264
7.904,0.9999989965143389,40.12739018797244
7.912,0.9999990383433989,39.94025597614218
7.92,0.9999990804937494,39.75301564622614
7.928,0.9999991229492927,39.56566936187925
7.936,0.9999991656938997,39.378217288121725
7.944,0.9999992087114167,39.19065959133961
7.952,0.9999992519856692,39.002996439285525
7.96,0.999999295500468,38.81522800107927
7.968,0.9999993392396124,38.62735444720845
7.976,0.999999383186896,38.43937594952904
7.984,0.9999994273261107,38.251292681265866
7.992,0.9999994716410519,38.06310481701315
8.0,0.9999995161155232,37.87481253273493
8.008,0.9999995607333402,37.686416005765494
8.016,0.9999996054783358,37.49791541480965
8.024000000000001,0.9999996503343647,37.309310939943266
8.032,0.9999996952853071,37.120602762613416
8.04,0.9999997403150739,36.931791065638606
8.048,0.9999997854076111,36.74287603320904
8.056000000000001,0.9999998305469038,36.55385785088693
8.064,0.9999998757169797,36.36473670560644
8.072,0.9999999209019153,36.17551278567384
8.08,0.999999966085839,35.98618628076755
8.088000000000001,0.9999999999999998,35.796757381938306
8.096,1.0,35.60722628160901
8.104,1.0,35.41759317357454
8.112,0.9999999999999999,35.22785825300192
8.120000000000001,0.9999999999999999,35.038021716430016
8.128,0.9999999999999999,34.84808376176941
8.136,1.0,34.65804458830213
8.144,1.0,34.46790439668128
8.152000000000001,1.0,34.277663388931046
8.16,1.0,34.08732176844608
8.168,1.0,33.896879739991135
8.176,1.0,33.70633750970066
8.184000000000001,0.9999999999999999,33.51569528507841
8.192,0.9999999999999999,33.324953274996886
8.2,1.0,33.13411168969664
8.208,1.0,32.943170740785774
8.216000000000001,1.0,32.75213064123938
8.224,0.9999999999999999,32.56099160539881
8.232,1.0,32.369753848970745
8.24,1.0,32.178417589026616
8.248000000000001,1.0,31.98698304400183
8.256,1.0,31.79545043369481
8.264,0.9999999999999999,31.603819979266017
8.272,1.0,31.412091903237076
8.280000000000001,0.9999999999999999,31.22026642948988
8.288,0.9999999999999998,31.02834378326546
8.296,0.9999999999999999,30.836324191162827
8.304,1.0,30.644207881137913
8.312,1.0,30.451995082502517
8.32,0.9999999999999999,30.259686025922832
8.328,1.0,30.067280943418517
8.336,1.0,29.87478006836099
8.344,0.9999999999999999,29.6821836354725
8.352,1.0,29.48949188082435
8.36,1.0,29.29670504183578
8.368,1.0,29.103823357272177
8.376,1.0,28.91084706724387
8.384,0.9999999999999999,28.71777641320422
8.392,0.9999999999999999,28.52461163794829
8.4,1.0,28.33135298561089
8.408,1.0,28.138000701665216
8.416,1.0,27.944555032920643
8.424,1.0,27.751016227521408
8.432,1.0,27.557384534944287
8.44,1.0,27.363660205997117
8.448,0.9999999999999999,27.16984349281646
8.456,1.0,26.97593464886599
8.464,0.9999999999999999,26.78193392893407
8.472,1.0,26.587841589132044
8.48,1.0,26.393657886891756
8.488,1.0000000000000002,26.199383080963667
8.496,1.0,26.005017431414377
8.504,1.0,25.810561199624583
8.512,1.0,25.616014648286527
8.52,1.0,25.421378041401866
8.528,1.0,25.22665164427898
8.536,0.9999999999999999,25.03183572353085
8.544,1.0,24.83693054707216
8.552,1.0,24.641936384117123
8.56,0.9999999999999999,24.446853505176517
8.568,0.9999999999999999,24.251682182055383
8.576,1.0,24.056422687849977
8.584,1.0,23.861075296945362
8.592,1.0,23.665640285012266
8.6,1.0,23.47011792900459
8.608,1.0,23.27450850715615
8.616,1.0,23.078812298978136
8.624,1.0,22.88302958525569
8.632,1.0,22.687160648045356
8.64,1.0,22.491205770671467
8.648,0.9999999999999999,22.295165237723506
8.656,0.9999999999999998,22.09903933505252
8.664,1.0,21.902828349768264
8.672,0.9999999999999998,21.706532570235535
8.68,0.9999999999999999,21.510152286071254
8.688,1.0,21.313687788140687
8.696,0.9999999999999999,21.11713936855441
8.704,0.9999999999999999,20.9205073206645
8.712,1.0,20.72379193906133
8.72,0.9999999999999999,20.52699351956968
8.728,1.0000000000000002,20.330112359245486
8.736,1.0,20.133148756371778
8.744,1.0,19.936103010455373
8.752,1.0,19.738975422222765
8.76,0.9999999999999999,19.54176629361664
8.768,1.0,19.34447592779166
8.776,1.0,19.147104629110984
8.784,0.9999999999999999,18.949652703141876
8.792,0.9999999999999999,18.752120456652126
8.8,1.0,18.55450819760562
8.808,0.9999999999999999,18.356816235158607
8.815999999999999,1.0,18.15904487965524
8.824,1.0,17.96119444262353
8.832,1.0000000000000002,17.763265236771193
8.84,1.0,17.565257575981256
8.847999999999999,0.9999999999999998,17.367171775307664
8.856,1.0,17.169008150970978
8.864,1.0,16.97076702035401
8.872,0.9999999999999999,16.77244870199728
8.879999999999999,1.0,16.574053515594414
8.888,0.9999999999999999,16.375581781987634
8.896,0.9999999999999999,16.177033823163224
8.904,0.9999999999999999,15.978409962246802
8.911999999999999,1.0,15.779710523498467
8.92,1.0,15.580935832308219
8.928,1.0,15.382086215191096
8.936,0.9999999999999999,15.18316199978237
8.943999999999999,0.9999999999999998,14.984163514832476
8.952,1.0,14.785091090202128
8.96,1.0,14.585945056857494
8.968,0.9999999999999999,14.386725746864997
8.975999999999999,0.9999999999999999,14.187433493386132
8.984,1.0,13.988068630672462
8.992,1.0,13.788631494060482
9.0,1.0,13.589122419966314
9.008,1.0000000000000002,13.38954174588032
9.016,1.0,13.189889810361917
9.024000000000001,1.0,12.990166953034219
9.032,0.9999999999999999,12.790373514578599
9.04,1.0,12.590509836729106
9.048,1.0,12.390576262267057
9.056000000000001,1.0,12.190573135015548
9.064,1.0,11.990500799833791
9.072,0.9999999999999998,11.79035960261138
9.08,1.0,11.590149890262655
9.088000000000001,0.9999999999999999,11.389872010721106
9.096,0.9999999999999999,11.18952631293347
9.104,0.9999999999999999,10.98911314685381
9.112,0.9999999999999999,10.78863286343776
9.120000000000001,1.0,10.588085814636672
9.128,0.9999999999999998,10.387472353391601
9.136,1.0,10.186792833627171
9.144,1.0,9.986047610245642
9.152000000000001,0.9999999999999999,9.785237039120904
9.16,0.9999999999999999,9.584361477092239
9.168,0.9999999999999999,9.383421281958077
9.176,1.0,9.182416812469825
9.184000000000001,0.9999999999999999,8.981348428325722
9.192,0.9999999999999999,8.780216490164433
9.2,0.9999999999999999,8.579021359558599
9.208,0.9999999999999999,8.377763399008531
9.216000000000001,1.0,8.176442971935847
9.224,1.0,7.975060442676964
9.232,0.9999999999999998,7.773616176476384
9.24,0.9999999999999999,7.572110539480325
9.248000000000001,1.0,7.370543898730114
9.256,1.0,7.168916622155504
9.264,1.0,6.96722907856789
9.272,1.0,6.765481637653636
9.280000000000001,1.0,6.563674669967414
9.288,1.0,6.361808546925312
9.296,1.0,6.159883640797865
9.304,1.0,5.957900324703266
9.312000000000001,1.0,5.755858972600512
9.32,1.0,5.553759959282354
9.328,1.0,5.351603660368183
9.336,1.0,5.14939045229705
9.344,0.9999999999999999,4.947120712320757
9.352,1.0,4.744794818496342
9.36,1.0,4.542413149679326
9.368,0.9999999999999999,4.339976085516118
9.376,0.9999999999999999,4.137484006437112
9.384,1.0,3.9349372936490816
9.392,1.0,3.7323363291281817
9.4,0.9999999999999999,3.5296814956122375
9.408,0.9999999999999999,3.326973176593706
9.416,0.9999999950539963,3.1242117563118676
9.424,0.9999999452889248,2.9213976197457447
9.432,0.9999998953445697,2.7185311526062024
9.44,0.9999998452346703,2.5156127413287632
9.448,0.9999997949730253,2.3126427730656878
9.456,0.9999997445734915,2.1096216356786974
9.464,0.9999996940499783,1.9065497177309632
9.472,0.9999996434164455,1.7034274084797691
9.48,0.9999995926868981,1.500255097868456
9.488,0.9999995418753845,1.2970331765190044
9.496,0.9999994909959918,1.0937620357238578
9.504,0.9999994400628428,0.8904420674385097
9.512,0.9999993890900915,0.6870736642732387
9.52,0.9999993380919195,0.4836572194855787
9.528,0.9999992870825339,0.2801931269720597
9.536,0.9999992360761613,0.07668178126056183
9.544,0.9999991850870454,-0.12687642249799222
9.552,0.9999991341294427,-0.3304810885373469
9.56,0.9999990832176199,-0.5341318204842797
9.568,0.999999032365849,-0.7378282213663971
9.576,0.9999989815884027,-0.941569893620569
9.584,0.9999989308995533,-1.1453564391007365
9.592,0.999998880313567,-1.349187459086447
9.6,0.9999988298446999,-1.5530625542907317
9.608,0.9999987795071953,-1.756981324868685
9.616,0.999998729315279,-1.96094337042541
9.624,0.9999986792831563,-2.1649482900246326
9.632,0.999998629425008,-2.3689956821967444
9.64,0.9999985797549852,-2.5730851449474663
9.648,0.9999985302872082,-2.777216275765912
9.656,0.9999984810357598,-2.9813886716333613
9.664,0.9999984320146835,-3.185601929031348
9.672,0.9999983832379787,-3.3898556439505048
9.68,0.9999983347195972,-3.594149411898689
9.688,0.9999982864734396,-3.7984828279098943
9.696,0.9999982385133503,-4.002855486552434
9.704,0.9999981908531157,-4.207266981937899
9.712,0.999998143506459,-4.411716907729392
9.72,0.9999980964870357,-4.616204857150549
9.728,0.9999980498084322,-4.820730422993803
9.736,0.9999980034841588,-5.025293197629479
9.744,0.9999979575276494,-5.2298927730141
9.752,0.9999979119522553,-5.434528740699521
9.76,0.9999978667712417,-5.639200691841309
9.768,0.9999978219977842,-5.843908217207897
9.776,0.9999977776449658,-6.04865090718902
9.784,0.9999977337257722,-6.25342835180492
9.792,0.9999976902530883,-6.4582401407148335
9.8,0.9999976472396943,-6.663085863226228
9.808,0.9999976046982626,-6.86796510830335
9.816,0.9999975626413535,-7.072877464576482
9.824,0.9999975210814117,-7.277822520350552
9.832,0.9999974800307627,-7.4827998636144315
9.84,0.9999974395016088,-7.687809082049587
9.847999999999999,0.9999973995060262,-7.892849763039364
9.856,0.9999973600559604,-8.097921493677909
9.864,0.9999973211632234,-8.303023860779103
9.872,0.9999972828394901,-8.508156450885723
9.879999999999999,0.999997245096294,-8.713318850278592
9.888,0.9999972079450243,-8.918510644985638
9.896,0.999997171396922,-9.123731420790854
9.904,0.9999971354630771,-9.328980763243598
9.911999999999999,0.9999971001544241,-9.534258257667773
9.92,0.9999970654817394,-9.739563489170948
9.928,0.9999970314556372,-9.944896042653433
9.936,0.9999969980865671,-10.150255502817595
9.943999999999999,0.9999969653848094,-10.35564145417714
9.952,0.9999969333604726,-10.561053481066287
9.96,0.9999969020234903,-10.766491167648896
9.968,0.9999968713836173,-10.971954097927865
9.975999999999999,0.9999968414504264,-11.177441855754461
9.984,0.999996812233306,-11.382954024837549
9.992,0.9999967837414552,-11.588490188752804
10.0,0.9999967559838829,-11.79404993095212
