freq,mag,phase
6.0,0.9999891763604063,-112.36421899719176
6.008,0.999993132909306,-112.79575610143048
6.016,0.9999969470178338,-113.22713451168474
6.024,1.0,-113.65835350875643
6.032,0.9999999999999999,-114.08941238836012
6.04,1.0000000000000002,-114.5203104610863
6.048,1.0,-114.95104705236386
6.056,1.0,-115.3816215024212
6.064,1.0,-115.81203316624668
6.072,0.9999999999999999,-116.24228141354789
6.08,1.0,-116.67236562871018
6.088,0.9999999999999999,-117.10228521075413
6.096,1.0,-117.53203957329204
6.104,1.0,-117.96162814448374
6.112,1.0,-118.39105036699125
6.12,0.9999999999999999,-118.8203056979327
6.128,1.0,-119.24939360883558
6.136,1.0,-119.67831358558863
6.144,0.9999999999999998,-120.1070651283935
6.152,1.0,-120.53564775171516
6.16,1.0,-120.96406098423176
6.168,1.0,-121.39230436878339
6.176,1.0,-121.8203774623206
6.184,1.0,-122.24827983585159
6.192,0.9999999999999999,-122.67601107438905
6.2,1.0,-123.10357077689609
6.208,1.0,-123.53095855623141
6.216,1.0,-123.95817403909393
6.224,1.0,-124.38521686596671
6.232,0.9999999999999999,-124.81208669106006
6.24,1.0,-125.23878318225391
6.248,1.0,-125.66530602104027
6.256,1.0,-126.09165490246356
6.264,1.0,-126.51782953506218
6.272,0.9999999999999999,-126.94382964080788
6.28,1.0,-127.36965495504553
6.288,1.0,-127.79530522643188
6.296,1.0,-128.22078021687386
6.304,1.0,-128.6460797014662
6.312,1.0,-129.07120346842896
6.32,1.0,-129.496151319044
6.328,1.0,-129.92092306759093
6.336,0.9999999999999999,-130.34551854128335
6.344,1.0,-130.76993758020342
6.352,1.0,-131.19418003723715
6.36,0.9999999999999999,-131.61824577800823
6.368,0.9999999999999999,-132.04213468081204
6.376,1.0,-132.4658466365489
6.384,0.9999999999999999,-132.8893815486573
6.392,1.0,-133.31273933304618
6.4,1.0,-133.73591991802718
6.408,0.9999999999999999,-134.15892324424644
6.416,1.0,-134.5817492646159
6.424,1.0,-135.00439794424454
6.432,0.9999999999999999,-135.42686926036887
6.44,1.0,-135.84916320228334
6.448,1.0,-136.27127977127049
6.456,1.0,-136.6932189805305
6.464,1.0,-137.11498085511073
6.472,0.9999999999999998,-137.53656543183484
6.48,1.0,-137.95797275923155
6.4879999999999995,1.0,-138.3792028974633
6.496,1.0,-138.80025591825472
6.504,1.0,-139.22113190482025
6.5120000000000005,1.0,-139.64183095179283
6.52,1.0,-140.06235316515037
6.5280000000000005,0.9999999999999999,-140.48269866214434
6.536,1.0,-140.90286757122612
6.5440000000000005,1.0,-141.32286003197464
6.552,1.0,-141.74267619502263
6.5600000000000005,1.0,-142.16231622198387
6.568,1.0,-142.58178028537912
6.5760000000000005,1.0,-143.00106856856323
6.584,0.9999999999999999,-143.4201812656504
6.592,1.0,-143.83911858144114
6.6,1.0,-144.2578807313478
6.608,1.0,-144.67646794132037
6.616,0.9999999999999999,-145.09488044777245
6.624,1.0,-145.51311849750675
6.632,1.0,-145.93118234764074
6.64,0.9999999999999999,-146.34907226553204
6.648,1.0,-146.76678852870398
6.656,1.0,-147.18433142477096
6.664,0.9999999999999999,-147.60170125136344
6.672,1.0,-148.0188983160538
6.68,1.0,-148.43592293628103
6.688,1.0,-148.8527754392762
6.696,1.0,-149.26945616198776
6.704,1.0,-149.6859654510064
6.712,0.9999999999999999,-150.1023036624906
6.72,1.0,-150.51847116209154
6.728,1.0,-150.93446832487848
6.736,1.0,-151.3502955352639
6.744,1.0,-151.76595318692887
6.752,0.9999999999999999,-152.18144168274816
6.76,1.0,-152.59676143471575
6.768,0.9999999999999999,-153.0119128638701
6.776,0.9999999999999999,-153.42689640021973
6.784,1.0,-153.84171248266864
6.792,0.9999999999999999,-154.2563615589418
6.8,1.0,-154.67084408551096
6.808,1.0,-155.08516052752037
6.816,0.9999999999999999,-155.49931135871256
6.824,1.0,-155.91329706135423
6.832,1.0,-156.32711812616236
6.84,1.0,-156.74077505223036
6.848,1.0,-157.15426834695418
6.856,1.0,-157.56759852595883
6.864,0.9999999999999999,-157.98076611302477
6.872,1.0,-158.39377164001462
6.88,0.9999999999999999,-158.8066156467998
6.888,1.0,-159.21929868118764
6.896,1.0,-159.63182129884808
6.904,0.9999999999999999,-160.0441840632413
6.912,0.9999999999999999,-160.45638754554466
6.92,0.9999999505906004,-160.86843232458048
6.928,0.9999990606198915,-161.28031898674365
6.936,0.9999981828050928,-161.69204812592943
6.944,0.9999973174143378,-162.10362034346153
6.952,0.9999964647036463,-162.5150362480202
6.96,0.9999956249170953,-162.92629645557088
6.968,0.9999947982869899,-163.3374015892924
6.976,0.9999939850340382,-163.748352279506
6.984,0.9999931853675189,-164.1591491636043
6.992,0.9999923994854537,-164.56979288598026
7.0,0.9999916275747766,-164.98028409795666
7.008,0.9999908698115031,-165.39062345771572
7.016,0.9999901263608996,-165.8008116302288
7.024,0.9999893973776501,-166.21084928718633
7.032,0.9999886830060248,-166.62073710692815
7.04,0.9999879833800456,-167.03047577437383
7.048,0.9999872986236534,-167.44006598095336
7.056,0.9999866288508724,-167.849508424538
7.064,0.9999859741659747,-168.25880380937133
7.072,0.9999853346636439,-168.6679528460008
7.08,0.9999847104291394,-169.07695625120897
7.088,0.9999841015384576,-169.48581474794557
7.096,0.9999835080584916,-169.89452906525943
7.104,0.9999829300471957,-170.3030999382308
7.112,0.9999823675537411,-170.71152810790383
7.12,0.9999818206186789,-171.11981432121942
7.128,0.9999812892740935,-171.52795933094816
7.136,0.9999807735437642,-171.9359638956237
7.144,0.9999802734433174,-172.34382877947624
7.152,0.9999797889803868,-172.75155475236625
7.16,0.9999793201547624,-173.15914258971853
7.168,0.9999788669585489,-173.56659307245667
7.176,0.9999784293763151,-173.97390698693744
7.184,0.9999780073852464,-174.38108512488552
7.192,0.999977600955297,-174.78812828332892
7.2,0.9999772100493368,-175.19503726453397
7.208,0.9999768346233027,-175.6018128759412
7.216,0.9999764746263452,-176.00845593010106
7.224,0.9999761300009744,-176.41496724461015
7.232,0.9999758006832071,-176.82134764204764
7.24,0.9999754866027113,-177.22759794991194
7.248,0.9999751876829485,-177.63371900055762
7.256,0.9999749038413185,-178.0397116311328
7.264,0.9999746349892983,-178.44557668351658
7.272,0.9999743810325851,-178.8513150042567
7.28,0.999974141871234,-179.25692744450782
7.288,0.9999739173997977,-179.66241485996977
7.296,0.9999737075074621,179.93222188917395
7.304,0.9999735120781843,179.52698193831694
7.312,0.9999733309908262,179.12186441849116
7.32,0.9999731641192897,178.7168684564272
7.328,0.9999730113326488,178.31199317461457
7.336,0.999972872495281,177.90723769136181
7.344,0.9999727474669995,177.5026011208561
7.352,0.9999726361031815,177.0980825732227
7.36,0.999972538254895,176.6936811545841
7.368,0.9999724537690305,176.28939596711905
7.376,0.999972382488423,175.88522610912088
7.384,0.9999723242519786,175.481170675056
7.392,0.9999722788947984,175.07722875562195
7.4,0.9999722462483003,174.673399437805
7.4079999999999995,0.9999722261403425,174.26968180493782
7.416,0.9999722183953399,173.86607493675643
7.4239999999999995,0.9999722228343882,173.46257790945756
7.432,0.9999722392753793,173.05918979575466
7.4399999999999995,0.9999722675331166,172.65590966493488
7.448,0.9999723074194348,172.25273658291468
7.4559999999999995,0.9999723587433107,171.8496696122961
7.464,0.9999724213109782,171.4467078124217
7.4719999999999995,0.99997249492604,171.04385023943047
7.48,0.9999725793895802,170.64109594631233
7.4879999999999995,0.9999726745002702,170.2384439829632
7.496,0.999972780054482,169.83589339623887
7.504,0.9999728958463926,169.4334432300101
7.5120000000000005,0.9999730216680909,169.0310925252154
7.52,0.9999731573096831,168.62884031991564
7.5280000000000005,0.9999733025593969,168.22668564934668
7.536,0.9999734572036835,167.82462754597304
7.5440000000000005,0.9999736210273191,167.42266503954008
7.552,0.9999737938135066,167.02079715712725
7.5600000000000005,0.9999739753439723,166.61902292319968
7.568,0.9999741653990663,166.2173413596608
7.5760000000000005,0.999974363757858,165.8157514859036
7.584,0.9999745701982319,165.4142523188626
7.5920000000000005,0.9999747844969824,165.01284287306453
7.6,0.9999750064299064,164.6115221606799
7.6080000000000005,0.9999752357718963,164.2102891915731
7.616,0.9999754722970299,163.80914297335352
7.6240000000000006,0.9999757157786607,163.40808251142502
7.632,0.9999759659895063,163.0071068090365
7.640000000000001,0.9999762227017361,162.60621486733115
7.648,0.9999764856870572,162.20540568539627
7.656000000000001,0.9999767547167993,161.804678260312
7.664,0.9999770295619979,161.4040315872007
7.672,0.99997730999348,161.0034646592754
7.68,0.9999775957819412,160.60297646788825
7.688,0.9999778866980296,160.2025660025788
7.696,0.9999781825124238,159.8022322511218
7.704,0.999978482995911,159.40197419957516
7.712,0.9999787879194633,159.00179083232723
7.72,0.999979097054315,158.60168113214408
7.728,0.9999794101720362,158.20164408021645
7.736,0.9999797270446056,157.8016786562067
7.744,0.9999800474444847,157.40178383829507
7.752,0.9999803711446881,157.00195860322614
7.76,0.9999806979188531,156.60220192635498
7.768,0.9999810275413095,156.20251278169272
7.776,0.999981359787147,155.8028901419524
7.784,0.9999816944322817,155.4033329785942
7.792,0.9999820312535228,155.00384026187078
7.8,0.9999823700286359,154.60441096087203
7.808,0.999982710536407,154.20504404356993
7.816,0.9999830525567044,153.80573847686298
7.824,0.9999833958705409,153.40649322662048
7.832,0.9999837402601325,153.00730725772667
7.84,0.9999840855089583,152.60817953412453
7.848,0.9999844314018184,152.2091090188595
7.856,0.9999847777248901,151.81009467412287
7.864,0.9999851242657855,151.41113546129495
7.872,0.9999854708136031,151.01223034098828
7.88,0.9999858171589844,150.61337827309032
7.888,0.9999861630941647,150.2145782168061
7.896,0.9999865084130259,149.81582913070062
7.904,0.9999868529111452,149.41712997274118
7.912,0.9999871963858467,149.01847970033938
7.92,0.9999875386362481,148.61987727039286
7.928,0.9999878794633088,148.22132163932707
7.936,0.999988218669876,147.82281176313668
7.944,0.9999885560607294,147.4243465974269
7.952,0.9999888914426275,147.0259250974545
7.96,0.9999892246243481,146.6275462181687
7.968,0.9999895554167324,146.22920891425204
7.976,0.9999898836327255,145.8309121401607
7.984,0.9999902090874171,145.4326548501651
7.992,0.9999905315980803,145.0344359983899
8.0,0.9999908509842101,144.63625453885413
8.008,0.9999911670675606,144.23810942551097
8.016,0.9999914796721809,143.83999961228733
8.024000000000001,0.999991788624451,143.44192405312359
8.032,0.9999920937531166,143.04388170201298
8.04,0.9999923948893207,142.64587151304025
8.048,0.9999926918666378,142.24789244042105
8.056000000000001,0.9999929845211047,141.84994343854103
8.064,0.9999932726912513,141.4520234619941
8.072,0.9999935562181297,141.05413146562103
8.08,0.9999938349453429,140.65626640454786
8.088000000000001,0.9999941087190737,140.2584272342244
8.096,0.99999437738811,139.86061291046212
8.104,0.9999946408038716,139.46282238947182
8.112,0.9999948988204351,139.0650546279016
8.120000000000001,0.9999951512945577,138.66730858287474
8.128,0.9999953980857006,138.2695832120271
8.136,0.9999956390560518,137.871877473544
8.144,0.9999958740705468,137.4741903261979
8.152000000000001,0.9999961029968891,137.07652072938555
8.16,0.9999963257055715,136.67886764316464
8.168,0.9999965420698915,136.28123002829062
8.176,0.9999967519659745,135.88360684625349
8.184000000000001,0.9999969552727848,135.4859970593143
8.192,0.9999971518721469,135.08839963054177
8.2,0.9999973416487585,134.6908135238481
8.208,0.9999975244902053,134.29323770402547
8.216000000000001,0.9999977002869754,133.89567113678208
8.224,0.9999978689324724,133.49811278877817
8.232,0.9999980303230257,133.1005616276613
8.24,0.9999981843579042,132.70301662210252
8.248000000000001,0.9999983309393257,132.30547674183188
8.256,0.9999984699724663,131.90794095767382
8.264,0.99999860136547,131.51040824158227
8.272,0.9999987250294574,131.11287756667616
8.280000000000001,0.9999988408785305,130.71534790727452
8.288,0.9999989488297828,130.31781823893155
8.296,0.9999990488033024,129.92028753847111
8.304,0.9999991407221789,129.5227547840219
8.312,0.9999992245125059,129.12521895505222
8.32,0.9999993001033869,128.72767903240413
8.328,0.9999993674269362,128.33013399832853
8.336,0.9999994264182809,127.93258283651885
8.344,0.9999994770155651,127.53502453214621
8.352,0.9999995191599468,127.13745807189265
8.36,0.9999995527956005,126.73988244398625
8.368,0.999999577869714,126.34229663823415
8.376,0.9999995943324915,125.94469964605737
8.384,0.9999996021371454,125.54709046052396
8.392,0.9999996012398978,125.14946807638334
8.4,0.9999995915999761,124.75183149009929
8.408,0.9999995731796074,124.3541796998843
8.416,0.9999995459440151,123.95651170573231
8.424,0.9999995098614133,123.55882650945284
8.432,0.9999994649029993,123.16112311470364
8.44,0.9999994110429483,122.76340052702461
8.448,0.9999993482584053,122.36565775387028
8.456,0.9999992765294764,121.96789380464374
8.464,0.9999991958392217,121.57010769072865
8.472,0.9999991061736441,121.17229842552331
8.48,0.9999990075216801,120.77446502447248
8.488,0.9999988998751891,120.37660650510112
8.496,0.9999987832289432,119.97872188704626
8.504,0.9999986575806137,119.58081019209052
8.512,0.9999985229307592,119.18287044419392
8.52,0.9999983792828144,118.78490166952702
8.528,0.9999982266430735,118.38690289650293
8.536,0.9999980650206785,117.9888731558102
8.544,0.9999978944276037,117.5908114804445
8.552,0.9999977148786404,117.19271690574169
8.56,0.9999975263913804,116.79458846940919
8.568,0.9999973289862019,116.39642521155895
8.576,0.9999971226862499,115.99822617473875
8.584,0.9999969075174207,115.599990403965
8.592,0.9999966835083424,115.20171694675398
8.6,0.999996450690358,114.80340485315443
8.608,0.9999962090975058,114.40505317577879
8.616,0.9999959587664994,114.0066609698356
8.624,0.9999956997367085,113.60822729316062
8.632,0.9999954320501375,113.20975120624922
8.64,0.9999951557514056,112.8112317722873
8.648,0.9999948708877249,112.41266805718355
8.656,0.9999945775088781,112.01405912960037
8.664,0.9999942756671965,111.61540406098595
8.672,0.9999939654175373,111.21670192560514
8.68,0.9999936468172594,110.81795180057135
8.688,0.9999933199262013,110.41915276587739
8.696,0.9999929848066552,110.02030390442727
8.704,0.999992641523343,109.62140430206689
8.712,0.9999922901433922,109.22245304761582
8.72,0.9999919307363082,108.82344923289776
8.728,0.9999915633739502,108.42439195277245
8.736,0.9999911881305057,108.02528030516585
8.744,0.99999080508246,107.62611339110194
8.752,0.9999904143085738,107.22689031473296
8.76,0.9999900158898524,106.82761018337101
8.768,0.999989609909519,106.42827210751823
8.776,0.9999891964529863,106.02887520089834
8.784,0.9999887756078281,105.62941858048663
8.792,0.9999883474637499,105.22990136654151
8.8,0.9999879121125594,104.8303226826344
8.808,0.9999874696481382,104.43068165568116
8.815999999999999,0.9999870201664097,104.03097741597195
8.824,0.9999865637653098,103.63120909720222
8.832,0.9999861005447567,103.23137583650325
8.84,0.9999856306066182,102.83147677447248
8.847999999999999,0.9999851540546824,102.43151105520383
8.856,0.9999846709946243,102.03147782631815
8.864,0.9999841815339753,101.63137623899381
8.872,0.9999836857820893,101.23120544799676
8.879999999999999,0.9999831838501113,100.83096461171064
8.888,0.999982675850945,100.43065289216716
8.896,0.9999821618992177,100.0302694550764
8.904,0.9999816421112484,99.62981346985676
8.911999999999999,0.999981116605015,99.2292841096649
8.92,0.9999805855001176,98.82868055142585
8.928,0.9999800489177476,98.42800197586324
8.936,0.9999795069806502,98.02724756752905
8.943999999999999,0.999978959813092,97.62641651483322
8.952,0.9999784075408253,97.22550801007384
8.96,0.9999778502910528,96.82452124946695
8.968,0.9999772881923932,96.4234554331762
8.975999999999999,0.9999767213748433,96.02230976534234
8.984,0.9999761499697455,95.62108345411308
8.992,0.9999755741097497,95.21977571167275
9.0,0.9999749939287776,94.81838575427184
9.008,0.9999744095619865,94.41691280225619
9.016,0.9999738211457332,94.01535608009665
9.024000000000001,0.9999732288175364,93.61371481641866
9.032,0.9999726327160409,93.21198824403142
9.04,0.9999720329809799,92.81017559995696
9.048,0.9999714297531381,92.40827612545962
9.056000000000001,0.9999708231743142,92.00628906607528
9.064,0.9999702133872843,91.60421367164048
9.072,0.9999696005357629,91.20204919632116
9.08,0.9999689847643664,90.79979489864188
9.088000000000001,0.9999683662185755,90.39745004151503
9.096,0.9999677450446958,89.99501389226938
9.104,0.9999671213898216,89.5924857226789
9.112,0.9999664954017967,89.18986480899159
9.120000000000001,0.999965867229176,88.78715043195837
9.128,0.999965237021188,88.38434187686161
9.136,0.9999646049276963,87.98143843354346
9.144,0.999963971099161,87.57843939643452
9.152000000000001,0.9999633356865999,87.17534406458252
9.16,0.9999626988415511,86.77215174168049
9.168,0.9999620607160316,86.36886173609481
9.176,0.9999614214625036,85.96547336089372
9.184000000000001,0.9999607812338303,85.56198593387562
9.192,0.9999601401832414,85.15839877759687
9.2,0.9999594984642923,84.75471121939981
9.208,0.9999588562308255,84.35092259144065
9.216000000000001,0.9999582136369326,83.94703223071764
9.224,0.9999575708369152,83.54303947909862
9.232,0.9999569279852466,83.13894368334851
9.24,0.9999562852365312,82.73474419515712
9.248000000000001,0.9999556427454691,82.33044037116676
9.256,0.9999550006668145,81.92603157299959
9.264,0.9999543591553379,81.52151716728474
9.272,0.9999537183657881,81.11689652568575
9.280000000000001,0.9999530784528539,80.71216902492783
9.288,0.9999524395711239,80.30733404682488
9.296,0.99995180187505,79.90239097830614
9.304,0.9999511655189073,79.49733921144333
9.312000000000001,0.9999505306567581,79.09217814347755
9.32,0.9999498974424105,78.68690717684582
9.328,0.9999492660293835,78.2815257192074
9.336,0.9999486365708669,77.87603318347041
9.344,0.999948009219684,77.47042898781861
9.352,0.9999473841282538,77.0647125557368
9.36,0.9999467614485539,76.65888331603783
9.368,0.9999461413320812,76.25294070288776
9.376,0.999945523929817,75.84688415583264
9.384,0.9999449093921866,75.44071311982341
9.392,0.9999442978690257,75.03442704524241
9.4,0.9999436895095399,74.6280253879281
9.408,0.99994308446227,74.2215076092013
9.416,0.9999424828750548,73.8148731758896
9.424,0.9999418848949951,73.40812156035344
9.432,0.9999412906684155,73.0012522405102
9.44,0.9999407003408307,72.59426469985999
9.448,0.9999401140569083,72.18715842750959
9.456,0.999939531960432,71.77993291819779
9.464,0.9999389541942687,71.3725876723192
9.472,0.9999383809003303,70.9651221959492
9.48,0.9999378122195407,70.55753600086751
9.488,0.9999372482917998,70.1498286045829
9.496,0.9999366892559487,69.74199953035631
9.504,0.9999361352497368,69.33404830722537
9.512,0.9999355864097853,68.92597447002719
9.52,0.9999350428715551,68.51777755942251
9.528,0.9999345047693121,68.1094571219183
9.536,0.9999339722360947,67.7010127098914
9.544,0.9999334454036796,67.2924438816109
9.552,0.9999329244025499,66.88375020126149
9.56,0.9999324093618623,66.4749312389653
9.568,0.9999319004094142,66.06598657080514
9.576,0.9999313976716118,65.65691577884581
9.584,0.9999309012734399,65.24771845115706
9.592,0.9999304113384289,64.83839418183456
9.6,0.9999299279886237,64.42894257102232
9.608,0.9999294513445551,64.01936322493351
9.616,0.9999289815252064,63.60965575587237
9.624,0.9999285186479859,63.199819782254636
9.632,0.9999280628286955,62.789854928629104
9.64,0.9999276141815022,62.37976082569757
9.648,0.99992717281891,61.96953711033613
9.656,0.9999267388517282,61.55918342561453
9.664,0.9999263123890468,61.14869942081716
9.672,0.9999258935382063,60.738084751462026
9.68,0.9999254824047714,60.327339079321135
9.688,0.9999250790925021,59.916462072439145
9.696,0.9999246837033303,59.50545340515338
9.704,0.9999242963373296,59.09431275811184
9.712,0.9999239170926919,58.68303981829281
9.72,0.9999235460657017,58.27163427902262
9.728,0.9999231833507103,57.860095839994514
9.736,0.9999228290401104,57.44842420728595
9.744,0.9999224832243148,57.03661909337724
9.752,0.9999221459917292,56.624680217168084
9.76,0.9999218174287312,56.212607303995796
9.768,0.999921497619646,55.80040008565145
9.776,0.9999211866467248,55.38805830039739
