freq,mag,phase
6.0,0.9999992714170759,142.32803383047056
6.008,0.99999949371078,142.27331482718827
6.016,0.9999997126741492,142.218576123575
6.024,0.9999999283322347,142.16381769441085
6.032,0.9999999999999999,142.10903951444305
6.04,1.0,142.05424155838548
6.048,0.9999999999999999,141.99942380091906
6.056,1.0,141.94458621669136
6.064,1.0,141.88972878031691
6.072,1.0,141.83485146637705
6.08,1.0,141.7799542494198
6.088,1.0,141.72503710396003
6.096,0.9999999999999998,141.67010000447937
6.104,1.0,141.61514292542623
6.112,1.0,141.56016584121568
6.12,1.0000000000000002,141.5051687262296
6.128,0.9999999999999999,141.45015155481653
6.136,0.9999999999999998,141.3951143012917
6.144,0.9999999999999999,141.34005693993703
6.152,1.0,141.28497944500114
6.16,0.9999999999999999,141.2298817906992
6.168,1.0,141.17476395121324
6.176,1.0,141.11962590069163
6.184,1.0,141.0644676132496
6.192,0.9999999999999999,141.00928906296883
6.2,1.0,140.95409022389765
6.208,0.9999999999999999,140.89887107005094
6.216,1.0,140.84363157541026
6.224,1.0,140.78837171392348
6.232,1.0,140.73309145950523
6.24,1.0,140.67779078603658
6.248,1.0,140.6224696673651
6.256,1.0,140.56712807730486
6.264,0.9999999999999999,140.51176598963647
6.272,1.0,140.456383378107
6.28,1.0,140.4009802164299
6.288,1.0000000000000002,140.34555647828523
6.296,1.0,140.29011213731934
6.304,1.0,140.23464716714506
6.312,0.9999999999999999,140.17916154134167
6.32,1.0,140.12365523345485
6.328,1.0,140.06812821699666
6.336,1.0,140.0125804654455
6.344,0.9999999999999999,139.9570119522462
6.352,1.0,139.90142265080996
6.36,1.0,139.84581253451427
6.368,1.0,139.79018157670302
6.376,1.0,139.7345297506864
6.384,0.9999999999999998,139.67885702974093
6.392,1.0,139.6231633871094
6.4,1.0,139.56744879600097
6.408,1.0,139.51171322959098
6.416,0.9999999999999999,139.45595666102116
6.424,0.9999999999999999,139.40017906339943
6.432,1.0,139.34438040980004
6.44,1.0,139.2885606732634
6.448,1.0,139.2327198267962
6.456,1.0000000000000002,139.17685784337135
6.464,1.0,139.120974695928
6.472,1.0,139.06507035737147
6.48,1.0,139.0091448005733
6.4879999999999995,0.9999999999999999,138.95319799837125
6.496,1.0000000000000002,138.8972299235692
6.504,0.9999999999999999,138.8412405489373
6.5120000000000005,0.9999999999999999,138.78522984721167
6.52,1.0,138.7291977910948
6.5280000000000005,0.9999999999999999,138.67314435325525
6.536,1.0,138.61706950632765
6.5440000000000005,0.9999999999999999,138.56097322291285
6.552,1.0,138.50485547557776
6.5600000000000005,1.0,138.44871623685546
6.568,1.0,138.3925554792451
6.5760000000000005,0.9999999999999999,138.3363731752119
6.584,1.0,138.28016929718726
6.592,1.0,138.2239438175685
6.6,0.9999999999999999,138.1676967087192
6.608,1.0,138.11142794296893
6.616,1.0,138.05513749261326
6.624,0.9999999999999999,137.99882532991393
6.632,1.0,137.9424914270986
6.64,1.0,137.88613575636109
6.648,1.0,137.82975828986113
6.656,1.0,137.77335899972462
6.664,0.9999999999999999,137.71693785804334
6.672,1.0,137.66049483687516
6.68,0.9999999999999999,137.60402990824397
6.688,0.9999999999999999,137.54754304413956
6.696,1.0,137.4910342165179
6.704,1.0,137.43450339730074
6.712,0.9999999999999999,137.37795055837594
6.72,0.9999999999999999,137.3213756715973
6.728,0.9999999999999999,137.26477870878466
6.736,1.0,137.20815964172368
6.744,1.0,137.15151844216615
6.752,1.0,137.0948550818297
6.76,1.0,137.03816953239797
6.768,1.0,136.98146176552055
6.776,1.0,136.92473175281287
6.784,0.9999999999999999,136.8679794658565
6.792,1.0,136.81120487619881
6.8,0.9999999999999999,136.75440795535306
6.808,1.0,136.69758867479854
6.816,1.0,136.64074700598044
6.824,1.0,136.58388292030983
6.832,0.9999999999999999,136.5269963891637
6.84,0.9999999999999999,136.47008738388507
6.848,1.0,136.41315587578268
6.856,0.9999999999999999,136.3562018361313
6.864,0.9999999999999999,136.29922523617154
6.872,1.0,136.24222604711002
6.88,0.9999999999999999,136.18520424011916
6.888,1.0,136.12815978633728
6.896,1.0,136.07109265686861
6.904,0.9999999999999999,136.0140028227833
6.912,1.0,135.9568902551174
6.92,1.0,135.8997549248728
6.928,1.0,135.84259680301724
6.936,1.0,135.78541586048445
6.944,0.9999999999999998,135.72821206817397
6.952,1.0,135.67098539695127
6.96,1.0,135.6137358176477
6.968,0.9999999999999999,135.55646330106038
6.976,0.9999999999999999,135.4991678179525
6.984,1.0,135.44184933905294
6.992,1.0,135.38450783505664
7.0,1.0,135.3271432766242
7.008,0.9999999999999999,135.26975563438234
7.016,1.0,135.21234487892355
7.024,1.0,135.15491098080605
7.032,1.0,135.09745391055426
7.04,0.9999999999999999,135.03997363865818
7.048,1.0,134.9824701355739
7.056,1.0,134.92494337172323
7.064,1.0,134.86739331749402
7.072,1.0,134.80981994323986
7.08,1.0,134.75222321928035
7.088,1.0,134.69460311590086
7.096,0.9999999999999999,134.63695960335275
7.104,1.0,134.57929265185322
7.112,0.9999999999999999,134.52160223158543
7.12,1.0,134.46388831269826
7.128,0.9999999999999999,134.40615086530673
7.136,1.0,134.3483898594916
7.144,1.0,134.29060526529952
7.152,1.0,134.2327970527432
7.16,0.9999999999999999,134.1749651918011
7.168,0.9999999999999999,134.11710965241772
7.176,1.0,134.05923040450335
7.184,1.0,134.0013274179343
7.192,1.0,133.9434006625528
7.2,0.9999999999999999,133.88545010816696
7.208,1.0,133.82747572455085
7.216,1.0,133.7694774814445
7.224,1.0,133.7114553485538
7.232,0.9999999999999999,133.65340929555072
7.24,1.0000000000000002,133.5953392920731
7.248,1.0,133.53724530772476
7.256,0.9999999999999999,133.47912731207543
7.264,0.9999999999999998,133.42098527466092
7.272,0.9999999999999999,133.3628191649829
7.28,0.9999999999999999,133.30462895250912
7.288,1.0,133.24641460667326
7.296,1.0,133.18817609687503
7.304,0.9999999999999999,133.12991339248003
7.312,1.0,133.0716264628201
7.32,0.9999999999999999,133.01331527719287
7.328,0.9999999999999999,132.9549798048621
7.336,1.0,132.89662001505755
7.344,0.9999999999999998,132.83823587697506
7.352,1.0,132.77982735977645
7.36,0.9999999999999999,132.72139443258962
7.368,1.0000000000000002,132.6629370645086
7.376,0.9999999999999999,132.60445522459338
7.384,1.0,132.54594888187006
7.392,0.9999999999999999,132.4874180053309
7.4,0.9999999999999999,132.42886256393422
7.4079999999999995,0.9999999999999999,132.3702825266044
7.416,1.0,132.31167786223193
7.4239999999999995,1.0,132.25304853967359
7.432,1.0,132.19439452775205
7.4399999999999995,1.0,132.1357157952563
7.448,1.0,132.07701231094146
7.4559999999999995,1.0,132.01828404352878
7.464,1.0,131.95953096170567
7.4719999999999995,0.9999999999999999,131.90075303412584
7.48,1.0,131.84195022940906
7.4879999999999995,1.0,131.7831225161414
7.496,1.0,131.72426986287508
7.504,1.0,131.6653922381287
7.5120000000000005,0.9999999999999999,131.60648961038697
7.52,0.9999999999999999,131.5475619481009
7.5280000000000005,1.0,131.4886092196878
7.536,1.0,131.4296313935312
7.5440000000000005,1.0,131.37062843798103
7.552,1.0,131.31160032135344
7.5600000000000005,1.0,131.25254701193094
7.568,1.0,131.19346847796243
7.5760000000000005,0.9999999999999999,131.1343646876631
7.584,1.0,131.0752356092145
7.5920000000000005,0.9999999999999999,131.01608121076455
7.6,0.9999999999999999,130.9569014604277
7.6080000000000005,1.0,130.8976963262847
7.616,1.0,130.83846577638266
7.6240000000000006,0.9999999999999999,130.7792097787353
7.632,1.0,130.71992830132268
7.640000000000001,1.0,130.66062131209137
7.648,0.9999999999999999,130.60128877895448
7.656000000000001,1.0,130.54193066979147
7.664,0.9999999999999999,130.48254695244853
7.672,0.9999999999999998,130.42313759473828
7.68,0.9999999999999999,130.36370256443988
7.688,1.0,130.30424182929903
7.696,1.0,130.24475535702823
7.704,1.0,130.18524311530635
7.712,1.0,130.12570507177898
7.72,0.9999999999999999,130.0661411940584
7.728,1.0,130.00655144972347
7.736,1.0,129.94693580631983
7.744,1.0,129.88729423135976
7.752,1.0,129.82762669232227
7.76,0.9999999999999999,129.7679331566531
7.768,1.0,129.70821359176477
7.776,0.9999999999999999,129.64846796503664
7.784,0.9999999999999999,129.58869624381478
7.792,1.0,129.52889839541209
7.8,1.0,129.46907438710835
7.808,0.9999999999999999,129.40922418615025
7.816,1.0,129.34934775975125
7.824,1.0,129.28944507509186
7.832,1.0000000000000002,129.22951609931937
7.84,0.9999999999999999,129.16956079954815
7.848,1.0,129.10957914285947
7.856,0.9999999999999999,129.04957109630163
7.864,1.0,128.9895366268899
7.872,0.9999999999999998,128.92947570160672
7.88,1.0,128.86938828740145
7.888,1.0,128.80927435119065
7.896,0.9999999999999999,128.74913385985792
7.904,1.0,128.68896678025408
7.912,0.9999999999999998,128.62877307919703
7.92,0.9999999999999999,128.56855272347192
7.928,1.0,128.50830567983107
7.936,1.0,128.4480319149941
7.944,1.0,128.38773139564785
7.952,0.9999999999999999,128.32740408844649
7.96,1.0,128.26704996001146
7.968,1.0,128.2066689769316
7.976,0.9999999999999999,128.1462611057631
7.984,0.9999999999999999,128.08582631302954
7.992,1.0,128.02536456522193
8.0,1.0,127.96487582879875
8.008,0.9999999999999999,127.90436007018599
8.016,1.0,127.84381725577704
8.024000000000001,1.0,127.78324735193299
8.032,1.0,127.7226503249824
8.04,1.0,127.66202614122146
8.048,1.0,127.60137476691399
8.056000000000001,1.0,127.5406961682914
8.064,1.0,127.47999031155291
8.072,1.0,127.41925716286542
8.08,1.0,127.3584966883635
8.088000000000001,1.0,127.29770885414963
8.096,1.0,127.23689362629399
8.104,0.9999999999999999,127.17605097083471
8.112,1.0,127.11518085377764
8.120000000000001,1.0,127.05428324109675
8.128,1.0,126.99335809873382
8.136,1.0,126.93240539259857
8.144,0.9999999999999999,126.87142508856884
8.152000000000001,1.0,126.81041715249047
8.16,1.0000000000000002,126.74938155017733
8.168,0.9999999999999999,126.68831824741147
8.176,0.9999999999999999,126.62722720994303
8.184000000000001,1.0,126.56610840349038
8.192,0.9999999999999999,126.50496179374005
8.2,1.0,126.44378734634687
8.208,0.9999999999999999,126.38258502693392
8.216000000000001,1.0,126.32135480109264
8.224,1.0,126.2600966343828
8.232,0.9999999999999999,126.19881049233258
8.24,1.0,126.13749634043857
8.248000000000001,1.0,126.07615414416587
8.256,1.0,126.01478386894806
8.264,1.0,125.9533854801873
8.272,1.0,125.89195894325424
8.280000000000001,0.9999999999999999,125.83050422348828
8.288,1.0,125.76902128619747
8.296,1.0,125.70751009665842
8.304,1.0,125.64597062011666
8.312,1.0,125.58440282178643
8.32,1.0000000000000002,125.5228066668507
8.328,0.9999999999999999,125.4611821204615
8.336,1.0,125.3995291477396
8.344,1.0,125.33784771377479
8.352,0.9999999999999999,125.27613778362584
8.36,1.0,125.21439932232057
8.368,1.0,125.15263229485579
8.376,0.9999999999999999,125.09083666619756
8.384,1.0,125.029012401281
8.392,1.0,124.9671594650104
8.4,0.9999999999999999,124.90527782225944
8.408,0.9999999999999999,124.84336743787095
8.416,1.0,124.78142827665721
8.424,1.0,124.71946030339981
8.432,1.0,124.65746348284975
8.44,1.0,124.59543777972759
8.448,0.9999999999999999,124.5333831587233
8.456,0.9999999999999999,124.47129958449653
8.464,1.0,124.40918702167643
8.472,1.0,124.34704543486193
8.48,1.0,124.28487478862152
8.488,0.9999999999999999,124.2226750474936
8.496,1.0,124.16044617598622
8.504,0.9999999999999999,124.09818813857743
8.512,0.9999999999999999,124.03590089971507
8.52,1.0,123.973584423817
8.528,1.0,123.91123867527104
8.536,1.0,123.84886361843506
8.544,1.0,123.78645921763705
8.552,0.9999999999999999,123.72402543717516
8.56,1.0,123.6615622413177
8.568,1.0,123.59906959430332
8.576,1.0,123.53654746034086
8.584,1.0,123.47399580360958
8.592,1.0,123.4114145882592
8.6,1.0,123.34880377840986
8.608,1.0,123.28616333815215
8.616,1.0,123.22349323154735
8.624,1.0000000000000002,123.16079342262731
8.632,0.9999999999999999,123.09806387539454
8.64,1.0,123.03530455382234
8.648,1.0,122.97251542185481
8.656,0.9999999999999999,122.90969644340682
8.664,0.9999999999999998,122.8468475823642
8.672,0.9999999999999999,122.78396880258374
8.68,1.0,122.72106006789329
8.688,1.0,122.65812134209163
8.696,1.0,122.5951525889489
8.704,1.0,122.53215377220619
8.712,1.0,122.46912485557604
8.72,0.9999999999999999,122.40606580274216
8.728,1.0,122.34297657735976
8.736,1.0,122.27985714305534
8.744,1.0,122.21670746342701
8.752,0.9999999999999999,122.15352750204434
8.76,1.0,122.09031722244858
8.768,1.0,122.02707658815261
8.776,1.0,121.96380556264107
8.784,0.9999999999999999,121.9005041093704
8.792,1.0,121.83717219176889
8.8,1.0,121.77380977323674
8.808,1.0,121.71041681714618
8.815999999999999,1.0,121.64699328684144
8.824,0.9999999999999999,121.58353914563887
8.832,1.0,121.52005435682707
8.84,1.0,121.45653888366684
8.847999999999999,1.0,121.39299268939126
8.856,1.0,121.32941573720579
8.864,1.0,121.26580799028847
8.872,0.9999999999999999,121.20216941178964
8.879999999999999,1.0,121.13849996483238
8.888,0.9999999999999999,121.07479961251234
8.896,0.9999999999999998,121.0110683178979
8.904,1.0,120.94730604403024
8.911999999999999,1.0,120.88351275392343
8.92,1.0,120.81968841056432
8.928,1.0,120.75583297691294
8.936,0.9999999999999999,120.69194641590224
8.943999999999999,1.0,120.62802869043837
8.952,1.0,120.56407976340068
8.96,0.9999999999999999,120.50009959764174
8.968,1.0,120.4360881559876
8.975999999999999,1.0,120.37204540123757
8.984,1.0000000000000002,120.30797129616457
8.992,1.0,120.24386580351502
9.0,1.0,120.17972888600904
9.008,1.0,120.11556050634047
9.016,1.0,120.05136062717683
9.024000000000001,0.9999999999999999,119.98712921115961
9.032,1.0,119.92286622090425
9.04,1.0,119.85857161900016
9.048,1.0,119.7942453680108
9.056000000000001,0.9999999999999999,119.72988743047395
9.064,1.0,119.6654977689015
9.072,1.0,119.60107634577972
9.08,0.9999999999999998,119.53662312356926
9.088000000000001,1.0,119.47213806470529
9.096,1.0,119.40762113159757
9.104,1.0,119.34307228663039
9.112,0.9999999999999999,119.27849149216281
9.120000000000001,1.0,119.2138787105288
9.128,1.0,119.1492339040371
9.136,1.0,119.08455703497145
9.144,0.9999999999999999,119.01984806559058
9.152000000000001,1.0,118.95510695812843
9.16,0.9999999999999999,118.89033367479415
9.168,0.9999999999999999,118.82552817777213
9.176,0.9999999999999999,118.7606904292222
9.184000000000001,1.0,118.69582039127955
9.192,1.0,118.63091802605513
9.2,0.9999999999999999,118.56598329563525
9.208,1.0,118.50101616208214
9.216000000000001,1.0,118.43601658743376
9.224,1.0000000000000002,118.37098453370399
9.232,0.9999999999999998,118.30591996288264
9.24,1.0,118.24082283693564
9.248000000000001,1.0,118.17569311780501
9.256,1.0,118.11053076740913
9.264,1.0,118.0453357476426
9.272,1.0,117.98010802037642
9.280000000000001,0.9999999999999999,117.91484754745824
9.288,1.0,117.84955429071215
9.296,1.0,117.7842282119391
9.304,1.0,117.71886927291662
9.312000000000001,1.0,117.65347743539925
9.32,1.0,117.58805266111851
9.328,1.0,117.52259491178292
9.336,1.0,117.45710414907812
9.344,1.0,117.39158033466705
9.352,0.9999999999999999,117.32602343019
9.36,1.0000000000000002,117.26043339726468
9.368,1.0,117.19481019748623
9.376,1.0,117.12915379242759
9.384,0.9999999999999999,117.06346414363922
9.392,1.0,116.9977412126496
9.4,1.0,116.93198496096491
9.408,1.0,116.86619535006953
9.416,1.0,116.80037234142581
9.424,0.9999999999999999,116.73451589647435
9.432,0.9999999999999999,116.66862597663405
9.44,1.0,116.60270254330221
9.448,0.9999999999999999,116.53674555785462
9.456,1.0,116.47075498164567
9.464,1.0,116.40473077600846
9.472,1.0,116.3386729022549
9.48,0.9999999999999999,116.27258132167574
9.488,0.9999999999999999,116.20645599554082
9.496,1.0,116.14029688509898
9.504,1.0,116.07410395157837
9.512,1.0,116.0078771561864
9.52,0.9999999999999999,115.94161646010987
9.528,0.9999999999999999,115.87532182451513
9.536,1.0000000000000002,115.80899321054818
9.544,0.9999999999999999,115.74263057933464
9.552,1.0,115.67623389198006
9.56,0.9999999999999999,115.6098031095699
9.568,1.0,115.54333819316965
9.576,1.0,115.47683910382491
9.584,1.0,115.41030580256164
9.592,0.9999999999999999,115.34373825038607
9.6,1.0,115.2771364082849
9.608,1.0,115.21050023722546
9.616,1.0,115.14382969815576
9.624,1.0,115.07712475200456
9.632,1.0,115.01038535968156
9.64,1.0,114.94361148207747
9.648,1.0,114.8768030800641
9.656,1.0,114.80996011449453
9.664,0.9999999999999998,114.74308254620318
9.672,1.0,114.6761703360059
9.68,0.9999999999999999,114.60922344470015
9.688,1.0,114.54224183306503
9.696,1.0,114.47522546186148
9.704,1.0,114.40817429183231
9.712,0.9999999999999998,114.34108828370236
9.72,1.0,114.27396739817861
9.728,1.0,114.20681159595031
9.736,0.9999999999999999,114.13962083768904
9.744,0.9999999999999999,114.07239508404888
9.752,1.0,114.00513429566645
9.76,0.9999999999999999,113.93783843316119
9.768,1.0,113.87050745713529
9.776,0.9999999999999999,113.80314132817388
9.784,1.0,113.73574000684513
9.792,1.0,113.66830345370052
9.8,0.9999999999999999,113.60083162927464
9.808,1.0,113.53332449408562
9.816,1.0,113.46578200863507
9.824,1.0,113.39820413340827
9.832,1.0,113.33059082887425
9.84,1.0,113.26294205548592
9.847999999999999,0.9999999999999999,113.19525777368028
9.856,1.0,113.12753794387834
9.864,0.9999999999999999,113.05978252648539
9.872,0.9999999999999999,112.99199148189116
9.879999999999999,0.9999999999999999,112.92416477046979
9.888,0.9999999999999999,112.85630235258007
9.896,0.9999999999999999,112.78840418856551
9.904,1.0,112.72047023875449
9.911999999999999,1.0,112.65250046346033
9.92,0.9999999999999999,112.58449482298147
9.928,0.9999999999999999,112.51645327760158
9.936,1.0,112.44837578758968
9.943999999999999,0.9999999999999999,112.38026231320023
9.952,1.0,112.3121128146733
9.96,1.0,112.24392725223466
9.968,0.9999999999999999,112.17570558609594
9.975999999999999,1.0,112.10744777645472
9.984,0.9999999999999999,112.03915378349465
9.992,1.0,111.97082356738565
10.0,0.9999999999999999,111.90245708828392
10.008,1.0,111.83405430633212
10.016,0.9999999999999999,111.76561518165953
10.024000000000001,1.0,111.69713967438213
10.032,1.0,111.62862774460274
10.04,0.9999999999999999,111.56007935241115
10.048,1.0,111.49149445788419
10.056000000000001,1.0,111.42287302108598
10.064,1.0,111.35421500206796
10.072,1.0,111.285520360869
10.08,0.9999999999999999,111.21678905751558
10.088000000000001,0.9999999999999999,111.14802105202195
10.096,1.0,111.07921630439019
10.104,1.0,111.01037477461028
10.112,1.0,110.94149642266039
10.120000000000001,0.9999999999999999,110.87258120850689
10.128,0.9999999999999998,110.80362909210452
10.136,1.0,110.73464003339649
10.144,1.0,110.66561399231456
10.152000000000001,1.0,110.59655092877937
10.16,0.9999999999999999,110.52745080270032
10.168,1.0,110.4583135739758
10.176,1.0,110.38913920249337
10.184000000000001,0.9999999999999999,110.31992764812979
10.192,0.9999999999999999,110.25067887075127
10.2,1.0,110.18139283021344
10.208,0.9999999999999999,110.11206948636158
10.216000000000001,1.0,110.0427087990307
10.224,1.0,109.97331072804583
10.232,0.9999999999999999,109.90387523322183
10.24,0.9999999999999999,109.83440227436378
10.248000000000001,0.9999999999999999,109.76489181126705
10.256,1.0,109.69534380371734
10.264,0.9999999999999999,109.62575821149093
10.272,1.0,109.55613499435465
10.280000000000001,1.0,109.48647411206622
10.288,1.0,109.41677552437419
10.296,0.9999999999999999,109.34703919101811
10.304,1.0,109.27726507172872
10.312000000000001,1.0,109.207453126228
10.32,1.0,109.1376033142294
10.328,1.0,109.0677155954378
10.336,1.0,108.99778992954978
10.344000000000001,1.0,108.92782627625367
10.352,0.9999999999999999,108.85782459522974
10.36,1.0,108.78778484615026
10.368,0.9999999999999999,108.71770698867961
10.376000000000001,1.0,108.6475909824745
10.384,1.0,108.577436787184
10.392,0.9999999999999999,108.5072443624497
10.4,0.9999999999999999,108.43701366790582
10.408000000000001,1.0,108.36674466317936
10.416,0.9999999999999999,108.29643730789023
10.424,1.0,108.22609156165127
10.432,1.0,108.15570738406852
10.440000000000001,1.0,108.0852847347412
10.448,1.0,108.01482357326199
10.456,0.9999999999999999,107.944323859217
10.464,0.9999999999999999,107.87378555218592
10.472000000000001,0.9999999999999999,107.80320861174222
10.48,0.9999999999999999,107.73259299745325
