freq,mag,phase
6.0,0.9999886142215754,-151.28799942599542
6.008,0.999987454347974,-151.76232222131281
6.016,0.9999863371777484,-152.23646023792162
6.024,0.9999852619171588,-152.71041315861555
6.032,0.999984227779143,-153.184180688802
6.04,0.9999832339833546,-153.65776255636334
6.048,0.999982279756199,-154.13115851151704
6.056,0.9999813643308672,-154.60436832667412
6.064,0.9999804869473687,-155.07739179629695
6.072,0.9999796468525631,-155.55022873675549
6.08,0.9999788433001879,-156.02287898618246
6.088,0.9999780755508885,-156.49534240432752
6.096,0.9999773428722422,-156.96761887241036
6.104,0.999976644538783,-157.43970829297257
6.112,0.9999759798320271,-157.91161058972878
6.12,0.9999753480404896,-158.38332570741676
6.128,0.9999747484597099,-158.8548536116465
6.136,0.9999741803922637,-159.32619428874833
6.144,0.9999736431477858,-159.79734774562064
6.152,0.999973136042981,-160.26831400957624
6.16,0.999972658401641,-160.7390931281882
6.168,0.9999722095546535,-161.2096851691349
6.176,0.9999717888400151,-161.6800902200444
6.184,0.9999713956028414,-162.150308388338
6.192,0.9999710291953731,-162.62033980107333
6.2,0.9999706889769843,-163.09018460478663
6.208,0.9999703743141853,-163.55984296533452
6.216,0.9999700845806289,-164.02931506773538
6.224,0.9999698191571122,-164.49860111600975
6.232,0.9999695774315795,-164.96770133302078
6.24,0.9999693587991159,-165.43661596031396
6.248,0.9999691626619546,-165.905345257956
6.256,0.9999689884294685,-166.37388950437432
6.264,0.9999688355181656,-166.84224899619514
6.272,0.9999687033516901,-167.31042404808167
6.28,0.9999685913608088,-167.77841499257204
6.288,0.999968498983407,-168.24622217991686
6.296,0.9999684256644817,-168.71384597791632
6.304,0.9999683708561262,-169.18128677175733
6.312,0.9999683340175237,-169.64854496385038
6.32,0.9999683146149339,-170.115620973666
6.328,0.9999683121216794,-170.5825152375715
6.336,0.9999683260181301,-171.0492282086669
6.344,0.9999683557916907,-171.51576035662154
6.352,0.999968400936782,-171.98211216750994
6.36,0.9999684609548231,-172.4482841436481
6.368,0.9999685353542138,-172.9142768034293
6.376,0.9999686236503166,-173.38009068116034
6.384,0.9999687253654327,-173.84572632689736
6.392,0.9999688400287827,-174.3111843062821
6.4,0.9999689671764849,-174.77646520037786
6.408,0.9999691063515296,-175.24156960550576
6.416,0.9999692571037568,-175.70649813308108
6.424,0.9999694189898309,-176.17125140944955
6.432,0.9999695915732134,-176.63583007572396
6.44,0.9999697744241381,-177.1002347876209
6.448,0.999969967119581,-177.56446621529764
6.456,0.9999701692432339,-178.02852504318915
6.464,0.9999703803854743,-178.49241196984542
6.472,0.9999706001433358,-178.95612770776907
6.48,0.9999708281204757,-179.41967298325315
6.4879999999999995,0.9999710639271455,-179.88304853621904
6.496,0.9999713071801577,179.6537448799449
6.504,0.9999715575028525,179.19070649854496
6.5120000000000005,0.9999718145250641,178.72783553974273
6.52,0.9999720778830874,178.26513121071625
6.5280000000000005,0.9999723472196426,177.80259270581968
6.536,0.999972622183837,177.34021920674397
6.5440000000000005,0.9999729024311327,176.87800988267557
6.552,0.999973187623307,176.41596389045642
6.5600000000000005,0.9999734774284159,175.9540803747418
6.568,0.9999737715207561,175.49235846815947
6.5760000000000005,0.9999740695808251,175.03079729146663
6.584,0.9999743712952838,174.56939595370815
6.592,0.9999746763569152,174.10815355237273
6.6,0.999974984464585,173.64706917354977
6.608,0.9999752953232006,173.18614189208512
6.616,0.9999756086436697,172.72537077173638
6.624,0.9999759241428593,172.26475486532806
6.632,0.9999762415435521,171.80429321490556
6.64,0.9999765605744056,171.34398485188913
6.648,0.9999768809699076,170.88382879722718
6.656,0.9999772024703336,170.42382406154874
6.664,0.9999775248217025,169.96396964531564
6.672,0.9999778477757325,169.50426453897404
6.68,0.9999781710897965,169.04470772310532
6.688,0.9999784945268769,168.58529816857617
6.696,0.9999788178555208,168.12603483668846
6.704,0.9999791408497939,167.66691667932827
6.712,0.9999794632892339,167.2079426391141
6.72,0.9999797849588062,166.74911164954486
6.728,0.999980105648855,166.29042263514685
6.736,0.9999804251550574,165.83187451162016
6.744,0.9999807432783776,165.3734661859846
6.752,0.9999810598250162,164.91519655672465
6.76,0.9999813746063666,164.45706451393403
6.768,0.9999816874389639,163.99906893945928
6.776,0.9999819981444382,163.54120870704295
6.784,0.9999823065494673,163.08348268246593
6.792,0.9999826124857254,162.62588972368897
6.8,0.9999829157898368,162.1684286809938
6.808,0.999983216303327,161.7110983971231
6.816,0.9999835138725719,161.25389770742032
6.824,0.9999838083487509,160.7968254399682
6.832,0.9999840995877954,160.33988041572684
6.84,0.9999843874503416,159.88306144867113
6.848,0.9999846718016783,159.42636734592725
6.856,0.9999849525116995,158.96979690790852
6.864,0.9999852294548551,158.51334892845037
6.872,0.9999855025100968,158.05702219494486
6.88,0.9999857715608338,157.60081548847424
6.888,0.9999860364948787,157.1447275839435
6.896,0.9999862972043986,156.6887572502129
6.904,0.9999865535858664,156.23290325022887
6.912,0.9999868055400085,155.77716434115484
6.92,0.9999870529717553,155.3215392745008
6.928,0.9999872957901915,154.8660267962526
6.936,0.9999875339085054,154.41062564699988
6.944,0.999987767243939,153.9553345620638
6.952,0.9999879957177367,153.5001522716236
6.96,0.999988219255096,153.04507750084272
6.968,0.9999884377851174,152.59010896999365
6.976,0.9999886512407528,152.1352453945827
6.984,0.9999888595587572,151.68048548547335
6.992,0.9999890626796378,151.22582794900924
7.0,0.9999892605476024,150.77127148713606
7.008,0.999989453110511,150.31681479752308
7.016,0.9999896403198266,149.8624565736835
7.024,0.9999898221305622,149.40819550509423
7.032,0.9999899985012343,148.95403027731484
7.04,0.99999016939381,148.4999595721059
7.048,0.9999903347736606,148.04598206754613
7.056,0.9999904946095095,147.59209643814933
7.064,0.9999906488733826,147.13830135497994
7.072,0.9999907975405607,146.68459548576848
7.08,0.9999909405895293,146.23097749502566
7.088,0.9999910780019294,145.777446044156
7.096,0.9999912097625074,145.3239997915706
7.104,0.9999913358590684,144.8706373927992
7.112,0.9999914562824253,144.41735750060155
7.12,0.9999915710263512,143.96415876507768
7.128,0.9999916800875315,143.51103983377774
7.136,0.9999917834655135,143.05799935181113
7.144,0.9999918811626602,142.6050359619545
7.152,0.9999919731841017,142.15214830475932
7.16,0.9999920595376869,141.69933501865873
7.168,0.9999921402339351,141.24659474007316
7.176,0.9999922152859911,140.79392610351593
7.184,0.9999922847095746,140.34132774169746
7.192,0.9999923485229357,139.88879828562926
7.2,0.9999924067468062,139.43633636472657
7.208,0.9999924594043534,138.98394060691086
7.216,0.9999925065211333,138.5316096387114
7.224,0.9999925481250456,138.07934208536585
7.232,0.9999925842462845,137.62713657092047
7.24,0.9999926149172955,137.17499171832935
7.248,0.999992640172729,136.72290614955315
7.256,0.9999926600493939,136.27087848565688
7.264,0.9999926745862127,135.8189073469071
7.272,0.9999926838241767,135.3669913528685
7.28,0.9999926878063011,134.91512912249945
7.288,0.9999926865775798,134.4633192742473
7.296,0.999992680184941,134.01156042614258
7.304,0.9999926686772042,133.5598511958925
7.312,0.9999926521050347,133.1081902009743
7.32,0.9999926305208997,132.65657605872724
7.328,0.9999926039790283,132.2050073864442
7.336,0.9999925725353627,131.7534828014627
7.344,0.9999925362475203,131.30200092125486
7.352,0.9999924951747481,130.8505603635173
7.36,0.9999924493778809,130.39915974625976
7.368,0.9999923989192995,129.94779768789337
7.376,0.9999923438628887,129.4964728073181
7.384,0.999992284273995,129.04518372400977
7.392,0.9999922202193855,128.59392905810628
7.4,0.9999921517672081,128.142707430493
7.4079999999999995,0.9999920789869475,127.69151746288789
7.416,0.9999920019493885,127.2403577779255
7.4239999999999995,0.9999919207265722,126.78922699924107
7.432,0.999991835391758,126.33812375155294
7.4399999999999995,0.9999917460193838,125.88704666074554
7.448,0.9999916526850243,125.43599435395039
7.4559999999999995,0.9999915554653553,124.98496545962811
7.464,0.9999914544381123,124.53395860764799
7.4719999999999995,0.9999913496820523,124.08297242936871
7.48,0.999991241276915,123.63200555771678
7.4879999999999995,0.9999911293033871,123.18105662726612
7.496,0.9999910138430613,122.73012427431516
7.504,0.9999908949784009,122.27920713696518
7.5120000000000005,0.9999907727927015,121.82830385519638
7.52,0.9999906473700558,121.37741307094495
7.5280000000000005,0.9999905187953148,120.92653342817789
7.536,0.9999903871540524,120.47566357296905
7.5440000000000005,0.9999902525325299,120.02480215357278
7.552,0.9999901150176598,119.57394782049859
7.5600000000000005,0.9999899746969706,119.12309922658397
7.568,0.9999898316585716,118.67225502706775
7.5760000000000005,0.9999896859911184,118.22141387966182
7.584,0.9999895377837766,117.77057444462338
7.5920000000000005,0.9999893871261908,117.31973538482549
7.6,0.9999892341084486,116.86889536582834
7.6080000000000005,0.9999890788210473,116.41805305594858
7.616,0.9999889213548596,115.96720712632955
7.6240000000000006,0.9999887618011042,115.51635625100967
7.632,0.9999886002513084,115.06549910699137
7.640000000000001,0.9999884367972801,114.61463437430854
7.648,0.9999882715310722,114.16376073609443
7.656000000000001,0.9999881045449532,113.71287687864792
7.664,0.9999879359313749,113.26198149150059
7.672,0.9999877657829417,112.81107326748189
7.68,0.9999875941923793,112.36015090278491
7.688,0.9999874212525048,111.90921309703111
7.696,0.9999872470561966,111.45825855333457
7.704,0.9999870716963634,111.00728597836589
7.712,0.9999868952659156,110.5562940824155
7.72,0.9999867178577377,110.10528157945656
7.728,0.9999865395646558,109.65424718720729
7.736,0.9999863604794116,109.20318962719286
7.744,0.9999861806946349,108.75210762480678
7.752,0.9999860003028126,108.30099990937188
7.76,0.9999858193962643,107.84986521420076
7.768,0.9999856380671124,107.39870227665571
7.776,0.9999854564072573,106.94750983820835
7.784,0.9999852745083494,106.49628664449858
7.792,0.9999850924617636,106.04503144539335
7.8,0.9999849103585723,105.59374299504466
7.808,0.999984728289521,105.1424200519474
7.816,0.9999845463450023,104.69106137899647
7.824,0.9999843646150302,104.23966574354378
7.832,0.9999841831892163,103.78823191745445
7.84,0.9999840021567463,103.33675867716292
7.848,0.9999838216063536,102.88524480372828
7.856,0.9999836416262972,102.43368908288956
7.864,0.9999834623043383,101.9820903051202
7.872,0.9999832837277162,101.53044726568234
7.88,0.9999831059831265,101.0787587646807
7.888,0.9999829291566985,100.62702360711586
7.896,0.9999827533339728,100.17524060293731
7.904,0.9999825785998798,99.72340856709594
7.912,0.9999824050387182,99.27152631959632
7.92,0.9999822327341327,98.81959268554827
7.928,0.9999820617690959,98.36760649521838
7.936,0.9999818922258853,97.91556658408079
7.944,0.9999817241860636,97.46347179286789
7.952,0.9999815577304597,97.01132096762034
7.96,0.9999813929391496,96.5591129597369
7.968,0.9999812298914346,96.10684662602371
7.976,0.9999810686658257,95.6545208287434
7.984,0.9999809093400228,95.2021344356636
7.992,0.9999807519908976,94.74968632010506
8.0,0.9999805966944754,94.29717536098966
8.008,0.999980443525917,93.84460044288775
8.016,0.9999802925595027,93.39196045606509
8.024000000000001,0.9999801438686141,92.93925429652988
8.032,0.999979997525718,92.4864808660789
8.04,0.9999798536023513,92.03363907234328
8.048,0.9999797121691021,91.58072782883424
8.056000000000001,0.9999795732955977,91.12774605498853
8.064,0.9999794370504865,90.67469267621307
8.072,0.9999793035014245,90.22156662392929
8.08,0.9999791727150599,89.76836683561737
8.088000000000001,0.9999790447570197,89.31509225486033
8.096,0.9999789196918946,88.86174183138714
8.104,0.9999787975832259,88.40831452111564
8.112,0.9999786784934924,87.95480928619544
8.120000000000001,0.9999785624840972,87.50122509505047
8.128,0.9999784496153538,87.04756092242077
8.136,0.9999783399464751,86.59381574940396
8.144,0.9999782335355627,86.13998856349674
8.152000000000001,0.9999781304395913,85.68607835863605
8.16,0.9999780307143998,85.23208413523953
8.168,0.999977934414681,84.77800490024548
8.176,0.9999778415939685,84.32383966715312
8.184000000000001,0.9999777523046283,83.86958745606228
8.192,0.9999776665978467,83.41524729371247
8.2,0.9999775845236215,82.96081821352165
8.208,0.9999775061307542,82.50629925562488
8.216000000000001,0.9999774314668372,82.05168946691286
8.224,0.9999773605782482,81.5969879010696
8.232,0.9999772935101393,81.14219361860967
8.24,0.9999772303064304,80.68730568691578
8.248000000000001,0.9999771710098003,80.23232318027577
8.256,0.9999771156616801,79.777245179919
8.264,0.9999770643022445,79.32207077405238
8.272,0.9999770169704063,78.86679905789637
8.280000000000001,0.9999769737038084,78.41142913372087
8.288,0.9999769345388188,77.95596011088016
8.296,0.9999768995105234,77.50039110584758
8.304,0.9999768686527208,77.04472124225038
8.312,0.9999768419979178,76.58894965090413
8.32,0.9999768195773219,76.13307546984599
8.328,0.9999768014208393,75.67709784436914
8.336,0.9999767875570683,75.22101592705506
8.344,0.9999767780132968,74.76482887780737
8.352,0.9999767728154972,74.30853586388358
8.36,0.9999767719883235,73.85213605992811
8.368,0.9999767755551074,73.39562864800341
8.376,0.999976783537857,72.93901281762244
8.384,0.999976795957252,72.48228776577893
8.392,0.9999768128326428,72.02545269697937
8.4,0.9999768341820482,71.56850682327251
8.408,0.9999768600221545,71.11144936428073
8.416,0.9999768903683113,70.65427954722894
8.424,0.9999769252345342,70.19699660697509
8.432,0.9999769646335017,69.73959978603861
8.44,0.9999770085765541,69.28208833463015
8.448,0.9999770570736967,68.82446151067936
8.456,0.9999771101335949,68.366718579864
8.464,0.9999771677635794,67.90885881563706
8.472,0.9999772299696439,67.45088149925515
8.48,0.9999772967564471,66.99278591980489
8.488,0.999977368127314,66.53457137423078
8.496,0.9999774440842376,66.0762371673609
8.504,0.9999775246278798,65.61778261193389
8.512,0.9999776097575753,65.15920702862422
8.52,0.9999776994713327,64.7005097460684
8.528,0.9999777937658375,64.24169010088949
8.536,0.9999778926364553,63.78274743772273
8.544,0.9999779960772357,63.32368110923935
8.552,0.9999781040809145,62.864490476171476
8.56,0.999978216638919,62.40517490733523
8.568,0.9999783337413714,61.945733779655015
8.576,0.9999784553770934,61.48616647818584
8.584,0.9999785815336114,61.026472396136946
8.592,0.9999787121971602,60.56665093489344
8.6,0.9999788473526903,60.10670150403918
8.608,0.9999789869838721,59.64662352137774
8.616,0.9999791310731014,59.186416412954614
8.624,0.9999792796015067,58.726079613077296
8.632,0.9999794325489552,58.26561256433697
8.64,0.9999795898940592,57.8050147176278
8.648,0.999979751614183,57.34428553216787
8.656,0.99997991768545,56.883424475517806
8.664,0.9999800880827511,56.42243102360084
8.672,0.9999802627797512,55.96130466072093
8.68,0.9999804417488978,55.50004487958191
8.688,0.9999806249614297,55.0386511813049
8.696,0.9999808123873841,54.57712307544678
8.704,0.9999810039956066,54.11546008001678
8.712,0.9999811997537605,53.65366172149426
8.72,0.9999813996283345,53.191727534844496
8.728,0.9999816035846537,52.72965706353572
8.736,0.9999818115868886,52.267449859554155
8.744,0.9999820235980657,51.8051054834203
8.752,0.9999822395800767,51.34262350420311
8.76,0.9999824594936906,50.88000349953562
8.768,0.999982683298563,50.41724505562831
8.776,0.9999829109532474,49.95434776728388
8.784,0.9999831424152075,49.4913112379099
8.792,0.9999833776408273,49.028135079532795
8.8,0.9999836165854233,48.564818912809635
8.808,0.9999838592032563,48.10136236704138
8.815999999999999,0.9999841054475441,47.63776508018396
8.824,0.9999843552704731,47.17402669886014
8.832,0.9999846086232115,46.71014687837081
8.84,0.9999848654559215,46.24612528270541
8.847999999999999,0.9999851257177731,45.78196158455206
8.856,0.9999853893569564,45.317655465307574
8.864,0.9999856563206962,44.85320661508709
8.872,0.9999859265552649,44.38861473273291
8.879999999999999,0.9999862000059956,43.92387952582281
8.888,0.9999864766172986,43.459000710678545
8.896,0.9999867563326733,42.99397801237367
8.904,0.9999870390947242,42.52881116474065
8.911999999999999,0.9999873248451739,42.063499910377665
8.92,0.9999876135248804,41.59804400065502
8.928,0.9999879050738497,41.13244319572166
8.936,0.9999881994312527,40.6666972645102
8.943999999999999,0.9999884965354405,40.20080598474212
8.952,0.9999887963239585,39.73476914293247
8.96,0.9999890987335646,39.268586534394416
8.968,0.9999894037002431,38.80225796324275
8.975999999999999,0.9999897111592224,38.33578324239702
8.984,0.9999900210449898,37.869162193584714
8.992,0.9999903332913093,37.40239464734367
9.0,0.9999906478312383,36.935480443024076
9.008,0.9999909645971424,36.46841942878959
9.016,0.9999912835207154,36.00121146161865
9.024000000000001,0.9999916045329942,35.53385640730522
9.032,0.9999919275643769,35.06635414045873
9.04,0.9999922525446401,34.59870454450337
9.048,0.9999925794029566,34.13090751167761
9.056000000000001,0.9999929080679132,33.662962943033016
9.064,0.9999932384675279,33.19487074843213
9.072,0.9999935705292688,32.726630846546115
9.08,0.9999939041800718,32.25824316485216
9.088000000000001,0.9999942393463586,31.789707639630354
9.096,0.9999945759540556,31.321024215959817
9.104,0.9999949139286121,30.85219284771416
9.112,0.9999952531950186,30.383213497557062
9.120000000000001,0.9999955936778269,29.914086136937136
9.128,0.9999959353011666,29.444810746082048
9.136,0.9999962779887663,28.975387313992062
9.144,0.999996621663971,28.50581583843355
9.152000000000001,0.9999969662497624,28.036096325931844
9.16,0.9999973116687781,27.566228791763354
9.168,0.9999976578433296,27.09621325994712
9.176,0.999998004695423,26.62604976323614
9.184000000000001,0.9999983521467781,26.15573834310838
9.192,0.9999987001188484,25.685279049756712
9.2,0.9999990485328399,25.214671942078347
9.208,0.9999993973097313,24.743917087664208
9.216000000000001,0.9999997463702937,24.273014562787782
9.224,0.9999999999999999,23.801964452392934
9.232,1.0,23.330766850081385
9.24,1.0,22.85942185809974
9.248000000000001,1.0,22.387929587326422
9.256,1.0,21.91629015725729
9.264,0.9999999999999999,21.44450369599087
9.272,1.0,20.972570340213466
9.280000000000001,1.0,20.50049023518373
9.288,0.9999999999999999,20.028263534716213
9.296,1.0,19.55589040116439
9.304,1.0,19.08337100540366
9.312000000000001,1.0,18.610705526813618
9.32,1.0,18.137894153259545
9.328,1.0,17.664937081073123
9.336,1.0,17.19183451503326
9.344,0.9999999999999999,16.718586668346326
9.352,1.0,16.245193762624716
9.36,1.0,15.77165602786666
9.368,1.0,15.29797370243349
9.376,1.0,14.8241470330283
9.384,1.0,14.350176274672197
9.392,0.9999999999999999,13.876061690681723
9.4,1.0,13.401803552643996
9.408,0.9999999999999999,12.927402140393022
9.416,1.0,12.452857741983719
9.424,0.9999999999999999,11.978170653667036
9.432,0.9999999999999999,11.503341179862817
9.44,1.0,11.028369633133908
9.448,1.0,10.553256334157757
9.456,0.9999999999999999,10.078001611699307
9.464,0.9999999999999999,9.602605802581644
9.472,0.9999999999999999,9.127069251657637
9.48,1.0,8.651392311779365
9.488,0.9999999999999999,8.175575343768688
9.496,1.0000000000000002,7.699618716385507
9.504,1.0,7.223522806297113
9.512,1.0,6.747287998045413
9.52,0.9999999999999999,6.270914684015021
9.528,0.9999999999999999,5.794403264399275
9.536,0.9999999999999999,5.317754147167326
9.544,1.0,4.840967748028844
9.552,1.0,4.364044490400013
9.56,1.0000000000000002,3.8869848053670677
9.568,0.9999999999999999,3.4097891316510744
9.576,1.0,2.9324579155703887
9.584,1.0,2.454991611004228
9.592,0.9999999999999999,1.9773906793539293
9.6,1.0,1.4996555895053925
9.608,0.9999999999999999,1.0217868177891796
9.616,1.0,0.5437848479417817
9.624,0.9999999999999999,0.06565017106456192
9.632,0.9999999999999999,-0.4126167144161677
9.64,1.0,-0.8910153027913016
9.648,1.0,-1.3695450811100958
9.656,1.0,-1.848205529223468
9.664,0.9999999999999999,-2.326996119826247
