freq,mag,phase
6.0,1.000899688272079,-80.19424508674848
6.007540224,1.0007073099182533,-80.56051553816071
6.015079936,1.0004750200570047,-80.9240330040421
6.02262016,1.0002165016031612,-81.28434959199176
6.030160384,0.9999459119634386,-81.64117948334699
6.037700096,0.999677925475259,-81.99449465927722
6.04524032,0.9994269388736239,-82.34438729585806
6.052780544,0.999206683187782,-82.69122172772128
6.060320256,0.9990289312832802,-83.03543812208036
6.06786048,0.9989038450738121,-83.37767189617577
6.075400704,0.998837727232172,-83.71873159102138
6.082940416,0.9988344862196374,-84.05937605932691
6.09048064,0.9988943992294211,-84.40046661740307
6.098020864,0.9990140948985187,-84.74286874969826
6.105560576,0.999187261910578,-85.08730811383712
6.1131008,0.9994043744551644,-85.43447973817705
6.120641024,0.9996536570342879,-85.78485150158019
6.128180736,0.9999218634110231,-86.13876891795796
6.13572096,1.000194215769117,-86.49639815112454
6.143261184,1.0004560407987377,-86.85772505832519
6.150800896,1.0006931984161158,-87.22242005820854
6.15834112,1.0008926565350391,-87.59018650945423
6.165881344,1.0010440596185566,-87.96036115125996
6.173421056,1.0011386242318825,-88.33224723424502
6.18096128,1.0011715439214628,-88.70513907861589
6.188501504,1.0011409744410888,-89.07806153005815
6.196041216,1.001048260969176,-89.4503152460257
6.20358144,1.000898716549316,-89.82098550659806
6.211121664,1.0007002198837531,-90.18941126816728
6.218661888,1.0004634530653789,-90.55499728906018
6.2262016,1.0002011523888412,-90.91735270360316
6.233741824,0.9999276541609126,-91.27618507138382
6.241282048,0.9996574335627714,-91.63147092474591
6.24882176,0.9994056269862739,-91.98327736241563
6.256361984,0.9991855253675914,-92.33201987736037
6.263902208,0.9990091737665956,-92.67816571480286
6.27144192,0.9988862113661351,-93.02237216603383
6.278982144,0.9988235617240211,-93.36544076411981
6.286522368,0.9988242932902557,-93.70809261660754
6.29406208,0.9988887806490426,-94.0513196125601
6.301602304,0.9990133434567573,-94.39584629874172
6.309142528,0.9991913279014595,-94.74252444919192
6.31668224,0.999413067619494,-95.091920899463
6.324222464,0.9996664983551641,-95.44463788588688
6.331762688,0.9999381689873184,-95.80092947002915
6.3393024,1.0002131790010669,-96.16096273512493
6.346842624,1.000476458971863,-96.52473640898299
6.354382848,1.000714134696038,-96.89192155030759
6.36192256,1.0009130934865056,-97.26210238812291
6.369462784,1.0010624978448928,-97.63470204563365
6.377003008,1.001154410589741,-98.00900482946912
6.38454272,1.0011837675994286,-98.38419782075934
6.392082944,1.001148895338312,-98.75946844290499
6.399623168,1.001051710681837,-99.13391936774067
6.40716288,1.0008973172486741,-99.50674936693484
6.414703104,1.0006940666319057,-99.87730718015513
6.422243328,1.000452823031322,-100.2449574418401
6.42978304,1.0001866363732708,-100.60926706481217
6.437323264,0.9999099879295942,-100.97002945230392
6.444863488,0.9996379297862206,-101.32716933857002
6.4524032,0.999384847220996,-101.68088361523911
6.459943424,0.9991646952449911,-102.03146930044142
6.467483648,0.9989895029057261,-102.3794774217421
6.47502336,0.998868799864956,-102.725583259735
6.482563584,0.9988091531637573,-103.07052071879374
6.490103808,0.998813840352522,-103.41516350836271
6.49764352,0.9988825749958608,-103.76037711294745
6.505183744,0.9990118719216974,-104.10698241376782
6.512723968,0.999194587186778,-104.45577288074843
6.52026368,0.9994209453764397,-104.80738503511733
6.527803904,0.9996786210387395,-105.16231154801788
6.535344128,0.9999537426110946,-105.52088651850845
6.54288384,1.0002313547302712,-105.88328720064786
6.550424064,1.000496494718976,-106.24938764412303
6.557964288,1.000734775572176,-106.6189409381093
6.565504,1.0009331366321514,-106.9914768862617
6.573044224,1.0010811098314383,-107.36641966454673
6.580584448,1.0011706145314894,-107.74304780212492
6.58812416,1.0011965039932251,-108.12050251589827
6.595664384,1.0011575473847496,-108.49796427883483
6.603204608,1.001055860113205,-108.87454608870642
6.610744832,1.0008967822222745,-109.24952101520532
6.618284544,1.0006887877235673,-109.6220619934498
6.625824768,1.0004431460107142,-109.99169902379954
6.633364992,1.0001731406063785,-110.35792538570026
6.640904704,0.9998932625453997,-110.72052707397195
6.648444928,0.9996187815968698,-111.07949195191007
6.655985152,0.9993644613283037,-111.43498190396457
6.663524864,0.9991441715687956,-111.78735668177251
6.671065088,0.9989698418855567,-112.13713115544871
6.678605312,0.9988509701439345,-112.48503354187105
6.686145024,0.9987941256305215,-112.83179459571427
6.693685248,0.9988024526141132,-113.17828577859005
6.701225472,0.9988754900209863,-113.5253971249305
6.708765184,0.999009433404819,-113.87396587662613
6.716305408,0.9991968967129824,-114.22476331830173
6.723845632,0.999427762086845,-114.57845545094789
6.731385344,0.9996896801196516,-114.93551428111562
6.738925568,0.9999684163782019,-115.29630097167964
6.746465792,1.0002488600728168,-115.66086632115582
6.754005504,1.0005158570713923,-116.02922731231249
6.761545728,1.0007549342141697,-116.40104749860676
6.769085952,1.0009531438549988,-116.77584706883785
6.776625664,1.0010998292352868,-117.15302881190536
6.784165888,1.0011868631666418,-117.53186431792143
6.791706112,1.0012097324047466,-117.91151320154923
6.799245824,1.0011669342272334,-118.29109583267285
6.806786048,1.0010608124331133,-118.66976275565384
6.814326272,1.0008970422069436,-119.04672293240239
6.821865984,1.0006843977502413,-119.42120231421521
6.829406208,1.0004343817857526,-119.79270781095254
6.836946432,1.000160379611097,-120.16071832404654
6.844486144,0.9998772812470114,-120.52513598227776
6.852026368,0.999600234967643,-120.88578193880534
6.859566592,0.9993444914971866,-121.24297804410025
6.867106304,0.9991237895305823,-121.59703860908255
6.874646528,0.9989500921436759,-121.94845623630056
6.882186752,0.9988330055297651,-122.29802304842323
6.889726464,0.9987788269369859,-122.64648201726956
6.897266688,0.9987905794547913,-122.9947138853854
6.904806912,0.9988676834502533,-123.34363914965331
6.912346624,0.9990061118240057,-123.69405057450115
6.919886848,0.999198224983176,-124.04676329983246
6.927427072,0.9994336966500159,-124.40239493309792
6.934966784,0.9996998534617471,-124.76146128779338
6.942507008,0.9999822773015967,-125.12429209955286
6.950047232,1.0002657152333434,-125.49098115324205
6.957586944,1.0005347345073394,-125.86145726026827
6.965127168,1.0007748318484786,-126.23540092920354
6.972667392,1.000972967978692,-126.61232482184751
6.980207104,1.0011185368293996,-126.9916701619785
6.987747328,1.0012036048396944,-127.37260475434346
6.995287552,1.0012234150354993,-127.75434586032236
7.002827776,1.0011769654521525,-128.13592881184113
7.010367488,1.00106657596723,-128.5165755516706
7.017907712,1.0008983029979368,-128.8954102358733
7.025447936,1.0006809673919044,-129.27175887765122
7.032987648,1.0004265443546465,-129.64500693876542
7.040527872,1.0001484830042566,-130.01472519195556
7.048068096,0.999861845083673,-130.3808006119639
7.055607808,0.9995823422782535,-130.74304889879707
7.063148032,0.9993248260751783,-131.10181833750173
7.070688256,0.9991034417760725,-131.45742044096178
7.078227968,0.9989302985706915,-131.81039627045493
7.085768192,0.9988145841805892,-132.1615176729406
7.093308416,0.998762863882348,-132.5115607495808
7.100848128,0.9987778872344839,-132.86139736440293
7.108388352,0.9988589875929098,-133.21198287979277
7.115928576,0.9990017762273655,-133.56410744262544
7.123468288,0.9991985103206092,-133.91856254550905
7.131008512,0.9994386277424396,-134.27603617980319
7.138548736,0.9997090919054176,-134.63695651627282
7.146088448,0.9999953893181891,-135.00169763791476
7.153628672,1.0002818975019312,-135.37037514972653
7.161168896,1.0005531198229773,-135.74281212327244
7.168708608,1.000794512120386,-136.1187512142509
7.176248832,1.000992918709631,-136.49772961461235
7.183789056,1.001137639167963,-136.8791035944571
7.191328768,1.0012207096250134,-137.26200915382478
7.198868992,1.0012377668251888,-137.64565794394906
7.206409216,1.001187720684957,-138.02916396116996
7.213948928,1.001073254391463,-138.41162869246537
7.221489152,1.000900418832444,-138.79226258453014
7.229029376,1.000678561404554,-139.17033488729496
7.236569088,1.0004194464187623,-139.54523404562755
7.244109312,1.000137281272492,-139.91654081165632
7.251649536,0.9998471595938467,-140.28411291013188
7.259189248,0.9995647392703814,-140.64787565382218
7.266729472,0.9993053500178498,-141.00807261593528
7.274269696,0.9990830924317207,-141.36510381439163
7.281809408,0.998910122979026,-141.71950966286525
7.289349632,0.9987956843012589,-142.0720407979309
7.296889856,0.998746272981195,-142.42351916879596
7.304429568,0.9987644380201763,-142.77484031812747
7.311969792,0.9988493219644119,-143.12690761365639
7.319510016,0.9989964452715233,-143.48056901467598
7.327049728,0.9991977576018737,-143.8366520086204
7.334589952,0.9994424718876098,-144.19576880684272
7.342130176,0.9997174040420012,-144.55843253533834
7.349669888,1.0000075827720007,-144.92494276881806
7.357210112,1.0002974383628216,-145.29543752282646
7.364750336,1.0005712077560407,-145.66970821528602
7.372290048,1.0008140241783388,-146.0475555194148
7.379830272,1.0010129239840504,-146.42840477579296
7.387370496,1.0011569928880955,-146.81159424396841
7.394910208,1.001238471190649,-147.19634918113775
7.402450432,1.0012529110965387,-147.58182422168161
7.409990656,1.001199424547264,-147.96712695591265
7.41753088,1.0010808397364062,-148.35129268615452
7.425070592,1.000903572265954,-148.7335606061638
7.432610816,1.0006770096418651,-149.11321759559206
7.44015104,1.000413349960679,-149.48964484806146
7.447690752,1.0001268552645293,-149.86241967215472
7.455230976,0.9998329462059248,-150.23136677691585
7.4627712,0.9995475041747834,-150.59651768409867
7.470310912,0.9992860410191376,-150.95797677035932
7.477851136,0.9990627378936343,-151.31628457750008
7.48539136,0.9988896099239565,-151.67196641306052
7.492931072,0.9987762982384994,-152.02575502515234
7.500471296,0.9987288851562551,-152.37852329480236
7.50801152,0.9987501475338186,-152.73114376085792
7.515551232,0.9988387520395279,-153.0845474760294
7.523091456,0.9989901684895846,-153.43962242743882
7.53063168,0.9991961594962636,-153.79712141894836
7.538171392,0.9994455552582175,-154.15774924727617
7.545711616,0.9997249828090643,-154.5219825799667
7.55325184,1.0000193711811283,-154.89011055344264
7.560791552,1.0003127203347173,-155.26225253322167
7.568331776,1.0005891601944965,-155.63823915474399
7.575872,1.0008337091638941,-156.01777883164647
7.583411712,1.001033287953635,-156.400338874797
7.590951936,1.001176969912242,-156.78526168939277
7.59849216,1.0012569772030242,-157.17173662910002
7.606031872,1.00126898377788,-157.55888048942802
7.613572096,1.001212148932458,-157.94579082076555
7.62111232,1.00108958977753,-158.3315419170028
7.628652032,1.000907874719633,-158.7153427356658
7.636192256,1.0006765920444256,-159.09642506547198
7.64373248,1.0004081676951038,-159.4741950312545
7.651272192,1.0001172656560224,-159.84828908091328
7.658812416,0.9998194191448552,-160.21850818185544
7.66635264,0.999530759977231,-160.58483644597266
7.673892352,0.9992669606710844,-160.9474881973609
7.681432576,0.9990422371123127,-161.3068985778769
7.6889728,0.9988689426207733,-161.66366641770637
7.696512512,0.9987563934346824,-162.0185488775695
7.704052736,0.998710884102453,-162.37241193813227
7.71159296,0.9987348819766569,-162.7261647530022
7.719132672,0.9988272609323854,-163.08075018268278
7.726672896,0.9989828349365539,-163.43704092190748
7.73421312,0.9991935600034294,-163.7958476448641
7.741752832,0.9994477556260045,-164.15780013495217
7.749293056,0.9997319260728111,-164.52341846741422
7.75683328,1.0000305701965013,-164.89298761497494
7.764372992,1.0003275645852487,-165.26660799607887
7.771913216,1.0006070409440626,-165.64412847480506
7.77945344,1.0008535426755945,-166.02521728291546
7.786993152,1.0010540356528974,-166.40936680620362
7.794533376,1.0011974681892009,-166.79581925722078
7.8020736,1.0012762901456762,-167.18384790626823
7.809613824,1.001285887680516,-167.5725180591423
7.817153536,1.0012259531193455,-167.96089942126105
7.82469376,1.0010994037626044,-168.34810313737518
7.832233984,1.0009130443952767,-168.7332313453626
7.839773696,1.000677069762912,-169.11560745049385
7.84731392,1.000403837305313,-169.49464798250813
7.854854144,1.0001083043837529,-169.86989428023762
7.862393856,0.9998062632845447,-170.24118027566954
7.86993408,0.9995141453044829,-170.60853035059765
7.877474304,0.9992476942561285,-170.97215625711723
7.885014016,0.9990213500511312,-171.33252808774986
7.89255424,0.9988475817789558,-171.69022289966352
7.900094464,0.9987357217611837,-172.0460362611508
7.907634176,0.9986919245155232,-172.40084968852233
7.9151744,0.9987186932177069,-172.755545366984
7.922714624,0.9988146209808307,-173.11113587597143
7.930254336,0.9989745454586073,-173.46845946589977
7.93779456,0.9991898934343993,-173.82833728769924
7.945334784,0.9994490889494414,-174.19144801078437
7.952874496,0.9997380142640409,-174.5582637429826
7.96041472,1.0000411827564177,-174.92911393042945
7.967954944,1.0003421721634662,-175.3040388176514
7.975494656,1.0006247536337314,-175.68289604722486
7.98303488,1.0008735168152285,-176.06539324203175
7.990575104,1.0010753187943602,-176.45092750854724
7.998114816,1.001218646403569,-176.8387930714282
8.00565504,1.001296362073294,-177.22823141270783
8.013195264,1.0013038183555716,-177.6182494882815
8.020734976,1.0012407055407466,-178.00796377455757
8.0282752,1.001110304221615,-178.3964161363038
8.035815424,1.000919429119876,-178.78276338589066
8.043355136,1.0006783846305012,-179.1662660019467
8.05089536,1.0004001911223224,-179.54634766117832
8.058435584,1.0000998559338308,-179.92261324969422
8.065975296,0.9997933538314012,179.70518405804594
8.07351552,0.9994974560074174,179.3369851955411
8.081055744,0.9992281434640765,178.97254578881223
8.088595456,0.9990000715209763,178.61140484139634
8.09613568,0.9988254622429931,178.25295042176802
8.103675904,0.9987141281376176,177.89641443404483
8.111215616,0.9986719088211164,177.5408378162067
8.11875584,0.9987013429490978,177.18537503264292
8.126296064,0.9988008027051979,176.82900921011165
8.133835776,0.9989650669246469,176.47082296498812
8.141376,0.999185249960766,176.11000975574385
8.148916224,0.9994495363206957,175.7459486586302
8.156455936,0.9997435411335548,175.37808473275498
8.16399616,1.0000515141404476,175.0061708950819
8.171536384,1.0003567116163876,174.63011340735312
8.179076096,1.0006427630423604,174.25005927569785
8.18661632,1.0008940514868017,173.866370356349
8.194156544,1.0010970670581159,173.47959898559745
8.201696768,1.0012408485249662,173.09047928480007
8.20923648,1.0013175317337808,172.69984814310754
8.216776704,1.0013229469087708,172.30862303751502
8.224316928,1.0012566010401276,171.91774631202804
8.23185664,1.0011221590656985,171.52818692813926
8.239396864,1.000926735445507,171.1407837642565
8.246937088,1.0006805479316216,170.756276783999
8.2544768,1.000397227830036,170.37531325824622
8.262017024,1.0000918119384312,169.99822366232434
8.269557248,0.99978076866543,169.62528506447697
8.27709696,0.9994807689691063,169.2563738313236
8.284637184,0.9992083035473304,168.89130449824026
8.292177408,0.9989781146954684,168.52959542762534
8.29971712,0.9988026369430274,168.17058009099156
8.307257344,0.9986914184601698,167.81345347787413
8.314797568,0.9986506362058174,167.45736385458156
8.32233728,0.9986826321641246,167.10129957613458
8.329877504,0.9987857645562099,166.744304213922
8.337417728,0.9989544104088147,166.38547715448237
8.34495744,0.9991796334467784,166.02399059109766
8.352497664,0.9994490672749647,165.65914307949066
8.360037888,0.9997484504651792,165.2904607699018
8.3675776,1.0000613470812376,164.91762075392913
8.375117824,1.000371175075518,164.5405972716984
8.382658048,1.0006608316008694,164.15956285139362
8.39019776,1.0009149621313391,163.7748186483261
8.397737984,1.001119590547267,163.38698272733197
8.405278208,1.0012638494577686,162.99677094498347
8.41281792,1.0013397297873117,162.60509293157858
8.420358144,1.001343070158359,162.2127922000057
8.427898368,1.0012737347763974,161.82095717124076
8.43543808,1.0011351917225935,161.43045175118692
8.442978304,1.0009349668165275,161.04217499460293
8.450518528,1.0006836548904336,160.65687850285804
8.45805824,1.000394900384331,160.275181301521
8.465598464,1.000084086290102,159.89743727206255
8.473138688,0.999768014970682,159.52390987586938
8.4806784,0.9994638400447099,159.15450272005506
8.488218624,0.999187888129814,158.78897380861596
8.495758848,0.9989552849078384,158.42684183425698
8.50329856,0.9987787800794241,158.067469048477
8.510838784,0.9986676030425673,157.70999429722895
8.518379008,0.9986283641442588,157.35352122967208
8.52591872,0.9986628501873701,156.99710790327725
8.533458944,0.998769618812325,156.63969676348944
8.540999168,0.9989428630725671,156.28040202908187
8.54853888,0.9991731008780952,155.91838518634745
8.556079104,0.9994481722890927,155.5529592596196
8.563619328,0.9997529719999686,155.1836066483472
8.57115904,1.0000713242659305,154.81008622544232
8.578699264,1.0003858905303955,154.4322956460091
8.586239488,1.0006796697616673,154.050401429824
8.593779712,1.0009368435460808,153.66479086205186
8.601319424,1.0011433425637242,153.27604610065538
8.608859136,1.0012881443996153,152.8849449341172
8.616399872,1.0013632566863855,152.4923510312398
8.623939584,1.0013647854646686,152.0991930684402
8.631479296,1.0012922486444398,151.70649858566816
8.639020032,1.001149560797654,151.315185779723
8.646559744,1.0009443962487354,150.92620889666824
8.654099456,1.0006877053641605,150.54026716241714
8.661640192,1.0003931670122022,150.1580125306796
8.669179904,1.0000766660336442,149.7798050717484
8.676719616,0.9997554111090694,149.40585318434296
8.684260352,0.9994465500521006,149.0361245082587
8.691800064,0.9991669777858133,148.67033706304397
8.699339776,0.9989316484010604,148.30799131924763
8.706880512,0.9987536905112909,147.94841805395808
8.714420224,0.9986425945578481,147.5908064226152
8.721959936,0.9986045798513844,147.2341714027808
8.729500672,0.9986417654421771,146.87755446571995
8.737040384,0.9987522178508075,146.5199368708261
8.744580096,0.9989300299826456,146.16037028905268
8.752120832,0.9991657091834046,145.79801931402795
8.759660544,0.9994464723548396,145.4321977617415
8.767200256,0.9997572765783123,145.0624023498038
8.774740992,1.0000812253635747,144.6883198091471
8.782280704,1.000400868755772,144.30992646830595
8.789820416,1.000699002022403,143.92735740198998
8.797361152,1.0009594653697893,143.5410542655307
8.804900864,1.0011681307151363,143.15159098298068
8.8124416,1.0013137678234219,142.75974053702387
8.819981312,1.0013883172639084,142.36637806074143
8.827521024,1.0013878258810076,141.97250253994252
8.83506176,1.001312103762545,141.57911653294033
8.842601472,1.0011652141396665,141.18720503254167
8.850141184,1.000954850599909,140.79764923893725
8.85768192,1.0006924141542832,140.41123931659033
8.865221632,1.0003918768120503,140.0285887763663
8.872761344,1.0000694275793895,139.65007616745933
8.88030208,0.9997425458012589,139.27589937250866
8.887841792,0.9994287517188013,138.90603170377224
8.895381504,0.9991450064327487,138.54016544977952
8.90292224,0.9989069432083424,138.17779505458714
8.910461952,0.9987273514749458,137.8182354282029
8.918001664,0.9986160408235386,137.46064110033396
8.9255424,0.9985793281997766,137.10405281499897
8.933082112,0.9986190602163706,136.74741989004588
8.940621824,0.9987333767393263,136.38978268706475
8.94816256,0.9989159933341512,136.0301436308016
8.955702272,0.9991573190866446,135.66764974316283
8.963241984,0.9994441315719018,135.30161067843665
8.97078272,0.9997612184114797,134.9315278475958
8.978322432,1.000091189402166,134.55707526714022
8.985862144,1.0004163644713708,134.17824082284108
8.99340288,1.0007192255044524,133.79519468289513
9.000942592,1.0009832044655276,133.40833823449205
9.008482304,1.0011942257879014,133.01829873553777
9.01602304,1.0013408330275972,132.62584511099536
