freq,mag,phase
6.0,0.9999969319719947,118.04077142897717
6.008,0.9999970329741608,117.95447595309278
6.016,0.9999971308312855,117.8681657531072
6.024,0.9999972255735929,117.78184081995799
6.032,0.9999973172311799,117.69550114458636
6.04,0.9999974058340162,117.60914671793724
6.048,0.9999974914119444,117.52277753095929
6.056,0.9999975739946801,117.43639357460505
6.064,0.999997653611813,117.34999483983094
6.072,0.9999977302928049,117.26358131759748
6.08,0.9999978040669921,117.17715299886915
6.088,0.999997874963583,117.09070987461465
6.096,0.9999979430116611,117.0042519358069
6.104,0.9999980082401826,116.91777917342313
6.112,0.9999980706779776,116.8312915784449
6.12,0.9999981303537502,116.74478914185833
6.128,0.999998187296078,116.65827185465395
6.136,0.9999982415334134,116.57173970782698
6.144,0.9999982930940821,116.48519269237734
6.152,0.9999983420062843,116.39863079930964
6.16,0.9999983882980947,116.31205401963344
6.168,0.9999984319974623,116.22546234436308
6.176,0.9999984731322102,116.138855764518
6.184,0.9999985117300366,116.05223427112273
6.192,0.9999985478185143,115.96559785520684
6.2,0.9999985814250909,115.87894650780522
6.208,0.999998612577088,115.79228021995806
6.216,0.9999986413017038,115.70559898271087
6.224,0.9999986676260103,115.6189027871147
6.232,0.9999986915769552,115.53219162422612
6.24,0.9999987131813615,115.44546548510729
6.248,0.9999987324659275,115.35872436082606
6.256,0.9999987494572269,115.27196824245613
6.264,0.9999987641817092,115.18519712107698
6.272,0.9999987766656997,115.09841098777402
6.28,0.999998786935399,115.01160983363874
6.288,0.9999987950168847,114.92479364976867
6.296,0.999998800936109,114.83796242726751
6.304,0.9999988047189012,114.75111615724525
6.312,0.9999988063909667,114.66425483081815
6.32,0.9999988059778872,114.57737843910891
6.328,0.999998803505121,114.49048697324672
6.336,0.9999987989980027,114.40358042436735
6.344,0.9999987924817437,114.31665878361318
6.352,0.9999987839814327,114.22972204213336
6.36,0.9999987735220346,114.1427701910838
6.368,0.9999987611283917,114.05580322162734
6.376,0.9999987468252237,113.96882112493378
6.384,0.9999987306371271,113.88182389217998
6.392,0.9999987125885762,113.79481151454986
6.4,0.9999986927039224,113.70778398323465
6.408,0.9999986710073955,113.62074128943281
6.416,0.9999986475231023,113.53368342435019
6.424,0.9999986222750274,113.44661037920007
6.432,0.9999985952870344,113.3595221452033
6.44,0.9999985665828641,113.27241871358834
6.448,0.9999985361861357,113.18530007559131
6.456,0.9999985041203466,113.09816622245617
6.464,0.9999984704088742,113.01101714543468
6.472,0.9999984350749721,112.92385283578658
6.48,0.9999983981417747,112.83667328477961
6.4879999999999995,0.9999983596322939,112.74947848368966
6.496,0.9999983195694212,112.66226842380073
6.504,0.9999982779759278,112.5750430964052
6.5120000000000005,0.9999982348744628,112.48780249280367
6.52,0.9999981902875557,112.40054660430533
6.5280000000000005,0.9999981442376158,112.31327542222773
6.536,0.9999980967469312,112.22598893789716
6.5440000000000005,0.9999980478376699,112.13868714264848
6.552,0.9999979975318805,112.05137002782543
6.5600000000000005,0.9999979458514907,111.96403758478047
6.568,0.9999978928183095,111.87668980487513
6.5760000000000005,0.9999978384540253,111.78932667947983
6.584,0.9999977827802073,111.7019481999742
6.592,0.9999977258183057,111.614554357747
6.6,0.9999976675896508,111.52714514419623
6.608,0.9999976081154537,111.43972055072929
6.616,0.9999975474168075,111.352280568763
6.624,0.9999974855146855,111.26482518972374
6.632,0.9999974224299428,111.1773544050474
6.64,0.9999973581833155,111.08986820617962
6.648,0.9999972927954217,111.00236658457584
6.656,0.999997226286761,110.9148495317013
6.664,0.9999971586777152,110.82731703903119
6.672,0.9999970899885475,110.73976909805076
6.68,0.9999970202394043,110.65220570025537
6.688,0.999996949450313,110.56462683715053
6.696,0.9999968776411844,110.47703250025207
6.704,0.9999968048318114,110.38942268108619
6.712,0.9999967310418701,110.30179737118951
6.72,0.9999966562909194,110.21415656210924
6.728,0.9999965805984007,110.12650024540316
6.736,0.9999965039836395,110.03882841263979
6.744,0.9999964264658436,109.95114105539844
6.752,0.9999963480641055,109.8634381652693
6.76,0.9999962687974004,109.7757197338535
6.768,0.9999961886845881,109.68798575276331
6.776,0.9999961077444114,109.60023621362201
6.784,0.999996025995498,109.51247110806422
6.792,0.9999959434563599,109.42469042773581
6.8,0.9999958601453929,109.33689416429408
6.808,0.9999957760808779,109.24908230940778
6.816,0.9999956912809808,109.16125485475727
6.824,0.9999956057637515,109.07341179203459
6.832,0.9999955195471257,108.98555311294344
6.84,0.9999954326489248,108.89767880919942
6.848,0.9999953450868543,108.80978887253004
6.856,0.9999952568785059,108.72188329467484
6.864,0.9999951680413575,108.63396206738541
6.872,0.9999950785927719,108.54602518242555
6.88,0.999994988549999,108.45807263157135
6.888,0.9999948979301743,108.37010440661122
6.896,0.9999948067503196,108.28212049934606
6.904,0.9999947150273433,108.19412090158926
6.912,0.9999946227780411,108.10610560516686
6.92,0.9999945300190947,108.01807460191762
6.928,0.9999944367670736,107.9300278836931
6.936,0.999994343038434,107.84196544235772
6.944,0.9999942488495197,107.75388726978892
6.952,0.9999941542165623,107.66579335787718
6.96,0.9999940591556807,107.57768369852613
6.968,0.9999939636828817,107.48955828365266
6.976,0.999993867814061,107.401417105187
6.984,0.9999937715650012,107.3132601550728
6.992,0.9999936749513747,107.22508742526719
7.0,0.9999935779887412,107.13689890774097
7.008,0.9999934806925505,107.04869459447855
7.016,0.9999933830781405,106.96047447747819
7.024,0.9999932851607382,106.87223854875197
7.032,0.9999931869554604,106.78398680032595
7.04,0.999993088477313,106.69571922424026
7.048,0.9999929897411919,106.60743581254916
7.056,0.9999928907618825,106.51913655732112
7.064,0.9999927915540604,106.43082145063894
7.072,0.9999926921322918,106.34249048459986
7.08,0.9999925925110326,106.25414365131559
7.088,0.9999924927046292,106.16578094291245
7.096,0.99999239272732,106.07740235153142
7.104,0.9999922925932331,105.98900786932826
7.112,0.9999921923163881,105.90059748847365
7.12,0.9999920919106962,105.81217120115315
7.128,0.9999919913899596,105.72372899956741
7.136,0.9999918907678728,105.6352708759322
7.144,0.9999917900580219,105.54679682247854
7.152,0.9999916892738846,105.45830683145277
7.16,0.9999915884288315,105.3698008951166
7.168,0.999991487536126,105.28127900574732
7.176,0.9999913866089227,105.19274115563775
7.184,0.9999912856602706,105.1041873370964
7.192,0.9999911847031113,105.01561754244764
7.2,0.999991083750279,104.92703176403161
7.208,0.9999909828145014,104.83842999420447
7.216,0.9999908819084008,104.74981222533846
7.224,0.9999907810444925,104.6611784498219
7.232,0.9999906802351856,104.5725286600594
7.24,0.9999905794927841,104.48386284847189
7.248,0.9999904788294859,104.39518100749675
7.256,0.9999903782573839,104.30648312958782
7.264,0.9999902777884654,104.21776920721562
7.272,0.9999901774346127,104.12903923286736
7.28,0.9999900772076037,104.040293199047
7.288,0.9999899771191113,103.95153109827547
7.296,0.9999898771807043,103.86275292309062
7.304,0.9999897774038471,103.7739586660474
7.312,0.9999896777998999,103.68514831971795
7.32,0.9999895783801195,103.59632187669166
7.328,0.9999894791556593,103.50747932957528
7.336,0.9999893801375686,103.41862067099301
7.344,0.9999892813367943,103.32974589358659
7.352,0.9999891827641797,103.24085499001541
7.36,0.9999890844304655,103.15194795295662
7.368,0.9999889863462901,103.06302477510516
7.376,0.9999888885221893,102.97408544917391
7.384,0.9999887909685968,102.88512996789377
7.392,0.9999886936958446,102.79615832401376
7.4,0.9999885967141628,102.70717051030107
7.4079999999999995,0.9999885000336801,102.61816651954125
7.416,0.9999884036644235,102.52914634453818
7.4239999999999995,0.9999883076163194,102.4401099781143
7.432,0.9999882118991934,102.35105741311054
7.4399999999999995,0.9999881165227701,102.26198864238664
7.448,0.9999880214966734,102.172903658821
7.4559999999999995,0.9999879268304278,102.08380245531099
7.464,0.9999878325334574,101.99468502477282
7.4719999999999995,0.9999877386150863,101.90555136014191
7.48,0.9999876450845389,101.81640145437272
7.4879999999999995,0.9999875519509409,101.72723530043903
7.496,0.9999874592233187,101.63805289133393
7.504,0.9999873669105992,101.54885422006998
7.5120000000000005,0.9999872750216111,101.45963927967927
7.52,0.9999871835650844,101.37040806321352
7.5280000000000005,0.9999870925496511,101.28116056374417
7.536,0.9999870019838448,101.19189677436255
7.5440000000000005,0.9999869118761019,101.10261668817982
7.552,0.9999868222347609,101.01332029832724
7.5600000000000005,0.9999867330680623,100.92400759795615
7.568,0.9999866443841503,100.83467858023813
7.5760000000000005,0.999986556191072,100.74533323836502
7.584,0.9999864684967774,100.65597156554912
7.5920000000000005,0.9999863813091208,100.56659355502319
7.6,0.9999862946358595,100.47719920004062
7.6080000000000005,0.9999862084846554,100.38778849387548
7.616,0.9999861228630739,100.29836142982266
7.6240000000000006,0.9999860377785855,100.20891800119789
7.632,0.9999859532385652,100.11945820133793
7.640000000000001,0.9999858692502929,100.02998202360064
7.648,0.9999857858209534,99.940489461365
7.656000000000001,0.9999857029576372,99.85098050803133
7.664,0.9999856206673403,99.76145515702129
7.672,0.9999855389569643,99.67191340177804
7.68,0.9999854578333175,99.58235523576629
7.688,0.9999853773031135,99.49278065247242
7.696,0.9999852973729734,99.4031896454046
7.704,0.9999852180494248,99.31358220809285
7.712,0.9999851393389017,99.22395833408916
7.72,0.9999850612477462,99.13431801696758
7.728,0.9999849837822072,99.0446612503243
7.736,0.999984906948442,98.95498802777782
7.744,0.9999848307525152,98.86529834296893
7.752,0.9999847552004001,98.7755921895609
7.76,0.999984680297978,98.68586956123958
7.768,0.9999846060510388,98.59613045171345
7.776,0.9999845324652822,98.50637485471371
7.784,0.9999844595463161,98.41660276399448
7.792,0.9999843872996582,98.32681417333274
7.8,0.9999843157307354,98.23700907652858
7.808,0.9999842448448855,98.1471874674052
7.816,0.9999841746473549,98.0573493398091
7.824,0.9999841051433023,97.96749468761003
7.832,0.9999840363377953,97.87762350470123
7.84,0.9999839682358127,97.78773578499951
7.848,0.9999839008422451,97.69783152244531
7.856,0.9999838341618937,97.60791071100272
7.864,0.9999837681994723,97.5179733446598
7.872,0.9999837029596054,97.42801941742844
7.88,0.9999836384468299,97.33804892334466
7.888,0.9999835746655953,97.24806185646852
7.896,0.9999835116202637,97.15805821088442
7.904,0.9999834493151099,97.06803798070098
7.912,0.9999833877543213,96.97800116005136
7.92,0.999983326942,96.88794774309319
7.928,0.9999832668821599,96.79787772400877
7.936,0.9999832075787299,96.7077910970051
7.944,0.9999831490355533,96.61768785631408
7.952,0.9999830912563862,96.52756799619246
7.96,0.9999830342449008,96.43743151092208
7.968,0.9999829780046835,96.3472783948099
7.976,0.9999829225392355,96.25710864218814
7.984,0.9999828678519744,96.1669222474143
7.992,0.9999828139462322,96.0767192048714
8.0,0.9999827608252576,95.98649950896788
8.008,0.9999827084922149,95.89626315413793
8.016,0.9999826569501852,95.80601013484142
8.024000000000001,0.9999826062021657,95.71574044556405
8.032,0.9999825562510715,95.62545408081752
8.04,0.9999825070997331,95.5351510351395
8.048,0.9999824587509004,95.44483130309382
8.056000000000001,0.9999824112072395,95.35449487927058
8.064,0.9999823644713349,95.2641417582862
8.072,0.9999823185456898,95.17377193478355
8.08,0.999982273432725,95.08338540343198
8.088000000000001,0.9999822291347805,94.9929821589276
8.096,0.9999821856541149,94.9025621959932
8.104,0.9999821429929066,94.81212550937843
8.112,0.9999821011532528,94.72167209385984
8.120000000000001,0.9999820601371707,94.63120194424111
8.128,0.9999820199465983,94.54071505535302
8.136,0.9999819805833926,94.45021142205366
8.144,0.9999819420493319,94.35969103922832
8.152000000000001,0.9999819043461149,94.26915390178993
8.16,0.9999818674753616,94.1786000046789
8.168,0.9999818314386136,94.08802934286328
8.176,0.9999817962373336,93.99744191133887
8.184000000000001,0.9999817618729062,93.90683770512936
8.192,0.9999817283466386,93.81621671928646
8.2,0.9999816956597597,93.7255789488898
8.208,0.9999816638134219,93.63492438904727
8.216000000000001,0.9999816328086996,93.54425303489504
8.224,0.9999816026465913,93.45356488159763
8.232,0.9999815733280182,93.362859924348
8.24,0.9999815448538256,93.27213815836768
8.248000000000001,0.999981517224783,93.18139957890695
8.256,0.9999814904415837,93.0906441812448
8.264,0.9999814645048455,92.9998719606891
8.272,0.9999814394151114,92.90908291257671
8.280000000000001,0.9999814151728496,92.81827703227358
8.288,0.9999813917784531,92.72745431517488
8.296,0.9999813692322409,92.636614756705
8.304,0.9999813475344578,92.54575835231772
8.312,0.9999813266852745,92.45488509749637
8.32,0.9999813066847886,92.36399498775383
8.328,0.9999812875330237,92.2730880186327
8.336,0.9999812692299317,92.18216418570533
8.344,0.99998125177539,92.09122348457404
8.352,0.9999812351692046,92.00026591087108
8.36,0.9999812194111092,91.90929146025887
8.368,0.9999812045007652,91.81830012842998
8.376,0.9999811904377629,91.72729191110734
8.384,0.9999811772216208,91.63626680404423
8.392,0.9999811648517859,91.54522480302452
8.4,0.9999811533276352,91.4541659038626
8.408,0.9999811426484745,91.3630901024037
8.416,0.9999811328135395,91.27199739452374
8.424,0.9999811238219962,91.1808877761297
8.432,0.9999811156729403,91.08976124315943
8.44,0.999981108365398,90.99861779158205
8.448,0.9999811018983271,90.90745741739782
8.456,0.9999810962706154,90.81628011663841
8.464,0.999981091481083,90.72508588536682
8.472,0.9999810875284809,90.6338747196777
8.48,0.9999810844114925,90.54264661569727
8.488,0.999981082128733,90.45140156958352
8.496,0.9999810806787504,90.36013957752628
8.504,0.9999810800600252,90.26886063574734
8.512,0.9999810802709707,90.1775647405005
8.52,0.999981081309934,90.0862518880718
8.528,0.9999810831751952,89.99492207477941
8.536,0.9999810858649687,89.90357529697398
8.544,0.9999810893774027,89.81221155103856
8.552,0.99998109371058,89.72083083338877
8.56,0.9999810988625174,89.62943314047291
8.568,0.9999811048311681,89.53801846877204
8.576,0.9999811116144187,89.44658681480009
8.584,0.9999811192100925,89.35513817510396
8.592,0.9999811276159482,89.26367254626363
8.6,0.99998113682968,89.17218992489232
8.608,0.9999811468489199,89.08069030763639
8.616,0.9999811576712346,88.98917369117575
8.624,0.9999811692941293,88.89764007222367
8.632,0.9999811817150454,88.80608944752707
8.64,0.9999811949313615,88.71452181386654
8.648,0.9999812089403944,88.62293716805651
8.656,0.9999812237393993,88.53133550694521
8.664,0.9999812393255686,88.43971682741501
8.672,0.9999812556960337,88.34808112638221
8.68,0.999981272847865,88.25642840079749
8.688,0.9999812907780715,88.1647586476457
8.696,0.9999813094836021,88.07307186394618
8.704,0.9999813289613446,87.98136804675272
8.712,0.999981349208127,87.88964719315379
8.72,0.999981370220718,87.79790930027252
8.728,0.9999813919958256,87.70615436526691
8.736,0.9999814145300998,87.61438238532979
8.744,0.9999814378201302,87.52259335768915
8.752,0.9999814618624489,87.43078727960794
8.76,0.9999814866535285,87.3389641483845
8.768,0.9999815121897838,87.24712396135237
8.776,0.9999815384675718,87.1552667158806
8.784,0.9999815654831918,87.06339240937373
8.792,0.9999815932328855,86.97150103927196
8.8,0.9999816217128377,86.87959260305117
8.808,0.999981650919176,86.78766709822318
8.815999999999999,0.9999816808479716,86.69572452233567
8.824,0.9999817114952394,86.60376487297235
8.832,0.9999817428569379,86.51178814775314
8.84,0.9999817749289706,86.41979434433416
8.847999999999999,0.9999818077071844,86.32778346040791
8.856,0.9999818411873719,86.23575549370327
8.864,0.9999818753652701,86.14371044198573
8.872,0.9999819102365612,86.05164830305743
8.879999999999999,0.9999819457968738,85.95956907475721
8.888,0.999981982041781,85.86747275496083
8.896,0.9999820189668033,85.77535934158094
8.904,0.9999820565674058,85.68322883256731
8.911999999999999,0.9999820948390025,85.59108122590683
8.92,0.9999821337769519,85.4989165196236
8.928,0.999982173376561,85.40673471177917
8.936,0.9999822136330837,85.31453580047248
8.943999999999999,0.9999822545417216,85.22231978384009
8.952,0.9999822960976241,85.13008666005614
8.96,0.9999823382958888,85.03783642733259
8.968,0.9999823811315615,84.94556908391927
8.975999999999999,0.9999824245996369,84.85328462810392
8.984,0.9999824686950584,84.76098305821236
8.992,0.9999825134127187,84.66866437260857
9.0,0.9999825587474593,84.57632856969484
9.008,0.9999826046940721,84.48397564791175
9.016,0.9999826512472982,84.39160560573836
9.024000000000001,0.9999826984018294,84.29921844169232
9.032,0.9999827461523079,84.20681415432993
9.04,0.9999827944933254,84.11439274224624
9.048,0.9999828434194261,84.02195420407512
9.056000000000001,0.9999828929251037,83.92949853848948
9.064,0.9999829430048046,83.83702574420124
9.072,0.9999829936529258,83.7445358199615
9.08,0.9999830448638164,83.65202876456053
9.088000000000001,0.999983096631778,83.55950457682809
9.096,0.9999831489510637,83.4669632556333
9.104,0.9999832018158794,83.37440479988487
9.112,0.999983255220384,83.28182920853111
9.120000000000001,0.9999833091586892,83.18923648056013
9.128,0.9999833636248593,83.09662661499989
9.136,0.9999834186129132,83.00399961091826
9.144,0.9999834741168223,82.91135546742314
9.152000000000001,0.9999835301305127,82.81869418366257
9.16,0.9999835866478641,82.72601575882491
9.168,0.99998364366271,82.63332019213877
9.176,0.9999837011688398,82.54060748287316
9.184000000000001,0.9999837591599964,82.44787763033771
9.192,0.999983817629878,82.35513063388265
9.2,0.9999838765721379,82.26236649289888
9.208,0.9999839359803849,82.16958520681811
9.216000000000001,0.9999839958481833,82.07678677511305
9.224,0.9999840561690525,81.98397119729736
9.232,0.999984116936469,81.89113847292583
9.24,0.9999841781438646,81.79828860159438
9.248000000000001,0.9999842397846276,81.70542158294029
9.256,0.9999843018521027,81.61253741664225
9.264,0.9999843643395914,81.51963610242038
9.272,0.9999844272403522,81.42671764003637
9.280000000000001,0.9999844905476006,81.33378202929366
9.288,0.9999845542545094,81.24082927003741
9.296,0.9999846183542084,81.14785936215462
9.304,0.9999846828397856,81.05487230557428
9.312000000000001,0.999984747704286,80.96186810026741
9.32,0.9999848129407134,80.86884674624721
9.328,0.9999848785420289,80.77580824356909
9.336,0.9999849445011522,80.68275259233074
9.344,0.9999850108109615,80.58967979267236
9.352,0.9999850774642933,80.49658984477658
9.36,0.9999851444539424,80.40348274886873
9.368,0.9999852117726634,80.3103585052167
9.376,0.9999852794131691,80.21721711413134
9.384,0.9999853473681315,80.12405857596619
9.392,0.9999854156301822,80.03088289111794
9.4,0.9999854841919112,79.93769006002618
9.408,0.9999855530458694,79.84448008317376
9.416,0.999985622184566,79.7512529610867
9.424,0.9999856916004702,79.65800869433443
9.432,0.9999857612860117,79.56474728352968
9.44,0.999985831233579,79.4714687293288
9.448,0.9999859014355216,79.37817303243166
9.456,0.9999859718841482,79.28486019358184
9.464,0.9999860425717282,79.19153021356666
9.472,0.9999861134904908,79.09818309321737
9.48,0.9999861846326266,79.00481883340906
9.488,0.9999862559902849,78.91143743506096
9.496,0.999986327555577,78.81803889913628
9.504,0.9999863993205736,78.72462322664259
9.512,0.9999864712773062,78.63119041863159
9.52,0.999986543417767,78.53774047619946
9.528,0.9999866157339097,78.4442734004868
9.536,0.9999866882176464,78.35078919267873
9.544,0.9999867608608521,78.25728785400499
9.552,0.9999868336553615,78.16376938574008
9.56,0.9999869065929696,78.0702337892032
9.568,0.9999869796654333,77.97668106575851
9.576,0.9999870528644687,77.88311121681504
9.584,0.9999871261817534,77.78952424382689
9.592,0.999987199608926,77.69592014829325
9.6,0.9999872731375845,77.60229893175853
