freq,mag,phase
6.0,0.9999926860354686,76.24601260769207
6.008,0.9999932869353064,76.06891338788283
6.016,0.9999938714698977,75.89166508873882
6.024,0.9999944398530074,75.7142676717867
6.032,0.9999949922971677,75.53672109986734
6.04,0.9999955290136786,75.35902533714331
6.048,0.9999960502126063,75.1811803491062
6.056,0.9999965561027815,75.00318610258398
6.064,0.9999970468918009,74.82504256574859
6.072,0.9999975227860232,74.64674970812308
6.08,0.9999979839905703,74.46830750058926
6.088,0.9999984307093261,74.289715915395
6.096,0.9999988631449358,74.1109749261617
6.104,0.9999992814988049,73.9320845078916
6.112,0.9999996859710981,73.75304463697536
6.12,1.0,73.57385529119938
6.128,0.9999999999999999,73.39451644975327
6.136,1.0,73.21502809323718
6.144,1.0,73.03539020366944
6.152,1.0,72.85560276449377
6.16,1.0,72.67566576058677
6.168,0.9999999999999999,72.4955791782654
6.176,1.0,72.31534300529437
6.184,1.0,72.13495723089355
6.192,1.0,71.95442184574541
6.2,0.9999999999999999,71.77373684200246
6.208,1.0,71.59290221329461
6.216,1.0,71.41191795473665
6.224,1.0,71.23078406293563
6.232,0.9999999999999999,71.04950053599822
6.24,0.9999999999999998,70.86806737353828
6.248,0.9999999999999999,70.68648457668405
6.256,0.9999999999999999,70.5047521480857
6.264,0.9999999999999999,70.32287009192265
6.272,1.0000000000000002,70.14083841391098
6.28,1.0,69.95865712131082
6.288,0.9999999999999999,69.77632622293368
6.296,0.9999999999999999,69.5938457291499
6.304,0.9999999999999999,69.41121565189594
6.312,0.9999999999999999,69.22843600468171
6.32,1.0,69.04550680259808
6.328,1.0,68.86242806232396
6.336,1.0,68.67919980213388
6.344,0.9999999999999999,68.49582204190516
6.352,1.0,68.31229480312524
6.36,1.0,68.12861810889906
6.368,1.0,67.94479198395628
6.376,1.0,67.76081645465855
6.384,0.9999999999999999,67.57669154900682
6.392,1.0,67.39241729664865
6.4,1.0,67.20799372888524
6.408,1.0,67.023420878679
6.416,1.0,66.83869878066047
6.424,1.0,66.65382747113567
6.432,1.0,66.46880698809329
6.44,1.0,66.28363737121184
6.448,1.0,66.09831866186678
6.456,1.0,65.91285090313784
6.464,1.0,65.72723413981586
6.472,1.0,65.5414684184102
6.48,1.0,65.35555378715571
6.4879999999999995,1.0,65.16949029601979
6.496,1.0,64.98327799670942
6.504,1.0,64.79691694267851
6.5120000000000005,1.0,64.61040718913442
6.52,1.0,64.4237487930455
6.5280000000000005,1.0,64.23694181314768
6.536,1.0,64.0499863099517
6.5440000000000005,1.0,63.86288234574986
6.552,1.0,63.67562998462322
6.5600000000000005,1.0,63.488229292448175
6.568,0.9999999999999999,63.30068033690364
6.5760000000000005,0.9999999999999999,63.112983187477724
6.584,1.0,62.925137915474714
6.592,1.0,62.73714459402177
6.6,0.9999999999999999,62.54900329807581
6.608,0.9999999999999999,62.36071410443023
6.616,0.9999999999999999,62.17227709172168
6.624,1.0,61.98369234043682
6.632,0.9999999999999998,61.794959932918914
6.64,1.0,61.6060799533746
6.648,0.9999999999999999,61.417052487880504
6.656,1.0,61.22787762438984
6.664,1.0,61.03855545273899
6.672,0.9999999999999999,60.8490860646541
6.68,0.9999999999999999,60.65946955375762
6.688,1.0,60.469706015574694
6.696,1.0,60.27979554753983
6.704,1.0,60.08973824900308
6.712,1.0,59.899534221236756
6.72,0.9999999999999999,59.70918356744151
6.728,1.0,59.518686392752905
6.736,1.0,59.32804280424758
6.744,1.0,59.13725291094965
6.752,0.9999999999999999,58.946316823836824
6.76,0.9999999999999999,58.755234655846714
6.768,1.0,58.56400652188299
6.776,0.9999999999999999,58.37263253882152
6.784,1.0,58.18111282551641
6.792,0.9999999999999999,57.989447502806165
6.8,1.0,57.79763669351969
6.808,0.9999999999999999,57.60568052248228
6.816,1.0,57.41357911652155
6.824,1.0,57.22133260447339
6.832,1.0,57.02894111718781
6.84,1.0,56.83640478753482
6.848,1.0,56.64372375041016
6.856,0.9999999999999999,56.450898142741124
6.864,0.9999999999999999,56.25792810349224
6.872,0.999999827880938,56.06481377367094
6.88,0.999999642685646,55.87155529633317
6.888,0.9999994571421117,55.67815281658908
6.896,0.9999992713308,55.48460648160838
6.904,0.9999990853310352,55.29091644062603
6.912,0.9999988992210048,55.09708284494752
6.92,0.9999987130777621,54.90310584795444
6.928,0.99999852697723,54.70898560510971
6.936,0.9999983409942031,54.51472227396298
6.944,0.999998155202352,54.320316014155814
6.952,0.9999979696742264,54.125766987426964
6.96,0.9999977844812574,53.93107535761756
6.968,0.999997599693762,53.736241290676155
6.976,0.9999974153809457,53.54126495466385
6.984,0.9999972316109068,53.3461465197593
6.992,0.9999970484506386,53.15088615826371
7.0,0.999996865966035,52.95548404460567
7.008,0.999996684221891,52.759940355346124
7.016,0.9999965032819098,52.56425526918309
7.024,0.9999963232087031,52.36842896695653
7.032,0.9999961440637981,52.17246163165289
7.04,0.9999959659076382,51.97635344840995
7.048,0.9999957887995887,51.780104604521235
7.056,0.9999956127979408,51.58371528944071
7.064,0.9999954379599134,51.38718569478716
7.072,0.9999952643416596,51.19051601434863
7.08,0.9999950919982693,50.99370644408684
7.088,0.9999949209837731,50.796757182141484
7.096,0.9999947513511468,50.59966842883445
7.104,0.9999945831523153,50.402440386674044
7.112,0.9999944164381575,50.20507326035912
7.12,0.9999942512585092,50.00756725678317
7.128,0.9999940876621678,49.80992258503826
7.136,0.9999939256968979,49.61213945641911
7.144,0.9999937654094339,49.41421808442687
7.152,0.9999936068454839,49.21615868477299
7.16,0.9999934500497372,49.01796147538305
7.168,0.9999932950658653,48.8196266764003
7.176,0.9999931419365288,48.62115451018944
7.184,0.9999929907033803,48.42254520134019
7.192,0.9999928414070702,48.22379897667064
7.2,0.9999926940872512,48.02491606523092
7.208,0.9999925487825818,47.82589669830634
7.216,0.9999924055307328,47.62674110942085
7.224,0.9999922643683904,47.42744953434026
7.232,0.999992125331262,47.22802221107535
7.24,0.9999919884540817,47.028459379884985
7.248,0.9999918537706127,46.82876128327921
7.256,0.9999917213136555,46.6289281660221
7.264,0.9999915911150504,46.42896027513476
7.272,0.999991463205684,46.22885785989805
7.28,0.9999913376154927,46.02862117185545
7.288,0.99999121437347,45.82825046481558
7.296,0.9999910935076698,45.627745994854884
7.304,0.9999909750452122,45.4271080203202
7.312,0.9999908590122896,45.22633680183113
7.32,0.9999907454341699,45.025432602282486
7.328,0.9999906343352041,44.82439568684652
7.336,0.9999905257388306,44.6232263229752
7.344,0.9999904196675806,44.42192478040241
7.352,0.9999903161430838,44.22049133114588
7.36,0.9999902151860732,44.01892624950935
7.368,0.9999901168163918,43.81722981208437
7.376,0.9999900210529976,43.61540229775217
7.384,0.9999899279139685,43.41344398768549
7.392,0.9999898374165095,43.211355165350106
7.4,0.9999897495769571,43.00913611650665
7.4079999999999995,0.9999896644107853,42.80678712921194
7.416,0.9999895819326119,42.604308493820454
7.4239999999999995,0.9999895021562037,42.40170050298584
7.432,0.9999894250944833,42.19896345166195
7.4399999999999995,0.9999893507595328,41.9960976371043
7.448,0.9999892791626029,41.793103358870894
7.4559999999999995,0.9999892103141161,41.589980918823564
7.464,0.9999891442236747,41.38673062112854
7.4719999999999995,0.9999890809000648,41.18335277225775
7.48,0.9999890203512647,40.97984768098913
7.4879999999999995,0.9999889625844491,40.77621565840776
7.496,0.9999889076059966,40.572457017906025
7.504,0.9999888554214943,40.36857207518452
7.5120000000000005,0.9999888060357465,40.164561148252176
7.52,0.9999887594527782,39.96042455742686
7.5280000000000005,0.9999887156758431,39.75616262533535
7.536,0.9999886747074302,39.55177567691374
7.5440000000000005,0.9999886365492688,39.347264039407335
7.552,0.9999886012023355,39.14262804237083
7.5600000000000005,0.9999885686668611,38.937868017667896
7.568,0.9999885389423369,38.73298429947138
7.5760000000000005,0.9999885120275204,38.527977224262635
7.584,0.9999884879204434,38.32284713083146
7.5920000000000005,0.9999884666184167,38.11759436027532
7.6,0.9999884481180383,37.91221925599913
7.6080000000000005,0.9999884324151991,37.70672216371423
7.616,0.9999884195050898,37.50110343143802
7.6240000000000006,0.9999884093822079,37.29536340949269
7.632,0.9999884020403641,37.089502450504725
7.640000000000001,0.9999883974726893,36.883520909403465
7.648,0.999988395671641,36.6774191434204
7.656000000000001,0.9999883966290104,36.47119751208745
7.664,0.9999884003359296,36.264856377236185
7.672,0.9999884067828777,36.05839610299595
7.68,0.9999884159596886,35.85181705579268
7.688,0.9999884278555565,35.64511960434708
7.696,0.9999884424590448,35.438304119673084
7.704,0.999988459758092,35.23137097507595
7.712,0.9999884797400188,35.02432054615038
7.72,0.9999885023915345,34.81715321077856
7.728,0.9999885276987457,34.60986934912803
7.736,0.9999885556471619,34.40246934364953
7.744,0.9999885862217037,34.19495357907464
7.752,0.9999886194067088,33.98732244241346
7.76,0.9999886551859403,33.779576322952074
7.768,0.9999886935425929,33.571715612249946
7.776,0.9999887344593018,33.363740704137314
7.784,0.9999887779181473,33.15565199471226
7.792,0.9999888239006642,32.947449882337935
7.8,0.9999888723878482,32.7391347676395
7.808,0.9999889233601643,32.53070705350104
7.816,0.9999889767975519,32.32216714506238
7.824,0.9999890326794346,32.11351544971575
7.832,0.9999890909847258,31.904752377102433
7.84,0.9999891516918371,31.69587833910916
7.848,0.999989214778685,31.486893749864645
7.856,0.9999892802226995,31.277799025735725
7.864,0.9999893480008296,31.06859458532365
7.872,0.9999894180895524,30.85928084946009
7.88,0.9999894904648801,30.649858241203166
7.888,0.999989565102368,30.44032718583325
7.896,0.9999896419771201,30.230688110848824
7.904,0.999989721063799,30.020941445962055
7.912,0.999989802336632,29.811087623094423
7.92,0.9999898857694192,29.60112707637209
7.928,0.9999899713355406,29.391060242121352
7.936,0.9999900590079646,29.180887558863773
7.944,0.9999901487592541,28.97060946731141
7.952,0.9999902405615756,28.760226410361774
7.96,0.9999903343867057,28.549738833092817
7.968,0.9999904302060398,28.33914718275768
7.976,0.9999905279905981,28.12845190877947
7.984,0.9999906277110352,27.917653462745836
7.992,0.9999907293376463,27.706752298403455
8.0,0.9999908328403748,27.49574887165247
8.008,0.9999909381888217,27.284643640540757
8.016,0.9999910453522508,27.073437065257995
8.024000000000001,0.9999911542995983,26.862129608129973
8.032,0.9999912649994794,26.65072173361244
8.04,0.9999913774201968,26.439213908284813
8.048,0.9999914915297472,26.22760660084412
8.056000000000001,0.9999916072958301,26.015900282098645
8.064,0.9999917246858553,25.80409542496144
8.072,0.9999918436669499,25.59219250444365
8.08,0.9999919642059666,25.380191997647884
8.088000000000001,0.999992086269491,25.16809438376161
8.096,0.9999922098238504,24.955900144050094
8.104,0.9999923348351196,24.74360976184936
8.112,0.9999924612691302,24.53122372255914
8.120000000000001,0.999992589091477,24.318742513635833
8.128,0.9999927182675273,24.106166624584993
8.136,0.9999928487624268,23.8934965469539
8.144,0.9999929805411086,23.68073277432405
8.152000000000001,0.9999931135683001,23.467875802303666
8.16,0.9999932478085309,23.25492612851985
8.168,0.9999933832261406,23.041884252610625
8.176,0.9999935197852862,22.828750676217044
8.184000000000001,0.9999936574499501,22.615525902975303
8.192,0.999993796183947,22.402210438508387
8.2,0.9999939359509328,22.188804790417763
8.208,0.9999940767144105,21.97530946827503
8.216000000000001,0.9999942184377394,21.761724983613608
8.224,0.9999943610841415,21.548051849919975
8.232,0.99999450461671,21.334290582624913
8.24,0.9999946489984163,21.120441699094744
8.248000000000001,0.9999947941921175,20.906505718622626
8.256,0.9999949401605642,20.692483162419308
8.264,0.9999950868664087,20.47837455360398
8.272,0.9999952342722102,20.26418041719518
8.280000000000001,0.9999953823404454,20.049901280101484
8.288,0.9999955310335132,19.835537671112
8.296,0.9999956803137443,19.621090120886763
8.304,0.9999958301434075,19.406559161947147
8.312,0.9999959804847169,19.191945328666286
8.32,0.9999961312998398,18.977249157258907
8.328,0.9999962825509046,18.762471185771695
8.336,0.9999964342000067,18.547611954072934
8.344,0.999996586209217,18.33267200384266
8.352,0.9999967385405898,18.11765187856208
8.36,0.9999968911561674,17.902552123503536
8.368,0.9999970440179908,17.687373285719712
8.376,0.999997197088104,17.4721159140334
8.384,0.9999973503285638,17.25678055902646
8.392,0.9999975037014445,17.041367773029517
8.4,0.9999976571688466,16.825878110110587
8.408,0.9999978106929036,16.61031212606455
8.416,0.9999979642357893,16.39467037840171
8.424,0.9999981177597244,16.178953426337024
8.432,0.9999982712269836,15.9631618307784
8.44,0.9999984245999032,15.747296154315757
8.448,0.9999985778408873,15.53135696120918
8.456,0.9999987309124153,15.31534481737773
8.464,0.9999988837770487,15.099260290387425
8.472,0.9999990363974376,14.883103949439851
8.48,0.999999188736328,14.666876365359936
8.488,0.9999993407565686,14.450578110584377
8.496,0.9999994924211176,14.234209759149266
8.504,0.9999996436930484,14.017771886678291
8.512,0.9999997945355583,13.801265070370123
8.52,0.9999999449119733,13.584689888986508
8.528,1.0,13.368046922839454
8.536,1.0,13.151336753779107
8.544,0.9999999999999999,12.93455996518075
8.552,1.0,12.717717141932521
8.56,1.0,12.500808870422247
8.568,1.0,12.283835738524932
8.576,1.0,12.066798335589418
8.584,1.0,11.849697252425722
8.592,1.0,11.632533081291507
8.6,1.0000000000000002,11.415306415879243
8.608,1.0,11.198017851302481
8.616,1.0,10.980667984082865
8.624,0.9999999999999999,10.763257412136237
8.632,0.9999999999999999,10.545786734759446
8.64,1.0,10.328256552616304
8.648,1.0,10.110667467724227
8.656,1.0,9.893020083440009
8.664,1.0,9.675315004446318
8.672,1.0,9.457552836737277
8.68,1.0,9.239734187604814
8.688,0.9999999999999999,9.021859665624081
8.696,1.0,8.803929880639618
8.704,1.0,8.58594544375065
8.712,0.9999999999999999,8.36790696729707
8.72,0.9999999999999999,8.149815064844574
8.728,1.0,7.9316703511704985
8.736,1.0,7.713473442248804
8.744,0.9999999999999998,7.4952249552357495
8.752,1.0,7.276925508454728
8.76,0.9999999999999999,7.058575721381796
8.768,0.9999999999999999,6.840176214630354
8.776,0.9999999999999999,6.621727609936538
8.784,0.9999999999999999,6.403230530143745
8.792,1.0,6.184685599187887
8.8,0.9999999999999999,5.9660934420817755
8.808,0.9999999999999999,5.747454684900231
8.815999999999999,0.9999999999999999,5.528769954764381
8.824,1.0,5.310039879826378
8.832,1.0,5.0912650892540245
8.84,1.0,4.872446213215097
8.847999999999999,0.9999999999999999,4.6535838828616365
8.856,0.9999999999999999,4.434678730314352
8.864,1.0,4.2157313886469785
8.872,1.0,3.996742491870346
8.879999999999999,1.0,3.7777126749164256
8.888,1.0,3.558642573622473
8.896,1.0,3.3395328247151363
8.904,1.0,3.120384065794299
8.911999999999999,1.0,2.9011969353168685
8.92,1.0,2.681972072580697
8.928,0.9999999999999999,2.4627101177084483
8.936,1.0,2.243411711631219
8.943999999999999,1.0,2.0240774960720933
8.952,0.9999999999999998,1.804708113529856
8.96,1.0,1.58530420726263
8.968,0.9999999999999999,1.3658664212712894
8.975999999999999,0.9999999999999999,1.1463954002828074
8.984,0.9999999999999999,0.9268917897337526
8.992,0.9999999999999999,0.7073562357537397
9.0,1.0,0.48778938514863174
9.008,1.0,0.268191885383699
9.016,1.0,0.048564384566920075
9.024000000000001,1.0,-0.17109246856774235
9.032,0.9999999999999999,-0.390778024677338
9.04,1.0000000000000002,-0.6104916338269368
9.048,1.0,-0.8302326455064992
9.056000000000001,1.0,-1.0500004086477916
9.064,1.0,-1.269794271641524
9.072,1.0,-1.4896135823545402
9.08,1.0,-1.709457688146838
9.088000000000001,1.0,-1.9293259358886348
9.096,0.9999999999999999,-2.14921767197767
9.104,0.9999999999999999,-2.3691322423565206
9.112,1.0,-2.5890689925297856
9.120000000000001,0.9999999999999999,-2.8090272675812704
9.128,1.0,-3.029006412191441
9.136,1.0,-3.2490057706548616
9.144,0.9999999999999999,-3.4690246868974866
9.152000000000001,1.0,-3.689062504494008
9.16,0.9999999999999999,-3.9091185666853794
9.168,0.9999999999999999,-4.129192216396402
9.176,1.0,-4.349282796253112
9.184000000000001,0.9999999999999999,-4.569389648600226
9.192,1.0,-4.78951211551878
9.2,1.0,-5.009649538843793
9.208,0.9999999999999999,-5.229801260181773
9.216000000000001,1.0,-5.449966620928213
9.224,1.0,-5.670144962285346
9.232,0.9999999999999999,-5.890335625279873
9.24,1.0,-6.110537950780541
9.248000000000001,0.9999999999999999,-6.330751279515719
9.256,1.0,-6.550974952091207
9.264,0.9999999999999999,-6.771208309008033
9.272,1.0,-6.991450690680088
9.280000000000001,1.0,-7.2117014374517545
9.288,0.9999999999999999,-7.431959889615753
9.296,0.9999999999999999,-7.652225387431013
9.304,1.0,-7.872497271140304
9.312000000000001,0.9999999999999998,-8.092774880987937
9.32,1.0,-8.313057557237626
9.328,0.9999999999999999,-8.533344640190375
9.336,0.9999999999999999,-8.753635470202164
9.344,1.0,-8.97392938770159
9.352,0.9999999999999999,-9.194225733207976
9.36,1.0,-9.414523847348834
9.368,0.9999999999999999,-9.634823070877976
9.376,1.0,-9.855122744692965
9.384,1.0,-10.075422209853238
9.392,0.9999999999999999,-10.29572080759755
9.4,1.0,-10.516017879362135
9.408,1.0,-10.736312766798054
9.416,1.0,-10.956604811789367
9.424,1.0,-11.176893356470512
9.432,1.0,-11.397177743244425
9.44,0.9999999999999999,-11.617457314799925
9.448,0.9999999999999999,-11.837731414129749
9.456,1.0,-12.057999384547967
9.464,1.0,-12.278260569708031
9.472,1.0,-12.49851431362003
9.48,1.0,-12.718759960668839
9.488,1.0,-12.938996855631297
9.496,0.9999999999999999,-13.159224343694294
9.504,1.0,-13.379441770471947
9.512,0.9999999999999999,-13.599648482023632
9.52,1.0,-13.81984382487112
9.528,0.9999999999999999,-14.040027146016568
9.536,1.0,-14.260197792959634
9.544,0.9999999999999999,-14.480355113715367
9.552,1.0,-14.700498456831324
9.56,1.0,-14.920627171405341
9.568,1.0,-15.140740607102703
9.576,0.9999999999999999,-15.3608381141738
9.584,0.9999999999999999,-15.580919043471178
9.592,1.0,-15.800982746467227
9.6,1.0,-16.02102857527115
9.608,1.0,-16.241055882646563
9.616,1.0,-16.461064022028392
9.624,0.9999999999999999,-16.68105234754046
9.632,1.0,-16.901020214012245
9.64,0.9999999999999999,-17.120966976996442
9.648,1.0,-17.34089199278562
9.656,1.0,-17.56079461842972
9.664,1.0,-17.780674211752633
9.672,1.0,-18.000530131369608
9.68,1.0,-18.220361736703783
9.688,0.9999999999999998,-18.440168388003453
9.696,0.9999999999999999,-18.65994944635856
9.704,1.0,-18.87970427371785
9.712,1.0,-19.099432232905265
9.72,1.0,-19.31913268763706
9.728,0.9999999999999998,-19.53880500253804
9.736,0.9999999999999999,-19.758448543158586
9.744,1.0,-19.978062675990856
9.752,0.9999999999999999,-20.19764676848563
9.76,1.0,-20.41720018906846
9.768,0.9999999999999998,-20.636722307156422
9.776,0.9999999999999999,-20.856212493174098
9.784,0.9999999999999999,-21.075670118570287
9.792,0.9999999999999999,-21.295094555833863
9.8,1.0,-21.514485178510338
9.808,1.0,-21.73384136121763
9.816,1.0,-21.95316247966256
9.824,1.0,-22.172447910656405
9.832,1.0,-22.391697032131376
9.84,0.9999999999999999,-22.61090922315599
9.847999999999999,0.9999999733987064,-22.830083863951383
9.856,0.9999997945027276,-23.04922033590685
9.864,0.999999614203359,-23.268318021595512
9.872,0.9999994325319226,-23.487376304790075
9.879999999999999,0.9999992495200642,-23.706394570478484
9.888,0.999999065199751,-23.925372204879373
9.896,0.9999988796032647,-24.14430859545742
9.904,0.9999986927631974,-24.36320313093885
9.911999999999999,0.999998504712447,-24.58205520132681
9.92,0.9999983154842107,-24.800864197916614
9.928,0.9999981251119807,-25.01962951331075
9.936,0.9999979336295397,-25.23835054143411
9.943999999999999,0.9999977410709532,-25.4570266775492
9.952,0.9999975474705665,-25.675657318270922
9.96,0.9999973528629983,-25.89424186158144
9.968,0.9999971572831352,-26.112779706845085
9.975999999999999,0.9999969607661264,-26.331270254823224
9.984,0.9999967633473784,-26.54971290768881
9.992,0.9999965650625485,-26.76810706904095
10.0,0.9999963659475404,-26.986452143919472
10.008,0.9999961660384975,-27.204747538819483
10.016,0.9999959653717972,-27.422992661705717
