freq,mag,phase
6.0,0.9999930930650001,61.03449984055601
6.008,0.9999921546680984,60.860899799723974
6.016,0.9999912373243145,60.68725246634944
6.024,0.9999903407895356,60.51355789399231
6.032,0.9999894648210622,60.339816136600696
6.04,0.9999886091776082,60.16602724851082
6.048,0.9999877736193005,59.99219128444696
6.056,0.9999869579076777,59.81830829952137
6.064,0.9999861618056914,59.64437834923417
6.072,0.9999853850777042,59.470401489473254
6.08,0.9999846274894894,59.29637777651427
6.088,0.999983888808231,59.122307267020425
6.096,0.9999831688025229,58.94819001804245
6.104,0.9999824672423681,58.77402608701846
6.112,0.9999817838991779,58.59981553177386
6.12,0.9999811185457721,58.4255584105212
6.128,0.9999804709563764,58.2512547818601
6.136,0.9999798409066241,58.076904704777064
6.144,0.999979228173553,57.90250823864543
6.152,0.9999786325356064,57.72806544322515
6.16,0.9999780537726305,57.55357637866268
6.168,0.9999774916658747,57.37904110549093
6.176,0.9999769459979906,57.20445968462888
6.184,0.9999764165530304,57.02983217738171
6.192,0.9999759031164458,56.85515864544038
6.2,0.9999754054750882,56.68043915088172
6.208,0.9999749234172056,56.505673756168015
6.216,0.9999744567324437,56.33086252414701
6.224,0.9999740052118425,56.15600551805163
6.232,0.9999735686478367,55.98110280149989
6.24,0.9999731468342544,55.80615443849456
6.248,0.999972739566314,55.63116049342313
6.256,0.9999723466406256,55.456121031057535
6.264,0.9999719678551875,55.281036116553906
6.272,0.9999716030093857,55.10590581545251
6.28,0.9999712519039924,54.93073019367734
6.288,0.9999709143411646,54.75550931753605
6.296,0.9999705901244423,54.58024325371968
6.304,0.9999702790587468,54.404932069302426
6.312,0.9999699809503804,54.229575831741386
6.32,0.9999696956070231,54.05417460887636
6.328,0.9999694228377319,53.87872846892961
6.336,0.9999691624529391,53.703237480505514
6.344,0.9999689142644499,53.52770171259053
6.352,0.9999686780854418,53.352121234552655
6.36,0.9999684537304621,53.1764961161414
6.368,0.9999682410154257,53.000826427487375
6.376,0.9999680397576143,52.825112239102104
6.384,0.9999678497756734,52.64935362187767
6.392,0.999967670889611,52.473550647086505
6.4,0.9999675029207957,52.29770338638105
6.408,0.9999673456919546,52.12181191179348
6.416,0.9999671990271708,51.94587629573539
6.424,0.9999670627518817,51.76989661099754
6.432,0.9999669366928777,51.59387293074945
6.44,0.9999668206782978,51.41780532853919
6.448,0.9999667145376303,51.241693878293
6.456,0.9999666181017084,51.06553865431498
6.464,0.9999665312027093,50.88933973128674
6.472,0.9999664536741502,50.713097184267106
6.48,0.9999663853508882,50.53681108869172
6.4879999999999995,0.999966326069117,50.36048152037283
6.496,0.9999662756663631,50.18410855549865
6.504,0.9999662339814861,50.0076922706334
6.5120000000000005,0.9999662008546739,49.83123274271656
6.52,0.9999661761274415,49.65473004906285
6.5280000000000005,0.9999661596426279,49.47818426736149
6.536,0.9999661512443936,49.30159547567621
6.5440000000000005,0.9999661507782185,49.124963752444536
6.552,0.999966158090899,48.94828917647765
6.5600000000000005,0.9999661730305448,48.771571826959764
6.568,0.9999661954465765,48.59481178344797
6.5760000000000005,0.9999662251897239,48.4180091258716
6.584,0.9999662621120212,48.241163934532075
6.592,0.9999663060668065,48.064276290102136
6.6,0.999966356908717,47.88734627362583
6.608,0.9999664144936871,47.71037396651777
6.616,0.9999664786789456,47.53335945056285
6.624,0.9999665493230122,47.35630280791578
6.632,0.9999666262856952,47.17920412110063
6.64,0.9999667094280882,47.00206347301041
6.648,0.9999667986125662,46.82488094690662
6.656,0.9999668937027844,46.64765662641871
6.664,0.9999669945636739,46.47039059554376
6.672,0.9999671010614375,46.293082938645874
6.68,0.9999672130635496,46.1157337404558
6.688,0.9999673304387501,45.9383430860704
6.696,0.999967453057042,45.76091106095215
6.704,0.999967580789689,45.583437750928766
6.712,0.9999677135092115,45.40592324219253
6.72,0.9999678510893832,45.22836762129992
6.728,0.9999679934052274,45.05077097517106
6.736,0.9999681403330152,44.87313339108923
6.744,0.9999682917502599,44.6954549567003
6.752,0.999968447535715,44.51773576001225
6.76,0.9999686075693711,44.339975889394616
6.768,0.9999687717324504,44.162175433578
6.776,0.999968939907405,43.984334481653455
6.784,0.9999691119779126,43.80645312307201
6.792,0.999969287828873,43.62853144764408
6.8,0.9999694673464044,43.45056954553893
6.808,0.9999696504178398,43.27256750728412
6.816,0.9999698369317231,43.094525423764885
6.824,0.999970026777806,42.91644338622363
6.832,0.9999702198470434,42.738321486259295
6.84,0.9999704160315895,42.56015981582685
6.848,0.9999706152247955,42.381958467236586
6.856,0.9999708173212034,42.20371753315364
6.864,0.9999710222165452,42.025437106597344
6.872,0.9999712298077352,41.847117280940566
6.88,0.9999714399928692,41.668758149909195
6.888,0.9999716526712195,41.49035980758148
6.896,0.9999718677432299,41.31192234838738
6.904,0.9999720851105133,41.133445867107994
6.912,0.9999723046758462,40.95493045887487
6.92,0.9999725263431664,40.77637621916942
6.928,0.9999727500175667,40.59778324382221
6.936,0.9999729756052919,40.419151629012376
6.944,0.9999732030137352,40.24048147126693
6.952,0.9999734321514326,40.06177286746013
6.96,0.99997366292806,39.883025914812734
6.968,0.9999738952544283,39.70424071089145
6.976,0.9999741290424788,39.52541735360814
6.984,0.9999743642052793,39.34655594121922
6.992,0.9999746006570199,39.16765657232494
7.0,0.9999748383130086,38.98871934586866
7.008,0.9999750770896664,38.8097443611362
7.016,0.999975316904523,38.63073171775512
7.024,0.9999755576762136,38.45168151569397
7.032,0.9999757993244722,38.27259385526162
7.04,0.9999760417701291,38.09346883710653
7.048,0.999976284935105,37.914306562216
7.056,0.9999765287424076,37.735107131915434
7.064,0.999976773116126,37.555870647867664
7.072,0.9999770179814264,37.37659721207209
7.08,0.9999772632645485,37.19728692686406
7.088,0.9999775088927988,37.01793989491397
7.096,0.9999777547945474,36.83855621922667
7.104,0.9999780008992241,36.659136003140524
7.112,0.9999782471373105,36.4796793503268
7.12,0.9999784934403388,36.300186364788765
7.128,0.999978739740885,36.12065715086093
7.136,0.9999789859725648,35.94109181320832
7.144,0.999979232070028,35.761490456825626
7.152,0.999979477968955,35.58185318703641
7.16,0.9999797236060506,35.40218010949231
7.168,0.99997996891904,35.222471330172205
7.176,0.9999802138466628,35.04272695538145
7.184,0.9999804583286702,34.862947091750954
7.192,0.9999807023058173,34.6831318462365
7.2,0.9999809457198595,34.503281326117786
7.208,0.9999811885135486,34.323395638997596
7.216,0.9999814306306252,34.14347489280103
7.224,0.9999816720158163,33.963519195774595
7.232,0.9999819126148278,33.783528656485345
7.24,0.9999821523743415,33.60350338382007
7.248,0.9999823912420084,33.42344348698435
7.256,0.9999826291664448,33.24334907550176
7.264,0.9999828660972263,33.063220259212954
7.272,0.9999831019848824,32.88305714827479
7.28,0.9999833367808927,32.70285985315942
7.288,0.9999835704376803,32.52262848465341
7.296,0.9999838029086071,32.34236315385686
7.304,0.9999840341479681,32.16206397218248
7.312,0.9999842641109872,31.98173105135466
7.32,0.9999844927538106,31.80136450340859
7.328,0.9999847200335025,31.620964440689292
7.336,0.9999849459080392,31.440530975850752
7.344,0.999985170336304,31.260064221854943
7.352,0.9999853932780813,31.079564291970893
7.36,0.999985614694052,30.899031299773714
7.368,0.9999858345457882,30.71846535914376
7.376,0.9999860527957463,30.53786658426553
7.384,0.9999862694072633,30.3572350896268
7.392,0.9999864843445507,30.176570990017634
7.4,0.9999866975726882,29.99587440052937
7.4079999999999995,0.9999869090576198,29.815145436553752
7.416,0.999987118766147,29.634384213781786
7.4239999999999995,0.9999873266659236,29.45359084820298
7.432,0.999987532725451,29.27276545610402
7.4399999999999995,0.9999877369140714,29.09190815406818
7.448,0.9999879392019623,28.911019058973945
7.4559999999999995,0.9999881395601327,28.73009828799427
7.464,0.9999883379604146,28.549145958595346
7.4719999999999995,0.9999885343754605,28.368162188535837
7.48,0.9999887287787353,28.187147095865548
7.4879999999999995,0.9999889211445119,28.006100798924717
7.496,0.9999891114478651,27.825023416342667
7.504,0.9999892996646663,27.64391506703707
7.5120000000000005,0.9999894857715778,27.46277587021258
7.52,0.9999896697460461,27.281605945360138
7.5280000000000005,0.999989851566298,27.10040541225551
7.536,0.9999900312113332,26.919174390958673
7.5440000000000005,0.9999902086609198,26.73791300181229
7.552,0.9999903838955874,26.556621365441075
7.5600000000000005,0.9999905568966226,26.37529960275029
7.568,0.9999907276460621,26.193947834925076
7.5760000000000005,0.9999908961266875,26.01256618342899
7.584,0.9999910623220198,25.831154770003238
7.5920000000000005,0.9999912262163128,25.649713716665268
7.6,0.9999913877945481,25.468243145707966
7.6080000000000005,0.9999915470424287,25.28674317969826
7.616,0.9999917039463728,25.1052139414763
7.6240000000000006,0.9999918584935098,24.923655554154013
7.632,0.9999920106716726,24.742068141114327
7.640000000000001,0.9999921604693917,24.560451826009693
7.648,0.999992307875891,24.378806732761277
7.656000000000001,0.9999924528810803,24.19713298555751
7.664,0.9999925954755501,24.015430708853273
7.672,0.9999927356505658,23.833700027368394
7.68,0.9999928733980612,23.65194106608678
7.688,0.9999930087106338,23.470153950255103
7.696,0.9999931415815375,23.288338805381684
7.704,0.9999932720046775,23.106495757235344
7.712,0.999993399974604,22.92462493184414
7.72,0.999993525486507,22.742726455494306
7.728,0.9999936485362089,22.56080045472896
7.736,0.9999937691201604,22.378847056346984
7.744,0.9999938872354328,22.196866387401805
7.752,0.9999940028797136,22.01485857520017
7.76,0.9999941160512993,21.832823747300996
7.768,0.9999942267490901,21.650762031514102
7.776,0.9999943349725839,21.468673555899027
7.784,0.9999944407218705,21.286558448763813
7.792,0.9999945439976242,21.10441683866375
7.8,0.9999946448011003,20.92224885440018
7.808,0.999994743134127,20.740054625019255
7.816,0.9999948389991,20.557834279810674
7.824,0.9999949323989782,20.37558794830645
7.832,0.9999950233372744,20.1933157602797
7.84,0.9999951118180518,20.011017845743318
7.848,0.9999951978459175,19.828694334948782
7.856,0.9999952814260166,19.646345358384856
7.864,0.9999953625640252,19.463971046776333
7.872,0.9999954412661458,19.281571531082747
7.88,0.9999955175391008,19.099146942497132
7.888,0.9999955913901254,18.91669741244469
7.896,0.9999956628269638,18.73422307258155
7.904,0.9999957318578608,18.551724054793443
7.912,0.9999957984915585,18.369200491194416
7.92,0.9999958627372867,18.186652514125573
7.928,0.9999959246047608,18.004080256153678
7.936,0.9999959841041737,17.82148385006992
7.944,0.999996041246189,17.638863428888595
7.952,0.9999960960419373,17.456219125845738
7.96,0.9999961485030087,17.273551074397847
7.968,0.9999961986414473,17.090859408220556
7.976,0.9999962464697446,16.908144261207244
7.984,0.9999962920008345,16.725405767467777
7.992,0.9999963352480863,16.542644061327085
8.0,0.9999963762253001,16.359859277323924
8.008,0.9999964149466996,16.177051550209416
8.016,0.9999964514269255,15.994221014945705
8.024000000000001,0.9999964856810327,15.8113678067047
8.032,0.9999965177244804,15.628492060866671
8.04,0.9999965475731286,15.445593913018767
8.048,0.9999965752432317,15.262673498953719
8.056000000000001,0.9999966007514325,15.079730954668573
8.064,0.9999966241147558,14.896766416363208
8.072,0.9999966453506031,14.71378002043887
8.08,0.9999966644767464,14.530771903496868
8.088000000000001,0.999996681511322,14.347742202337281
8.096,0.9999966964728257,14.16469105395744
8.104,0.9999967093801053,13.981618595550483
8.112,0.9999967202523563,13.798524964503999
8.120000000000001,0.9999967291091145,13.615410298398732
8.128,0.9999967359702516,13.43227473500705
8.136,0.9999967408559681,13.249118412291486
8.144,0.9999967437867884,13.06594146840336
8.152000000000001,0.9999967447835545,12.88274404168144
8.16,0.9999967438674197,12.699526270650482
8.168,0.9999967410598439,12.516288294019624
8.176,0.9999967363825871,12.333030250681109
8.184000000000001,0.9999967298577032,12.14975227970888
8.192,0.9999967215075355,11.966454520357075
8.2,0.999996711354709,11.783137112058487
8.208,0.999996699422127,11.599800194423185
8.216000000000001,0.999996685732963,11.416443907237152
8.224,0.9999966703106563,11.233068390460733
8.232,0.9999966531789063,11.049673784227092
8.24,0.9999966343616664,10.866260228840813
8.248000000000001,0.9999966138831382,10.682827864776536
8.256,0.9999965917677658,10.499376832677376
8.264,0.9999965680402307,10.315907273353362
8.272,0.9999965427254455,10.132419327780042
8.280000000000001,0.999996515848548,9.948913137097081
8.288,0.9999964874348968,9.765388842606681
8.296,0.9999964575100646,9.581846585772
8.304,0.9999964260998324,9.398286508215751
8.312,0.9999963932301852,9.214708751718803
8.32,0.9999963589273044,9.03111345821841
8.328,0.9999963232175646,8.847500769807018
8.336,0.9999962861275262,8.663870828730419
8.344,0.9999962476839308,8.480223777386575
8.352,0.9999962079136956,8.296559758323763
8.36,0.9999961668439068,8.112878914239396
8.368,0.999996124501816,7.929181387978133
8.376,0.999996080914833,7.745467322530727
8.384,0.9999960361105218,7.561736861032115
8.392,0.9999959901165935,7.377990146760255
8.4,0.9999959429609031,7.194227323134209
8.408,0.9999958946714418,7.01044853371298
8.416,0.9999958452763328,6.826653922193607
8.424,0.9999957948038265,6.642843632409946
8.432,0.9999957432822933,6.459017808330797
8.44,0.9999956907402209,6.275176594058679
8.448,0.9999956372062058,6.0913201338279315
8.456,0.9999955827089508,5.907448572003494
8.464,0.9999955272772588,5.723562053079002
8.472,0.9999954709400268,5.539660721675558
8.48,0.999995413726242,5.3557447225398285
8.488,0.9999953556649752,5.171814200542786
8.496,0.9999952967853761,4.98786930067783
8.504,0.9999952371166697,4.8039101680595095
8.512,0.9999951766881484,4.61993694792163
8.52,0.999995115529169,4.43594978561599
8.528,0.9999950536691468,4.251948826610458
8.536,0.9999949911375503,4.067934216487723
8.544,0.9999949279638968,3.883906100943368
8.552,0.9999948641777474,3.6998646257845857
8.56,0.9999947998087003,3.515809936928277
8.568,0.999994734886389,3.331742180399759
8.576,0.9999946694404739,3.147661502330837
8.584,0.9999946035006397,2.9635680489585274
8.592,0.9999945370965897,2.7794619666231175
8.6,0.9999944702580409,2.5953434017668777
8.608,0.999994403014719,2.411212500932124
8.616,0.999994335396354,2.227069410759928
8.624,0.9999942674326752,2.042914277988158
8.632,0.9999941991534063,1.8587472494502004
8.64,0.99999413058826,1.6745684720729956
8.648,0.9999940617669351,1.490378092875743
8.656,0.9999939927191096,1.3061762589679382
8.664,0.9999939234744383,1.1219631175480713
8.672,0.9999938540625457,0.937738815901667
8.68,0.9999937845130226,0.7535035013999705
8.688,0.9999937148554224,0.5692573214979845
8.696,0.999993645119255,0.3850004237331525
8.704,0.9999935753339825,0.20073295572338726
8.712,0.9999935055290156,0.016455065165753898
8.72,0.9999934357337081,-0.16783310016550557
8.728,0.9999933659773531,-0.3521313924202976
8.736,0.9999932962891783,-0.5364396636746529
8.744,0.9999932266983413,-0.7207577659320584
8.752,0.9999931572339253,-0.9050855511254373
8.76,0.9999930879249362,-1.0894228711184815
8.768,0.9999930188002952,-1.2737695777076403
8.776,0.9999929498888376,-1.4581255226234533
8.784,0.9999928812193069,-1.6424905575325461
8.792,0.9999928128203508,-1.8268645340389644
8.8,0.9999927447205169,-2.0112473036861718
8.808,0.9999926769482498,-2.1956387179583943
8.815999999999999,0.9999926095318841,-2.3800386282825747
8.824,0.9999925424996439,-2.5644468860299257
8.832,0.9999924758796351,-2.7488633425175224
8.84,0.9999924096998448,-2.9332878490100645
8.847999999999999,0.9999923439881343,-3.1177202567216296
8.856,0.9999922787722371,-3.302160416817278
8.864,0.9999922140797536,-3.4866081804146503
8.872,0.9999921499381489,-3.671063398585733
8.879999999999999,0.9999920863747463,-3.8555259223586265
8.888,0.999992023416726,-4.039995602719146
8.896,0.9999919610911199,-4.224472290612433
8.904,0.9999918994248082,-4.40895583694472
8.911999999999999,0.999991838444515,-4.593446092585115
8.92,0.9999917781768055,-4.777942908367197
8.928,0.9999917186480819,-4.962446135090638
8.936,0.9999916598845793,-5.1469556235229765
8.943999999999999,0.9999916019123629,-5.331471224401397
8.952,0.9999915447573239,-5.51599278843434
8.96,0.9999914884451753,-5.700520166303133
8.968,0.99999143300145,-5.885053208663753
8.975999999999999,0.9999913784514955,-6.069591766148628
8.984,0.9999913248204716,-6.254135689368246
8.992,0.9999912721333467,-6.438684828912778
9.0,0.9999912204148937,-6.623239035353869
9.008,0.9999911696896884,-6.80779815924642
9.016,0.9999911199821035,-6.99236205113022
9.024000000000001,0.9999910713163077,-7.176930561531565
9.032,0.9999910237162619,-7.361503540965044
9.04,0.9999909772057143,-7.5460808399353505
9.048,0.9999909318081999,-7.730662308938885
9.056000000000001,0.9999908875470344,-7.915247798465412
9.064,0.9999908444453139,-8.09983715899981
9.072,0.9999908025259104,-8.28443024102393
9.08,0.9999907618114678,-8.469026895018168
9.088000000000001,0.9999907223244012,-8.653626971463138
9.096,0.9999906840868921,-8.838230320841433
9.104,0.9999906471208853,-9.022836793639465
9.112,0.9999906114480883,-9.207446240349059
9.120000000000001,0.9999905770899651,-9.392058511469118
9.128,0.9999905440677366,-9.576673457507399
9.136,0.9999905124023748,-9.761290928982339
9.144,0.9999904821146031,-9.945910776424661
9.152000000000001,0.9999904532248909,-10.130532850379037
9.16,0.9999904257534518,-10.31515700140588
9.168,0.9999903997202421,-10.499783080083143
9.176,0.9999903751449567,-10.68441093700796
9.184000000000001,0.9999903520470267,-10.869040422798282
9.192,0.9999903304456179,-11.05367138809469
9.2,0.999990310359627,-11.238303683562188
9.208,0.9999902918076804,-11.422937159891841
9.216000000000001,0.9999902748081303,-11.607571667802423
9.224,0.9999902593790538,-11.792207058042218
9.232,0.9999902455382494,-11.97684318139082
9.24,0.9999902333032351,-12.161479888660786
9.248000000000001,0.9999902226912468,-12.346117030699256
9.256,0.9999902137192344,-12.530754458389776
9.264,0.9999902064038614,-12.715392022654092
9.272,0.9999902007615024,-12.900029574453784
9.280000000000001,0.9999901968082388,-13.084666964791946
9.288,0.9999901945598595,-13.269304044714923
9.296,0.9999901940318586,-13.453940665314175
9.304,0.9999901952394312,-13.638576677727894
9.312000000000001,0.9999901981974738,-13.823211933142632
9.32,0.9999902029205805,-14.007846282795136
9.328,0.9999902094230427,-14.192479577974112
9.336,0.9999902177188459,-14.37711167002191
9.344,0.9999902278216691,-14.561742410336075
9.352,0.9999902397448825,-14.746371650371389
9.36,0.9999902535015451,-14.930999241641265
9.368,0.9999902691044039,-15.115625035719749
9.376,0.999990286565892,-15.300248884242968
9.384,0.9999903058981267,-15.48487063891116
9.392,0.9999903271129086,-15.669490151490034
9.4,0.9999903502217191,-15.854107273812865
9.408,0.9999903752357199,-16.038721857781837
9.416,0.9999904021657504,-16.22333375537013
9.424,0.9999904310223274,-16.407942818623294
9.432,0.999990461815643,-16.59254889966127
9.44,0.9999904945555641,-16.777151850679786
9.448,0.999990529251629,-16.961751523952444
9.456,0.999990565913049,-17.146347771832065
9.464,0.9999906045487058,-17.33094044675269
9.472,0.9999906451671491,-17.515529401231078
9.48,0.9999906877765982,-17.70011448786862
9.488,0.9999907323849376,-17.884695559352817
9.496,0.9999907789997194,-18.069272468459264
9.504,0.9999908276281594,-18.253845068053064
9.512,0.999990878277138,-18.438413211090822
9.52,0.9999909309531978,-18.622976750622065
9.528,0.9999909856625441,-18.807535539791267
9.536,0.9999910424110428,-18.992089431839208
9.544,0.9999911012042205,-19.176638280105024
9.552,0.999991162047263,-19.36118193802757
9.56,0.9999912249450157,-19.545720259147462
9.568,0.9999912899019804,-19.73025309710845
9.576,0.9999913569223184,-19.914780305659423
