freq,mag,phase
6.0,1.0002575118972727,139.55870797086718
6.002285056,1.000351699075684,139.40997435368297
6.004570112,1.00042423148436,139.2600402721143
6.006855168,1.00047026714801,139.10931515557752
6.009140224,1.000486648991831,138.95819343551403
6.01142528,1.000472394846469,138.80711213281012
6.013710336,1.0004285617580433,138.6564781275116
6.015995392,1.000357671067573,138.50671783799257
6.018280448,1.000264323749422,138.35822317264478
6.020565504,1.0001543134010542,138.211256881113
6.02285056,1.0000347816358652,138.06599652495828
6.025135616,0.9999128914825355,137.92253928877955
6.027420672,0.9997967118175082,137.78087766848947
6.029705728,0.999693590284368,137.64084141343432
6.031990784,0.9996099505596353,137.5022279876665
6.03427584,0.9995510941361605,137.3646935048282
6.036560896,0.9995207686039225,137.2278810629828
6.038845952,0.9995209304580263,137.0913090008956
6.041131008,0.9995516559349283,136.95460205155146
6.043416064,0.9996109063278232,136.8172584947401
6.04570112,0.9996949919352903,136.678926020851
6.047986176,0.9997985782685963,136.53929904829246
6.050271232,0.9999150922851602,136.39810247450106
6.052556288,1.0000372705032965,136.2552156274916
6.054841344,1.000157198867931,136.11063767611932
6.0571264,1.000267580563469,135.96444465659346
6.059411456,1.0003610035713382,135.8167975816869
6.061696512,1.0004318738741003,135.66801333670597
6.063981568,1.0004756032475686,135.51846014155095
6.066266624,1.0004894776687312,135.36852664406115
6.06855168,1.000472444242191,135.21867416574406
6.070836736,1.0004257241002872,135.0693294367995
6.073121792,1.0003521462043847,134.92088639649936
6.075406848,1.0002564479169427,134.7737486124156
6.077691904,1.0001446638156888,134.62813979345313
6.07997696,1.0000238445610647,134.4842807676582
6.082262016,0.9999015000151812,134.34223520224913
6.084547072,0.9997854875176142,134.2019941572211
6.086832128,0.9996831699194643,134.06338112666924
6.089117184,0.9996009660960814,133.92611620858554
6.09140224,0.9995442431722882,133.7899360083628
6.093687296,0.9995165370183494,133.65442752106546
6.095972352,0.9995194372791013,133.51916203386386
6.098257408,0.999552886318437,133.38369195972095
6.100542464,0.9996149738472069,133.24754704839575
6.10282752,0.9997016172688303,133.1103582989706
6.105112576,0.9998073522963818,132.97184120962615
6.107397632,0.9999253726013355,132.83177313938737
6.1096832,1.0000483767167059,132.68997008374802
6.111968256,1.0001684923963878,132.54643343507053
6.114253312,1.0002782331997966,132.4013156608389
6.116538368,1.0003705374683531,132.25473207403704
6.118823424,1.000439513423018,132.10707257059815
6.12110848,1.0004808175055795,131.95866290666282
6.123393536,1.0004920294322484,131.80987103231826
6.125678592,1.0004722117900735,131.66119905983646
6.127963648,1.000422687206321,131.51312048758885
6.130248704,1.000346337555025,131.36595852766646
6.13253376,1.0002483193341363,131.22010281859298
6.134818816,1.0001347649193906,131.07588511486205
6.137103872,1.0000126008315535,130.93336370700612
6.139388928,0.9998897535381767,130.79270457082976
6.141673984,0.9997739967820104,130.6538234208524
6.14395904,0.9996726905891533,130.51655353029292
6.146244096,0.9995921125736733,130.38065180492018
6.148529152,0.9995375502426372,130.2458031568603
6.150814208,0.999512319120207,130.1115785429373
6.153099264,0.9995181503988697,129.97755435428166
6.15538432,0.9995545554208494,129.84325722627494
6.157669376,0.9996194740412248,129.7082655265456
6.159954432,0.9997086772432388,129.57220517602545
6.162239488,0.999816396772903,129.43477118211968
6.164524544,0.9999360037711262,129.29574262799667
6.1668096,1.0000598122926714,129.15496390842333
6.169094656,1.0001800373626988,129.0124613345493
6.171379712,1.0002891224903436,128.86836008696685
6.173664768,1.0003799864735325,128.72285433113615
6.175949824,1.0004470958027485,128.57621447262812
6.17823488,1.0004859472625012,128.4288675600172
6.180519936,1.0004943811415612,128.28123705482597
6.182804992,1.0004715565861488,128.1337473544327
6.185090048,1.0004189036054199,127.98685595176225
6.187375104,1.0003400387098031,127.84095496102518
6.18966016,1.0002395714486674,127.6964004485619
6.191945216,1.0001241827472507,127.5534359744356
6.194230272,1.000000891056362,127.41229263477909
6.196515328,0.9998776481695247,127.27295740066612
6.198800384,0.999762194887968,127.13540542573956
6.20108544,0.9996619163448612,126.99948635100822
6.203370496,0.9995831408515043,126.86489107919968
6.205655552,0.9995306755080344,126.73132990160214
6.207940608,0.999508257199536,126.59835460550842
6.210225664,0.9995170500273434,126.46552050325919
6.21251072,0.9995565538361004,126.33236344471804
6.214795776,0.9996243152102586,126.19849156276422
6.217080832,0.9997159563830305,126.06350617241623
6.219365888,0.9998259155998609,125.9270879892427
6.221650944,0.999946966323971,125.78907022958462
6.223936,1.0000716835320165,125.64925808829747
6.226221056,1.0001918443213202,125.50776784372788
6.228506112,1.0003001620458225,125.36463454970314
6.230791168,1.0003895671708707,125.22011400232589
6.233076224,1.0004546126354212,125.0744865584434
6.23536128,1.0004910587355484,124.92820368789224
6.237646336,1.000496468442214,124.78166000345858
6.239931392,1.0004705675496997,124.63531369659931
6.242216448,1.0004150067614335,124.48958525169922
6.244501504,1.0003332663710078,124.34491682819468
6.24678656,1.000230639720269,124.2015843236346
6.249071616,1.0001133883961824,124.05993480235159
6.251356672,0.9999890362875552,123.9200584571054
6.253641728,0.999865308688741,123.78203756160745
6.255926784,0.9997502690056748,123.64581005123048
6.25821184,0.9996511101471919,123.51115509907486
6.260496896,0.9995741399789109,123.37783730613829
6.262781952,0.9995242519738183,123.24550345334626
6.265067008,0.9995044772519194,123.11372769641648
6.267352064,0.9995163527649779,122.98205423721454
6.26963712,0.9995590174087778,122.84999757669053
6.271922176,0.9996296650626837,122.71720733394918
6.274207232,0.9997240669561872,122.583211742416
6.276492288,0.9998360004533635,122.44781498389342
6.278777344,0.9999585049415923,122.3107288930043
6.2810624,1.0000839052881676,122.17188697884207
6.283347456,1.0002041687669008,122.03130032551944
6.285632512,1.0003116191361203,121.88911151899622
6.287917568,1.0003995133312424,121.74552104247083
6.290202624,1.000462175613168,121.60091889303814
6.29248768,1.000495977849166,121.45562135435053
6.294772736,1.0004983280840571,121.31012406752055
6.297057792,1.0004693424082851,121.16485610462401
6.299342848,1.0004107570879075,121.02027583391177
6.301627904,1.0003261405487935,120.87675341926463
6.30391296,1.0002211326198496,120.73466010315653
6.306198016,1.000102059860888,120.59424213347232
6.308483072,0.9999765624192707,120.45565250414883
6.310768128,0.9998525716962694,120.31890359773026
6.313053184,0.9997380387959207,120.18393255280023
6.31533824,0.9996401252378472,120.05055346173553
6.317623296,0.9995649999071202,119.91848192477072
6.319908352,0.999517747252136,119.78733006392528
6.322193408,0.9995009504552396,119.65669593777233
6.324478976,0.9995159227526216,119.52613384444886
6.326764032,0.9995616736272591,119.39515196363654
6.329049088,0.9996353495675049,119.26334594242684
6.331334144,0.9997322856764859,119.13034861571205
6.3336192,0.999846447079919,118.99587512667935
6.335904256,0.9999703396582056,118.85969305815371
6.338189312,1.0000963800582283,118.72177268847989
6.340474368,1.0002164748035622,118.58206130176697
6.342759424,1.000322995472172,118.44075737826594
6.34504448,1.0004092790496935,118.29807448435805
6.347329536,1.0004697992557605,118.1544126536169
6.349614592,1.0005005495796306,118.01011422125568
6.351899648,1.0004999593931496,117.86562874667041
6.354184704,1.00046776317893,117.72140166315774
6.35646976,1.0004059345007759,117.57791872163361
6.358754816,1.0003186099157726,117.43555208068254
6.361039872,1.000211118720628,117.29463747100569
6.363324928,1.0000903187635521,117.15543668566256
6.365609984,0.999963738139308,117.01807023833204
6.36789504,0.9998395702268398,116.88255889847626
6.370180096,0.999725600780858,116.74879817504429
6.372465152,0.9996290218602265,116.61664798773062
6.374750208,0.9995560027468723,116.48577472749547
6.377035264,0.9995111997070416,116.35578176401636
6.37932032,0.9994975776739358,116.22624049029682
6.381605376,0.9995157550521455,116.09674400006762
6.383890432,0.9995647834215047,115.96677167101635
6.386175488,0.9996415260434697,115.83594910616155
6.388460544,0.9997411748741386,115.703899002259
6.3907456,0.9998572875008495,115.57029969619299
6.393030656,0.9999825578958815,115.43497807556534
6.395315712,1.0001092207919826,115.2978894946356
6.397600768,1.0002290835229488,115.1590119340536
6.399885824,1.0003345869497984,115.0185732356346
6.40217088,1.0004190051953616,114.87679055213738
6.404455936,1.0004770942483021,114.73400037101337
6.406740992,1.0005051586994498,114.59061390644405
6.409026048,1.0005012684194192,114.44710656188967
6.411311104,1.0004657239129773,114.30392265677978
6.41359616,1.0004007865793942,114.16150861586647
6.415881216,1.000310471886005,114.02023757769206
6.418166272,1.0002006492506015,113.88048889362106
6.420451328,1.000078100223724,113.74244191633852
6.422736384,0.9999505509233915,113.6062370297328
6.42502144,0.9998262562452037,113.47194578068398
6.427306496,0.9997129233337398,113.33939155862238
6.429591552,0.9996178839537381,113.20840802190894
6.431876608,0.999547123274365,113.07868228261914
6.434161664,0.9995050117445664,112.94979266471371
6.43644672,0.9994944290815139,112.8213627178589
6.438731776,0.9995159800187774,112.6928567001608
6.441016832,0.9995682131315157,112.5638623664074
6.443301888,0.9996481266897275,112.43396631198358
6.445586944,0.9997503298388701,112.30276171615887
6.447872,0.999868476925553,112.17000325475911
6.450157056,0.999995263020006,112.03551912123777
6.452442112,1.0001223540394175,111.89920231333853
6.454727168,1.0002419104967204,111.76114738964058
6.457012224,1.0003463425957724,111.62150088978034
6.45929728,1.000428901003462,111.48052115088673
6.461582336,1.0004844018324168,111.33859498697475
6.463867392,1.0005093537114018,111.19611083800841
6.466152448,1.0005021919097636,111.05354265891997
6.468437504,1.0004633102739078,110.91134435097523
6.47072256,1.0003951213624716,110.7699501157729
6.473007616,1.0003019249926264,110.62975526048251
6.475292672,1.000189716081223,110.49109641340718
6.477577728,1.0000654737003822,110.35418980329545
6.479862784,0.9999370215992971,110.21915534495857
6.48214784,0.9998126882209378,110.08603006444594
6.484432896,0.9997001135625778,109.95463715939556
6.486717952,0.9996066077739701,109.8247966690625
6.489003008,0.9995381267366322,109.69616109669512
6.491288064,0.9994989021264986,109.56833323252042
6.49357312,0.9994915428233148,109.44092117332285
6.495858176,0.9995164402307033,109.31339903052628
6.498143232,0.9995721202406413,109.18533609910065
6.500428288,0.9996550336708784,109.05628027400425
6.502713344,0.9997599916758481,108.92592349136244
6.5049984,0.999880197439753,108.79395152789085
6.507283456,1.0000082028872148,108.66021547264948
6.509568512,1.0001358457159197,108.52466142990139
6.511853568,1.000254917479843,108.38736171200271
6.514138624,1.0003581195230014,108.24846726503353
6.51642368,1.0004385937918927,108.10829381812266
6.518708736,1.0004915105685324,107.96716631483179
6.520993792,1.0005133730531306,107.82554246916118
6.523278848,1.0005027669399964,107.68386163169197
6.525563904,1.0004604867163398,107.54261400814976
6.52784896,1.000388982446065,107.40220903911491
6.530134016,1.0002929074600382,107.26305128036249
6.532419072,1.0001782396140515,107.12548255212616
6.534704128,1.000052352604571,106.98967652150094
6.536989184,0.9999231569265388,106.85577637607528
6.53927424,0.9997987067734165,106.72375927718237
6.541559808,0.9996871734986762,106.59346041814393
6.543844864,0.9995953058339537,106.46470275919195
6.54612992,0.9995293558436399,106.33714873813712
6.548414976,0.9994930186385004,106.21036495213247
6.550700032,0.9994889840510656,106.08389121587804
6.552985088,0.9995174267708137,105.95729683003779
6.555270144,0.9995765844228278,105.83010924325144
6.5575552,0.9996626297954196,105.7018861205805
6.559840256,0.9997701889036243,105.57229616296324
6.562125312,0.9998923955851693,105.44110801024998
6.564410368,1.0000216652842853,105.3080704920208
6.566695424,1.000149564522821,105.1732095713451
6.56898048,1.0002681873932553,105.03661978572438
6.571265536,1.0003698720419594,104.89843318896155
6.573550592,1.0004483423230701,104.75898912168422
6.575835648,1.00049848937929,104.61863479446374
6.578120704,1.000517096525762,104.47781937821809
6.58040576,1.0005030763361755,104.33701587990201
6.582690816,1.0004571593567562,104.19668146349903
6.584975872,1.000382338395595,104.05721914730223
6.587260928,1.0002834074073308,103.91908295612075
6.589545984,1.0001663305843553,103.78254806940441
6.59183104,1.000038780564239,103.64780036251253
6.594116096,0.9999088592064621,103.51499308823601
6.596401152,0.9997844862340702,103.38405356630264
6.598686208,0.9996738825081786,103.25483393644288
6.600971264,0.9995839249483232,103.12713949865929
6.60325632,0.9995203436782863,103.00057708290612
6.605541376,0.9994872182071192,102.8747865235105
6.607826432,0.999486601120762,102.74923776179145
6.610111488,0.9995186657486747,102.62354069281268
6.612396544,0.9995811744945142,102.49717141565081
6.6146816,0.9996704596838588,102.3697203048482
6.616966656,0.9997807234972762,102.24085675317458
6.619251712,0.9999050269893752,102.11031892041645
6.621536768,1.0000353226804197,101.977990879927
6.623821824,1.0001636830592793,101.8437792801192
6.62610688,1.000281651333267,101.70783882878706
6.628391936,1.0003818437928014,101.57035361513816
6.630676992,1.00045805220938,101.43158608733847
6.632962048,1.0005053246503963,101.29197586802873
6.635247104,1.000520643832452,101.15192553310213
6.63753216,1.0005030252147062,101.01195408238115
6.639817216,1.0004535218760244,100.87247226960831
6.642102272,1.0003754012577917,100.73395884800587
6.644387328,1.0002734961405981,100.59676762502572
6.646672384,1.000154059316346,100.4612441128303
6.64895744,1.0000250163451168,100.32751908884215
6.651242496,0.9998942407655919,100.19575592158846
6.653527552,0.9997703248295045,100.06585371014116
6.655812608,0.9996607173290927,99.93767217174756
6.658097664,0.9995726889026391,99.81100738629249
6.66038272,0.9995117472194537,99.68542087397694
6.662667776,0.9994818789781827,99.56055267257868
6.664952832,0.9994847077031395,99.43591876555634
6.667237888,0.9995203428131462,99.31100841827536
6.669522944,0.999586587980092,99.18540756566522
6.671808,0.9996789738612546,99.05868542053688
6.674093056,0.999791834529632,98.93052003349106
6.676378112,0.9999180033000326,98.80063691305335
6.678663168,1.000049561720986,98.66888856141784
6.680948224,1.0001780574343413,98.5353233241881
6.68323328,1.0002953284700635,98.3999824518492
6.685518336,1.0003939332807374,98.26309320914328
6.687803392,1.0004677599863245,98.12499144919558
6.690088448,1.0005119159757445,97.98606284051588
6.692373504,1.0005238620656416,97.84677003261194
6.69465856,1.0005025665591563,97.7075583649532
6.696943616,1.0004494672148296,97.56890747003361
6.699228672,1.0003678855408509,97.43129015275271
6.701513728,1.000263026126824,97.29503789741413
6.703798784,1.000141340943883,97.1604764412942
6.70608384,1.0000108248667832,97.02775550388867
6.708368896,0.9998794233066884,96.89698778081785
6.710653952,0.9997557519971556,96.76809943672662
6.712939008,0.9996474300221299,96.64093665739705
6.715224064,0.9995614581281352,96.51520614869234
6.71750912,0.9995033551456135,96.39057186077704
6.719794176,0.9994766470596345,96.26657136206747
6.722079232,0.9994832244096882,96.14276078926794
6.724364288,0.9995225699287368,96.01865460006825
6.726649344,0.9995922933419287,95.89378378264847
6.7289344,0.9996878518090248,95.76774146782914
6.731219456,0.999803432632583,95.64017869607403
6.733504512,0.9999314882031511,95.51088886330018
6.735789568,1.0000640362340472,95.37973967002674
6.738074624,1.000192537617283,95.2467173636892
6.74035968,1.0003089921660893,95.11195338400135
6.742644736,1.0004059549828792,94.9756373097722
6.744929792,1.000477161922439,94.83816603006606
6.747214848,1.0005183467956524,94.69987026915142
6.749499904,1.0005267257036095,94.56128083774848
6.75178496,1.0005015988832657,94.42281067169375
6.754070016,1.0004448340755743,94.28497013387097
6.756355072,1.000359846823662,94.14819300454276
6.75864064,1.000251976589797,94.0128379250419
6.760925696,1.000128103815137,93.87920497514581
6.763210752,0.9999959759714601,93.74745752500203
6.765495808,0.9998641927076682,93.61763690776175
6.767780864,0.999740937019015,93.48973743148342
6.77006592,0.9996339567055701,93.36350367808639
6.772350976,0.9995501922088083,93.23873034086073
6.774636032,0.9994949577892484,93.11497588557657
6.776921088,0.9994716839589052,92.99182028185773
6.779206144,0.9994819718113527,92.86879510919867
6.7814912,0.9995251433113923,92.74540518794153
6.783776256,0.9995985049571989,92.6212266730312
6.786061312,0.9996973075281335,92.49579119178445
6.788346368,0.9998154675984138,92.36882674493717
6.790631424,0.9999453525766322,92.24008281459278
6.79291648,1.0000788095956215,92.10945010409958
6.795201536,1.000207422046801,91.9769363370887
6.797486592,1.0003228006127383,91.84269536545816
6.799771648,1.0004179370410284,91.70693740125839
6.802056704,1.0004865732807873,91.57000945324414
6.80434176,1.0005244558220203,91.43233333472648
6.806626816,1.0005292517105606,91.29438905325935
6.808911872,1.0005004469961813,91.15663487246675
6.811196928,1.000439846736494,91.01956915890278
6.813481984,1.0003512917211548,90.88359455051447
6.81576704,1.0002405784860424,90.74909868717363
6.818052096,1.0001144931203108,90.61636327798493
6.820337152,0.9999810675012163,90.48552667378713
6.822622208,0.9998486631967562,90.35665317046117
6.824907264,0.9997259232285108,90.2296728316093
6.82719232,0.9996204864511903,90.10435965073658
6.829477376,0.9995389566960706,89.98044292486139
6.831762432,0.9994867335939912,89.85755989473678
6.834047488,0.9994670794386656,89.7352028659694
6.836332544,0.9994811226921184,89.61291086509384
6.8386176,0.9995281556807547,89.49021262049574
6.840902656,0.999605157018664,89.36664087161509
6.843187712,0.9997071957563002,89.24178864643808
6.845472768,0.9998280613916593,89.11536601107876
6.847757824,0.9999597318483786,88.98711586995837
6.85004288,1.0000939890456726,88.85695185058647
6.852327936,1.0002225238127,88.72490925714422
6.854612992,1.000336850428742,88.59114735169878
6.856898048,1.0004299278298803,88.4558692909159
6.859183104,1.0004958931149184,88.31947356609537
6.86146816,1.0005303624934905,88.18236593594224
6.863753216,1.0005313944697922,88.04504043615754
6.866038272,1.0004985785874914,87.90798327420643
6.868323328,1.0004341976937279,87.77163373936844
6.870608384,1.0003423089016208,87.63643418337091
6.87289344,1.000228612460571,87.50276949899276
6.875178496,1.0001002908036805,87.37088831024023
6.877463552,0.9999655854311281,87.24094511305302
6.879748608,0.9998329519328842,87.11296665674773
6.882033664,0.9997108863608034,86.98687412026435
6.88431872,0.9996069682730347,86.86244391661347
6.886603776,0.9995279347406897,86.73937980035839
6.888888832,0.9994788423522025,86.6172687279493
6.891173888,0.9994627591595805,86.49566403231496
6.893458944,0.9994808421368648,86.37407321537253
6.895744,0.9995317087859081,86.2519913372903
6.898029056,0.9996124526050427,86.12900326868316
6.900314112,0.9997177794154689,86.00469403184356
6.902599168,0.9998410338316428,85.87873506656386
6.904884224,0.9999744339103188,85.75092116604321
6.90716928,1.0001095723696936,85.62118000125167
6.909454336,1.0002377991126064,85.48957888000746
6.911739392,1.0003510468973487,85.35622811935575
6.914024448,1.0004420888835452,85.22142599204147
6.916309504,1.0005051459751828,85.08550686145259
6.91859456,1.0005361285939711,84.94895094224452
6.920879616,1.0005331987757642,84.812199682091
6.923164672,1.0004965499938134,84.67576038238357
6.925449728,1.000428324102609,84.54010580886663
6.927734784,1.0003328204912019,84.40566308946873
