freq,mag,phase
6.0,0.9999967480214697,-148.26959540440018
6.008,0.9999955911722445,-148.665733754434
6.016,0.9999944739053415,-149.06167583592938
6.024,0.9999933954657667,-149.45742358823586
6.032,0.9999923551072981,-149.8529789596969
6.04,0.9999913520924484,-150.24834390751948
6.048,0.9999903856924106,-150.64352039764415
6.056,0.9999894551870205,-151.03851040461694
6.064,0.9999885598647045,-151.43331591146128
6.072,0.9999876990224353,-151.82793890955162
6.08,0.9999868719656854,-152.22238139848787
6.088,0.9999860780083769,-152.61664538597043
6.096,0.9999853164728351,-153.0107328876768
6.104,0.9999845866897394,-153.40464592713883
6.112,0.9999838879980738,-153.7983865356207
6.12,0.9999832197450786,-154.19195675199853
6.128,0.999982581286199,-154.5853586226402
6.136,0.9999819719850358,-154.9785942012866
6.144,0.9999813912132962,-155.3716655489337
6.152,0.999980838350739,-155.76457473371568
6.16,0.9999803127851286,-156.1573238307885
6.168,0.9999798139121795,-156.5499149222152
6.176,0.9999793411355065,-156.9423500968514
6.184,0.999978893866573,-157.33463145023208
6.192,0.9999784715246349,-157.72676108445913
6.2,0.9999780735366955,-158.1187411080901
6.208,0.9999776993374436,-158.5105736360274
6.216,0.9999773483692103,-158.90226078940861
6.224,0.9999770200819068,-159.29380469549787
6.232,0.9999767139329759,-159.68520748757774
6.24,0.9999764293873403,-160.07647130484213
6.248,0.9999761659173431,-160.4675982922904
6.256,0.999975923002698,-160.85859060062162
6.264,0.999975700130435,-161.2494503861304
6.272,0.9999754967948447,-161.64017981060312
6.28,0.9999753124974279,-162.0307810412149
6.288,0.9999751467468336,-162.42125625042814
6.296,0.9999749990588145,-162.81160761589075
6.304,0.9999748689561633,-163.2018373203362
6.312,0.9999747559686653,-163.59194755148357
6.32,0.9999746596330389,-163.98194050193933
6.328,0.9999745794928824,-164.37181836909866
6.336,0.9999745150986206,-164.76158335504883
6.344,0.9999744660074495,-165.15123766647235
6.352,0.9999744317832793,-165.5407835145515
6.36,0.9999744119966831,-165.9302231148732
6.368,0.9999744062248365,-166.31955868733505
6.376,0.9999744140514727,-166.7087924560515
6.384,0.9999744350668152,-167.09792664926158
6.392,0.9999744688675339,-167.48696349923623
6.4,0.9999745150566826,-167.87590524218754
6.408,0.9999745732436499,-168.2647541181777
6.416,0.9999746430441016,-168.65351237102934
6.424,0.9999747240799256,-169.04218224823592
6.432,0.999974815979177,-169.43076600087346
6.44,0.99997491837603,-169.81926588351206
6.448,0.9999750309107142,-170.2076841541292
6.456,0.9999751532294658,-170.5960230740226
6.464,0.9999752849844727,-170.98428490772426
6.472,0.9999754258338164,-171.37247192291517
6.48,0.9999755754414286,-171.76058639034017
6.4879999999999995,0.999975733477022,-172.14863058372381
6.496,0.9999758996160505,-172.5366067796871
6.504,0.9999760735396451,-172.92451725766355
6.5120000000000005,0.9999762549345687,-173.3123642998177
6.52,0.9999764434931551,-173.70015019096198
6.5280000000000005,0.9999766389132636,-174.0878772184765
6.536,0.9999768408982178,-174.47554767222718
6.5440000000000005,0.9999770491567584,-174.863163844486
6.552,0.9999772634029876,-175.2507280298507
6.5600000000000005,0.999977483356319,-175.63824252516596
6.568,0.9999777087414189,-176.0257096294439
6.5760000000000005,0.9999779392881647,-176.41313164378636
6.584,0.999978174731582,-176.8005108713063
6.592,0.9999784148117971,-177.18784961705109
6.6,0.9999786592739872,-177.57515018792503
6.608,0.9999789078683252,-177.96241489261294
6.616,0.99997916034993,-178.34964604150392
6.624,0.9999794164788158,-178.73684594661597
6.632,0.9999796760198383,-179.12401692152034
6.64,0.9999799387426478,-179.51116128126674
6.648,0.9999802044216357,-179.898281342309
6.656,0.9999804728358849,179.7146205775694
6.664,0.9999807437691188,179.32754215932871
6.672,0.9999810170096537,178.94048108274663
6.68,0.9999812923503466,178.55343502649134
6.688,0.9999815695885454,178.1664016681941
6.696,0.9999818485260422,177.7793786845218
6.704,0.9999821289690218,177.39236375124904
6.712,0.9999824107280124,177.00535454332987
6.72,0.9999826936178408,176.61834873496946
6.728,0.999982977457578,176.2313439996952
6.736,0.9999832620704965,175.84433801042778
6.744,0.9999835472840187,175.45732843955176
6.752,0.9999838329296707,175.0703129589863
6.76,0.9999841188430356,174.68328924025516
6.768,0.9999844048637044,174.2962549545568
6.776,0.9999846908352297,173.90920777283415
6.784,0.9999849766050795,173.52214536584435
6.792,0.9999852620245903,173.135065404228
6.8,0.9999855469489205,172.74796555857836
6.808,0.9999858312370049,172.36084349951062
6.816,0.9999861147515089,171.97369689773063
6.824,0.9999863973587827,171.58652342410366
6.832,0.9999866789288159,171.19932074972303
6.84,0.9999869593351932,170.8120865459787
6.848,0.9999872384550494,170.42481848462543
6.856,0.9999875161690245,170.03751423785135
6.864,0.9999877923612195,169.65017147834575
6.872,0.9999880669191528,169.2627878793675
6.88,0.9999883397337169,168.87536111481296
6.888,0.9999886106991339,168.48788885928388
6.896,0.9999888797129131,168.10036878815535
6.904,0.9999891466758075,167.7127985776436
6.912,0.9999894114917711,167.325175904874
6.92,0.999989674067918,166.93749844794866
6.928,0.9999899343144784,166.54976388601443
6.936,0.9999901921447568,166.16196989933056
6.944,0.9999904474750924,165.7741141693366
6.952,0.999990700224815,165.38619437872018
6.96,0.9999909503162061,164.998208211485
6.968,0.999991197674457,164.61015335301863
6.976,0.9999914422276283,164.2220274901605
6.984,0.9999916839066103,163.83382831127005
6.992,0.9999919226450814,163.4455535062947
7.0,0.9999921583794706,163.05720076683804
7.008,0.9999923910489158,162.66876778622841
7.016,0.9999926205952264,162.2802522595869
7.024,0.9999928469628425,161.89165188389612
7.032,0.9999930700987979,161.50296435806874
7.04,0.9999932899526806,161.11418738301643
7.048,0.999993506476594,160.72531866171855
7.056,0.9999937196251215,160.33635589929136
7.064,0.999993929355286,159.9472968030573
7.072,0.9999941356265138,159.5581390826144
7.08,0.9999943384005975,159.1688804499058
7.088,0.9999945376416589,158.77951861928966
7.096,0.9999947333161123,158.39005130760927
7.104,0.9999949253926279,158.00047623426298
7.112,0.9999951138420965,157.61079112127499
7.12,0.9999952986375928,157.22099369336578
7.128,0.9999954797543399,156.83108167802334
7.136,0.9999956571696749,156.44105280557406
7.144,0.9999958308630125,156.05090480925438
7.152,0.9999960008158104,155.6606354252825
7.16,0.9999961670115363,155.27024239293038
7.168,0.9999963294356308,154.87972345459602
7.176,0.9999964880754759,154.48907635587614
7.184,0.9999966429203596,154.09829884563896
7.192,0.9999967939614438,153.70738867609782
7.2,0.9999969411917282,153.31634360288413
7.208,0.9999970846060204,152.92516138512198
7.216,0.9999972242009022,152.53383978550187
7.224,0.9999973599746943,152.14237657035557
7.232,0.999997491927429,151.75076950973119
7.24,0.9999976200608136,151.35901637746824
7.248,0.9999977443782003,150.9671149512737
7.256,0.999997864884555,150.57506301279787
7.264,0.9999979815864254,150.1828583477112
7.272,0.9999980944919105,149.790498745781
7.28,0.9999982036106277,149.39798200094882
7.288,0.9999983089536854,149.0053059114084
7.296,0.9999984105336498,148.61246827968378
7.304,0.9999985083645159,148.21946691270793
7.312,0.9999986024616779,147.8262996219019
7.32,0.9999986928418998,147.43296422325454
7.328,0.999998779523283,147.0394585374022
7.336,0.9999988625252414,146.64578038970953
7.344,0.9999989418684694,146.25192761035046
7.352,0.9999990175749147,145.85789803438956
7.36,0.9999990896677482,145.46368950186402
7.368,0.999999158171338,145.0692998578662
7.376,0.9999992231112182,144.67472695262666
7.384,0.9999992845140653,144.2799686415976
7.392,0.9999993424076656,143.88502278553688
7.4,0.9999993968208919,143.48988725059272
7.4079999999999995,0.9999994477836747,143.09455990838865
7.416,0.9999994953269747,142.6990386361092
7.4239999999999995,0.9999995394827575,142.30332131658642
7.432,0.999999580283966,141.90740583838593
7.4399999999999995,0.9999996177644941,141.51129009589522
7.448,0.9999996519591623,141.11497198941066
7.4559999999999995,0.999999682903689,140.71844942522668
7.464,0.9999997106346675,140.3217203157242
7.4719999999999995,0.9999997351895396,139.9247825794611
7.48,0.9999997566065698,139.5276341412615
7.4879999999999995,0.9999997749248212,139.13027293230766
7.496,0.9999997901841312,138.73269689023047
7.504,0.999999802425085,138.3349039592024
7.5120000000000005,0.9999998116889937,137.93689209002937
7.52,0.9999998180178687,137.53865924024493
7.5280000000000005,0.9999998214543969,137.14020337420342
7.536,0.9999998220419201,136.7415224631753
7.5440000000000005,0.999999819824408,136.3426144854415
7.552,0.9999998148464377,135.94347742639027
7.5600000000000005,0.9999998071531694,135.54410927861286
7.568,0.9999997967903222,135.1445080420012
7.5760000000000005,0.9999997838041544,134.74467172384547
7.584,0.9999997682414388,134.34459833893277
7.5920000000000005,0.9999997501494412,133.9442859096459
7.6,0.9999997295758982,133.54373246606374
7.6080000000000005,0.9999997065689955,133.14293604606104
7.616,0.9999996811773464,132.7418946954103
7.6240000000000006,0.9999996534499699,132.34060646788288
7.632,0.9999996234362692,131.93906942535224
7.640000000000001,0.9999995911860121,131.53728163789623
7.648,0.9999995567493086,131.13524118390197
7.656000000000001,0.9999995201765906,130.7329461501695
7.664,0.9999994815185919,130.33039463201777
7.672,0.9999994408263283,129.92758473338998
7.68,0.9999993981510762,129.5245145669605
7.688,0.9999993535443532,129.12118225424229
7.696,0.9999993070578997,128.71758592569455
7.704,0.9999992587436578,128.31372372083186
7.712,0.9999992086537529,127.90959378833323
7.72,0.9999991568404738,127.50519428615247
7.728,0.9999991033562551,127.10052338162879
7.736,0.9999990482536569,126.69557925159842
7.744,0.9999989915853479,126.29036008250678
7.752,0.999998933404086,125.8848640705214
7.76,0.9999988737627002,125.47908942164538
7.768,0.9999988127140725,125.07303435183196
7.776,0.9999987503111224,124.66669708709915
7.784,0.9999986866067851,124.26007586364572
7.792,0.9999986216539978,123.8531689279674
7.8,0.9999985555056812,123.44597453697405
7.808,0.9999984882147217,123.0384909581072
7.816,0.9999984198339561,122.63071646945889
7.824,0.9999983504161543,122.2226493598904
7.832,0.9999982800140025,121.81428792915221
7.84,0.999998208680086,121.40563048800465
7.848,0.9999981364668771,120.99667535833876
7.856,0.9999980634267142,120.58742087329838
7.864,0.9999979896117892,120.17786537740254
7.872,0.9999979150741312,119.76800722666869
7.88,0.9999978398655907,119.35784478873641
7.888,0.9999977640378256,118.9473764429921
7.896,0.9999976876422846,118.53660058069399
7.904,0.9999976107301946,118.12551560509792
7.912,0.9999975333525433,117.71411993158384
7.92,0.9999974555600676,117.3024119877828
7.928,0.9999973774032381,116.89039021370469
7.936,0.9999972989322442,116.47805306186656
7.944,0.9999972201969818,116.0653989974215
7.952,0.9999971412470393,115.6524264982882
7.96,0.9999970621316832,115.23913405528114
7.968,0.9999969828998458,114.82552017224121
7.976,0.9999969036001113,114.41158336616724
7.984,0.9999968242807038,113.99732216734756
7.992,0.9999967449894736,113.58273511949282
8.0,0.9999966657738857,113.16782077986878
8.008,0.9999965866810061,112.75257771943002
8.016,0.9999965077574912,112.33700452295386
8.024000000000001,0.9999964290495735,111.92109978917532
8.032,0.999996350603053,111.50486213092213
8.04,0.9999962724632828,111.08829017525026
8.048,0.9999961946751583,110.6713825635802
8.056000000000001,0.9999961172831073,110.25413795183383
8.064,0.9999960403310771,109.83655501057147
8.072,0.9999959638625253,109.4186324251291
8.08,0.9999958879204071,109.00036889575689
8.088000000000001,0.9999958125471667,108.58176313775762
8.096,0.9999957377847265,108.16281388162555
8.104,0.9999956636744758,107.74351987318555
8.112,0.9999955902572624,107.323879873733
8.120000000000001,0.9999955175733819,106.90389266017417
8.128,0.9999954456625684,106.48355702516635
8.136,0.9999953745639855,106.06287177725872
8.144,0.999995304316216,105.64183574103359
8.152000000000001,0.9999952349572544,105.22044775724807
8.16,0.9999951665244968,104.79870668297582
8.168,0.9999950990547334,104.37661139174882
8.176,0.9999950325841389,103.95416077370007
8.184000000000001,0.9999949671482647,103.53135373570628
8.192,0.9999949027820318,103.10818920153069
8.2,0.9999948395197218,102.68466611196584
8.208,0.9999947773949689,102.26078342497719
8.216000000000001,0.9999947164407545,101.83654011584662
8.224,0.9999946566893966,101.41193517731607
8.232,0.9999945981725468,100.986967619731
8.24,0.9999945409211797,100.56163647118458
8.248000000000001,0.9999944849655884,100.13594077766179
8.256,0.9999944303353776,99.70987960318341
8.264,0.9999943770594569,99.28345202995
8.272,0.9999943251660341,98.85665715848621
8.280000000000001,0.9999942746826115,98.42949410778529
8.288,0.9999942256359783,98.00196201545299
8.296,0.9999941780522048,97.57406003785164
8.304,0.9999941319566387,97.14578735024449
8.312,0.9999940873738986,96.71714314693992
8.32,0.9999940443278704,96.28812664143494
8.328,0.9999940028417009,95.8587370665596
8.336,0.999993962937795,95.42897367462001
8.344,0.9999939246378106,94.99883573754259
8.352,0.9999938879626527,94.56832254701665
8.36,0.9999938529324746,94.13743341463818
8.368,0.9999938195666681,93.70616767205198
8.376,0.9999937878838642,93.27452467109497
8.384,0.9999937579019272,92.84250378393769
8.392,0.9999937296379542,92.41010440322692
8.4,0.9999937031082697,91.97732594222657
8.408,0.9999936783284247,91.5441678349595
8.416,0.9999936553131937,91.11062953634762
8.424,0.999993634076571,90.67671052235282
8.432,0.9999936146317714,90.24241029011617
8.44,0.9999935969912261,89.80772835809782
8.448,0.9999935811665817,89.37266426621522
8.456,0.9999935671686989,88.93721757598192
8.464,0.9999935550076517,88.50138787064444
8.472,0.9999935446927256,88.06517475532004
8.48,0.9999935362324163,87.62857785713229
8.488,0.9999935296344311,87.19159682534736
8.496,0.9999935249056864,86.75423133150817
8.504,0.9999935220523081,86.31648106956932
8.512,0.9999935210796329,85.87834575602959
8.52,0.9999935219922064,85.43982513006522
8.528,0.9999935247937852,85.0009189536608
8.536,0.9999935294873366,84.56162701174073
8.544,0.9999935360750403,84.12194911229831
8.552,0.9999935445582879,83.68188508652528
8.56,0.9999935549376862,83.24143478893896
8.568,0.9999935672130571,82.80059809750983
8.576,0.9999935813834409,82.35937491378634
8.584,0.9999935974470958,81.91776516302049
8.592,0.9999936154015027,81.47576879429043
8.6,0.9999936352433647,81.03338578062356
8.608,0.9999936569686125,80.59061611911677
8.616,0.9999936805724057,80.14745983105713
8.624,0.9999937060491351,79.70391696203957
8.632,0.999993733392427,79.25998758208485
8.64,0.9999937625951464,78.81567178575462
8.648,0.9999937936494006,78.37096969226664
8.656,0.9999938265465418,77.92588144560698
8.664,0.9999938612771732,77.4804072146422
8.672,0.9999938978311509,77.03454719322862
8.68,0.9999939361975907,76.58830160032149
8.688,0.9999939763648708,76.14167068008098
8.696,0.9999940183206371,75.6946547019782
8.704,0.9999940620518097,75.24725396089778
8.712,0.9999941075445853,74.7994687772405
8.72,0.9999941547844453,74.35129949702255
8.728,0.9999942037561605,73.90274649197441
8.736,0.9999942544437961,73.45381015963653
8.744,0.9999943068307192,73.00449092345457
8.752,0.9999943608996039,72.55478923287116
8.76,0.9999944166324389,72.10470556341734
8.768,0.9999944740105328,71.65424041680038
8.776,0.9999945330145221,71.20339432099112
8.784,0.9999945936243774,70.75216783030774
8.792,0.9999946558194116,70.30056152549881
8.8,0.9999947195782863,69.84857601382284
8.808,0.9999947848790205,69.39621192912696
8.815999999999999,0.9999948516989974,68.94346993192217
8.824,0.9999949200149734,68.49035070945693
8.832,0.999994989803085,68.03685497578866
8.84,0.999995061038859,67.58298347185233
8.847999999999999,0.9999951336972196,67.12873696552661
8.856,0.9999952077524975,66.67411625169815
8.864,0.9999952831784402,66.21912215232312
8.872,0.9999953599482186,65.76375551648606
8.879999999999999,0.9999954380344386,65.30801722045605
8.888,0.9999955174091495,64.85190816774076
8.896,0.9999955980438539,64.39542928913774
8.904,0.9999956799095178,63.93858154278271
8.911999999999999,0.9999957629765802,63.481365914195166
8.92,0.9999958472149639,63.023783416321564
8.928,0.9999959325940849,62.56583508957573
8.936,0.9999960190828641,62.107522001876006
8.943999999999999,0.9999961066497369,61.64884524867961
8.952,0.999996195262665,61.18980595301442
8.96,0.999996284889147,60.73040526550779
8.968,0.9999963754962298,60.27064436441206
8.975999999999999,0.9999964670505186,59.81052445562697
8.984,0.9999965595181911,59.35004677271947
8.992,0.9999966528650064,58.88921257694046
9.0,0.9999967470563187,58.42802315723786
9.008,0.9999968420570875,57.96647983026674
9.016,0.9999969378318916,57.50458394039645
9.024000000000001,0.9999970343449399,57.04233685971464
9.032,0.9999971315600842,56.57973998802757
9.04,0.9999972294408314,56.11679475285714
9.048,0.9999973279503568,55.653502609434916
9.056000000000001,0.9999974270515162,55.18986504069297
9.064,0.9999975267068584,54.72588355725071
9.072,0.9999976268786391,54.26155969739842
9.08,0.9999977275288342,53.79689502707774
9.088000000000001,0.999997828619151,53.33189113985853
9.096,0.9999979301110438,52.866549656912056
9.104,0.9999980319657257,52.400872226980376
9.112,0.9999981341441834,51.93486052634269
9.120000000000001,0.9999982366071893,51.468516258778166
9.128,0.9999983393153179,51.00184115552447
9.136,0.9999984422289548,50.53483697523297
9.144,0.9999985453083162,50.06750550392044
9.152000000000001,0.9999986485134591,49.59984855491716
9.16,0.999998751804296,49.13186796881081
9.168,0.9999988551406096,48.66356561338674
9.176,0.9999989584820677,48.194943383564706
9.184000000000001,0.9999990617882353,47.72600320133202
9.192,0.9999991650185912,47.256747015672254
9.2,0.99999926813254,46.7871768024903
9.208,0.9999993710894292,46.3172945645339
9.216000000000001,0.9999994738485614,45.847102331311305
9.224,0.99999957636921,45.37660215900464
9.232,0.9999996786106329,44.90579613037941
9.24,0.9999997805320884,44.434686354690456
9.248000000000001,0.9999998820928485,43.96327496758402
9.256,0.9999999832522141,43.491564130995336
9.264,1.0,43.019556033042505
9.272,1.0,42.547252887916514
9.280000000000001,1.0,42.0746569357675
9.288,0.9999999999999999,41.601770442586556
9.296,0.9999999999999999,41.128595700083466
9.304,0.9999999999999999,40.655135025561
9.312000000000001,1.0,40.18139076178498
9.32,1.0,39.70736527685014
9.328,1.0,39.23306096404188
9.336,1.0,38.758480241694336
9.344,1.0,38.28362555304466
9.352,0.9999999999999999,37.80849936608215
9.36,1.0,37.33310417339498
9.368,1.0000000000000002,36.85744249201114
9.376,1.0,36.38151686323719
9.384,1.0,35.90532985249113
9.392,1.0,35.42888404913312
9.4,0.9999999999999999,34.952182066290355
9.408,1.0,34.47522654067985
9.416,1.0,33.99802013242516
9.424,0.9999999999999999,33.5205655248713
9.432,1.0,33.04286542439366
9.44,1.0,32.56492256020471
9.448,1.0,32.0867396841553
9.456,0.9999999999999999,31.608319570533318
9.464,1.0,31.129665015857153
9.472,1.0,30.650778838666742
9.48,0.9999999999999999,30.171663879309026
9.488,1.0,29.692322999721412
9.496,1.0,29.21275908320952
9.504,1.0,28.732975034222893
9.512,1.0,28.252973778125327
9.52,1.0,27.77275826096288
9.528,1.0,27.29233144922677
9.536,0.9999999999999999,26.81169632961389
9.544,0.9999999999999999,26.33085590878232
9.552,1.0,25.84981321310458
9.56,0.9999999999999999,25.36857128841573
9.568,1.0,24.887133199759578
9.576,1.0,24.40550203112942
9.584,0.9999999999999999,23.92368088520737
9.592,0.9999999999999998,23.441672883098
9.6,1.0000000000000002,22.959481164060666
9.608,1.0,22.47710888523644
9.616,1.0,21.994559221373514
9.624,1.0,21.511835364547483
9.632,1.0,21.02894052388011
9.64,1.0,20.545877925253084
9.648,1.0,20.062650811020315
9.656,0.9999999999999999,19.579262439715354
9.664,1.0,19.09571608575736
9.672,0.9999999999999998,18.61201503915238
