freq,mag,phase
6.0,0.999996035139506,81.10607854169717
6.008,0.9999963862067994,80.94865399016628
6.016,0.9999967263434718,80.79113132619415
6.024,0.9999970557354402,80.633510461157
6.032,0.9999973745667677,80.47579130695874
6.04,0.9999976830196713,80.3179737760337
6.048,0.999997981274532,80.16005778134962
6.056,0.9999982695099022,80.00204323641047
6.064,0.9999985479025152,79.84393005525925
6.072,0.9999988166272941,79.68571815248093
6.08,0.9999990758573599,79.52740744320525
6.088,0.9999993257640418,79.36899784310971
6.096,0.9999995665168839,79.21048926842228
6.104,0.9999997982836565,79.05188163592437
6.112,1.0,78.89317486295376
6.12,1.0,78.7343688674073
6.128,1.0,78.57546356774392
6.136,0.9999999999999999,78.41645888298753
6.144,1.0,78.2573547327298
6.152,1.0,78.09815103713309
6.16,1.0,77.93884771693337
6.168,1.0,77.77944469344301
6.176,0.9999999999999999,77.61994188855381
6.184,0.9999999999999999,77.46033922473973
6.192,0.9999999999999999,77.30063662505988
6.2,1.0,77.14083401316134
6.208,1.0,76.98093131328216
6.216,1.0,76.82092845025412
6.224,1.0,76.66082534950569
6.232,0.9999999999999999,76.50062193706493
6.24,1.0,76.34031813956237
6.248,1.0,76.17991388423387
6.256,1.0,76.01940909892356
6.264,1.0,75.85880371208673
6.272,0.9999999999999999,75.69809765279268
6.28,0.9999999999999999,75.53729085072773
6.288,1.0,75.37638323619791
6.296,1.0,75.21537474013208
6.304,1.0,75.0542652940847
6.312,0.9999999999999999,74.89305483023874
6.32,0.9999999999999999,74.73174328140858
6.328,0.9999999999999999,74.57033058104298
6.336,1.0,74.40881666322781
6.344,1.0,74.24720146268913
6.352,0.9999999999999999,74.08548491479597
6.36,1.0,73.92366695556326
6.368,1.0,73.76174752165473
6.376,1.0000000000000002,73.59972655038574
6.384,1.0,73.43760397972632
6.392,0.9999999999999999,73.27537974830393
6.4,1.0,73.11305379540634
6.408,0.9999999999999999,72.9506260609847
6.416,1.0,72.78809648565617
6.424,0.9999999999999999,72.62546501070702
6.432,1.0000000000000002,72.46273157809541
6.44,0.9999999999999998,72.29989613045431
6.448,0.9999999999999999,72.13695861109443
6.456,1.0,71.973918964007
6.464,1.0,71.81077713386671
6.472,0.9999999999999999,71.64753306603464
6.48,0.9999999999999999,71.48418670656103
6.4879999999999995,1.0,71.32073800218828
6.496,0.9999999999999999,71.1571869003537
6.504,0.9999999999999998,70.9935333491925
6.5120000000000005,1.0,70.82977729754056
6.52,0.9999999999999999,70.66591869493746
6.5280000000000005,0.9999999999999999,70.50195749162906
6.536,1.0,70.33789363857073
6.5440000000000005,1.0,70.17372708742987
6.552,1.0,70.00945779058907
6.5600000000000005,0.9999999999999999,69.84508570114869
6.568,1.0,69.68061077293
6.5760000000000005,1.0,69.51603296047774
6.584,0.9999999999999999,69.35135221906326
6.592,0.9999999999999999,69.18656850468712
6.6,0.9999999999999999,69.02168177408203
6.608,0.9999999999999998,68.85669198471581
6.616,0.9999999999999999,68.69159909479404
6.624,1.0,68.52640306326299
6.632,1.0,68.36110384981242
6.64,1.0,68.1957014148785
6.648,1.0,68.03019571964644
6.656,1.0,67.86458672605357
6.664,0.9999999999999999,67.6988743967919
6.672,0.9999999999999999,67.53305869531111
6.68,0.9999999999999999,67.36713958582135
6.688,1.0,67.20111703329589
6.696,1.0,67.03499100347412
6.704,1.0,66.86876146286423
6.712,1.0,66.70242837874602
6.72,0.9999999999999998,66.53599171917372
6.728,1.0,66.36945145297877
6.736,1.0,66.20280754977253
6.744,1.0,66.03605997994916
6.752,0.9999999999999999,65.86920871468831
6.76,0.9999999999999999,65.70225372595793
6.768,1.0,65.53519498651701
6.776,1.0,65.36803246991835
6.784,0.9999999999999999,65.20076615051127
6.792,1.0,65.03339600344441
6.8,1.0,64.8659220046684
6.808,1.0,64.69834413093871
6.816,1.0000000000000002,64.53066235981821
6.824,0.9999999999999999,64.36287666968003
6.832,1.0,64.19498703971024
6.84,0.9999999999999999,64.02699344991052
6.848,0.9999999809258695,63.858895881100885
6.856,0.9999998947992056,63.69069431492243
6.864,0.999999808867238,63.52238873383991
6.872,0.9999997231696897,63.353979121144555
6.88,0.9999996377453919,63.18546546095664
6.888,0.9999995526322946,63.016847738228215
6.896,0.9999994678674738,62.84812593874577
6.904,0.9999993834871427,62.67930004913286
6.912,0.9999992995266572,62.510370056852736
6.92,0.9999992160205283,62.34133595021108
6.928,0.9999991330024292,62.17219771835857
6.936,0.9999990505052038,62.00295535129348
6.944,0.9999989685608764,61.83360883986437
6.952,0.9999988872006604,61.66415817577268
6.96,0.999998806454967,61.494603351575286
6.968,0.999998726353413,61.32494436068718
6.976,0.9999986469248316,61.15518119738397
6.984,0.9999985681972796,60.985313856804524
6.992,0.9999984901980463,60.81534233495355
7.0,0.9999984129536624,60.645266628704086
7.008,0.9999983364899094,60.47508673580013
7.016,0.999998260831827,60.304802654859145
7.024,0.9999981860037226,60.13441438537464
7.032,0.9999981120291794,59.96392192771864
7.04,0.9999980389310655,59.793325283144235
7.048,0.9999979667315433,59.62262445378815
7.056,0.9999978954520751,59.451819442673134
7.064,0.999997825113435,59.28091025371053
7.072,0.9999977557357165,59.109896891702725
7.08,0.9999976873383388,58.93877936234566
7.088,0.9999976199400586,58.76755767223129
7.096,0.9999975535589767,58.596231828849966
7.104,0.9999974882125464,58.42480184059295
7.112,0.9999974239175824,58.25326771675488
7.12,0.9999973606902698,58.08162946753605
7.128,0.9999972985461707,57.909887104045
7.136,0.9999972375002341,57.73804063830083
7.144,0.9999971775668038,57.566090083235565
7.152,0.9999971187596264,57.394035452696585
7.16,0.9999970610918602,57.22187676144899
7.168,0.9999970045760821,57.04961402517793
7.176,0.9999969492242979,56.877247260491025
7.184,0.999996895047949,56.704776484920565
7.192,0.9999968420579203,56.532201716926025
7.2,0.9999967902645499,56.359522975896205
7.208,0.9999967396776352,56.1867402821516
7.216,0.9999966903064434,56.01385365694676
7.224,0.9999966421597168,55.84086312247244
7.232,0.9999965952456832,55.66776870185792
7.24,0.9999965495720627,55.49457041917338
7.248,0.9999965051460753,55.32126829943189
7.256,0.9999964619744505,55.14786236859188
7.264,0.999996420063433,54.97435265355919
7.272,0.9999963794187929,54.800739182189396
7.28,0.9999963400458314,54.627021983289914
7.288,0.99999630194939,54.45320108662225
7.296,0.9999962651338576,54.2792765229041
7.304,0.9999962296031791,54.10524832381152
7.312,0.9999961953608617,53.931116521981096
7.32,0.9999961624099845,53.75688115101204
7.328,0.9999961307532036,53.58254224546833
7.336,0.9999961003927625,53.408099840880745
7.344,0.9999960713304974,53.23355397374903
7.352,0.999996043567847,53.0589046815439
7.36,0.9999960171058574,52.884152002709165
7.368,0.9999959919451913,52.70929597666365
7.376,0.9999959680861358,52.53433664380336
7.384,0.9999959455286078,52.35927404550344
7.392,0.9999959242721638,52.18410822412012
7.4,0.9999959043160055,52.00883922299276
7.4079999999999995,0.9999958856589878,51.833467086445864
7.416,0.9999958682996261,51.65799185979077
7.4239999999999995,0.9999958522361031,51.48241358932805
7.432,0.9999958374662767,51.30673232234892
7.4399999999999995,0.9999958239876862,51.13094810713761
7.448,0.9999958117975599,50.95506099297282
7.4559999999999995,0.9999958008928229,50.779071030129984
7.464,0.9999957912701027,50.60297826988284
7.4719999999999995,0.9999957829257375,50.42678276450546
7.48,0.999995775855782,50.25048456727391
7.4879999999999995,0.9999957700560154,50.07408373246829
7.496,0.9999957655219475,49.897580315374185
7.504,0.9999957622488259,49.72097437228487
7.5120000000000005,0.9999957602316422,49.544265960502635
7.52,0.9999957594651402,49.367455138340915
7.5280000000000005,0.9999957599438206,49.19054196512565
7.536,0.9999957616619498,49.01352650119736
7.5440000000000005,0.9999957646135641,48.8364088079125
7.552,0.9999957687924789,48.65918894764539
7.5600000000000005,0.9999957741922927,48.48186698378968
7.568,0.999995780806396,48.304442980760186
7.5760000000000005,0.9999957886279756,48.12691700399424
7.584,0.9999957976500224,47.94928911995361
7.5920000000000005,0.9999958078653374,47.771559396125774
7.6,0.9999958192665376,47.59372790102579
7.6080000000000005,0.9999958318460628,47.415794704197516
7.616,0.9999958455961819,47.237759876215456
7.6240000000000006,0.9999958605089979,47.059623488685986
7.632,0.9999958765764557,46.881385614249105
7.640000000000001,0.9999958937903469,46.703046326579646
7.648,0.9999959121423169,46.52460570038903
7.656000000000001,0.9999959316238699,46.34606381142633
7.664,0.9999959522263748,46.16742073648006
7.672,0.9999959739410721,45.98867655337926
7.68,0.9999959967590792,45.80983134099508
7.688,0.9999960206713957,45.630885179242036
7.696,0.99999604566891,45.45183814907936
7.704,0.9999960717424045,45.27269033251231
7.712,0.9999960988825608,45.093441812593476
7.72,0.9999961270799663,44.914092673424044
7.728,0.9999961563251193,44.73464300015507
7.736,0.999996186608434,44.55509287898865
7.744,0.9999962179202468,44.375442397179256
7.752,0.9999962502508212,44.19569164303477
7.76,0.9999962835903528,44.01584070591774
7.768,0.9999963179289751,43.83588967624655
7.776,0.999996353256765,43.65583864549649
7.784,0.9999963895637473,43.47568770620088
7.792,0.9999964268398995,43.295436951952155
7.8,0.9999964650751589,43.11508647740295
7.808,0.9999965042594249,42.9346363782671
7.816,0.9999965443825657,42.75408675132066
7.824,0.9999965854344225,42.57343769440296
7.832,0.9999966274048153,42.392689306417495
7.84,0.9999966702835466,42.211841687332935
7.848,0.999996714060406,42.030894938184
7.856,0.9999967587251767,41.84984916107246
7.864,0.9999968042676377,41.66870445916789
7.872,0.9999968506775703,41.487460936708636
7.88,0.9999968979447614,41.306118699002596
7.888,0.9999969460590094,41.12467785242805
7.896,0.9999969950101261,40.943138504434465
7.904,0.9999970447879443,40.76150076354322
7.912,0.9999970953823192,40.57976473934836
7.92,0.9999971467831346,40.39793054251741
7.928,0.9999971989803059,40.21599828479189
7.936,0.9999972519637851,40.03396807898812
7.944,0.9999973057235642,39.85184003899788
7.952,0.9999973602496792,39.66961427978893
7.96,0.9999974155322152,39.487290917405694
7.968,0.9999974715613084,39.30487006896979
7.976,0.9999975283271513,39.12235185268061
7.984,0.9999975858199963,38.939736387815806
7.992,0.999997644030159,38.75702379473185
8.0,0.9999977029480228,38.574214194864446
8.008,0.9999977625640407,38.39130771072903
8.016,0.9999978228687404,38.20830446592111
8.024000000000001,0.9999978838527274,38.02520458511681
8.032,0.9999979455066886,37.84200819407316
8.04,0.9999980078213948,37.65871541962839
8.048,0.999998070787705,37.475326389702296
8.056000000000001,0.9999981343965688,37.2918412332966
8.064,0.9999981986390308,37.10826008049523
8.072,0.9999982635062322,36.92458306246437
8.08,0.9999983289894149,36.74081031145286
8.088000000000001,0.9999983950799235,36.55694196079237
8.096,0.9999984617692105,36.372978144897594
8.104,0.9999985290488359,36.188918999266235
8.112,0.999998596910472,36.0047646604792
8.120000000000001,0.999998665345907,35.82051526620083
8.128,0.9999987343470451,35.63617095517877
8.136,0.9999988039059114,35.451731867244035
8.144,0.9999988740146534,35.267198143311
8.152000000000001,0.9999989446655435,35.08256992537757
8.16,0.9999990158509818,34.89784735652495
8.168,0.9999990875634983,34.71303058091749
8.176,0.9999991597957555,34.52811974380275
8.184000000000001,0.9999992325405497,34.34311499151136
8.192,0.9999993057908144,34.1580164714568
8.2,0.9999993795396223,33.97282433213521
8.208,0.9999994537801857,33.78753872312514
8.216000000000001,0.9999995285058609,33.60215979508743
8.224,0.999999603710149,33.4166876997649
8.232,0.9999996793866963,33.231122589981936
8.24,0.9999997555292994,33.0454646196442
8.248000000000001,0.9999998321319045,32.859713943738484
8.256,0.9999999091886087,32.673870718332076
8.264,0.9999999866936643,32.48793510057238
8.272,1.0,32.30190724868657
8.280000000000001,1.0,32.11578732198106
8.288,1.0,31.92957548084111
8.296,0.9999999999999999,31.74327188673008
8.304,0.9999999999999999,31.556876702189026
8.312,1.0000000000000002,31.370390090836157
8.32,0.9999999999999999,31.183812217366043
8.328,0.9999999999999999,30.997143247549204
8.336,1.0,30.810383348231188
8.344,1.0,30.62353268733206
8.352,1.0,30.436591433845518
8.36,1.0,30.24955975783829
8.368,1.0,30.06243783044918
8.376,1.0,29.875225823888414
8.384,0.9999999999999999,29.687923911436545
8.392,1.0,29.500532267443894
8.4,0.9999999999999999,29.313051067329287
8.408,1.0,29.125480487579438
8.416,1.0,28.93782070574766
8.424,0.9999999999999999,28.750071900453204
8.432,1.0,28.56223425137987
8.44,0.9999999999999999,28.374307939275266
8.448,1.0,28.186293145949403
8.456,0.9999999999999999,27.998190054273888
8.464,1.0,27.80999884818047
8.472,1.0,27.621719712660116
8.48,0.9999999999999999,27.433352833761493
8.488,1.0,27.244898398590124
8.496,1.0,27.056356595306614
8.504,1.0,26.867727613125833
8.512,1.0,26.67901164231515
8.52,1.0,26.49020887419342
8.528,0.9999999999999999,26.30131950112923
8.536,0.9999999999999999,26.112343716539833
8.544,1.0,25.92328171488929
8.552,1.0,25.73413369168736
8.56,0.9999999999999999,25.54489984348761
8.568,1.0,25.35558036788619
8.576,1.0,25.166175463519895
8.584,1.0,24.976685330064907
8.592,1.0,24.78711016823476
8.6,1.0,24.597450179779027
8.608,1.0,24.40770556748125
8.616,0.9999999999999999,24.217876535157522
8.624,1.0,24.027963287654345
8.632,1.0,23.837966030847202
8.64,1.0,23.647884971638337
8.648,0.9999999999999999,23.457720317955218
8.656,0.9999999999999999,23.267472278748286
8.664,0.9999999999999999,23.07714106398938
8.672,1.0,22.88672688466938
8.68,1.0,22.69622995279658
8.688,1.0,22.505650481394245
8.696,1.0,22.314988684498974
8.704,0.9999999999999999,22.124244777158175
8.712,0.9999999999999999,21.933418975428307
8.72,1.0,21.74251149637237
8.728,1.0,21.551522558058032
8.736,0.9999999999999999,21.360452379555074
8.744,1.0,21.169301180933452
8.752,1.0,20.978069183260654
8.76,0.9999999999999999,20.78675660859974
8.768,0.9999999999999999,20.59536368000661
8.776,0.9999999999999999,20.40389062152796
8.784,0.9999999999999999,20.212337658198518
8.792,1.0,20.020705016038928
8.8,1.0,19.828992922052905
8.808,1.0,19.637201604225083
8.815999999999999,0.9999999999999998,19.445331291518116
8.824,0.9999999999999999,19.253382213870264
8.832,1.0,19.061354602192804
8.84,1.0,18.869248688367346
8.847999999999999,1.0,18.677064705243037
8.856,1.0,18.48480288663392
8.864,1.0,18.292463467316278
8.872,1.0,18.100046683025795
8.879999999999999,1.0,17.907552770454565
8.888,1.0,17.71498196724845
8.896,1.0,17.5223345120042
8.904,0.9999999999999999,17.329610644266488
8.911999999999999,1.0,17.136810604524854
8.92,1.0,16.943934634210855
8.928,1.0,16.750982975695123
8.936,1.0,16.55795587228419
8.943999999999999,0.9999999999999998,16.364853568217423
8.952,1.0,16.171676308663915
8.96,1.0,15.978424339719476
8.968,1.0,15.785097908403362
8.975999999999999,1.0,15.591697262655002
8.984,0.9999999999999999,15.398222651330837
8.992,1.0,15.204674324201118
9.0,1.0,15.011052531946556
9.008,1.0,14.81735752615488
9.016,0.9999999999999999,14.623589559317573
9.024000000000001,1.0,14.429748884826544
9.032,1.0,14.235835756970644
9.04,0.9999999999999999,14.041850430932076
9.048,1.0,13.84779316278303
9.056000000000001,0.9999999999999999,13.653664209482208
9.064,0.9999999999999999,13.459463828871238
9.072,0.9999999999999999,13.265192279670915
9.08,1.0000000000000002,13.07084982147775
9.088000000000001,1.0,12.876436714760366
9.096,1.0,12.681953220855718
9.104,0.9999999999999998,12.487399601965313
9.112,1.0,12.292776121151556
9.120000000000001,0.9999999999999999,12.098083042334029
9.128,1.0,11.903320630285622
9.136,0.9999999999999999,11.708489150628592
9.144,0.9999999999999999,11.51358886983078
9.152000000000001,0.9999999999999999,11.318620055201803
9.16,0.9999999999999999,11.123582974889015
9.168,0.9999999999999998,10.92847789787347
9.176,1.0,10.733305093966003
9.184000000000001,1.0,10.538064833803288
9.192,1.0,10.342757388843705
9.2,1.0,10.147383031363145
9.208,1.0,9.951942034450981
9.216000000000001,1.0,9.75643467200602
9.224,1.0,9.560861218732207
9.232,1.0,9.365221950134343
9.24,0.9999999999999998,9.169517142513916
9.248000000000001,1.0,8.973747072964946
9.256,1.0,8.77791201936953
9.264,1.0,8.582012260393492
9.272,0.9999999999999999,8.386048075482046
9.280000000000001,0.9999999999999999,8.190019744855544
9.288,1.0,7.993927549504894
9.296,1.0,7.797771771187093
9.304,0.9999999999999999,7.601552692420767
9.312000000000001,1.0,7.4052705964817855
9.32,1.0,7.208925767398601
9.328,0.9999999999999999,7.012518489947607
9.336,0.9999999999999999,6.816049049648614
9.344,0.9999999999999998,6.619517732760336
9.352,0.9999999999999999,6.42292482627545
9.36,0.9999999999999999,6.22627061791622
9.368,1.0,6.0295553961294575
9.376,1.0,5.832779450082101
9.384,1.0,5.63594306965609
9.392,1.0000000000000002,5.439046545443914
9.4,0.9999999999999999,5.242090168743426
9.408,0.9999999999999999,5.045074231553312
9.416,1.0,4.847999026567882
9.424,1.0,4.650864847172453
9.432,0.9999999999999999,4.453671987438081
9.44,1.0,4.256420742116927
9.448,1.0,4.059111406636893
9.456,0.9999999999999999,3.8617442770969324
9.464,1.0,3.6643196502616693
9.472,1.0,3.466837823556609
9.48,1.0,3.269299095062727
9.488,1.0,3.071703763511628
9.496,1.0,2.87405212828003
9.504,0.9999999999999999,2.6763444893849533
9.512,1.0,2.478581147478104
9.52,0.9999999999999999,2.280762403840979
9.528,1.0,2.082888560379239
9.536,0.9999999999999998,1.8849599196177689
9.544,0.9999999999999999,1.6869767846949548
9.552,0.9999999999999999,1.488939459357722
9.56,1.0,1.2908482479557595
9.568,0.9999999999999998,1.0927034554364687
9.576,1.0,0.894505387339191
9.584,1.0,0.6962543497900762
9.592,0.9999999999999999,0.49795064949624496
9.6,1.0,0.2995945937406331
9.608,0.9999999999999999,0.10118649037608396
9.616,1.0,-0.09727335217984757
9.624,1.0,-0.2957846249508618
9.632,1.0,-0.49434701840716033
9.64,1.0,-0.6929602224714358
9.648,1.0,-0.8916239265242142
9.656,0.9999999999999999,-1.0903378194098652
9.664,1.0,-1.2891015894419806
9.672,1.0,-1.4879149244094767
9.68,0.9999999999999998,-1.6867775115819865
9.688,1.0,-1.885689037716008
9.696,1.0,-2.0846491890603644
9.704,0.9999999999999999,-2.2836576513623967
9.712,1.0,-2.482714109873462
9.72,1.0,-2.6818182493551683
9.728,0.9999999999999999,-2.8809697540849437
9.736,0.9999999999999999,-3.080168307862293
9.744,0.9999999999999999,-3.2794135940144145
9.752,0.9999999999999999,-3.4787052954025244
9.76,1.0,-3.678043094427495
9.768,0.9999999999999999,-3.8774266730362346
9.776,1.0,-4.076855712727376
9.784,0.9999999999999999,-4.276329894557689
9.792,1.0,-4.47584889914781
9.8,1.0,-4.675412406688719
9.808,0.9999999999999999,-4.875020096947504
9.816,0.9999999999999999,-5.074671649273861
9.824,0.9999999999999999,-5.274366742605929
9.832,1.0,-5.474105055476823
9.84,1.0,-5.673886266020501
9.847999999999999,1.0000000000000002,-5.873710051978302
9.856,1.0,-6.07357609070509
9.864,1.0,-6.273484059175411
9.872,0.9999999999999998,-6.47343363398991
9.879999999999999,0.9999999999999999,-6.673424491381713
9.888,1.0,-6.873456307222686
9.896,0.9999999999999999,-7.073528757029704
9.904,1.0,-7.273641515971119
9.911999999999999,1.0,-7.473794258873226
9.92,0.9999999999999999,-7.673986660226614
9.928,1.0,-7.874218394192508
9.936,0.9999999999999999,-8.074489134609294
9.943999999999999,1.0,-8.274798554999098
9.952,1.0,-8.475146328574176
9.96,0.9999999999999999,-8.675532128243352
9.968,1.0,-8.875955626618609
9.975999999999999,0.9999999999999999,-9.076416496021743
9.984,0.9999999999999999,-9.276914408490839
9.992,0.9999999999999999,-9.477449035786751
10.0,1.0,-9.678020049399796
10.008,1.0,-9.878627120556464
10.016,1.0,-10.079269920225956
10.024000000000001,1.0,-10.279948119126749
10.032,1.0,-10.480661387733353
10.04,1.0,-10.681409396283088
10.048,0.9999999999999999,-10.882191814782686
10.056000000000001,1.0,-11.083008313014924
10.064,1.0,-11.283858560545463
10.072,1.0,-11.484742226729647
10.08,0.9999999999999999,-11.685658980719232
10.088000000000001,0.9999999999999999,-11.886608491469023
10.096,0.9999999999999999,-12.087590427743809
