freq,mag,phase
6.0,0.999994467163321,-179.03918662114603
6.008,0.9999949670287991,-179.42123660742624
6.016,0.9999954505476869,-179.80328424427208
6.024,0.9999959180103171,179.81466606437573
6.032,0.9999963697037855,179.43260990672655
6.04,0.9999968059119736,179.05054286320728
6.048,0.999997226915566,178.66846050652853
6.056,0.9999976329920778,178.28635840175022
6.064,0.9999980244158719,177.90423210634623
6.072,0.9999984014581811,177.52207717026806
6.08,0.9999987643871294,177.13988913600787
6.088,0.9999991134677545,176.7576635386604
6.096,0.9999994489620293,176.375395905985
6.104,0.9999997711288805,175.99308175846573
6.112,1.0,175.61071660937208
6.12,0.9999999999999999,175.22829596481807
6.128,1.0000000000000002,174.84581532382154
6.136,1.0,174.46327017836228
6.144,1.0,174.08065601344015
6.152,0.9999999999999999,173.69796830713256
6.16,1.0,173.3152025306514
6.168,0.9999999999999999,172.9323541483998
6.176,1.0000000000000002,172.5494186180287
6.184,0.9999999999999999,172.16639139049252
6.192,1.0,171.78326791010525
6.2,1.0,171.400043614596
6.208,1.0,171.0167139351645
6.216,1.0,170.63327429653614
6.224,0.9999999999999998,170.24972011701757
6.232,0.9999999999999998,169.8660468085517
6.24,1.0,169.48224977677268
6.248,1.0,169.09832442106145
6.256,1.0,168.71426613460082
6.264,0.9999999999999998,168.33007030443085
6.272,0.9999999999999999,167.94573231150466
6.28,1.0,167.56124753074388
6.288,0.9999999999999999,167.176611331095
6.296,1.0,166.79181907558555
6.304,1.0,166.4068661213808
6.312,1.0,166.0217478198409
6.32,0.9999999999999998,165.63645951657804
6.328,1.0,165.25099655151507
6.336,1.0,164.86535425894328
6.344,1.0,164.4795279675819
6.352,0.9999999999999999,164.0935130006375
6.36,1.0,163.70730467586458
6.368,1.0,163.32089830562632
6.376,1.0,162.93428919695643
6.384,0.9999999999999998,162.54747265162177
6.392,0.9999999999999999,162.1604439661858
6.4,0.9999999999999999,161.77319843207255
6.408,1.0,161.38573133563233
6.416,0.9999999999999999,160.99803795820753
6.424,0.9999999999999999,160.6101135762001
6.432,0.9999999999999999,160.22195346113986
6.44,0.9999999999999999,159.83355287975394
6.448,0.9999999999999999,159.4449070940373
6.456,1.0,159.05601136132478
6.464,1.0,158.66686093436428
6.472,0.9999999999999999,158.2774510613911
6.48,1.0,157.88777698620385
6.4879999999999995,0.9999999999999999,157.49783394824192
6.496,1.0,157.10761718266394
6.504,1.0000000000000002,156.71712192042864
6.5120000000000005,1.0,156.32634338837605
6.52,0.9999999999999999,155.9352768093118
6.5280000000000005,0.9999999999999999,155.54391740209172
6.536,1.0,155.15226038170948
6.5440000000000005,1.0,154.76030095938472
6.552,1.0,154.36803434265437
6.5600000000000005,0.9999999999999999,153.97545573546458
6.568,1.0,153.58256033826586
6.5760000000000005,1.0,153.1893433481091
6.584,1.0,152.79579995874465
6.592,0.9999999999999999,152.40192536072271
6.6,1.0,152.00771474149644
6.608,0.9999999999999999,151.6131632855273
6.616,0.9999999999999999,151.21826617439214
6.624,1.0,150.82301858689348
6.632,0.9999999999999999,150.4274156991715
6.64,0.9999999999999999,150.03145268481882
6.648,0.9999999999999999,149.63512471499786
6.656,0.9999999999999999,149.23842695856067
6.664,0.9999999999999999,148.84135458217128
6.672,0.9999999999999999,148.44390275043125
6.68,1.0,148.04606662600727
6.688,1.0,147.6478413697623
6.696,0.9999999999999999,147.2492221408891
6.704,1.0,146.85020409704694
6.712,1.0,146.4507823945013
6.72,1.0,146.05095218826656
6.728,1.0,145.65070863225205
6.736,1.0,145.2500468794109
6.744,1.0,144.84896208189244
6.752,0.9999999999999999,144.4474493911981
6.76,1.0,144.0455039583402
6.768,0.9999999340465408,143.64312093400457
6.776,0.9999997956231262,143.24029546871665
6.784,0.9999996569128068,142.837022713011
6.792,0.9999995179865275,142.4332978176045
6.8,0.9999993789137864,142.02911593357354
6.808,0.9999992397626452,141.62447221253453
6.816,0.999999100599746,141.21936180682857
6.824,0.9999989614903242,140.81377986970995
6.832,0.9999988224982208,140.4077215555387
6.84,0.9999986836858967,140.00118201997685
6.848,0.9999985451144472,139.5941564201892
6.856,0.9999984068436117,139.18663991504818
6.864,0.9999982689317912,138.77862766534258
6.872,0.9999981314360586,138.37011483399118
6.88,0.9999979944121717,137.96109658626025
6.888,0.999997857914587,137.55156808998572
6.896,0.9999977219964716,137.1415245157998
6.904,0.9999975867097174,136.73096103736228
6.912,0.9999974521049513,136.31987283159634
6.92,0.9999973182315492,135.90825507892907
6.928,0.9999971851376479,135.4961029635368
6.936,0.9999970528701585,135.0834116735955
6.944,0.999996921474776,134.67017640153557
6.952,0.9999967909959948,134.25639234430216
6.96,0.9999966614771172,133.8420547036202
6.968,0.999996532960268,133.42715868626473
6.976,0.9999964054864057,133.01169950433626
6.984,0.9999962790953335,132.5956723755416
6.992,0.999996153825711,132.17907252347965
7.0,0.9999960297150676,131.7618951779331
7.008,0.9999959067998113,131.34413557516498
7.016,0.9999957851152425,130.9257889582213
7.024,0.999995664695564,130.50685057723894
7.032,0.999995545573893,130.08731568975924
7.04,0.9999954277822725,129.6671795610474
7.048,0.99999531135168,129.24643746441765
7.056,0.9999951963120427,128.8250846815642
7.064,0.9999950826922462,128.40311650289823
7.072,0.9999949705201444,127.98052822789074
7.08,0.9999948598225722,127.55731516542158
7.088,0.999994750625356,127.13347263413443
7.096,0.9999946429533236,126.7089959627982
7.104,0.9999945368303158,126.28388049067438
7.112,0.9999944322791959,125.85812156789092
7.12,0.9999943293218615,125.43171455582245
7.128,0.9999942279792552,125.00465482747674
7.136,0.9999941282713721,124.5769377678879
7.144,0.9999940302172748,124.14855877451592
7.152,0.9999939338350987,123.71951325765299
7.16,0.9999938391420671,123.2897966408364
7.168,0.9999937461544977,122.85940436126803
7.176,0.9999936548878137,122.42833187024087
7.184,0.999993565356556,121.99657463357222
7.192,0.99999347757439,121.56412813204379
7.2,0.9999933915541174,121.13098786184868
7.208,0.9999933073076872,120.69714933504561
7.216,0.9999932248462029,120.26260808001976
7.224,0.9999931441799353,119.82735964195119
7.232,0.9999930653183272,119.3913995832898
7.24,0.9999929882700116,118.95472348423823
7.248,0.9999929130428133,118.51732694324122
7.256,0.9999928396437628,118.07920557748285
7.264,0.9999927680791054,117.6403550233906
7.272,0.9999926983543111,117.20077093714734
7.28,0.9999926304740808,116.76044899520988
7.288,0.9999925644423631,116.31938489483595
7.296,0.9999925002623543,115.87757435461779
7.304,0.9999924379365177,115.43501311502371
7.312,0.9999923774665841,114.99169693894696
7.32,0.9999923188535698,114.5476216122623
7.328,0.9999922620977771,114.1027829443901
7.336,0.9999922071988115,113.65717676886794
7.344,0.9999921541555878,113.21079894392992
7.352,0.9999921029663371,112.76364535309372
7.36,0.9999920536286205,112.31571190575512
7.368,0.9999920061393354,111.86699453779032
7.376,0.9999919604947269,111.4174892121659
7.384,0.9999919166903952,110.96719191955654
7.392,0.999991874721305,110.51609867897034
7.4,0.9999918345817964,110.06420553838191
7.4079999999999995,0.9999917962655931,109.6115085753733
7.416,0.9999917597658111,109.15800389778214
7.4239999999999995,0.9999917250749678,108.70368764435835
7.432,0.9999916921849932,108.24855598542739
7.4399999999999995,0.9999916610872361,107.7926051235625
7.448,0.9999916317724767,107.33583129426316
7.4559999999999995,0.9999916042309329,106.87823076664282
7.464,0.99999157845227,106.41979984412234
7.4719999999999995,0.9999915544256113,105.96053486513311
7.48,0.9999915321395468,105.50043220382567
7.4879999999999995,0.9999915115821396,105.03948827078779
7.496,0.9999914927409402,104.57769951376814
7.504,0.999991475602992,104.11506241840934
7.5120000000000005,0.9999914601548403,103.65157350898649
7.52,0.999991446382544,103.1872293491548
7.5280000000000005,0.999991434271683,102.722026542703
7.536,0.9999914238073669,102.25596173431532
7.5440000000000005,0.999991414974246,101.78903161033928
7.552,0.9999914077565194,101.321232899562
7.5600000000000005,0.999991402137944,100.85256237399217
7.568,0.9999913981018443,100.38301684965026
7.5760000000000005,0.999991395631122,99.9125931873641
7.584,0.9999913947082639,99.44128829357305
7.5920000000000005,0.9999913953153529,98.96909912113692
7.6,0.999991397434076,98.49602267015328
7.6080000000000005,0.9999914010457329,98.02205598877947
7.616,0.9999914061312484,97.54719617406279
7.6240000000000006,0.9999914126711786,97.0714403727752
7.632,0.9999914206457219,96.59478578225563
7.640000000000001,0.9999914300347267,96.11722965125703
7.648,0.9999914408177035,95.63876928080052
7.656000000000001,0.9999914529738321,95.15940202503386
7.664,0.9999914664819711,94.67912529209711
7.672,0.9999914813206687,94.19793654499203
7.68,0.9999914974681718,93.71583330245826
7.688,0.9999915149024337,93.23281313985356
7.696,0.9999915336011254,92.74887369003955
7.704,0.999991553541646,92.26401264427194
7.712,0.9999915747011292,91.77822775309549
7.72,0.9999915970564555,91.29151682724327
7.728,0.999991620584261,90.80387773854022
7.736,0.9999916452609465,90.31530842081047
7.744,0.9999916710626876,89.82580687078881
7.752,0.9999916979654446,89.33537114903538
7.76,0.9999917259449721,88.84399938085393
7.768,0.999991754976827,88.35168975721301
7.776,0.999991785036382,87.85844053567023
7.784,0.9999918160988307,87.36425004129896
7.792,0.9999918481392016,86.86911666761753
7.8,0.9999918811323645,86.3730388775206
7.808,0.9999919150530424,85.87601520421214
7.816,0.9999919498758213,85.3780442521403
7.824,0.9999919855751579,84.87912469793338
7.832,0.9999920221253918,84.37925529133679
7.84,0.9999920595007549,83.8784348561509
7.848,0.9999920976753806,83.3766622911692
7.856,0.999992136623313,82.87393657111647
7.864,0.9999921763185193,82.37025674758692
7.872,0.9999922167348971,81.86562194998169
7.88,0.9999922578462863,81.36003138644544
7.888,0.9999922996264773,80.85348434480188
7.896,0.999992342049222,80.34598019348753
7.904,0.9999923850882445,79.83751838248381
7.912,0.9999924287172489,79.32809844424656
7.92,0.9999924729099312,78.81771999463334
7.928,0.9999925176399885,78.30638273382719
7.936,0.9999925628811287,77.79408644725746
7.944,0.9999926086070812,77.28083100651658
7.952,0.9999926547916062,76.76661637027276
7.96,0.9999927014085048,76.25144258517797
7.968,0.9999927484316296,75.73530978677114
7.976,0.9999927958348932,75.21821820037566
7.984,0.9999928435922802,74.70016814199134
7.992,0.9999928916778551,74.18116001917981
8.0,0.9999929400657727,73.66119433194342
8.008,0.9999929887302894,73.14027167359696
8.016,0.9999930376457712,72.61839273163143
8.024000000000001,0.9999930867867044,72.09555828857053
8.032,0.9999931361277055,71.57176922281795
8.04,0.9999931856435302,71.04702650949552
8.048,0.9999932353090849,70.52133122127265
8.056000000000001,0.9999932850994336,69.9946845291855
8.064,0.9999933349898105,69.46708770344556
8.072,0.9999933849556274,68.93854211423711
8.08,0.9999934349724847,68.40904923250392
8.088000000000001,0.9999934850161802,67.8786106307239
8.096,0.9999935350627185,67.34722798367098
8.104,0.9999935850883213,66.81490306916409
8.112,0.9999936350694355,66.28163776880314
8.120000000000001,0.9999936849827431,65.74743406869106
8.128,0.9999937348051713,65.21229406014109
8.136,0.9999937845138998,64.67621994036885
8.144,0.9999938340863712,64.13921401316964
8.152000000000001,0.9999938835002999,63.60127868957962
8.16,0.9999939327336806,63.06241648852003
8.168,0.9999939817647975,62.5226300374243
8.176,0.9999940305722326,61.981922072848036
8.184000000000001,0.9999940791348747,61.44029544106107
8.192,0.9999941274319283,60.89775309862009
8.2,0.9999941754429208,60.35429811292241
8.208,0.9999942231477125,59.80993366274024
8.216000000000001,0.999994270526503,59.26466303873486
8.224,0.9999943175598411,58.718489643949546
8.232,0.999994364228632,58.17141699428121
8.24,0.9999944105141443,57.62344871893053
8.248000000000001,0.9999944563980196,57.07458856082998
8.256,0.9999945018622779,56.52484037704837
8.264,0.9999945468893269,55.97420813917197
8.272,0.999994591461969,55.42269593366228
8.280000000000001,0.9999946355634068,54.87030796218944
8.288,0.9999946791772532,54.31704854193998
8.296,0.9999947222875349,53.76292210589946
8.304,0.9999947648787006,53.207933203109434
8.312,0.9999948069356286,52.65208649889821
8.32,0.9999948484436316,52.09538677508349
8.328,0.9999948893884633,51.537838930149384
8.336,0.9999949297563246,50.97944797939372
8.344,0.9999949695338695,50.42021905504882
8.352,0.9999950087082101,49.8601574063717
8.36,0.9999950472669223,49.29926839970693
8.368,0.9999950851980519,48.73755751851772
8.376,0.9999951224901181,48.17503036338912
8.384,0.9999951591321203,47.61169265199859
8.392,0.9999951951135401,47.04755021905751
8.4,0.9999952304243476,46.48260901621954
8.408,0.9999952650550057,45.91687511195914
8.416,0.9999952989964722,45.350354691416044
8.424,0.9999953322402062,44.783054056209245
8.432,0.9999953647781694,44.21497962421612
8.44,0.9999953966028298,43.646137929320524
8.448,0.9999954277071654,43.076535621125224
8.456,0.9999954580846663,42.50617946463273
8.464,0.9999954877293381,41.935076339889925
8.472,0.9999955166357024,41.36323324160033
8.48,0.9999955447988016,40.79065727869989
8.488,0.999995572214197,40.217355673899704
8.496,0.9999955988779743,39.6433357631917
8.504,0.9999956247867414,39.068604995321195
8.512,0.9999956499376313,38.4931709312216
8.52,0.9999956743283027,37.91704124341568
8.528,0.9999956979569395,37.340223715379025
8.536,0.9999957208222521,36.762726240869256
8.544,0.9999957429234763,36.18455682321735
8.552,0.9999957642603726,35.605723574584765
8.56,0.9999957848332277,35.026234715182085
8.568,0.9999958046428512,34.44609857245357
8.576,0.9999958236905753,33.865323580223034
8.584,0.999995841978253,33.28391827780562
8.592,0.9999958595082569,32.701891309080885
8.6,0.9999958762834764,32.119251421531665
8.608,0.9999958923073157,31.536007465244488
8.616,0.9999959075836913,30.95216839187594
8.624,0.9999959221170281,30.367743253580503
8.632,0.9999959359122577,29.782741201904575
8.64,0.9999959489748133,29.197171486642482
8.648,0.9999959613106271,28.61104345465868
8.656,0.9999959729261251,28.02436654867233
8.664,0.999995983828224,27.437150306008625
8.672,0.9999959940243254,26.849404357312675
8.68,0.999996003522311,26.261138425230808
8.688,0.9999960123305386,25.672362323054806
8.696,0.9999960204578342,25.08308595333425
8.704,0.9999960279134886,24.493319306452438
8.712,0.99999603470725,23.903072459170797
8.72,0.9999960408493183,23.312355573137967
8.728,0.9999960463503371,22.721178893367895
8.736,0.9999960512213893,22.129552746683384
8.744,0.9999960554739872,21.537487540129682
8.752,0.999996059120067,20.944993759354265
8.76,0.9999960621719804,20.35208196695755
8.768,0.999996064642487,19.758762800811073
8.776,0.999996066544745,19.165046972347298
8.784,0.9999960678923047,18.570945264818107
8.792,0.9999960686990974,17.976468531526145
8.8,0.9999960689794296,17.38162769402573
8.808,0.9999960687479704,16.786433740298154
8.815999999999999,0.9999960680197449,16.190897722897695
8.824,0.9999960668101227,15.595030757072562
8.832,0.9999960651348094,14.998844018859804
8.84,0.9999960630098361,14.402348743154604
8.847999999999999,0.9999960604515487,13.805556221755111
8.856,0.9999960574765983,13.208477801384113
8.864,0.9999960541019294,12.611124881687802
8.872,0.9999960503447709,12.013508913211782
8.879999999999999,0.9999960462226235,11.415641395355749
8.888,0.9999960417532484,10.81753387430809
8.896,0.999996036954658,10.219197940960697
8.904,0.9999960318451018,9.620645228804387
8.911999999999999,0.9999960264430564,9.021887411806176
8.92,0.999996020767214,8.422936202269902
8.928,0.999996014836468,7.823803348680526
8.936,0.9999960086699053,7.224500633532411
8.943999999999999,0.9999960022867888,6.625039871143144
8.952,0.9999959957065491,6.025432905454149
8.96,0.9999959889487714,5.425691607818706
8.968,0.9999959820331809,4.8258278747776355
8.975999999999999,0.999995974979633,4.22585362582414
8.984,0.999995967808099,3.6257808011593777
8.992,0.9999959605386534,3.0256213594390844
9.0,0.9999959531914614,2.425387275511777
9.008,0.9999959457867669,1.825090538149967
9.016,0.9999959383448777,1.2247431477759916
9.024000000000001,0.9999959308861542,0.6243571141828093
9.032,0.9999959234309956,0.023944454250309874
9.04,0.9999959159998273,-0.5764828103413817
9.048,0.999995908613087,-1.176912655400046
9.056000000000001,0.999995901291214,-1.7773330565105434
9.064,0.9999958940546331,-2.3777319913244837
9.072,0.999995886923744,-2.978097441848932
9.08,0.9999958799189069,-3.5784173967325223
9.088000000000001,0.9999958730604303,-4.178679853548634
9.096,0.9999958663685585,-4.778872821075089
9.104,0.9999958598634572,-5.378984321568844
9.112,0.9999958535652028,-5.979002393034194
9.120000000000001,0.9999958474937678,-6.578915091484035
9.128,0.9999958416690092,-7.178710493193723
9.136,0.9999958361106559,-7.778376696945998
9.144,0.9999958308382956,-8.377901826265584
9.152000000000001,0.9999958258713637,-8.977274031642885
9.16,0.9999958212291291,-9.576481492746534
9.168,0.9999958169306841,-10.17551242062319
9.176,0.9999958129949308,-10.774355059883163
9.184000000000001,0.9999958094405701,-11.37299769087153
9.192,0.9999958062860894,-11.97142863182439
9.2,0.9999958035497521,-12.569636241008633
9.208,0.999995801249585,-13.167608918844092
9.216000000000001,0.9999957994033667,-13.765335110007623
9.224,0.9999957980286176,-14.362803305518671
9.232,0.9999957971425892,-14.960002044805204
9.24,0.9999957967622511,-15.556919917748457
9.248000000000001,0.999995796904283,-16.153545566706335
9.256,0.9999957975850629,-16.749867688515153
9.264,0.9999957988206573,-17.34587503646839
9.272,0.999995800626811,-17.941556422271418
9.280000000000001,0.9999958030189383,-18.536900717971537
9.288,0.9999958060121111,-19.131896857863595
9.296,0.9999958096210526,-19.726533840369758
9.304,0.9999958138601257,-20.320800729892195
9.312000000000001,0.9999958187433251,-20.914686658638654
9.32,0.9999958242842698,-21.508180828420727
9.328,0.9999958304961922,-22.101272512423773
9.336,0.9999958373919318,-22.69395105694733
9.344,0.9999958449839269,-23.286205883115745
9.352,0.9999958532842063,-23.878026488560092
9.36,0.9999958623043834,-24.469402449067495
9.368,0.9999958720556469,-25.060323420201332
9.376,0.9999958825487557,-25.650779138887817
9.384,0.9999958937940319,-26.240759424972488
9.392,0.9999959058013533,-26.830254182742284
9.4,0.9999959185801489,-27.41925340241655
9.408,0.9999959321393919,-28.007747161602822
9.416,0.9999959464875946,-28.595725626720974
9.424,0.9999959616328039,-29.18317905439117
9.432,0.9999959775825947,-29.770097792789773
9.44,0.9999959943440662,-30.35647228296831
9.448,0.9999960119238375,-30.94229306013977
9.456,0.9999960303280431,-31.52755075492756
9.464,0.9999960495623283,-32.11223609458134
9.472,0.9999960696318472,-32.69633990415489
9.48,0.9999960905412584,-33.279853107650695
9.488,0.9999961122947214,-33.862766729126164
9.496,0.9999961348958953,-34.445071893766155
9.504,0.9999961583479354,-35.026759828917044
9.512,0.9999961826534897,-35.60782186508689
9.52,0.9999962078147,-36.18824943690689
9.528,0.9999962338331966,-36.76803408405882
9.536,0.9999962607101007,-37.347167452163866
9.544,0.9999962884460191,-37.925641293637284
9.552,0.9999963170410467,-38.503447468504476
9.56,0.9999963464947649,-39.080577945182895
9.568,0.99999637680624,-39.65702480122565
9.576,0.9999964079740246,-40.23278022403099
9.584,0.999996439996157,-40.80783651151365
9.592,0.9999964728701619,-41.38218607274222
9.6,0.9999965065930508,-41.95582142853887
9.608,0.9999965411613232,-42.5287352120452
9.616,0.999996576570968,-43.10092016925082
9.624,0.9999966128174639,-43.67236915948861
9.632,0.9999966498957816,-44.243075155892704
9.64,0.9999966878003868,-44.813031245824064
9.648,0.9999967265252396,-45.382230631259105
9.656,0.9999967660638,-45.95066662914613
9.664,0.9999968064090273,-46.518332671725794
9.672,0.9999968475533866,-47.08522230681975
9.68,0.9999968894888476,-47.65132919808385
9.688,0.9999969322068912,-48.216647125230345
9.696,0.9999969756985104,-48.78116998421511
