freq,mag,phase
6.0,1.0,6.470686814051068
6.008,1.0,6.199695764553669
6.016,0.9999999999999999,5.928647114822489
6.024,1.0,5.657541359414891
6.032,0.9999999999999999,5.386378994741394
6.04,1.0,5.115160519050488
6.048,0.9999999999999999,4.843886432413299
6.056,1.0,4.572557236708156
6.064,0.9999999999999998,4.301173435605075
6.072,0.9999999999999999,4.029735534550026
6.08,1.0,3.7582440407492306
6.088,1.0,3.4866994631531996
6.096,1.0,3.21510231244077
6.104,1.0,2.943453101002975
6.112,0.9999999999999999,2.671752342926825
6.12,1.0,2.400000553978954
6.128,1.0,2.1281982515891795
6.136,0.9999997515523487,1.8563459548339787
6.144,0.999999184834689,1.584444184419774
6.152,0.9999986216030774,1.3124934626662297
6.16,0.9999980620386922,1.0404943134893339
6.168,0.999997506317268,0.7684472623844743
6.176,0.9999969546091626,0.4963528364093036
6.184,0.9999964070794252,0.22421156416664403
6.192,0.9999958638878619,-0.04797602421288691
6.2,0.999995325189107,-0.32020939708812224
6.208,0.9999947911326855,-0.5924880213249637
6.216,0.9999942618630833,-0.8648113623138222
6.224,0.9999937375198104,-1.1371788839873418
6.232,0.9999932182374707,-1.4095900488381723
6.24,0.9999927041458245,-1.682044317936774
6.248,0.9999921953698551,-1.9545411509493915
6.256,0.9999916920298371,-2.227080006156084
6.264,0.9999911942413965,-2.499660340468841
6.272,0.9999907021155788,-2.772281609449815
6.28,0.9999902157589139,-3.044943267329568
6.288,0.9999897352734765,-3.3176447670255453
6.296,0.9999892607569547,-3.5903855601604695
6.304,0.9999887923027111,-3.8631650970808997
6.312,0.9999883299998459,-4.135982826875952
6.32,0.9999878739332612,-4.408838197395914
6.328,0.9999874241837229,-4.681730655271095
6.336,0.9999869808279234,-4.954659645930722
6.344,0.9999865439385436,-5.2276246136218125
6.352,0.9999861135843149,-5.50062500142831
6.36,0.9999856898300805,-5.773660251290153
6.368,0.9999852727368563,-6.046729804022401
6.376,0.9999848623618921,-6.319833099334566
6.384,0.9999844587587332,-6.592969575849864
6.392,0.9999840619772777,-6.866138671124694
6.4,0.9999836720638393,-7.139339821668014
6.408,0.9999832890612057,-7.412572462960903
6.416,0.9999829130086976,-7.685836029476191
6.424,0.9999825439422271,-7.959129954698058
6.432,0.9999821818943585,-8.232453671141796
6.44,0.9999818268943635,-8.505806610373583
6.448,0.9999814789682813,-8.77918820303031
6.456,0.9999811381389744,-9.052597878839526
6.464,0.9999808044261879,-9.326035066639337
6.472,0.9999804778466037,-9.599499194398504
6.48,0.9999801584138995,-9.872989689236428
6.4879999999999995,0.9999798461388026,-10.146505977443326
6.496,0.9999795410291477,-10.420047484500492
6.504,0.9999792430899299,-10.693613635100236
6.5120000000000005,0.9999789523233629,-10.967203853166609
6.52,0.99997866872893,-11.240817561875247
6.5280000000000005,0.9999783923034421,-11.51445418367418
6.536,0.999978123041088,-11.788113140303846
6.5440000000000005,0.9999778609334902,-12.061793852817988
6.552,0.9999776059697587,-12.33549574160366
6.5600000000000005,0.9999773581365408,-12.609218226402302
6.568,0.9999771174180764,-12.882960726329795
6.5760000000000005,0.9999768837962489,-13.15672265989759
6.584,0.9999766572506363,-13.430503445032883
6.592,0.999976437758564,-13.704302499099754
6.6,0.9999762252951541,-13.97811923891955
6.608,0.9999760198333763,-14.251953080791834
6.616,0.999975821344099,-14.525803440515087
6.624,0.9999756297961377,-14.799669733407574
6.632,0.9999754451563054,-15.073551374328176
6.64,0.9999752673894604,-15.34744777769724
6.648,0.9999750964585555,-15.62135835751753
6.656,0.9999749323246864,-15.895282527395086
6.664,0.9999747749471393,-16.169219700560184
6.672,0.9999746242834373,-16.443169289888374
6.68,0.9999744802893883,-16.7171307079213
6.688,0.9999743429191317,-16.991103366887877
6.696,0.9999742121251834,-17.2650866787252
6.704,0.9999740878584833,-17.53908005509959
6.712,0.9999739700684378,-17.813082907427653
6.72,0.9999738587029685,-18.087094646897324
6.728,0.999973753708553,-18.36111468448895
6.736,0.9999736550302712,-18.635142430996332
6.744,0.9999735626118488,-18.909177297047833
6.752,0.999973476395699,-19.18321869312744
6.76,0.9999733963229672,-19.457266029595885
6.768,0.9999733223335727,-19.731318716711684
6.776,0.9999732543662504,-20.0053761646523
6.784,0.9999731923585927,-20.279437783535194
6.792,0.9999731362470907,-20.5535029834389
6.8,0.9999730859671747,-20.827571174424154
6.808,0.999973041453255,-21.101641766554966
6.816,0.9999730026387617,-21.375714169919675
6.824,0.999972969456183,-21.649787794652052
6.832,0.9999729418371064,-21.923862050952323
6.84,0.9999729197122552,-22.197936349108257
6.848,0.9999729030115286,-22.472010099516183
6.856,0.9999728916640384,-22.746082712701995
6.864,0.9999728855981465,-23.02015359934221
6.872,0.9999728847415014,-23.29422217028491
6.88,0.9999728890210761,-23.568287836570775
6.888,0.9999728983632031,-23.84235000945395
6.896,0.9999729126936099,-24.11640810042309
6.904,0.9999729319374557,-24.390461521222147
6.912,0.9999729560193638,-24.664509683871398
6.92,0.9999729848634583,-24.938552000688198
6.928,0.9999730183933973,-25.212587884307844
6.936,0.9999730565324052,-25.48661674770441
6.944,0.9999730992033085,-25.760638004211515
6.952,0.9999731463285653,-26.034651067543063
6.96,0.9999731978303001,-26.308655351813947
6.968,0.9999732536303342,-26.58265027156077
6.976,0.999973313650218,-26.856635241762444
6.984,0.9999733778112612,-27.130609677860857
6.992,0.9999734460345636,-27.40457299578137
7.0,0.9999735182410459,-27.67852461195345
7.008,0.9999735943514784,-27.95246394333105
7.016,0.9999736742865105,-28.226390407413156
7.024,0.9999737579667001,-28.500303422264135
7.032,0.999973845312542,-28.774202406534126
7.04,0.9999739362444948,-29.048086779479352
7.048,0.9999740306830096,-29.32195596098236
7.056,0.9999741285485573,-29.595809371572287
7.064,0.9999742297616542,-29.869646432445013
7.072,0.999974334242889,-30.14346656548326
7.08,0.9999744419129494,-30.417269193276645
7.088,0.9999745526926458,-30.691053739141758
7.096,0.9999746665029385,-30.964819627142063
7.104,0.9999747832649601,-31.23856628210781
7.112,0.999974902900042,-31.51229312965585
7.12,0.9999750253297359,-31.785999596209486
7.128,0.9999751504758393,-32.059685109018105
7.136,0.9999752782604169,-32.3333490961769
7.144,0.9999754086058245,-32.60699098664645
7.152,0.9999755414347292,-32.880610210272216
7.16,0.9999756766701335,-33.15420619780408
7.168,0.9999758142353948,-33.427778380915676
7.176,0.9999759540542479,-33.70132619222372
7.184,0.9999760960508233,-33.97484906530732
7.192,0.9999762401496698,-34.24834643472714
7.2,0.9999763862757723,-34.52181773604449
7.208,0.9999765343545721,-34.795262405840425
7.216,0.9999766843119849,-35.06867988173469
7.224,0.9999768360744216,-35.34206960240458
7.232,0.9999769895688023,-35.615431007603824
7.24,0.9999771447225783,-35.88876353818128
7.248,0.9999773014637469,-36.16206663609961
7.256,0.9999774597208684,-36.43533974445388
7.264,0.9999776194230835,-36.70858230748999
7.272,0.9999777805001293,-36.98179377062323
7.28,0.9999779428823543,-37.25497358045647
7.288,0.9999781065007346,-37.528121184798515
7.296,0.9999782712868883,-37.8012360326822
7.304,0.9999784371730895,-38.07431757438248
7.312,0.9999786040922845,-38.347365261434504
7.32,0.9999787719781039,-38.62037854665141
7.328,0.9999789407648764,-38.89335688414215
7.336,0.9999791103876416,-39.16629972932934
7.344,0.9999792807821632,-39.439206538966715
7.352,0.999979451884942,-39.712076771156745
7.36,0.9999796236332256,-39.98490988536812
7.368,0.9999797959650223,-40.25770534245303
7.376,0.9999799688191112,-40.53046260466447
7.384,0.999980142135053,-40.80318113567336
7.392,0.9999803158532009,-41.075860400585604
7.4,0.9999804899147104,-41.348499865959084
7.4079999999999995,0.9999806642615491,-41.62109899982048
7.416,0.9999808388365066,-41.89365727168217
7.4239999999999995,0.9999810135832027,-42.166174152558504
7.432,0.9999811884460968,-42.43864911498295
7.4399999999999995,0.9999813633704961,-42.71108163302396
7.448,0.9999815383025641,-42.98347118230178
7.4559999999999995,0.999981713189326,-43.25581724000434
7.464,0.9999818879786795,-43.52811928490373
7.4719999999999995,0.9999820626193996,-43.80037679737187
7.48,0.9999822370611453,-44.07258925939682
7.4879999999999995,0.999982411254467,-44.344756154598194
7.496,0.9999825851508113,-44.61687696824332
7.504,0.9999827587025278,-44.88895118726233
7.5120000000000005,0.9999829318628732,-45.16097830026419
7.52,0.9999831045860178,-45.432957797551545
7.5280000000000005,0.9999832768270486,-45.70488917113651
7.536,0.9999834485419754,-45.976771914755275
7.5440000000000005,0.999983619687733,-46.24860552388371
7.552,0.999983790222187,-46.520389495751786
7.5600000000000005,0.9999839601041356,-46.792123329358795
7.568,0.9999841292933133,-47.06380652548767
7.5760000000000005,0.999984297750394,-47.33543858672
7.584,0.9999844654369935,-47.607019017449964
7.5920000000000005,0.9999846323156715,-47.8785473238993
7.6,0.9999847983499334,-48.15002301413086
7.6080000000000005,0.9999849635042326,-48.42144559806334
7.616,0.9999851277439717,-48.692814587484804
7.6240000000000006,0.9999852910355029,-48.96412949606688
7.632,0.9999854533461292,-49.23538983937827
7.640000000000001,0.9999856146441058,-49.50659513489858
7.648,0.9999857748986393,-49.77774490203161
7.656000000000001,0.9999859340798875,-50.04883866211905
7.664,0.9999860921589603,-50.31987593845334
7.672,0.9999862491079179,-50.590856256291225
7.68,0.9999864048997706,-50.861779142866496
7.688,0.9999865595084786,-51.132644127402976
7.696,0.9999867129089479,-51.4034507411273
7.704,0.9999868650770319,-51.67419851728155
7.712,0.9999870159895279,-51.94488699113575
7.72,0.9999871656241749,-52.21551570000034
7.728,0.9999873139596517,-52.48608418323834
7.736,0.9999874609755744,-52.756591982277584
7.744,0.9999876066524936,-53.02703864062266
7.752,0.9999877509718905,-53.29742370386686
7.76,0.9999878939161746,-53.56774671970396
7.768,0.9999880354686801,-53.83800723793972
7.776,0.9999881756136614,-54.10820481050359
7.784,0.9999883143362898,-54.37833899145988
7.792,0.999988451622649,-54.648409337019224
7.8,0.9999885874597314,-54.918415405549496
7.808,0.9999887218354319,-55.188356757586966
7.816,0.9999888547385442,-55.458232955847016
7.824,0.9999889861587564,-55.728043565235005
7.832,0.9999891160866442,-55.99778815285681
7.84,0.9999892445136664,-56.267466288029276
7.848,0.9999893714321588,-56.537077542290575
7.856,0.999989496835329,-56.80662148941047
7.864,0.9999896207172492,-57.07609770540027
7.872,0.9999897430728523,-57.34550576852294
7.88,0.9999898638979219,-57.61484525930281
7.888,0.9999899831890892,-57.884115760535266
7.896,0.9999901009438243,-58.153316857296346
7.904,0.9999902171604297,-58.42244813695213
7.912,0.9999903318380333,-58.691509189168094
7.92,0.9999904449765813,-58.96049960591818
7.928,0.9999905565768297,-59.229418981493914
7.936,0.999990666640338,-59.49826691251319
7.944,0.9999907751694616,-59.76704299792919
7.952,0.9999908821673419,-60.03574683903891
7.96,0.9999909876379001,-60.304378039491624
7.968,0.9999910915858289,-60.5729362052974
7.976,0.9999911940165827,-60.841420944835214
7.984,0.9999912949363708,-61.109831868861114
7.992,0.9999913943521473,-61.378168590516154
8.0,0.9999914922716037,-61.64643072533428
8.008,0.9999915887031585,-61.914617891249975
8.016,0.9999916836559497,-62.18272970860601
8.024000000000001,0.999991777139824,-62.45076580016063
8.032,0.9999918691653289,-62.71872579109497
8.04,0.9999919597437024,-62.9866093090204
8.048,0.9999920488868639,-63.25441598398549
8.056000000000001,0.9999921366074045,-63.522145448482725
8.064,0.999992222918577,-63.78979733745549
8.072,0.9999923078342867,-64.05737128830481
8.08,0.99999239136908,-64.32486694089577
8.088000000000001,0.9999924735381361,-64.59228393756379
8.096,0.9999925543572553,-64.85962192312103
8.104,0.9999926338428499,-65.1268805448626
8.112,0.9999927120119331,-65.39405945257253
8.120000000000001,0.9999927888821092,-65.66115829852944
8.128,0.9999928644715617,-65.92817673751243
8.136,0.9999929387990449,-66.19511442680688
8.144,0.9999930118838711,-66.46197102620971
8.152000000000001,0.9999930837459013,-66.72874619803473
8.16,0.9999931544055333,-66.99543960711787
8.168,0.9999932238836909,-67.26205092082257
8.176,0.9999932922018145,-67.52857980904446
8.184000000000001,0.9999933593818474,-67.79502594421616
8.192,0.9999934254462269,-68.06138900131216
8.2,0.9999934904178727,-68.32766865785348
8.208,0.9999935543201741,-68.59386459391197
8.216000000000001,0.9999936171769814,-68.85997649211467
8.224,0.9999936790125917,-69.12600403764799
8.232,0.9999937398517401,-69.39194691826198
8.24,0.9999937997195865,-69.65780482427422
8.248000000000001,0.999993858641705,-69.92357744857343
8.256,0.9999939166440722,-70.18926448662336
8.264,0.999993973753056,-70.45486563646651
8.272,0.999994029995403,-70.72038059872739
8.280000000000001,0.9999940853982283,-70.98580907661588
8.288,0.9999941399890027,-71.25115077593041
8.296,0.9999941937955422,-71.51640540506128
8.304,0.999994246845995,-71.78157267499344
8.312,0.9999942991688313,-72.04665229930919
8.32,0.99999435079283,-72.31164399419134
8.328,0.9999944017470683,-72.57654747842533
8.336,0.99999445206091,-72.84136247340209
8.344,0.9999945017639921,-73.10608870312008
8.352,0.9999945508862155,-73.37072589418796
8.36,0.9999945994577313,-73.63527377582618
8.368,0.9999946475089297,-73.89973207986952
8.376,0.9999946950704292,-74.16410054076849
8.384,0.9999947421730632,-74.42837889559154
8.392,0.9999947888478691,-74.69256688402633
8.4,0.9999948351260771,-74.9566642483816
8.408,0.9999948810390978,-75.22067073358824
8.416,0.9999949266185112,-75.48458608720102
8.424,0.9999949718960535,-75.7484100593993
8.432,0.9999950169036074,-76.0121424029886
8.44,0.9999950616731892,-76.27578287340107
8.448,0.9999951062369381,-76.5393312286968
8.456,0.9999951506271033,-76.8027872295641
8.464,0.999995194876034,-77.06615063932063
8.472,0.999995239016167,-77.32942122391334
8.48,0.9999952830800153,-77.59259875191945
8.488,0.9999953271001567,-77.85568299454623
8.496,0.9999953711092229,-78.1186737256316
8.504,0.9999954151398873,-78.3815707216438
8.512,0.9999954592248537,-78.64437376168179
8.52,0.9999955033968466,-78.90708262747467
8.528,0.9999955476885974,-79.16969710338181
8.536,0.9999955921328361,-79.4322169763921
8.544,0.9999956367622771,-79.69464203612395
8.552,0.9999956816096107,-79.95697207482422
8.56,0.999995726707491,-80.21920688736802
8.568,0.9999957720885249,-80.48134627125744
8.576,0.9999958177852607,-80.7433900266212
8.584,0.9999958638301794,-81.00533795621314
8.592,0.9999959102556807,-81.2671898654116
8.6,0.9999959570940754,-81.52894556221779
8.608,0.999996004377572,-81.79060485725492
8.616,0.9999960521382685,-82.05216756376643
8.624,0.9999961004081407,-82.31363349761483
8.632,0.9999961492190316,-82.57500247727984
8.64,0.9999961986026413,-82.83627432385691
8.648,0.999996248590517,-83.09744886105523
8.656,0.9999962992140425,-83.35852591519614
8.664,0.9999963505044281,-83.61950531521073
8.672,0.9999964024927008,-83.8803868926383
8.68,0.999996455209694,-84.14117048162363
8.688,0.9999965086860372,-84.40185591891526
8.696,0.9999965629521477,-84.6624430438626
8.704,0.9999966180382187,-84.92293169841398
8.712,0.9999966739742124,-85.18332172711372
8.72,0.9999967307898475,-85.44361297709986
8.728,0.9999967885145925,-85.70380529810099
8.736,0.999996847177654,-85.96389854243397
8.744,0.9999969068079693,-86.22389256500054
8.752,0.999996967434196,-86.48378722328472
8.76,0.9999970290847038,-86.74358237734943
8.768,0.9999970917875647,-87.00327788983363
8.776,0.9999971555705452,-87.26287362594874
8.784,0.9999972204610965,-87.52236945347569
8.792,0.9999972864863464,-87.7817652427611
8.8,0.9999973536730908,-88.04106086671416
8.808,0.9999974220477847,-88.30025620080274
8.815999999999999,0.9999974916365348,-88.55935112304994
8.824,0.9999975624650901,-88.81834551403033
8.832,0.9999976345588346,-89.0772392568659
8.84,0.9999977079427798,-89.33603223722237
8.847999999999999,0.9999977826415548,-89.59472434330524
8.856,0.9999978586794012,-89.85331546585567
8.864,0.9999979360801627,-90.11180549814615
8.872,0.9999980148672797,-90.37019433597649
8.879999999999999,0.9999980950637807,-90.6284818776696
8.888,0.9999981766922752,-90.88666802406699
8.896,0.9999982597749466,-91.14475267852424
8.904,0.9999983443335455,-91.4027357469066
8.911999999999999,0.9999984303893817,-91.66061713758452
8.92,0.9999985179633183,-91.91839676142884
8.928,0.9999986070757638,-92.17607453180597
8.936,0.9999986977466679,-92.4336503645732
8.943999999999999,0.9999987899955116,-92.69112417807398
8.952,0.9999988838413034,-92.94849589313276
8.96,0.9999989793025726,-93.20576543304999
8.968,0.9999990763973623,-93.46293272359708
8.975999999999999,0.9999991751432241,-93.71999769301138
8.984,0.9999992755572117,-93.97696027199086
8.992,0.9999993776558758,-94.23382039368879
9.0,0.9999994814552589,-94.49057799370836
9.008,0.9999995869708875,-94.74723301009753
9.016,0.99999969421777,-95.00378538334341
9.024000000000001,0.9999998032103891,-95.2602350563666
9.032,0.9999999139626968,-95.5165819745157
9.04,1.0,-95.77282608556182
9.048,1.0,-96.02896733969276
9.056000000000001,1.0,-96.28500568950702
9.064,0.9999999999999998,-96.54094109000825
9.072,1.0,-96.79677349859932
9.08,1.0,-97.05250287507641
9.088000000000001,1.0,-97.30812918162279
9.096,1.0,-97.56365238280287
9.104,0.9999999999999999,-97.81907244555634
9.112,0.9999999999999999,-98.07438933919174
9.120000000000001,1.0,-98.32960303538022
9.128,0.9999999999999999,-98.58471350814935
9.136,1.0,-98.83972073387692
9.144,1.0,-99.09462469128451
9.152000000000001,0.9999999999999999,-99.34942536143083
9.16,1.0,-99.60412272770553
9.168,1.0000000000000002,-99.85871677582264
9.176,1.0,-100.113207493814
9.184000000000001,0.9999999999999998,-100.36759487202247
9.192,1.0,-100.62187890309539
9.2,1.0,-100.87605958197808
9.208,1.0,-101.13013690590682
9.216000000000001,0.9999999999999999,-101.38411087440208
9.224,0.9999999999999999,-101.6379814892617
9.232,0.9999999999999999,-101.8917487545542
9.24,1.0,-102.14541267661167
9.248000000000001,1.0,-102.39897326402279
9.256,0.9999999999999999,-102.6524305276258
9.264,0.9999999999999999,-102.90578448050171
9.272,0.9999999999999999,-103.15903513796704
9.280000000000001,1.0,-103.41218251756656
9.288,1.0,-103.66522663906632
9.296,1.0,-103.91816752444645
9.304,0.9999999999999999,-104.17100519789395
9.312000000000001,0.9999999999999998,-104.42373968579517
9.32,1.0,-104.67637101672882
9.328,0.9999999999999999,-104.92889922145845
9.336,1.0,-105.18132433292527
9.344,1.0,-105.4336463862404
9.352,0.9999999999999999,-105.6858654186778
9.36,0.9999999999999999,-105.93798146966657
9.368,0.9999999999999999,-106.18999458078359
9.376,1.0,-106.44190479574583
9.384,1.0,-106.69371216040304
9.392,1.0,-106.94541672272983
9.4,1.0,-107.19701853281848
9.408,1.0,-107.44851764287078
9.416,0.9999999999999999,-107.6999141071909
9.424,1.0,-107.95120798217724
9.432,0.9999999999999999,-108.20239932631505
9.44,0.9999999999999999,-108.45348820016837
9.448,1.0,-108.70447466637266
9.456,1.0,-108.95535878962652
9.464,0.9999999999999999,-109.20614063668434
9.472,0.9999999999999999,-109.45682027634808
9.48,0.9999999999999999,-109.70739777945975
9.488,1.0,-109.9578732188932
9.496,1.0,-110.20824666954651
9.504,1.0,-110.45851820833379
9.512,0.9999999999999999,-110.70868791417757
9.52,1.0,-110.95875586800042
9.528,1.0,-111.2087221527175
9.536,0.9999999999999999,-111.45858685322796
9.544,1.0,-111.70835005640751
9.552,1.0,-111.9580118510999
9.56,1.0,-112.20757232810932
9.568,0.9999999999999999,-112.45703158019192
9.576,0.9999999999999999,-112.7063897020481
9.584,1.0,-112.9556467903141
9.592,1.0,-113.20480294355428
9.6,1.0,-113.45385826225254
9.608,0.9999999999999999,-113.7028128488047
9.616,1.0,-113.95166680750988
9.624,1.0,-114.20042024456276
9.632,1.0,-114.44907326804511
9.64,1.0000000000000002,-114.69762598791793
9.648,1.0,-114.94607851601285
9.656,1.0,-115.1944309660245
9.664,1.0,-115.4426834535017
9.672,1.0,-115.69083609583988
9.68,0.9999999999999999,-115.93888901227228
9.688,0.9999999999999999,-116.18684232386225
