freq,mag,phase
6.0,1.0006313749929099,157.715558322764
6.002287104,1.000842987575571,157.54382174050218
6.004574208,1.0010001672790378,157.36945596132446
6.006861312,1.0010948235015111,157.19327460396812
6.009147904,1.0011210950907399,157.01620570160367
6.011435008,1.0010772515946018,156.83926926738832
6.013722112,1.0009658866511257,156.66346637316263
6.016009216,1.0007943956613177,156.48968752754
6.01829632,1.0005731492157994,156.31875635475467
6.020583424,1.000316330266417,156.15130179176808
6.022870016,1.0000400138117258,155.98770492937717
6.02515712,0.999761772033264,155.82815907287682
6.027444224,0.9994989787443372,155.67253482626498
6.029731328,0.999268469599872,155.5204974749101
6.032018432,0.9990848588777493,155.37146779827904
6.034305536,0.9989595132520294,155.2246967101027
6.036592128,0.9989008506369295,155.07928676440838
6.038879232,0.9989121272147715,154.9342150243875
6.041166336,0.9989928966719444,154.7884762522987
6.04345344,0.9991381620457266,154.64110326090082
6.045740544,0.9993385266912855,154.49119296070953
6.048027648,0.9995813320776517,154.33809789214448
6.05031424,0.9998514266121,154.18128683937036
6.052601344,1.000131534930276,154.02044448055963
6.054888448,1.0004040693131648,153.85563135819544
6.057175552,1.0006516431009256,153.68703497283184
6.059462656,1.000858852369946,153.51515820779426
6.06174976,1.0010124192576961,153.340657014072
6.064036352,1.0011028860262754,153.1643943702403
6.066323456,1.0011243591478427,152.9873002981811
6.06861056,1.0010755653144874,152.81044947844637
6.070897664,1.0009593503322718,152.63476819648204
6.073184768,1.0007832613254688,152.46119333547688
6.075471872,1.0005583336261406,152.29053061792303
6.077758464,1.000298515432467,152.12340044181713
6.080045568,1.0000204910603299,151.96016331265156
6.082332672,0.9997416788063875,151.80096226587332
6.084619776,0.999479725410894,151.64570317430395
6.08690688,0.9992511742265325,151.49403593410818
6.089193984,0.9990705104027288,151.34530932034477
6.091481088,0.9989491656318289,151.1987929310603
6.09376768,0.9988950683140606,151.05359573454015
6.096054784,0.9989113673433877,150.90862984916777
6.098341888,0.998997203138802,150.76297386776668
6.100628992,0.999147151207889,150.61557517573902
6.102916096,0.9993516785855014,150.46562035964746
6.1052032,0.9995979425641972,150.312371117433
6.107489792,0.9998701866808909,150.15539550395263
6.109776896,1.000151441961318,149.99435525601174
6.112064,1.0004237871110488,149.82935690365713
6.114351104,1.0006701498292925,149.66055306994457
6.116638208,1.0008747580018782,149.48852058591183
6.118925312,1.0010249546507233,149.31389392359162
6.121211904,1.0011109263475393,149.1375778379694
6.123499008,1.001127612803094,148.96050796689013
6.125786112,1.0010737484971746,148.78371857461806
6.128073216,1.0009526411418184,148.608198991135
6.13036032,1.000772161976209,148.43486148750614
6.132647424,1.0005434074841222,148.26447737533593
6.134934016,1.0002808132080414,148.09768639142817
6.13722112,1.0000010238527233,147.9348040596198
6.139508224,0.9997218190116808,147.77599872961395
6.141795328,0.9994605889835864,147.62110125111784
6.144082432,0.9992340608542795,147.46976893111037
6.146369536,0.9990563905416905,147.32139234737664
6.148656128,0.9989393002548798,147.17514875234667
6.150943232,0.9988896249905782,147.03015181748253
6.153230336,0.9989109726175728,146.8853346009753
6.15551744,0.9990017824474217,146.73973310043428
6.157804544,0.9991564649049197,146.59233865172644
6.160091648,0.999365177112988,146.442332507971
6.162378752,0.999614679009471,146.28895673793562
6.164665344,0.9998894007803371,146.13181198849628
6.166952448,1.0001716190947407,145.970613375517
6.169239552,1.000443616004164,145.80539261580844
6.171526656,1.0006885882535155,145.63643220746889
6.17381376,1.0008906041974706,145.4642330910725
6.176100864,1.00103703623841,145.28951825114353
6.178387456,1.0011186830102212,145.11317218087007
6.18067456,1.0011304590657981,144.9361363261281
6.182961664,1.0010716184679453,144.75942316594862
6.185248768,1.000945518537887,144.58409110123284
6.187535872,1.0007605219508524,144.41098828314435
6.189822976,1.0005279272607701,144.24090923731455
6.192109568,1.0002625820340798,144.07445767201253
6.194396672,0.9999812365833792,143.91195684308042
6.196683776,0.9997015533848903,143.75354523381196
6.19897088,0.9994412826827287,143.59907153310095
6.201257984,0.999216749443252,143.44812421266815
6.203545088,0.999042530668351,143.30004743061778
6.20583168,0.9989292782840723,143.15410406705593
6.208118784,0.9988844772039651,143.00932522083616
6.210405888,0.9989108938234285,142.8646746285345
6.212692992,0.9990067074508743,142.71914982364027
6.214980096,0.9991661031166669,142.57176266423343
6.2172672,0.9993789923403607,142.42167546148266
6.219553792,0.9996318121712541,142.26822593598072
6.221840896,0.999908499814084,142.11090000702532
6.224128,1.0001919015714185,141.94950645570555
6.226415104,1.000463737712275,141.7841333381388
6.228702208,1.0007070713767814,141.61501732890915
6.230989312,1.0009063080231284,141.44267244130012
6.233275904,1.0010491279350004,141.2678778463511
6.235563008,1.0011263841152886,141.091508418882
6.237850112,1.001133154093024,140.91450474026885
6.240137216,1.0010690746948003,140.7379117545248
6.24242432,1.0009381547446103,140.56276570401843
6.244711424,1.0007485870516923,140.38993011924268
6.246998528,1.000512334668435,140.22015317556063
6.24928512,1.000244245807568,140.0540489986929
6.251572224,0.9999613140824737,139.89197271329635
6.253859328,0.9996812519410054,139.73398000367183
6.256146432,0.9994219047877747,139.57989751787971
6.258433536,0.9991996437862194,139.42931238777047
6.26072064,0.9990285307016303,139.28163470214773
6.263007232,0.9989195560601791,139.13596535145464
6.265294336,0.9988795531841423,138.9913988001622
6.26758144,0.9989109032335391,138.84691497892496
6.269868544,0.9990118646213594,138.70146030959722
6.272155648,0.9991760710052234,138.55409733013713
6.274442752,0.999393083648252,138.40398523212164
6.276729344,0.9996491314768661,138.25041561838052
6.279016448,0.9999280208669965,138.09294949047197
6.281303552,1.0002122553723,137.93141107959462
6.283590656,1.0004835787517932,137.76585266651912
6.28587776,1.0007253340452797,137.59656836201327
6.288164864,1.0009218436993081,137.42414416101332
6.290451456,1.0010608359645266,137.24924245538662
6.29273856,1.0011335637150973,137.07283633359796
6.295025664,1.001135351770034,136.89592933929006
6.297312768,1.001066097993445,136.7194937156788
6.299599872,1.0009303788833452,136.54450402161896
6.301886976,1.0007363973887742,136.3719409848207
6.304173568,1.0004963170432362,136.20254373308964
6.306460672,1.0002255771108493,136.03682355565596
6.308747776,0.9999410374318751,135.87513545305563
6.31103488,0.9996608306826904,135.71756758914836
6.313321984,0.9994025679787898,135.56389397444647
6.315609088,0.9991825052488598,135.41372802078826
6.317896192,0.9990148504082031,135.26638803683977
6.320182784,0.9989099761393656,135.121035642682
6.322469888,0.9988747445587096,134.9767092561019
6.324756992,0.9989113899136991,134.83237734946775
6.327044096,0.9990174812335207,134.68703481980253
6.3293312,0.9991864267206588,134.53968112226485
6.331618304,0.9994074849728631,134.38950378614473
6.333904896,0.9996668320739018,134.2358423476867
6.336192,0.9999478481434508,134.07826324585145
6.338479104,1.000232836655142,133.91656359299407
6.340766208,1.0005038717954604,133.7508380117804
6.343053312,1.0007437589992463,133.58142083107566
6.345340416,1.0009374424032031,133.40889054426484
6.347627008,1.001072474239276,133.2339296249476
6.349914112,1.0011407512772772,133.05754013562256
6.352201216,1.0011374333418497,132.88068607927323
6.35448832,1.0010630012237978,132.70437894695897
6.356775424,1.0009222070524373,132.52965891139587
6.359062528,1.0007237358350456,132.35738587620258
6.36134912,1.0004799610941058,132.18829555916435
6.363636224,1.0002065769624873,132.0229869275071
6.365923328,0.9999205623496847,131.86171488121389
6.368210432,0.9996402020720649,131.70458607481
6.370497536,0.9993829921701528,131.5513797964316
6.37278464,0.9991654799865738,131.4016083509026
6.375071232,0.9990012161961674,131.2546214763046
6.377358336,0.9989006634892619,131.10960085847165
6.37964544,0.9988702947479539,130.96552746108134
6.381932544,0.9989121357178408,130.8213708762053
6.384219648,0.9990234507978188,130.67613386545491
6.386506752,0.999197236747606,130.5287935775378
6.388793344,0.9994223571852116,130.37857101214624
6.391080448,0.9996847993775171,130.22481532624545
6.393367552,0.9999678106478428,130.0670917809066
6.395654656,1.0002535943374378,129.90525556654165
6.39794176,1.0005241045285822,129.73938653075027
6.400228864,1.0007621593479115,129.56984761573673
6.402515968,1.0009527997822503,129.39721269525106
6.40480256,1.0010840295789165,129.2222216831426
6.407089664,1.0011474885226253,129.04585041609056
6.409376768,1.0011390648827212,128.86906365810577
6.411663872,1.00105949142849,128.692927688381
6.413950976,1.0009136926342255,128.5184389428064
6.41623808,1.0007106806116381,128.34648624195856
6.418524672,1.0004633148212516,128.17776288918097
6.420811776,1.0001873757696786,128.01285292955703
6.42309888,0.9998999553826929,127.8520339522155
6.425385984,0.9996194337884969,127.69538115410202
6.427673088,0.9993634684768701,127.5425910386876
6.429960192,0.9991483851915078,127.39324256725469
6.432246784,0.998987563062375,127.24664365431572
6.434533888,0.9988915584377026,127.10194137095522
6.436820992,0.9988662517157814,126.95810712829278
6.439108096,0.9989132010141649,126.81412932220074
6.4413952,0.9990296753140382,126.66897941129184
6.443682304,0.9992081866348168,126.52169337010733
6.445968896,0.9994374956310276,126.37143610128082
6.448256,0.9997030460277576,126.2175980356217
6.450543104,0.9999881100807532,126.05974662362124
6.452830208,1.0002745031980653,125.89778235769552
6.455117312,1.0005444478053387,125.7317638174454
6.457404416,1.0007806169079336,125.56211331652159
6.459691008,1.0009682367108033,125.38936352642028
6.461978112,1.0010952397064807,125.21435204981373
6.464265216,1.0011540333639262,125.03799496471963
6.46655232,1.001140558257973,124.86132349026862
6.468839424,1.0010556563182103,124.685370029216
6.471126528,1.0009048126830848,124.51113376845161
6.473413632,1.0006972688454197,124.33946770454375
6.475700224,1.0004463109561796,124.17116352197144
6.477987328,1.0001677785043936,124.00666764797985
6.480274432,0.9998790635636281,123.84633858956441
6.482561536,0.9995985435466244,123.69012532697029
6.48484864,0.9993439519726772,123.5378006551067
6.487135744,0.9991312845188033,123.3888921124022
6.489422336,0.9989742415609075,123.24267015619456
6.49170944,0.9988826348422722,123.09828925250144
6.493996544,0.9988623044337674,122.95473198274797
6.496283648,0.9989146079506637,122.8109284963135
6.498570752,0.9990363287158057,122.66587143963419
6.500857856,0.9992196280569571,122.51862268735933
6.503144448,0.9994529900451181,122.36832013460705
6.505431552,0.9997216627157692,122.21442115581098
6.507718656,1.0000086349203463,122.0564605133151
6.51000576,1.0002957500499183,121.89434554211338
6.512292864,1.0005648994206215,121.72820018156064
6.514579968,1.0007990504891562,121.55842594520844
6.51686656,1.0009834968780327,121.38560363281181
6.519153664,1.0011065054813748,121.21057426744154
6.521440768,1.0011603399878717,121.03426838273697
6.523727872,1.0011415888047561,120.85769774327495
6.526014976,1.0010514683079905,120.6819447660344
6.52830208,1.0008954963915364,120.5079560642689
6.530588672,1.000683603844697,120.3366551595125
6.532875776,1.0004290848080617,120.1687333332145
6.53516288,1.0001479523167967,120.00471134210898
6.537449984,0.999857965273661,119.8448251662839
6.539737088,0.9995774017271601,119.68908865189394
6.542024192,0.9993242979064882,119.53723103310801
6.544310784,0.9991143099080009,119.38877079397474
6.546597888,0.9989610434676109,119.24293741510996
6.548884992,0.9988740029777774,119.09887381671201
6.551172096,0.9988587898514943,118.9555749539765
6.5534592,0.9989164476037514,118.81197730694372
6.555746304,0.9990433474311428,118.66704987040177
6.558033408,0.9992314348012621,118.51983220024997
6.56032,0.9994688705250778,118.36950070430808
6.562607104,0.9997406687538358,118.21551599453515
6.564894208,1.0000293950321981,118.05743996902474
6.567181312,1.000317095847434,117.89520243122915
6.569468416,1.0005854333281554,117.72894035737721
6.57175552,1.0008175518612796,117.55904500548206
6.574042112,1.0009987424141276,117.38616930719976
6.576329216,1.001117493522094,117.21113084324469
6.57861632,1.0011663549119274,117.03488220019135
6.580903424,1.001142369045157,116.8584477358553
6.583190528,1.0010469408380371,116.68289321382544
6.585477632,1.000885936305349,116.50919011109599
6.587764224,1.0006695907818757,116.33823691697611
6.590051328,1.0004115276939616,116.17070713062805
6.592338432,1.0001278368389968,116.00713840124345
6.594625536,0.9998366414633392,115.8477290181215
6.59691264,0.9995563599845926,115.69249120450817
6.599199744,0.9993046525251824,115.54110246637495
6.601486336,0.9990974582979756,115.39308922691004
6.60377344,0.9989478472529937,115.24767348042657
6.606060544,0.9988655222239452,115.10395152203354
6.608347648,0.9988554767157859,114.96090174013571
6.610634752,0.9989186437276858,114.817508281444
6.612921856,0.9990507598898372,114.67269087599593
6.615208448,0.9992436655841372,114.52551238544241
6.617495552,0.9994851013251322,114.3751621028081
6.619782656,0.999759858412532,114.22108534906432
6.62206976,1.0000505223911005,114.06291532763007
6.624356864,1.0003385625766468,113.90055761102903
6.626643968,1.0006061313175907,113.73417655110926
6.628931072,1.000835889298678,113.56418066856635
6.631217664,1.0010137926352165,113.3912649015594
6.633504768,1.0011282381510267,113.21621476428916
6.635791872,1.001172241632096,113.04001418957269
6.638078976,1.0011427474625771,112.86374681300562
6.64036608,1.0010418946107913,112.68839729443805
6.642653184,1.0008758089055625,112.51498015599667
6.644939776,1.0006549726849665,112.34438943882543
6.64722688,1.0003933669600034,112.17730387410941
6.649513984,1.0001073951073467,112.01419205551255
6.651801088,0.9998151014231526,111.85528529596692
6.654088192,0.9995349847170826,111.70054580943174
6.656375296,0.9992847812489285,111.54965641486322
6.658661888,0.999080490985097,111.4020826190921
6.660948992,0.9989348828952802,111.25707932943162
6.663236096,0.9988572781610665,111.11370677874129
6.6655232,0.9988525628940418,110.97094229896852
6.667810304,0.9989210119365388,110.82772576044115
6.670097408,0.999058516143896,110.68302894966203
6.672384,0.9992562993051974,110.53588821400581
6.674671104,0.9995018350773509,110.38551473412988
6.676958208,0.9997795798015892,110.23138099194077
6.679245312,1.0000719430946632,110.07309998122916
6.681532416,1.000360436002111,109.91060895737597
6.68381952,1.0006268238418377,109.7441113362606
6.686106112,1.0008543805002368,109.57403435522777
6.688393216,1.0010288268018135,109.40103828461861
6.69068032,1.0011388836336104,109.22601654077546
6.692967424,1.0011777786446379,109.04991023739676
6.695254528,1.0011429981532658,108.873758636633
6.697541632,1.00103657438353,108.69865073207237
6.699828224,1.0008654081120927,108.52556175417097
6.702115328,1.0006401633948594,108.35535630420584
6.704402432,1.0003749435883897,108.18869621821015
6.706689536,1.000086519771735,108.02606230008111
6.70897664,0.9997933190368677,107.86764455546144
6.711263744,0.9995135742596406,107.7134010252699
6.713550848,0.999265138231273,107.56301256820848
6.71583744,0.99906369620613,107.41592020184686
6.718124544,0.9989220317994593,107.27132784773596
6.720411648,0.9988492904465472,107.12829790168121
6.722698752,0.9988499255465071,106.98580352611867
6.724985856,0.9989239810233025,106.84279982878414
6.72727296,0.9990667244115982,106.69820993853182
6.729559552,0.9992693712932618,106.55110793545168
6.731846656,0.9995187752130004,106.40074583982619
6.73413376,0.9997994696723119,106.24650661238925
6.736420864,1.0000934254386251,106.08814183159689
6.738707968,1.0003823090598436,105.92554206024839
6.740995072,1.0006476507815365,105.75893981638548
6.743281664,1.0008728999889749,105.58876417959058
6.745568768,1.0010436379361178,105.41574887619838
6.747855872,1.001149331169185,105.2407105051989
6.750142976,1.001182985199506,105.06469474684924
6.75243008,1.0011427128507056,104.88870804109918
6.754717184,1.001030896132614,104.71386081759714
6.757003776,1.000854548529946,104.54107730760161
6.75929088,1.000624893513911,104.37125504972595
6.761577984,1.0003562047614478,104.20505870366087
6.763865088,1.0000656356309852,104.04289579313692
6.766152192,0.9997712840505525,103.88500828999436
6.768439296,0.9994920150334515,103.73130498894574
6.770725888,0.9992453110701671,103.58141373839051
6.773012992,0.9990469550277851,103.43477947548843
6.775300096,0.998909513163265,103.2905973550934
6.7775872,0.9988415012090712,103.14792384679616
6.779874304,0.9988476211444384,103.00572656377926
6.782161408,0.998927169140172,102.8628926768441
6.784448512,0.9990753774307066,102.71842242187175
6.786735104,0.9992827751094584,102.57137772075286
6.789022208,0.9995362310804905,102.42097774232869
6.791309312,0.9998198043064586,102.2666829215548
6.793596416,1.0001153860449912,102.1082141657886
6.79588352,1.0004044082368897,101.94548420872934
6.798170624,1.0006686286290352,101.77879105012482
6.800457216,1.0008913836803282,101.60853283538803
6.80274432,1.0010584585692983,101.43548091527309
6.805031424,1.0011594092308582,101.2604756474427
6.807318528,1.0011879403181057,101.08454790665856
6.809605632,1.0011419955319134,100.90875058030319
6.811892736,1.0010246308016644,100.7341544354165
6.814179328,1.0008432091673536,100.56171882819271
6.816466432,1.0006091290248609,100.39229489005237
6.818753536,1.000337019991471,100.22653552968659
6.82104064,1.0000441407012612,100.0648993447169
6.823327744,0.9997489089157513,99.90752862713515
6.825614848,0.999470142494184,99.75433196166479
6.82790144,0.9992254145671703,99.60496007576405
6.830188544,0.999030228903294,99.45881234265806
6.832475648,0.9988969050985556,99.31504905460758
6.834762752,0.9988339726627733,99.17274304711589
6.837049856,0.998845503961733,99.03080561075006
6.83933696,0.9989307180248165,98.88818069727469
6.841623552,0.9990844115445259,98.74382533163555
6.843910656,0.9992966146388358,98.59682754895381
6.84619776,0.9995540179931234,98.44640460128126
6.848484864,0.9998403483610857,98.29205661836367
6.850771968,1.0001375076674397,98.13346491388684
6.853059072,1.0004266645050093,97.9706322013227
6.855345664,1.0006895362543327,97.80382095715802
6.857632768,1.0009096899182093,97.63349580514551
6.859919872,1.00107296694155,97.4604041662326
6.862206976,1.0011692838929642,97.28545230656061
6.86449408,1.0011924766709215,97.10963294792124
6.866781184,1.0011409497258483,96.9340091436952
6.869068288,1.0010179741125833,96.75967015908346
6.87135488,1.0008314051837528,96.58756925680186
6.873641984,1.00059284553443,96.4185694934104
6.875929088,1.0003172537435712,96.2532887870105
6.878216192,1.0000222225191018,96.09215952959498
6.880503296,0.9997263249476284,95.93531480976553
6.8827904,0.9994481433109412,95.78267312234941
6.885076992,0.9992053528836515,95.63382728958628
6.887364096,0.9990134433219446,95.48813001772399
6.8896512,0.9988844663099784,95.34481156439455
6.891938304,0.9988266925644324,95.20286062180207
6.894225408,0.9988438453084952,95.06119209412502
6.896512512,0.9989347641468715,94.91877020639885
6.898799104,0.9990937781457687,94.7745399936835
6.901086208,0.9993109192346873,94.62756987676143
6.903373312,0.9995721348128076,94.4771320827449
6.905660416,0.9998613047748295,94.32271735524142
6.90794752,1.0001598409197383,94.16403498657075
6.910234624,1.0004490674308089,94.00109079979066
6.912521216,1.000710652220826,93.83415738391011
6.91480832,1.0009280333771897,93.66377720027376
6.917095424,1.001087483030629,93.49065658035167
6.919382528,1.0011789836467748,93.31575817729824
6.921669632,1.0011966773229852,93.14004247994131
6.923956736,1.0011394177559572,92.96462545944941
6.926243328,1.0010109516267018,92.79055666211356
