freq,mag,phase
6.0,1.00017566191329,-118.61311864668374
6.003593728,1.0002412660183517,-118.8157263564132
6.007187968,1.00029157171717,-119.01919232309157
6.010781696,1.0003242183034131,-119.22326291935069
6.014375424,1.0003370128308389,-119.42766149649768
6.017969664,1.0003291699467738,-119.63213782870572
6.021563392,1.000301265214782,-119.83637195066375
6.02515712,1.0002549571835422,-120.04008370085057
6.02875136,1.0001930900028217,-120.24308781659747
6.032345088,1.0001194100416864,-120.44514085292096
6.035938816,1.0000382239492862,-120.64607629220203
6.039532544,0.9999546901871699,-120.84591619658835
6.043126784,0.9998738068650155,-121.04457649244358
6.046720512,0.9998006003745055,-121.24217112543062
6.05031424,0.9997394079130969,-121.43879515999785
6.05390848,0.9996940260777729,-121.63472870941904
6.057502208,0.9996672000983561,-121.83015206985434
6.061095936,0.9996606333673203,-122.02536293843136
6.064690176,0.9996746215938997,-122.2206384467837
6.068283904,0.9997084343088659,-122.4163033478869
6.071877632,0.9997598919300507,-122.6125523691352
6.075471872,0.9998259737479119,-122.80969194384886
6.0790656,0.9999025757529655,-123.00787840354658
6.082659328,0.9999851131529613,-123.20721324299514
6.086253568,1.000068470887897,-123.40774082963569
6.089847296,1.0001476633321862,-123.60946423536467
6.093441024,1.0002178014986034,-123.81226375355953
6.097035264,1.0002745605561507,-124.01600089825486
6.100628992,1.0003146380978858,-124.22042954345123
6.10422272,1.0003354648305158,-124.42531249597754
6.10781696,1.0003358218075575,-124.630375599526
6.111410688,1.000315656011415,-124.83533393958068
6.115004416,1.0002761990624174,-125.03990649337868
6.118598144,1.0002199310063553,-125.24377026035977
6.122192384,1.000150048679442,-125.44679383966565
6.125786112,1.0000710369396333,-125.64878457614596
6.12937984,0.9999876282943537,-125.8495927653701
6.13297408,0.9999049059724165,-126.04928093213478
6.136567808,0.9998278025616913,-126.24784245894043
6.140161536,0.9997611593574093,-126.44541496829879
6.143755776,0.9997090179764485,-126.64212523883576
6.147349504,0.9996744486220123,-126.83827655145073
6.150943232,0.9996597319246999,-127.03407020149236
6.154537472,0.999665566994748,-127.22983680261879
6.1581312,0.9996918496843151,-127.42582899573573
6.161724928,0.9997368162902189,-127.62238410418671
6.165319168,0.9997977001704814,-127.81971604694482
6.168912896,0.9998708982261901,-128.01801999693672
6.172506624,0.9999519883710313,-128.2174417835141
6.176100864,1.0000358934593006,-128.41805322277645
6.179694592,1.000117566201849,-128.61983797142133
6.18328832,1.0001920609428552,-128.82281850117758
6.186882048,1.0002549099916291,-129.02674023712083
6.190476288,1.0003020250327048,-129.23148605390736
6.194070016,1.0003307458816006,-129.43680737385998
6.197663744,1.0003393525005837,-129.64238819636748
6.201257984,1.0003272282365177,-129.8479952943072
6.204851712,1.0002950246634603,-130.05330078858654
6.20844544,1.0002448712208138,-130.2580659974199
6.21203968,1.0001797765614082,-130.46198199499653
6.215633408,1.0001035678734858,-130.66495420379687
6.219227136,1.000021016687507,-130.86678710414637
6.222821376,0.9999370748341422,-131.06747811814245
6.226415104,0.9998569290012633,-131.2669996807965
6.230008832,0.9997853569829465,-131.46545893901185
6.233603072,0.9997268326981028,-131.6630355546008
6.2371968,0.9996849181601223,-131.85989057408466
6.240790528,0.9996619780632915,-132.05633826583357
6.244384768,0.9996596883578326,-132.2525970587271
6.247978496,0.9996780041985548,-132.4489955979066
6.251572224,0.9997159777294434,-132.64582151742042
6.255166464,0.9997711095702714,-132.84332819469293
6.258760192,0.9998401784886902,-133.04174276672202
6.26235392,0.9999190069169402,-133.24121815000908
6.265947648,1.0000026708057297,-133.44187791258489
6.269541888,1.0000861045029101,-133.6437599620591
6.273135616,1.0001642924513923,-133.84679531822982
6.276729344,1.0002324217173062,-134.05089285983345
6.280323584,1.0002863875591326,-134.25590574793333
6.283917312,1.0003228254666654,-134.46158006566753
6.28751104,1.0003396163855265,-134.66763390272132
6.29110528,1.0003356646802724,-134.87379702035275
6.294699008,1.0003111958718596,-135.07979278675325
6.298292736,1.0002677938787183,-135.2853053289054
6.301886976,1.0002079517448912,-135.49015450627095
6.305480704,1.0001353935571324,-135.69401947437322
6.309074432,1.0000544695840181,-135.8968484055568
6.312668672,0.9999702115926368,-136.09851981463444
6.3162624,0.9998876695587219,-136.29902873204844
6.319856128,0.9998118153623383,-136.4983806622963
6.323450368,0.9997474854028675,-136.6967996472512
6.327044096,0.9996984177107171,-136.89440659303912
6.330637824,0.9996675617732397,-137.0914903956655
6.334231552,0.9996569505827834,-137.2883133254957
6.337825792,0.9996671691164516,-137.4850890443938
6.34141952,0.9996976496457297,-137.6822080827027
6.345013248,0.9997465001205155,-137.87988645552792
6.348607488,0.999810696462539,-138.07842748876342
6.352201216,0.9998863985196103,-138.27796312455513
6.355794944,0.9999690633593732,-138.47865023829843
6.359389184,1.0000534844338311,-138.68058657671554
6.362982912,1.0001346504592903,-138.88366049218732
6.36657664,1.0002075150322796,-139.08785898616856
6.37017088,1.0002677448656727,-139.29304192811682
6.373764608,1.0003117008876872,-139.49901879778565
6.377358336,1.000336566730045,-139.7054431381632
6.380952576,1.0003409046274996,-139.91213094376366
6.384546304,1.0003244920050722,-140.1187330337122
6.388140032,1.000288218288013,-140.32498856623616
6.391734272,1.000234356288252,-140.53064240447821
6.395328,1.0001660905242722,-140.73543906841033
6.398921728,1.0000876776493783,-140.93918634274118
6.402515968,1.0000038391170427,-141.14182606024224
6.406109696,0.9999197661472542,-141.34328327994197
6.409703424,0.9998404604836014,-141.54356254112227
6.413297152,0.9997707602576754,-141.74283082352454
6.416891392,0.9997149210242414,-141.94119721022474
6.42048512,0.9996765157929407,-142.1389478049042
6.424078848,0.9996575578631551,-142.33630244726018
6.427673088,0.999659559749286,-142.53351528923275
6.431266816,0.9996822122048835,-142.7309416983493
6.434860544,0.9997241419097709,-142.92884885762396
6.438454784,0.9997828494126798,-143.1274707938419
6.442048512,0.9998547747463682,-143.3270723385995
6.44564224,0.999935417811627,-143.5277807452515
6.44923648,1.0000200364326313,-143.72965597153194
6.452830208,1.0001034316189543,-143.93277586683857
6.456423936,1.000180512663805,-144.13704079420273
6.460018176,1.000246428506171,-144.34235784799193
6.463611904,1.0002974175886648,-144.54850761286312
6.467205632,1.0003302446404385,-144.75526825345582
6.470799872,1.0003429365536651,-144.96239035398565
6.4743936,1.000334687812526,-145.16955473369745
6.477987328,1.000306055225728,-145.37647931179183
6.481581056,1.0002587009133084,-145.58286153011048
6.485175296,1.0001954830276814,-145.78849649567738
6.488769024,1.0001203804621974,-145.99318096831988
6.492362752,1.000037849120601,-146.19672442880776
6.495956992,0.999952897673629,-146.39911530253784
6.49955072,0.9998707948467582,-146.6003150290547
6.503144448,0.9997964620082558,-146.80044762531756
6.506738688,0.9997344318710394,-146.99960122728461
6.510332416,0.9996885872325311,-147.19800215223077
6.513926144,0.999661549653192,-147.39589026593433
6.517520384,0.9996550966544491,-147.59360405936374
6.521114112,0.9996696188809798,-147.79133872618536
6.52470784,0.9997043103625209,-147.98947415719863
6.52830208,0.9997568824019915,-148.18823829190453
6.531895808,0.9998242323651612,-148.3878701980767
6.535489536,0.9999022295277472,-148.58856924670152
6.539083776,0.9999862205167819,-148.7904143271751
6.542677504,1.0000709703378075,-148.99347927565287
6.546271232,1.0001514432920038,-149.19774498337264
6.549865472,1.000222584323043,-149.40314446381407
6.5534592,1.000280158354833,-149.6094254369449
6.557052928,1.0003207066679207,-149.81647394548264
6.560646656,1.0003416910119138,-150.02392076644873
6.564240896,1.0003417859289279,-150.23157745472463
6.567834624,1.000321107858992,-150.43908538513864
6.571428352,1.0002807344664224,-150.64618048887579
6.575022592,1.0002232837913796,-150.85262174541506
6.57861632,1.0001521816682213,-151.0581251047449
6.582210048,1.0000717505501826,-151.26257218907807
6.585804288,0.9999868168616186,-151.46588475397658
6.589398016,0.9999026882977766,-151.66799206524277
6.592991744,0.9998243800279086,-151.86894996800294
6.596585984,0.9997567226978366,-152.06890469783758
6.600179712,0.9997038008754755,-152.2679885497011
6.60377344,0.9996688811715111,-152.46650548326483
6.60736768,0.9996540229750128,-152.6646535411836
6.610961408,0.9996602499440559,-152.86273547877724
6.614555136,0.9996870690583166,-153.06109692933978
6.618149376,0.9997329828467733,-153.2600179653531
6.621743104,0.9997950697794498,-153.4596759194203
6.625336832,0.9998696333850303,-153.6603452696865
6.628931072,0.9999521065625351,-153.86214948740485
6.6325248,1.000037461932108,-154.0651488090332
6.636118528,1.0001206074046285,-154.26940154304353
6.639712256,1.000196281346271,-154.47476272156285
6.643306496,1.0002599911004004,-154.6811382230348
6.646900224,1.0003078902344327,-154.88832381845316
6.650493952,1.00033705073172,-155.09611247158858
6.654088192,1.0003455452856742,-155.30416029301912
6.65768192,1.0003331157488713,-155.51218409691737
6.661275648,1.0003002943979091,-155.71991576918802
6.664869888,1.0002491306581534,-155.92705064788504
6.668463616,1.0001827599265363,-156.13336776071594
6.672057344,1.0001051613932772,-156.3386958067863
6.675651584,1.0000212003087485,-156.5428831448198
6.679245312,0.9999358119468734,-156.74588072231288
6.68283904,0.9998542630596354,-156.94769383220762
6.68643328,0.999781596490958,-157.1484421555949
6.690027008,0.9997220374830513,-157.3482247311204
6.693620736,0.999679488852043,-157.5473285968412
6.697214976,0.9996563196102074,-157.74595579334076
6.700808704,0.9996540410831248,-157.94445313336126
6.704402432,0.9996728459557491,-158.14305480778134
6.70799616,0.9997115274405989,-158.34207558969476
6.7115904,0.9997677243054702,-158.5417960270831
6.715184128,0.9998381084218129,-158.74245334378233
6.718777856,0.999918229103499,-158.94414962919282
6.722372096,1.0000033922405334,-159.14708877891312
6.725965824,1.000088297499872,-159.3512106155352
6.729559552,1.0001678511469174,-159.5565624760168
6.733153792,1.0002371030717354,-159.76295856723382
6.73674752,1.000291988481207,-159.9702604570604
6.740341248,1.0003290084416685,-160.17822773476544
6.743935488,1.000346031604486,-160.38660695402461
6.747529216,1.000341858837777,-160.59508708116016
6.751122944,1.0003169530273817,-160.80336217002673
6.754717184,1.000272716280775,-161.0111766328093
6.758310912,1.0002117782759923,-161.21824653318612
6.76190464,1.0001379345063885,-161.42440670355754
6.76549888,1.0000555872386128,-161.62943085583746
6.769092608,0.9999697673122717,-161.83328688440545
6.772686336,0.9998858121024446,-162.0359604415036
6.776280576,0.9998086586314984,-162.23747029361786
6.779874304,0.9997431043120277,-162.43799335808822
6.783468032,0.99969319815386,-162.63769924859153
6.78706176,0.9996619697793453,-162.83683568778227
6.790656,0.9996511313820361,-163.03568462767112
6.794249728,0.9996616189680467,-163.23456914839701
6.797843456,0.9996926138194643,-163.43376958552545
6.801437696,0.9997423268916615,-163.63350307596335
6.805031424,0.9998077374992184,-163.83411966704614
6.808625152,0.9998848083139746,-164.03575820823795
6.812219392,0.9999688652775297,-164.23853389858303
6.81581312,1.0000547719888133,-164.44255252951427
6.819406848,1.0001374665633247,-164.64777257173014
6.823001088,1.0002116355991755,-164.85416892598266
6.826594816,1.000272986111607,-165.0614875839421
6.830188544,1.0003176562189755,-165.26959874032605
6.833782784,1.000342970397906,-165.4782424314981
6.837376512,1.0003473813515589,-165.68708607271984
6.84097024,1.0003306493477737,-165.89585900598928
6.84456448,1.0002937744444726,-166.10425747574124
6.848158208,1.000238919531396,-166.31203104008677
6.851751936,1.0001695816746308,-166.51892985799867
6.855345664,1.0000897256102992,-166.72476521050115
6.858939904,1.0000044004354758,-166.92945814538123
6.862533632,0.9999187584946372,-167.1329252771642
6.86612736,0.9998380059759717,-167.33524701301334
6.8697216,0.9997669824223541,-167.53652082723505
6.873315328,0.9997100802090794,-167.73683615183774
6.876909056,0.9996708927589684,-167.93649940359808
6.880503296,0.9996516493610478,-168.1357750140927
6.884097024,0.999653670539207,-168.33490889592667
6.887690752,0.9996765690129874,-168.5342848116479
6.891284992,0.999719295463702,-168.73408480885496
6.89487872,0.9997790088069418,-168.9346564564813
6.898472448,0.9998521363417794,-169.13617701080906
6.902066688,0.9999343893582929,-169.33881831783518
6.905660416,1.000020543357477,-169.5426836368111
6.909254144,1.00010536490442,-169.74775779198777
6.912848384,1.0001838220499326,-169.95404246481485
6.916442112,1.000251102538207,-170.16135172928156
6.92003584,1.0003031455449558,-170.36952027093943
6.92363008,1.000336582297607,-170.5783206550992
6.927223808,1.0003496614185532,-170.78746965011948
6.930817536,1.0003412824566857,-170.99666367344935
6.934411264,1.000312208031627,-171.20557327158733
6.938005504,1.0002640590236802,-171.41399041676692
6.941599232,1.0001998304941913,-171.62159515855177
6.94519296,1.0001233208500522,-171.8281920382367
6.9487872,1.0000393067149278,-172.03370343662974
6.952380928,0.9999528020850241,-172.2379901963561
6.955974656,0.9998690976188579,-172.4410602855679
6.959568896,0.9997933570261883,-172.6430549561296
6.963162624,0.9997301264435232,-172.8440256658952
6.966756352,0.9996833025230556,-173.04421905590505
6.970350592,0.9996556434610788,-173.24390751994338
6.97394432,0.9996490020948421,-173.4433677637937
6.977538048,0.9996636451048302,-173.64289323816223
6.981132288,0.9996987884502044,-173.842800691378
6.984726016,0.9997522513533046,-174.04332904633816
6.988319744,0.9998207721194728,-174.2447204484999
6.991913984,0.9999002083516045,-174.4472100326176
6.995507712,0.9999857119723266,-174.6508820242658
6.99910144,1.0000721084683837,-174.8557803657959
7.002695168,1.0001539728531825,-175.06188987236203
7.006289408,1.0002266014870138,-175.26911302081564
7.009883136,1.000285388019287,-175.47726872391115
7.013476864,1.0003268371027636,-175.68616396430127
7.017071104,1.0003483458948652,-175.89552457166076
7.020664832,1.0003486729473674,-176.10502954556367
7.02425856,1.00032765177797,-176.31444410049332
7.0278528,1.0002867082037008,-176.52338157688405
7.031446528,1.0002282262973958,-176.73164985289762
7.035040256,1.0001560487274548,-176.93897295841978
7.038634496,1.0000740933585197,-177.14524675344904
7.042228224,0.9999876160109071,-177.35029957552902
7.045821952,0.9999018496813584,-177.5541687649597
7.049416192,0.9998220071239402,-177.75684429294037
7.05300992,0.9997529079461028,-177.9584622907142
7.056603648,0.9996988257354215,-178.15923361448705
7.060197888,0.999663130846514,-178.35936991946718
7.063791616,0.9996478501740549,-178.55913734590678
7.067385344,0.999653916675073,-178.7588726701003
7.070979584,0.9996811780581648,-178.95883700594342
7.074573312,0.999727629302137,-179.15933145118305
7.07816704,0.9997909287326641,-179.3606307561919
7.081760768,0.9998666672206562,-179.562942491747
7.085355008,0.999950675050697,-179.76637420186938
7.088948736,1.000037678468954,-179.97106274483656
7.092542464,1.000122430177417,179.82303062631092
7.096136704,1.0001996115580725,179.61597160925032
7.099730432,1.0002646520867096,179.40788439777558
7.10332416,1.0003137659616097,179.1989662445099
7.1069184,1.0003435799733342,178.98945603756758
7.110512128,1.0003526560231304,178.77967034533896
7.114105856,1.0003400673386,178.56993001379956
7.117700096,1.0003068675868216,178.36048130523136
7.121293824,1.0002549009446646,178.15164110730265
7.124887552,1.0001873796689982,177.94360263122365
7.128481792,1.0001084671515879,177.73666682529802
7.13207552,1.0000229031078303,177.53082587644096
7.135669248,0.9999358817328702,177.32625287691238
7.139263488,0.9998526979486745,177.12282586270086
7.142857216,0.9997784884574883,176.9205653975089
7.146450944,0.9997176333793186,176.71923415256597
7.150044672,0.9996739342878291,176.51863692451582
7.153638912,0.9996501241882421,176.31851300310566
7.15723264,0.9996475788126347,176.11859402937228
7.160826368,0.9996664678392253,175.91853112395506
7.164420608,0.9997056468455089,175.71804109790824
7.168014336,0.9997627791274298,175.5168453868305
7.171608064,0.9998343415218846,175.31474771321226
7.175202304,0.9999159823841124,175.11153658967982
7.178796032,1.0000026150542205,174.90711989696047
7.18238976,1.0000892534237922,174.70146562785942
7.185984,1.0001704444378583,174.49460743865205
7.189577728,1.0002411994188989,174.28664738389784
7.193171456,1.0002973418352086,174.07778340726188
7.196765696,1.0003353933299741,173.86825813465794
7.200359424,1.0003529639673712,173.65830510382258
7.203953152,1.000349128161461,173.44823275367636
7.207547392,1.000323951594937,173.23838174313184
7.21114112,1.000279096212197,173.02900659016075
7.214734848,1.0002171299642868,172.82038538259295
7.218329088,1.0001420426282241,172.6127226762331
7.221922816,1.0000582646616145,172.40619541949442
7.225516544,0.9999707463986263,172.2008992231916
7.229110272,0.9998850108162859,171.9967645464325
7.232704512,0.9998063075588169,171.79384222510387
7.23629824,0.9997391966383293,171.59195981587064
7.239891968,0.9996880933667238,171.39088298861668
7.243486208,0.9996559623341617,171.19040381686892
7.247079936,0.9996446221286017,170.990226274301
7.250673664,0.9996549106065123,170.79004425368691
7.254267904,0.9996863630422649,170.58959033001807
7.257861632,0.9997367824272072,170.38851001626668
7.26145536,0.9998031409117579,170.1865914560338
7.2650496,0.9998817558871255,169.98365401938554
7.268643328,0.9999672670130041,169.77952324259684
7.272237056,1.0000549812217168,169.57414754458318
7.275831296,1.0001392982214112,169.36754925318192
7.279425024,1.00021510914618,169.15979744963997
7.283018752,1.0002778606233864,168.951056254433
7.286612992,1.000323747742017,168.74153829660324
7.29020672,1.000349903105649,168.53148176151495
7.293800448,1.0003547963755808,168.321206804966
7.297394176,1.0003379800820709,168.11101312012428
7.300988416,1.000300679711481,167.90117176645222
7.304582144,1.0002450437597263,167.69203023155148
7.308175872,1.0001744842332745,167.48373045381095
7.311770112,1.0000932589015141,167.27651894776946
7.31536384,1.0000062371974714,167.07052344332547
7.318957568,0.9999187849015668,166.8657461464842
7.322551808,0.9998363371094415,166.66216224053736
7.326145536,0.9997636671326067,166.45967716573014
7.329739264,0.9997054260522743,166.25813400108203
7.333333504,0.9996650980379048,166.05726117997395
7.336927232,0.99964514194231,165.85684280667923
7.34052096,0.9996466755536029,165.65655016097784
7.3441152,0.9996697346955828,165.45605401369232
7.347708928,0.9997130081080934,165.255081383837
7.351302656,0.9997736633902158,165.05336847514448
7.354896896,0.9998481638733842,164.85069485313716
7.358490624,0.9999317523505824,164.64688451378015
7.362084352,1.0000197022705746,164.44183715203795
7.365678592,1.0001063782729573,164.23555053327843
7.36927232,1.0001865646975738,164.02804583497175
7.372866048,1.0002554484913164,163.8194922823821
7.376459776,1.0003087696100392,163.61007202308426
7.380054016,1.0003431850254538,163.4000172900689
7.383647744,1.0003569030052575,163.18959412683543
7.387241472,1.0003488350519913,162.97913226204008
7.390835712,1.0003194727709848,162.76892929916858
7.39442944,1.0002705878081535,162.55928626768429
7.398023168,1.0002053563715883,162.35044147383937
7.401617408,1.0001275091477968,162.14260437964782
7.405211136,1.0000418373740487,161.93592416011046
7.408804864,0.9999535996491704,161.73047737661668
7.412399104,0.9998680931912381,161.52628133629693
7.415992832,0.9997906317874903,161.32321572867517
7.41958656,0.9997257937396948,161.12118746497248
7.4231808,0.9996776760729595,160.9198983145392
7.426774528,0.9996491385235371,160.71920615229533
7.430368256,0.9996419653942444,160.51876195856897
