freq,mag,phase
6.0,0.9999979568838239,118.24550005340342
6.008,0.9999980469462331,118.1598818344957
6.016,0.9999981349002368,118.07425096458674
6.024,0.9999982207795494,117.98860742661859
6.032,0.9999983046176267,117.90295120353966
6.04,0.9999983864476661,117.81728227830476
6.048,0.9999984663026071,117.73160063387513
6.056,0.9999985442151333,117.64590625321854
6.064,0.9999986202176718,117.5601991193092
6.072,0.9999986943423949,117.47447921512799
6.08,0.999998766621221,117.38874652366225
6.088,0.9999988370858149,117.30300102790605
6.096,0.9999989057675893,117.21724271086015
6.104,0.9999989726977047,117.13147155553192
6.112,0.9999990379070716,117.04568754493559
6.12,0.9999991014263497,116.95989066209212
6.128,0.9999991632859507,116.8740808900293
6.136,0.9999992235160368,116.78825821178181
6.144,0.9999992821465236,116.7024226103912
6.152,0.9999993392070801,116.61657406890595
6.16,0.9999993947271293,116.53071257038157
6.168,0.9999994487358494,116.44483809788056
6.176,0.9999995012621752,116.35895063447242
6.184,0.9999995523347972,116.27305016323388
6.192,0.9999996019821642,116.18713666724861
6.2,0.9999996502324833,116.10121012960758
6.208,0.9999996971137214,116.01527053340892
6.216,0.9999997426536053,115.929317861758
6.224,0.9999997868796224,115.84335209776742
6.232,0.9999998298190228,115.75737322455718
6.24,0.9999998714988189,115.67138122525459
6.248,0.9999999119457867,115.58537608299429
6.256,0.9999999511864666,115.49935778091843
6.264,0.9999999892471639,115.41332630217656
6.272,0.9999999999999999,115.32728162992571
6.28,1.0,115.24122374733051
6.288,1.0,115.1551526375631
6.296,1.0,115.06906828380326
6.304,1.0,114.98297066923833
6.312,1.0,114.89685977706348
6.32,1.0,114.81073559048139
6.328,1.0,114.72459809270264
6.336,0.9999999999999999,114.63844726694549
6.344,1.0,114.55228309643611
6.352,1.0,114.46610556440847
6.36,1.0,114.37991465410443
6.368,1.0,114.29371034877376
6.376,1.0,114.20749263167421
6.384,1.0,114.12126148607153
6.392,1.0,114.03501689523945
6.4,1.0,113.9487588424598
6.408,1.0,113.86248731102253
6.416,0.9999999999999999,113.77620228422568
6.424,1.0,113.68990374537545
6.432,1.0,113.60359167778626
6.44,0.9999999999999999,113.51726606478077
6.448,0.9999999999999999,113.43092688968991
6.456,1.0,113.34457413585291
6.464,1.0,113.2582077866173
6.472,1.0,113.17182782533905
6.48,1.0,113.08543423538245
6.4879999999999995,0.9999999999999999,112.99902700012034
6.496,1.0,112.9126061029339
6.504,1.0,112.82617152721296
6.5120000000000005,0.9999999999999999,112.73972325635573
6.52,1.0,112.65326127376916
6.5280000000000005,1.0,112.56678556286865
6.536,1.0,112.48029610707836
6.5440000000000005,0.9999999999999999,112.39379288983105
6.552,1.0,112.30727589456824
6.5600000000000005,1.0,112.22074510474012
6.568,1.0,112.13420050380573
6.5760000000000005,0.9999999999999999,112.04764207523284
6.584,0.9999999999999999,111.96106980249812
6.592,0.9999999999999999,111.87448366908707
6.6,1.0,111.7878836584941
6.608,1.0,111.70126975422254
6.616,1.0,111.61464193978475
6.624,1.0,111.52800019870197
6.632,1.0,111.44134451450462
6.64,1.0,111.35467487073207
6.648,0.9999999999999998,111.26799125093282
6.656,1.0,111.1812936386645
6.664,1.0,111.09458201749389
6.672,1.0,111.00785637099698
6.68,1.0,110.92111668275895
6.688,0.9999999999999999,110.83436293637426
6.696,0.9999999999999999,110.74759511544666
6.704,1.0,110.66081320358917
6.712,0.9999999999999999,110.5740171844242
6.72,0.9999999999999999,110.48720704158353
6.728,1.0,110.40038275870835
6.736,0.9999999999999999,110.31354431944926
6.744,1.0,110.22669170746639
6.752,1.0,110.1398249064293
6.76,0.9999999999999999,110.05294390001714
6.768,1.0,109.96604867191857
6.776,0.9999999999999999,109.87913920583195
6.784,0.9999999999999999,109.79221548546512
6.792,1.0,109.70527749453562
6.8,0.9999999999999999,109.61832521677078
6.808,1.0,109.53135863590751
6.816,1.0,109.44437773569251
6.824,1.0,109.35738249988228
6.832,1.0,109.27037291224309
6.84,1.0,109.18334895655103
6.848,1.0,109.0963106165921
6.856,0.9999999999999999,109.0092578761622
6.864,0.9999999999999999,108.92219071906707
6.872,0.9999999999999999,108.83510912912249
6.88,1.0,108.74801309015417
6.888,1.0,108.66090258599786
6.896,1.0,108.57377760049933
6.904,1.0,108.4866381175144
6.912,1.0,108.39948412090902
6.92,0.9999999999999999,108.31231559455928
6.928,1.0,108.22513252235137
6.936,1.0,108.13793488818172
6.944,1.0,108.05072267595692
6.952,1.0,107.96349586959381
6.96,0.9999999999999999,107.87625445301956
6.968,1.0,107.78899841017156
6.976,0.9999999999999999,107.70172772499758
6.984,1.0,107.6144423814557
6.992,1.0000000000000002,107.52714236351437
7.0,1.0,107.43982765515254
7.008,1.0000000000000002,107.3524982403595
7.016,1.0,107.26515410313503
7.024,0.9999999999999998,107.17779522748945
7.032,0.9999999999999999,107.09042159744352
7.04,0.9999999999999999,107.00303319702863
7.048,1.0000000000000002,106.91563001028666
7.056,1.0,106.82821202127019
7.064,1.0,106.74077921404232
7.072,0.9999999999999999,106.6533315726769
7.08,0.9999999999999999,106.56586908125841
7.088,1.0,106.47839172388207
7.096,1.0,106.3908994846538
7.104,0.9999999999999999,106.30339234769032
7.112,1.0,106.21587029711912
7.12,1.0,106.12833331707851
7.128,0.9999999999999999,106.04078139171767
7.136,1.0,105.95321450519663
7.144,1.0,105.86563264168626
7.152,0.9999999999999999,105.77803578536846
7.16,1.0,105.690423920436
7.168,0.9999999999999998,105.60279703109266
7.176,1.0,105.5151551015532
7.184,1.0,105.42749811604344
7.192,1.0,105.3398260588002
7.2,1.0,105.25213891407141
7.208,1.0,105.16443666611612
7.216,1.0,105.07671929920448
7.224,1.0,104.9889867976178
7.232,0.9999999999999999,104.90123914564857
7.24,0.9999999999999999,104.8134763276005
7.248,1.0,104.7256983277885
7.256,1.0,104.63790513053878
7.264,1.0,104.55009672018879
7.272,1.0,104.46227308108729
7.28,1.0,104.37443419759441
7.288,0.9999999999999999,104.28658005408157
7.296,1.0,104.1987106349316
7.304,1.0,104.11082592453879
7.312,1.0,104.02292590730875
7.32,0.9999999999999999,103.93501056765864
7.328,1.0,103.847079890017
7.336,1.0,103.75913385882397
7.344,1.0,103.67117245853117
7.352,1.0,103.58319567360176
7.36,1.0000000000000002,103.4952034885105
7.368,1.0,103.4071958877437
7.376,1.0,103.31917285579934
7.384,1.0,103.23113437718703
7.392,0.9999999999999999,103.14308043642802
7.4,1.0,103.05501101805531
7.4079999999999995,0.9999999999999999,102.96692610661358
7.416,1.0,102.87882568665921
7.4239999999999995,1.0,102.79070974276043
7.432,1.0,102.70257825949716
7.4399999999999995,1.0,102.6144312214612
7.448,1.0,102.52626861325614
7.4559999999999995,1.0,102.43809041949747
7.464,1.0,102.34989662481246
7.4719999999999995,1.0,102.26168721384042
7.48,1.0,102.17346217123243
7.4879999999999995,1.0,102.08522148165164
7.496,0.9999999999999999,101.99696512977309
7.504,1.0,101.90869310028387
7.5120000000000005,1.0,101.82040537788299
7.52,1.0,101.73210194728159
7.5280000000000005,1.0,101.6437827932028
7.536,0.9999999999999999,101.55544790038189
7.5440000000000005,1.0,101.46709725356614
7.552,0.9999999999999999,101.37873083751508
7.5600000000000005,1.0,101.29034863700022
7.568,0.9999999999999999,101.20195063680539
7.5760000000000005,0.9999999999999999,101.1135368217265
7.584,1.0,101.02510717657172
7.5920000000000005,0.9999999999999999,100.93666168616146
7.6,1.0,100.84820033532833
7.6080000000000005,0.9999999999999999,100.75972310891723
7.616,0.9999999999999999,100.67122999178542
7.6240000000000006,0.9999999999999999,100.58272096880235
7.632,1.0,100.49419602484993
7.640000000000001,0.9999999999999999,100.40565514482232
7.648,1.0,100.31709831362615
7.656000000000001,1.0,100.22852551618037
7.664,0.9999999999999998,100.13993673741643
7.672,0.9999999999999999,100.05133196227816
7.68,0.9999999999999999,99.96271117572182
7.688,0.9999999999999999,99.87407436271624
7.696,1.0,99.7854215082427
7.704,1.0,99.696752597295
7.712,1.0,99.60806761487949
7.72,0.9999999999999999,99.51936654601506
7.728,1.0,99.43064937573324
7.736,1.0,99.34191608907808
7.744,1.0,99.25316667110633
7.752,0.9999999999999999,99.1644011068873
7.76,1.0,99.07561938150305
7.768,1.0,98.98682148004822
7.776,1.0,98.89800738763026
7.784,1.0,98.80917708936924
7.792,1.0,98.72033057039805
7.8,1.0,98.63146781586225
7.808,1.0,98.54258881092026
7.816,1.0,98.45369354074325
7.824,1.0,98.36478199051523
7.832,1.0,98.275854145433
7.84,0.9999999999999998,98.18690999070627
7.848,0.9999999999999999,98.0979495115576
7.856,0.9999999999999999,98.00897269322242
7.864,0.9999999999999999,97.91997952094908
7.872,1.0,97.83096997999887
7.88,1.0,97.74194405564602
7.888,1.0,97.65290173317773
7.896,0.9999999999999998,97.56384299789416
7.904,0.9999999999999999,97.4747678351085
7.912,0.9999999999999999,97.38567623014693
7.92,0.9999999999999999,97.29656816834868
7.928,1.0,97.20744363506606
7.936,0.9999999999999999,97.11830261566443
7.944,1.0,97.02914509552222
7.952,0.9999999999999998,96.939971060031
7.96,0.9999999999999999,96.85078049459545
7.968,0.9999999999999999,96.76157338463341
7.976,1.0,96.67234971557586
7.984,0.9999999999999999,96.583109472867
7.992,0.9999999999999998,96.49385264196417
8.0,1.0,96.40457920833795
8.008,1.0,96.31528915747217
8.016,1.0,96.22598247486384
8.024000000000001,1.0,96.13665914602333
8.032,1.0,96.04731915647426
8.04,1.0,95.9579624917535
8.048,1.0,95.86858913741126
8.056000000000001,1.0,95.77919907901112
8.064,1.0,95.68979230212997
8.072,1.0,95.60036879235808
8.08,1.0,95.51092853529909
8.088000000000001,1.0000000000000002,95.42147151657004
8.096,1.0,95.33199772180141
8.104,1.0,95.24250713663709
8.112,1.0,95.1529997467344
8.120000000000001,1.0,95.06347553776415
8.128,0.9999999999999998,94.97393449541065
8.136,1.0,94.88437660537164
8.144,0.9999999999999999,94.79480185335841
8.152000000000001,0.9999999999999999,94.70521022509578
8.16,0.9999999999999999,94.61560170632215
8.168,1.0,94.5259762827894
8.176,1.0,94.43633394026301
8.184000000000001,1.0,94.34667466452207
8.192,0.9999999999999999,94.25699844135927
8.2,0.9999999999999999,94.16730525658095
8.208,0.9999999999999999,94.07759509600699
8.216000000000001,1.0,93.987867945471
8.224,0.9999999999999998,93.89812379082028
8.232,1.0,93.80836261791572
8.24,1.0,93.71858441263198
8.248000000000001,1.0,93.6287891608574
8.256,0.9999999999999999,93.53897684849406
8.264,1.0,93.44914746145777
8.272,1.0,93.35930098567809
8.280000000000001,1.0,93.26943740709838
8.288,0.9999999999999999,93.17955671167576
8.296,1.0,93.08965888538116
8.304,0.9999999999999999,92.99974391419927
8.312,1.0,92.9098117841287
8.32,1.0,92.81986248118186
8.328,1.0,92.729895991385
8.336,1.0000000000000002,92.63991230077825
8.344,1.0,92.54991139541563
8.352,1.0,92.45989326136507
8.36,1.0,92.36985788470841
8.368,0.9999999999999999,92.27980525154138
8.376,1.0,92.1897353479737
8.384,1.0,92.099648160129
8.392,1.0,92.00954367414491
8.4,1.0,91.91942187617303
8.408,1.0,91.82928275237897
8.416,1.0,91.73912628894232
8.424,0.9999999999999998,91.64895247205672
8.432,1.0,91.5587612879298
8.44,1.0,91.46855272278331
8.448,1.0,91.37832676285299
8.456,1.0,91.28808339438872
8.464,1.0,91.19782260365439
8.472,1.0,91.10754437692806
8.48,1.0,91.01724870050187
8.488,1.0,90.92693556068211
8.496,0.9999999999999999,90.83660494378917
8.504,1.0,90.74625683615763
8.512,1.0,90.6558912241362
8.52,0.9999999999999999,90.56550809408783
8.528,0.9999999999999998,90.47510743238958
8.536,1.0,90.38468922543277
8.544,0.9999999999999999,90.29425345962288
8.552,0.9999999999999999,90.2038001213797
8.56,0.9999999999999998,90.11332919713718
8.568,1.0,90.02284067334357
8.576,1.0,89.93233453646135
8.584,1.0,89.84181077296732
8.592,0.9999999999999999,89.75126936935249
8.6,1.0,89.66071031212228
8.608,0.9999999999999999,89.57013358779629
8.616,1.0,89.4795391829086
8.624,0.9999999999999998,89.38892708400748
8.632,1.0,89.29829727765564
8.64,0.9999999999999998,89.20764975043008
8.648,1.0,89.11698448892226
8.656,1.0,89.02630147973791
8.664,0.9999999999999999,88.93560070949727
8.672,1.0,88.84488216483489
8.68,1.0,88.75414583239981
8.688,1.0,88.6633916988554
8.696,1.0,88.57261975087962
8.704,0.9999999999999998,88.48182997516473
8.712,1.0,88.39102235841753
8.72,1.0,88.30019688735926
8.728,0.9999999999999999,88.2093535487257
8.736,1.0,88.11849232926704
8.744,0.9999999999999999,88.02761321574805
8.752,1.0,87.93671619494798
8.76,0.9999999999999999,87.8458012536606
8.768,1.0,87.75486837869423
8.776,1.0,87.6639175568718
8.784,1.0,87.57294877503064
8.792,1.0,87.48196202002283
8.8,1.0,87.39095727871492
8.808,1.0,87.2999345379881
8.815999999999999,0.9999999999999999,87.20889378473814
8.824,0.9999999999999999,87.11783500587539
8.832,1.0,87.02675818832489
8.84,1.0,86.9356633190263
8.847999999999999,0.9999999999999999,86.84455038493388
8.856,1.0,86.75341937301658
8.864,0.9999999999999999,86.66227027025798
8.872,0.9999999999999998,86.57110306365641
8.879999999999999,0.9999999999999999,86.47991774022476
8.888,0.9999999999999999,86.38871428699073
8.896,0.9999999999999999,86.29749269099666
8.904,1.0,86.20625293929966
8.911999999999999,1.0,86.1149950189715
8.92,0.9999999999999999,86.02371891709866
8.928,0.9999999999999999,85.9324246207825
8.936,1.0,85.841112117139
8.943999999999999,1.0,85.74978139329896
8.952,1.0000000000000002,85.65843243640794
8.96,1.0,85.56706523362628
8.968,1.0,85.47567977212915
8.975999999999999,1.0,85.38427603910647
8.984,1.0,85.29285402176298
8.992,1.0,85.20141370731824
9.0,1.0,85.1099550830067
9.008,1.0,85.01847813607759
9.016,0.9999999999999999,84.92698285379497
9.024000000000001,0.9999999999999999,84.83546922343781
9.032,0.9999999999999999,84.74393723229993
9.04,1.0,84.65238686769005
9.048,0.9999999999999999,84.5608181169317
9.056000000000001,0.9999999999999999,84.46923096736342
9.064,0.9999999999999999,84.37762540633855
9.072,1.0,84.28600142122542
9.08,0.9999999999999998,84.1943589994072
9.088000000000001,0.9999999999999999,84.10269812828209
9.096,1.0,84.0110187952632
9.104,0.9999999999999999,83.91932098777855
9.112,1.0,83.82760469327113
9.120000000000001,0.9999999999999999,83.73586989919895
9.128,1.0,83.64411659303495
9.136,0.9999999999999999,83.5523447622671
9.144,0.9999999999999999,83.46055439439826
9.152000000000001,1.0,83.36874547694644
9.16,1.0,83.27691799744458
9.168,0.9999999999999999,83.18507194344069
9.176,0.9999999999999998,83.0932073024977
9.184000000000001,0.9999999999999999,83.00132406219373
9.192,1.0,82.90942221012186
9.2,0.9999999999999999,82.81750173389025
9.208,1.0,82.7255626211221
9.216000000000001,1.0,82.63360485945573
9.224,0.9999999999999999,82.54162843654454
9.232,1.0,82.449633340057
9.24,1.0,82.35761955767667
9.248000000000001,1.0,82.26558707710224
9.256,1.0,82.17353588604757
9.264,0.9999999999999999,82.08146597224157
9.272,0.9999999999999999,81.9893773234283
9.280000000000001,1.0,81.89726992736698
9.288,0.9999999999999999,81.80514377183204
9.296,1.0,81.71299884461298
9.304,0.9999999999999999,81.6208351335145
9.312000000000001,1.0,81.52865262635652
9.32,0.9999999999999999,81.4364513109741
9.328,0.9999999999999999,81.34423117521759
9.336,1.0,81.25199220695238
9.344,1.0,81.15973439405926
9.352,1.0,81.06745772443408
9.36,0.9999999999999999,80.97516218598807
9.368,1.0,80.88284776664759
9.376,1.0,80.79051445435435
9.384,1.0,80.69816223706519
9.392,0.9999999999999999,80.60579110275238
9.4,1.0,80.5134010394033
9.408,0.9999999999999999,80.4209920350208
9.416,1.0,80.32856407762281
9.424,1.0,80.23611715524277
9.432,1.0,80.14365125592929
9.44,1.0,80.05116636774639
9.448,0.9999999999999999,79.95866247877333
9.456,1.0,79.86613957710485
9.464,1.0,79.77359765085089
9.472,1.0,79.68103668813684
9.48,0.9999999999999999,79.5884566771034
9.488,1.0,79.49585760590674
9.496,0.9999999999999999,79.40323946271829
9.504,1.0,79.31060223572497
9.512,1.0,79.21794591312907
9.52,1.0,79.12527048314831
9.528,0.9999999999999999,79.0325759340158
9.536,1.0,78.93986225398014
9.544,1.0,78.84712943130528
9.552,0.9999999999999999,78.75437745427074
9.56,1.0,78.6616063111714
9.568,0.9999999999999999,78.56881599031766
9.576,0.9999999999999998,78.4760064800354
9.584,1.0,78.383177768666
9.592,1.0,78.29032984456627
9.6,0.9999999999999999,78.19746269610864
9.608,1.0,78.10457631168099
9.616,1.0,78.01167067968676
9.624,0.9999999999999999,77.91874578854488
9.632,0.9999999999999999,77.82580162668991
9.64,1.0,77.73283818257191
9.648,0.9999999999999999,77.63985544465656
9.656,0.9999999999999999,77.54685340142505
9.664,1.0,77.45383204137427
9.672,0.9999999999999999,77.36079135301662
9.68,0.9999999999999999,77.26773132488017
9.688,0.9999999999999998,77.17465194550859
9.696,1.0,77.08155320346121
9.704,1.0,76.98843508731296
9.712,1.0,76.89529758565452
9.72,1.0,76.80214068709213
9.728,0.9999999999999999,76.70896438024785
9.736,1.0,76.61576865375926
9.744,1.0,76.52255349627983
9.752,0.9999999999999999,76.42931889647862
9.76,1.0,76.33606484304049
9.768,1.0,76.24279132466599
9.776,1.0,76.1494983300715
9.784,0.9999999999999999,76.05618584798907
9.792,1.0,75.96285386716666
9.8,0.9999999999999999,75.86950237636789
9.808,0.9999999999999999,75.7761313643723
9.816,1.0,75.68274081997517
9.824,0.9999999999999999,75.5893307319877
9.832,1.0,75.49590108923682
9.84,0.9999999999999999,75.40245188056548
9.847999999999999,0.9999999999999999,75.30898309483236
9.856,1.0,75.2154947209121
9.864,0.9999999999999999,75.12198674769526
9.872,1.0,75.02845916408835
9.879999999999999,1.0,74.9349119590137
9.888,1.0,74.84134512140967
9.896,0.9999999999999999,74.74775864023063
9.904,0.9999999999999998,74.65415250444687
9.911999999999999,1.0,74.56052670304472
9.92,1.0,74.46688122502646
9.928,1.0,74.37321605941048
9.936,1.0,74.27953119523123
9.943999999999999,0.9999999999999999,74.18582662153915
9.952,1.0,74.09210232740081
9.96,1.0,73.9983583018989
9.968,0.9999999999999999,73.90459453413222
9.975999999999999,1.0,73.81081101321573
9.984,1.0,73.71700772828048
9.992,1.0,73.6231846684738
10.0,0.9999999999999999,73.52934182295917
10.008,1.0,73.4354791809163
10.016,0.9999999999999999,73.3415967315411
10.024000000000001,0.9999999999999999,73.24769446404582
10.032,1.0,73.15377236765897
10.04,1.0,73.05983043162531
10.048,1.0,72.965868645206
10.056000000000001,0.9999999999999999,72.87188699767852
10.064,1.0,72.77788547833673
10.072,1.0,72.68386407649092
10.08,0.9999999999999999,72.58982278146772
10.088000000000001,1.0,72.4957615826103
10.096,1.0,72.40168046927829
10.104,1.0,72.30757943084777
10.112,1.0,72.21345845671138
10.120000000000001,0.9999999999999999,72.11931753627832
10.128,1.0,72.02515665897438
10.136,1.0,71.93097581424196
10.144,0.9999999999999999,71.83677499154005
10.152000000000001,1.0,71.7425541803444
10.16,0.9999999999999998,71.64831337014739
10.168,1.0,71.55405255045818
10.176,0.9999999999999999,71.45977171080264
10.184000000000001,1.0,71.3654708407235
10.192,0.9999999999999999,71.27114992978031
10.2,1.0,71.17680896754943
10.208,1.0,71.0824479436242
10.216000000000001,1.0,70.98806684761486
10.224,1.0,70.89366566914863
10.232,1.0,70.79924439786976
10.24,1.0,70.7048030234395
10.248000000000001,1.0,70.61034153553625
10.256,1.0000000000000002,70.51585992385557
10.264,1.0,70.42135817811011
10.272,0.9999999999999999,70.32683628802978
10.280000000000001,1.0,70.23229424336182
10.288,1.0,70.13773203387068
10.296,1.0,70.04314964933825
10.304,1.0,69.94854707956372
10.312000000000001,0.9999999999999999,69.85392431436385
10.32,0.9999999999999999,69.7592813435729
10.328,1.0,69.66461815704261
10.336,1.0,69.56993474464235
10.344000000000001,0.9999999999999998,69.47523109625921
10.352,1.0,69.38050720179803
10.36,1.0,69.28576305118132
10.368,1.0,69.19099863434948
10.376000000000001,1.0,69.09621394126088
10.384,0.9999999999999999,69.00140896189181
10.392,1.0,68.90658368623659
10.4,1.0,68.81173810430761
10.408000000000001,1.0,68.71687220613548
10.416,1.0,68.62198598176909
10.424,1.0,68.52707942127554
10.432,1.0,68.4321525147404
10.440000000000001,1.0,68.33720525226765
10.448,1.0,68.24223762397993
10.456,1.0,68.14724962001837
10.464,1.0000000000000002,68.0522412305429
10.472000000000001,1.0000000000000002,67.95721244573222
10.48,0.9999999999999998,67.86216325578398
10.488,1.0,67.76709365091477
