freq,mag,phase
6.0,0.9999979997703115,164.58098602211967
6.008,0.9999974939030668,164.19292892260933
6.016,0.9999969955391017,163.80457421140233
6.024,0.999996504622384,163.41591598778456
6.032,0.9999960210971797,163.0269483300477
6.04,0.9999955449080553,162.63766529551114
6.048,0.9999950759998759,162.24806092054513
6.056,0.9999946143178076,161.8581292205945
6.064,0.9999941598073141,161.46786419020387
6.072,0.9999937124141585,161.07725980304411
6.08,0.9999932720844025,160.68631001193964
6.088,0.9999928387644059,160.29500874889754
6.096,0.9999924124008267,159.90334992513786
6.104,0.9999919929406192,159.51132743112564
6.112,0.9999915803310356,159.11893513660442
6.12,0.9999911745196227,158.72616689063153
6.128,0.9999907754542242,158.33301652161518
6.136,0.9999903830829789,157.93947783735345
6.144,0.9999899973543186,157.5455446250754
6.152,0.9999896182169704,157.15121065148395
6.16,0.9999892456199518,156.75646966280135
6.168,0.9999888795125734,156.36131538481672
6.176,0.9999885198444383,155.96574152293599
6.184,0.9999881665654362,155.5697417622343
6.192,0.9999878196257499,155.17330976751137
6.2,0.9999874789758473,154.7764391833489
6.208,0.9999871445664856,154.3791236341715
6.216,0.9999868163487079,153.98135672431
6.224,0.9999864942738397,153.58313203806802
6.232,0.9999861782934945,153.18444313979194
6.24,0.9999858683595646,152.78528357394356
6.248,0.9999855644242274,152.38564686517662
6.256,0.999985266439938,151.98552651841672
6.264,0.999984974359432,151.58491601894474
6.272,0.9999846881357213,151.18380883248398
6.28,0.9999844077220952,150.7821984052914
6.288,0.9999841330721185,150.38007816425275
6.296,0.9999838641396294,149.97744151698168
6.304,0.9999836008787363,149.57428185192308
6.312,0.9999833432438208,149.1705925384613
6.32,0.9999830911895327,148.76636692703227
6.328,0.9999828446707885,148.36159834924052
6.336,0.9999826036427726,147.95628011798118
6.344,0.9999823680609339,147.55040552756662
6.352,0.9999821378809828,147.14396785385821
6.36,0.9999819130588906,146.73696035440364
6.368,0.9999816935508903,146.32937626857898
6.376,0.9999814793134715,145.92120881773707
6.384,0.9999812703033801,145.51245120536063
6.392,0.9999810664776165,145.10309661722218
6.4,0.9999808677934328,144.69313822154908
6.408,0.9999806742083338,144.28256916919523
6.416,0.9999804856800716,143.87138259381894
6.424,0.9999803021666457,143.4595716120671
6.432,0.9999801236263018,143.04712932376623
6.44,0.9999799500175278,142.63404881212
6.448,0.9999797812990532,142.22032314391404
6.456,0.9999796174298473,141.8059453697276
6.464,0.9999794583691165,141.39090852415276
6.472,0.9999793040763032,140.97520562602074
6.48,0.9999791545110814,140.55882967863639
6.4879999999999995,0.9999790096333591,140.14177367002
6.496,0.9999788694032716,139.72403057315728
6.504,0.9999787337811809,139.305593346258
6.5120000000000005,0.9999786027276761,138.88645493302198
6.52,0.9999784762035682,138.46660826291512
6.5280000000000005,0.9999783541698886,138.04604625145237
6.536,0.9999782365878863,137.62476180049157
6.5440000000000005,0.9999781234190296,137.20274779853483
6.552,0.9999780146249981,136.77999712104065
6.5600000000000005,0.999977910167684,136.35650263074393
6.568,0.99997781000919,135.93225717798794
6.5760000000000005,0.9999777141118253,135.50725360106387
6.584,0.9999776224381038,135.08148472656245
6.592,0.9999775349507427,134.65494336973487
6.6,0.9999774516126595,134.2276223348647
6.608,0.9999773723869696,133.7995144156505
6.616,0.9999772972369843,133.37061239559952
6.624,0.9999772261262068,132.9409090484326
6.632,0.999977159018333,132.51039713850028
6.64,0.999977095877245,132.07906942121122
6.648,0.9999770366670131,131.64691864347182
6.656,0.9999769813518901,131.21393754413825
6.664,0.9999769298963092,130.78011885448115
6.672,0.9999768822648826,130.34545529866222
6.68,0.999976838422398,129.90993959422417
6.688,0.9999767983338177,129.47356445259373
6.696,0.9999767619642742,129.03632257959742
6.704,0.9999767292790679,128.59820667599138
6.712,0.9999767002436653,128.15920943800475
6.72,0.9999766748236967,127.71932355789704
6.728,0.9999766529849526,127.27854172452952
6.736,0.9999766346933807,126.83685662395159
6.744,0.9999766199150854,126.3942609400013
6.752,0.9999766086163234,125.9507473549212
6.76,0.999976600763501,125.50630854998938
6.768,0.9999765963231723,125.06093720616553
6.776,0.9999765952620366,124.61462600475336
6.784,0.9999765975469347,124.16736762807841
6.792,0.9999766031448468,123.71915476018226
6.8,0.9999766120228905,123.26998008753326
6.808,0.9999766241483165,122.81983629975365
6.816,0.9999766394885071,122.36871609036407
6.824,0.9999766580109738,121.91661215754469
6.832,0.9999766796833534,121.4635172049142
6.84,0.9999767044734055,121.00942394232636
6.848,0.9999767323490109,120.55432508668433
6.856,0.9999767632781669,120.09821336277327
6.864,0.9999767972289869,119.64108150411147
6.872,0.9999768341696954,119.18292225381991
6.88,0.9999768740686267,118.72372836551082
6.888,0.9999769168942212,118.2634926041955
6.896,0.9999769626150239,117.80220774721127
6.904,0.9999770111996803,117.33986658516834
6.912,0.9999770626169336,116.87646192291623
6.92,0.9999771168356236,116.41198658053067
6.928,0.999977173824682,115.94643339432034
6.936,0.9999772335531302,115.4797952178546
6.944,0.9999772959900773,115.01206492301182
6.952,0.9999773611047168,114.54323540104873
6.96,0.9999774288663232,114.07329956369092
6.968,0.99997749924425,113.60225034424501
6.976,0.9999775722079268,113.13008069873226
6.984,0.999977647726857,112.65678360704415
6.992,0.9999777257706136,112.18235207411998
7.0,0.9999778063088374,111.70677913114682
7.008,0.9999778893112354,111.23005783678187
7.016,0.9999779747475761,110.75218127839743
7.024,0.9999780625876867,110.27314257334889
7.032,0.9999781528014532,109.79293487026541
7.04,0.999978245358815,109.31155135036413
7.048,0.999978340229762,108.8289852287875
7.056,0.999978437384334,108.34522975596428
7.064,0.9999785367926176,107.86027821899391
7.072,0.9999786384247411,107.37412394305505
7.08,0.9999787422508755,106.88676029283778
7.088,0.9999788482412287,106.39818067399987
7.096,0.9999789563660461,105.9083785346474
7.104,0.9999790665956048,105.4173473668393
7.112,0.9999791789002132,104.92508070811668
7.12,0.9999792932502075,104.43157214305624
7.128,0.9999794096159503,103.93681530484844
7.136,0.9999795279678271,103.44080387689995
7.144,0.9999796482762442,102.94353159446126
7.152,0.9999797705116265,102.4449922462783
7.16,0.9999798946444134,101.94517967626932
7.168,0.999980020645061,101.44408778522607
7.176,0.9999801484840349,100.9417105325399
7.184,0.9999802781318101,100.43804193795249
7.192,0.9999804095588698,99.93307608333124
7.2,0.9999805427356988,99.42680711446924
7.208,0.9999806776327889,98.91922924290974
7.216,0.999980814220629,98.4103367477952
7.224,0.999980952469709,97.9001239777407
7.232,0.9999810923505141,97.3885853527314
7.24,0.999981233833523,96.87571536604437
7.248,0.9999813768892096,96.36150858619435
7.256,0.9999815214880369,95.84595965890311
7.264,0.9999816676004571,95.32906330909272
7.272,0.9999818151969112,94.81081434290198
7.28,0.9999819642478244,94.29120764972625
7.288,0.9999821147236064,93.77023820427995
7.296,0.999982266594649,93.24790106868194
7.304,0.9999824198313262,92.72419139456315
7.312,0.9999825744039897,92.19910442519625
7.32,0.9999827302829721,91.67263549764708
7.328,0.9999828874385813,91.14478004494732
7.336,0.9999830458411004,90.61553359828814
7.344,0.9999832054607894,90.08489178923446
7.352,0.99998336626788,89.55285035195912
7.36,0.9999835282325782,89.01940512549687
7.368,0.99998369132506,88.48455205601722
7.376,0.9999838555154738,87.94828719911622
7.384,0.9999840207739381,87.41060672212589
7.392,0.9999841870705419,86.8715069064416
7.4,0.9999843543753408,86.33098414986576
7.4079999999999995,0.9999845226583622,85.78903496896824
7.416,0.9999846918896015,85.24565600146182
7.4239999999999995,0.9999848620390198,84.70084400859331
7.432,0.9999850330765497,84.1545958775476
7.4399999999999995,0.9999852049720894,83.60690862386646
7.448,0.9999853776955069,83.05777939387852
7.4559999999999995,0.9999855512166373,82.50720546714248
7.464,0.9999857255052861,81.95518425889951
7.4719999999999995,0.9999859005312257,81.40171332253759
7.48,0.9999860762642009,80.84679035206288
7.4879999999999995,0.9999862526739237,80.2904131845814
7.496,0.9999864297300798,79.73257980278558
7.504,0.9999866074023257,79.1732883374491
7.5120000000000005,0.9999867856602909,78.61253706992483
7.52,0.9999869644735792,78.05032443464863
7.5280000000000005,0.9999871438117699,77.48664902164406
7.536,0.9999873236444196,76.92150957903067
7.5440000000000005,0.9999875039410625,76.35490501553103
7.552,0.9999876846712137,75.78683440297867
7.5600000000000005,0.9999878658043693,75.21729697882229
7.568,0.9999880473100098,74.64629214862858
7.5760000000000005,0.9999882291576011,74.07381948857838
7.584,0.999988411316599,73.49987874795883
7.5920000000000005,0.9999885937564477,72.92446985164614
7.6,0.9999887764465851,72.34759290258154
7.6080000000000005,0.9999889593564458,71.76924818423481
7.616,0.9999891424554624,71.18943616305818
7.6240000000000006,0.9999893257130681,70.60815749092464
7.632,0.9999895090987024,70.02541300755354
7.640000000000001,0.9999896925818113,69.44120374291751
7.648,0.9999898761318534,68.85553091963334
7.656000000000001,0.9999900597183015,68.26839595533093
7.664,0.9999902433106469,67.67980046500288
7.672,0.9999904268784044,67.08974626332868
7.68,0.9999906103911141,66.49823536697573
7.688,0.9999907938183477,65.90526999687253
7.696,0.9999909771297124,65.31085258045363
7.704,0.9999911602948539,64.71498575387415
7.712,0.9999913432834632,64.11767236419192
7.72,0.9999915260652803,63.51891547151578
7.728,0.9999917086100987,62.918718351117356
7.736,0.9999918908877716,62.31708449550518
7.744,0.9999920728682169,61.71401761645888
7.752,0.9999922545214216,61.109521647021275
7.76,0.9999924358174496,60.50360074344677
7.768,0.9999926167264448,59.89625928710377
7.776,0.9999927972186395,59.28750188632925
7.784,0.9999929772643579,58.67733337823342
7.792,0.9999931568340243,58.06575883045238
7.8,0.9999933358981689,57.45278354284686
7.808,0.9999935144274332,56.838413049144826
7.816,0.9999936923925784,56.222653118526
7.824,0.999993869764491,55.605509757146315
7.832,0.9999940465141898,54.98698920959997
7.84,0.9999942226128329,54.36709796031727
7.848,0.9999943980317247,53.74584273489626
7.856,0.9999945727423245,53.123230501365626
7.864,0.9999947467162515,52.49926847137752
7.872,0.9999949199252939,51.87396410132766
7.88,0.9999950923414168,51.247325093401
7.888,0.999995263936769,50.61935939654091
7.896,0.9999954346836903,49.990075207339885
7.904,0.9999956045547217,49.35948097084969
7.912,0.9999957735226107,48.7275853813092
7.92,0.9999959415603215,48.0943973827878
7.928,0.9999961086410418,47.4599261697427
7.936,0.9999962747381916,46.82418118748801
7.944,0.9999964398254322,46.187172132574
7.952,0.9999966038766729,45.54890895307463
7.96,0.9999967668660816,44.90940184878158
7.968,0.9999969287680917,44.26866127130312
7.976,0.999997089557411,43.62669792406624
7.984,0.9999972492090302,42.98352276222016
7.992,0.9999974076982332,42.33914699243991
8.0,0.9999975650006027,41.69358207262835
8.008,0.9999977210920314,41.04683971151533
8.016,0.9999978759487305,40.39893186815187
8.024000000000001,0.9999980295472359,39.74987075129975
8.032,0.9999981818644205,39.099668818713084
8.04,0.9999983328774997,38.448338776311566
8.048,0.9999984825640429,37.79589357724529
8.056000000000001,0.9999986309019793,37.142346420848725
8.064,0.9999987778696087,36.48771075148314
8.072,0.9999989234456088,35.832000257266444
8.08,0.9999990676090446,35.17522886869052
8.088000000000001,0.9999992103393752,34.51741075712476
8.096,0.9999993516164646,33.85856033320446
8.104,0.9999994914205874,33.19869224510405
8.112,0.9999996297324392,32.53782137669523
8.120000000000001,0.999999766533143,31.87596284558943
8.128,0.9999999018042579,31.21313200106306
8.136,0.9999999999999999,30.549344421866472
8.144,1.0,29.88461591391689
8.152000000000001,1.0,29.2189625078747
8.16,1.0,28.552400456602786
8.168,1.0,27.884946232509513
8.176,0.9999999999999999,27.216616524776246
8.184000000000001,0.9999999999999999,26.547428236469464
8.192,0.9999999999999999,25.877398481537234
8.2,0.9999999999999999,25.206544581691013
8.208,1.0,24.534884063174776
8.216000000000001,1.0,23.862434653420923
8.224,0.9999999999999999,23.189214277593933
8.232,1.0,22.5152410550232
8.24,1.0,21.840533295526615
8.248000000000001,0.9999999999999999,21.165109495626073
8.256,1.0,20.48898833465523
8.264,0.9999999999999998,19.812188670761763
8.272,1.0,19.134729536806574
8.280000000000001,0.9999999999999999,18.456630136160673
8.288,1.0,17.777909838401264
8.296,1.0,17.09858817490944
8.304,0.9999999999999999,16.41868483437215
8.312,0.9999999999999999,15.738219658190147
8.32,1.0,15.057212635792522
8.328,0.9999999999999999,14.375683899863898
8.336,0.9999999999999999,13.693653721482084
8.344,0.9999999999999999,13.011142505173572
8.352,0.9999999999999999,12.32817078388469
8.36,0.9999999999999999,11.644759213875929
8.368,1.0,10.960928569537497
8.376,1.0,10.276699738133766
8.384,0.9999999999999999,9.592093714474949
8.392,0.9999999999999999,8.907131595523586
8.4,0.9999999999999999,8.221834574934594
8.408,1.0,7.536223937536476
8.416,0.9999999999999999,6.850321053752629
8.424,1.0,6.16414737397053
8.432,1.0,5.477724422857685
8.44,0.9999999999999999,4.791073793632522
8.448,1.0,4.104217142288974
8.456,1.0,3.417176181783328
8.464,0.9999999999999999,2.7299726761817844
8.472,1.0,2.0426284347777512
8.48,0.9999999999999999,1.3551653061773572
8.488,1.0,0.6676051723619763
8.496,1.0,-0.020030057273273418
8.504,1.0,-0.7077184518964653
8.512,0.9999999999999999,-1.3954380652321854
8.52,0.9999999999999999,-2.0831669415624914
8.528,1.0,-2.770883121736634
8.536,1.0,-3.45856464918062
8.544,1.0,-4.146189575907726
8.552,0.9999999999999999,-4.8337359685211
8.56,1.0,-5.5211819142096195
8.568,0.9999999999999999,-6.208505526728032
8.576,1.0,-6.89568495236268
8.584,1.0,-7.582698375873795
8.592,1.0,-8.269524026415747
8.6,1.0,-8.956140183426356
8.608,0.9999999999999999,-9.64252518248654
8.616,1.0,-10.328657421141694
8.624,1.0,-11.014515364685955
8.632,1.0,-11.700077551901003
8.64,0.9999999999999999,-12.385322600750547
8.648,1.0,-13.070229214022262
8.656,1.0,-13.754776184918539
8.664,1.0,-14.438942402587797
8.672,1.0,-15.12270685759793
8.68,0.9999999999999999,-15.806048647343806
8.688,1.0000000000000002,-16.488946981390406
8.696,1.0,-17.171381186743815
8.704,0.9999999999999999,-17.85333071305182
8.712,1.0,-18.53477513772627
8.72,0.9999999999999999,-19.215694170989355
8.728,0.9999999999999999,-19.89606766083611
8.736,1.0,-20.575875597915406
8.744,1.0,-21.25509812032186
8.752,1.0,-21.933715518301295
8.76,1.0,-22.61170823886228
8.768,0.9999999999999999,-23.289056890296564
8.776,1.0,-23.96574224660114
8.784,0.9999999999999999,-24.641745251804977
8.792,0.9999999999999999,-25.3170470241935
8.8,1.0,-25.99162886043368
8.808,1.0,-26.665472239593516
8.815999999999999,1.0,-27.338558827058545
8.824,0.9999999999999999,-28.01087047834037
8.832,0.9999999999999999,-28.682389242777322
8.84,1.0,-29.353097367126498
8.847999999999999,0.9999999999999999,-30.022977299045216
8.856,1.0,-30.69201169046044
8.864,0.9999999999999999,-31.360183400825516
8.872,1.0,-32.02747550026433
8.879999999999999,0.9999999999999999,-32.69387127260104
8.888,0.9999999999999999,-33.359354218274675
8.896,1.0,-34.02390805713823
8.904,1.0,-34.68751673114267
8.911999999999999,1.0,-35.35016440690482
8.92,1.0,-36.011835478158375
8.928,1.0,-36.672514568088474
8.936,1.0,-37.33218653155037
8.943999999999999,1.0,-37.99083645717187
8.952,1.0,-38.64844966933889
8.96,1.0,-39.30501173006513
8.968,1.0,-39.96050844074692
8.975999999999999,1.0,-40.614925843802915
8.984,0.9999999999999999,-41.26825022419867
8.992,1.0,-41.92046811085751
9.0,1.0,-42.57156627795879
9.008,1.0,-43.22153174612371
9.016,1.0,-43.870351783489426
9.024000000000001,1.0,-44.51801390667247
9.032,0.9999999999999999,-45.16450588162351
9.04,1.0,-45.809815724373784
9.048,1.0,-46.45393170167388
9.056000000000001,1.0,-47.09684233152681
9.064,1.0,-47.73853638361703
9.072,1.0000000000000002,-48.37900287963653
9.08,1.0,-49.01823109350856
9.088000000000001,1.0,-49.656210551511315
9.096,1.0,-50.29293103230367
9.104,1.0,-50.92838256685376
9.112,0.9999999999999999,-51.56255543827192
9.120000000000001,1.0,-52.19544018154981
9.128,1.0,-52.82702758320853
9.136,1.0,-53.45730868085632
9.144,1.0,-54.08627476265773
9.152000000000001,0.9999999999999999,-54.713917366716274
9.16,1.0,-55.340228280373296
9.168,1.0,-55.96519953942399
9.176,0.9999999999999999,-56.588823427252564
9.184000000000001,1.0,-57.21109247388839
9.192,0.9999999999999999,-57.83199945498642
9.2,1.0,-58.451537390732526
9.208,1.0,-59.06969954467594
9.216000000000001,1.0,-59.68647942249096
9.224,1.0,-60.30187077067054
9.232,0.9999999999999999,-60.915867575153605
9.24,0.9999999999999999,-61.528464059887135
9.248000000000001,0.9999999999999999,-62.13965468532588
9.256,1.0,-62.749434146872446
9.264,1.0,-63.35779737325886
9.272,1.0,-63.96473952487161
9.280000000000001,0.9999999999999999,-64.57025599202241
9.288,1.0,-65.17434239316734
9.296,0.9999999999999999,-65.77699457307618
9.304,1.0,-66.37820860095279
9.312000000000001,1.0,-66.97798076850972
9.32,1.0,-67.57630758799937
9.328,1.0,-68.17318579020292
9.336,1.0,-68.76861232237883
9.344,1.0,-69.36258434617307
9.352,1.0000000000000002,-69.95509923549436
9.36,0.9999999999999999,-70.54615457435352
9.368,1.0000000000000002,-71.13574815467206
9.376,0.9999999999999998,-71.72387797405862
9.384,1.0,-72.31054223355856
9.392,1.0,-72.89573933537466
9.4,0.9999999999999999,-73.47946788056494
9.408,1.0,-74.06172666671493
9.416,0.9999999999999999,-74.64251468559068
9.424,0.9999999999999999,-75.2218311207695
9.432,1.0,-75.79967534525484
9.44,1.0,-76.37604691907256
9.448,0.9999999999999999,-76.95094558685399
9.456,1.0,-77.52437127540394
9.464,1.0,-78.09632409125874
9.472,1.0,-78.66680431823188
9.48,1.0,-79.23581241495312
9.488,0.9999999999999999,-79.8033490123977
9.496,1.0,-80.36941491141224
9.504,1.0,-80.93401108023329
9.512,1.0,-81.49713865200533
9.52,0.9999999999999999,-82.05879892229422
9.528,1.0,-82.61899334660255
9.536,1.0,-83.17772353788295
9.544,1.0,-83.73499126405565
9.552,1.0,-84.29079844552678
9.56,1.0,-84.84514715271264
9.568,0.9999999999999999,-85.39803960356744
9.576,1.0,-85.94947816111896
9.584,0.9999999999999999,-86.49946533100967
9.592,0.9999999999999999,-87.0480037590481
9.6,1.0,-87.59509622876736
9.608,0.9999999999999999,-88.14074565899591
9.616,0.9999999999999999,-88.68495510143747
9.624,0.9999999999999999,-89.22772773826453
9.632,1.0,-89.76906687972313
9.64,0.9999999999999999,-90.30897596175274
9.648,1.0,-90.84745854361874
9.656,0.9999999999999999,-91.38451830556184
9.664,1.0,-91.92015904646146
9.672,1.0,-92.45438468151731
9.68,0.9999999999999999,-92.98719923994625
9.688,1.0,-93.51860686269883
9.696,1.0,-94.04861180019213
9.704,0.9999999999999999,-94.5772184100635
9.712,1.0,-95.10443115494158
9.72,1.0,-95.63025460023935
9.728,1.0,-96.15469341196564
9.736,1.0,-96.6777523545591
9.744,1.0,-97.19943628874195
9.752,1.0,-97.71975016939685
9.76,1.0,-98.23869904346428
9.768,0.9999999999999999,-98.75628804786399
9.776,1.0,-99.27252240743725
9.784,1.0,-99.78740743291411
9.792,1.0,-100.30094851890196
9.8,0.9999999999999999,-100.81315114189968
9.808,1.0,-101.32402085833344
9.816,0.9999999999999999,-101.83356330261876
9.824,1.0,-102.34178418524445
9.832,1.0,-102.84868929088323
9.84,0.9999999999999999,-103.35428447652473
9.847999999999999,1.0,-103.85857566963502
9.856,0.9999999999999999,-104.36156886633982
9.864,1.0,-104.86327012963267
9.872,1.0,-105.36368558760854
9.879999999999999,0.9999999999999999,-105.86282143172257
9.888,1.0,-106.36068391507342
9.896,1.0,-106.85727935071176
9.904,1.0,-107.35261410997451
9.911999999999999,1.0,-107.84669462084409
9.92,1.0,-108.3395273663325
9.928,1.0,-108.83111888289066
9.936,1.0,-109.32147575884325
9.943999999999999,0.9999999999999999,-109.81060463284847
9.952,0.9999999999999999,-110.2985121923828
