freq,mag,phase
6.0,0.9999849730052034,145.01906255823434
6.008,0.9999852556229355,144.97139381770958
6.016,0.9999855351788929,144.92372039411393
6.024,0.9999858116913842,144.87604228452378
6.032,0.999986085178663,144.82835948600575
6.04,0.9999863556589286,144.78067199561684
6.048,0.9999866231503269,144.73297981040426
6.056,0.9999868876709483,144.68528292740547
6.064,0.9999871492388305,144.63758134364824
6.072,0.999987407871956,144.58987505615056
6.08,0.9999876635882529,144.54216406192077
6.088,0.9999879164055967,144.4944483579574
6.096,0.999988166341807,144.44672794124926
6.104,0.9999884134146507,144.39900280877555
6.112,0.9999886576418399,144.35127295750559
6.12,0.9999888990410322,144.30353838439908
6.128,0.9999891376298322,144.2557990864059
6.136,0.9999893734257899,144.2080550604663
6.144,0.9999896064464012,144.16030630351077
6.152,0.9999898367091083,144.11255281246005
6.16,0.9999900642312993,144.06479458422518
6.168,0.9999902890303077,144.01703161570757
6.176,0.9999905111234144,143.9692639037987
6.184,0.9999907305278454,143.9214914453805
6.192,0.9999909472607728,143.87371423732515
6.2,0.9999911613393146,143.82593227649505
6.208,0.9999913727805362,143.77814555974297
6.216,0.9999915816014477,143.7303540839119
6.224,0.9999917878190059,143.68255784583508
6.232,0.9999919914501143,143.63475684233623
6.24,0.9999921925116213,143.5869510702291
6.248,0.9999923910203228,143.53914052631785
6.256,0.9999925869929605,143.49132520739698
6.264,0.999992780446222,143.44350511025118
6.272,0.9999929713967418,143.3956802316555
6.28,0.9999931598611003,143.34785056837524
6.288,0.999993345855824,143.30001611716602
6.296,0.9999935293973865,143.2521768747737
6.304,0.9999937105022069,143.20433283793454
6.312,0.9999938891866513,143.156484003375
6.32,0.9999940654670318,143.10863036781186
6.328,0.9999942393596072,143.06077192795226
6.336,0.9999944108805828,143.01290868049352
6.344,0.9999945800461101,142.96504062212338
6.352,0.9999947468722872,142.91716774951982
6.36,0.9999949113751586,142.86929005935116
6.368,0.9999950735707153,142.82140754827597
6.376,0.9999952334748955,142.77352021294314
6.384,0.9999953911035828,142.72562804999194
6.392,0.9999955464726086,142.67773105605193
6.4,0.99999569959775,142.62982922774285
6.408,0.9999958504947316,142.5819225616749
6.416,0.9999959991792239,142.5340110544485
6.424,0.9999961456668442,142.48609470265455
6.432,0.9999962899731573,142.438173502874
6.44,0.9999964321136731,142.39024745167836
6.448,0.9999965721038503,142.34231654562933
6.456,0.999996709959093,142.29438078127893
6.464,0.9999968456947523,142.2464401551696
6.472,0.9999969793261265,142.198494663834
6.48,0.9999971108684607,142.1505443037952
6.4879999999999995,0.9999972403369466,142.1025890715665
6.496,0.9999973677467231,142.0546289636516
6.504,0.9999974931128754,142.00666397654456
6.5120000000000005,0.9999976164504367,141.95869410672967
6.52,0.9999977377743867,141.91071935068163
6.5280000000000005,0.9999978570996513,141.86273970486548
6.536,0.9999979744411048,141.81475516573656
6.5440000000000005,0.9999980898135677,141.76676572974054
6.552,0.9999982032318081,141.71877139331352
6.5600000000000005,0.9999983147105401,141.6707721528818
6.568,0.9999984242644264,141.6227680048622
6.5760000000000005,0.9999985319080761,141.5747589456617
6.584,0.9999986376560452,141.52674497167783
6.592,0.9999987415228379,141.47872607929824
6.6,0.9999988435229042,141.43070226490113
6.608,0.999998943670643,141.38267352485494
6.616,0.9999990419803992,141.33463985551856
6.624,0.9999991384664655,141.28660125324112
6.632,0.9999992331430817,141.2385577143622
6.64,0.9999993260244354,141.19050923521175
6.648,0.9999994171246612,141.14245581211
6.656,0.9999995064578417,141.0943974413676
6.664,0.9999995940380061,141.0463341192856
6.672,0.9999996798791314,140.99826584215538
6.68,0.9999997639951427,140.95019260625864
6.688,0.9999998463999115,140.90211440786757
6.696,0.9999999271072579,140.85403124324466
6.704,0.9999999999999999,140.80594310864282
6.712,1.0,140.75785000030527
6.72,1.0000000000000002,140.7097519144657
6.728,0.9999999999999998,140.66164884734815
6.736,0.9999999999999999,140.613540795167
6.744,1.0,140.5654277541271
6.752,0.9999999999999999,140.51730972042364
6.76,0.9999999999999999,140.4691866902422
6.768,1.0,140.42105865975878
6.776,1.0,140.3729256251398
6.784,1.0,140.32478758254206
6.792,1.0,140.27664452811268
6.8,0.9999999999999999,140.22849645798934
6.808,0.9999999999999999,140.18034336829996
6.816,1.0000000000000002,140.13218525516302
6.824,0.9999999999999999,140.08402211468734
6.832,0.9999999999999999,140.03585394297215
6.84,1.0,139.9876807361071
6.848,1.0,139.9395024901723
6.856,1.0,139.89131920123816
6.864,0.9999999999999999,139.8431308653657
6.872,0.9999999999999999,139.7949374786062
6.88,0.9999999999999999,139.74673903700142
6.888,1.0,139.69853553658365
6.896,1.0,139.6503269733754
6.904,1.0,139.60211334338985
6.912,1.0,139.55389464263044
6.92,1.0,139.5056708670911
6.928,1.0,139.45744201275627
6.936,0.9999999999999999,139.40920807560076
6.944,0.9999999999999999,139.36096905158985
6.952,1.0,139.31272493667925
6.96,1.0,139.2644757268152
6.968,1.0,139.2162214179342
6.976,1.0,139.16796200596346
6.984,1.0,139.11969748682048
6.992,1.0,139.07142785641324
7.0,1.0,139.02315311064027
7.008,1.0,138.97487324539046
7.016,1.0,138.92658825654323
7.024,1.0,138.8782981399684
7.032,0.9999999999999999,138.8300028915264
7.04,0.9999999999999999,138.781702507068
7.048,0.9999999999999999,138.73339698243447
7.056,0.9999999999999999,138.68508631345762
7.064,1.0,138.63677049595972
7.072,1.0,138.5884495257535
7.08,1.0,138.54012339864218
7.088,1.0,138.49179211041945
7.096,1.0,138.44345565686962
7.104,1.0,138.39511403376727
7.112,1.0,138.34676723687767
7.12,1.0,138.29841526195645
7.128,1.0,138.25005810474985
7.136,1.0,138.2016957609946
7.144,1.0,138.1533282264178
7.152,1.0,138.10495549673732
7.16,1.0,138.05657756766118
7.168,1.0,138.00819443488822
7.176,0.9999999999999999,137.9598060941077
7.184,1.0,137.91141254099932
7.192,1.0,137.86301377123337
7.2,1.0,137.81460978047065
7.208,1.0,137.76620056436244
7.216,0.9999999999999999,137.71778611855066
7.224,1.0,137.6693664386676
7.232,1.0,137.62094152033617
7.24,1.0,137.57251135916977
7.248,1.0,137.52407595077239
7.256,1.0,137.4756352907385
7.264,0.9999999999999999,137.4271893746531
7.272,0.9999999999999998,137.37873819809175
7.28,0.9999999999999999,137.3302817566206
7.288,0.9999999999999999,137.2818200457962
7.296,0.9999999999999999,137.2333530611658
7.304,1.0,137.1848807982671
7.312,1.0,137.13640325262833
7.32,1.0,137.08792041976832
7.328,1.0,137.03943229519646
7.336,0.9999999999999999,136.99093887441265
7.344,1.0,136.94244015290732
7.352,0.9999999999999999,136.89393612616155
7.36,1.0,136.84542678964684
7.368,1.0,136.79691213882535
7.376,0.9999999999999999,136.74839216914975
7.384,0.9999999999999999,136.6998668760633
7.392,1.0,136.65133625499982
7.4,0.9999999999999999,136.60280030138358
7.4079999999999995,1.0,136.55425901062958
7.416,1.0,136.50571237814327
7.4239999999999995,1.0,136.4571603993207
7.432,1.0,136.40860306954846
7.4399999999999995,1.0,136.36004038420373
7.448,1.0,136.31147233865426
7.4559999999999995,1.0,136.26289892825832
7.464,1.0,136.2143201483648
7.4719999999999995,0.9999999999999999,136.16573599431314
7.48,1.0,136.11714646143332
7.4879999999999995,0.9999999999999999,136.0685515450459
7.496,1.0,136.01995124046198
7.504,0.9999999999999999,135.97134554298336
7.5120000000000005,1.0,135.92273444790223
7.52,0.9999999999999999,135.87411795050144
7.5280000000000005,1.0,135.82549604605438
7.536,1.0,135.776868729825
7.5440000000000005,0.9999999999999999,135.72823599706786
7.552,1.0,135.67959784302806
7.5600000000000005,1.0,135.6309542629412
7.568,1.0,135.58230525203356
7.5760000000000005,1.0,135.5336508055219
7.584,0.9999999999999999,135.48499091861356
7.5920000000000005,1.0,135.43632558650643
7.6,1.0,135.387654804389
7.6080000000000005,1.0,135.33897856744028
7.616,0.9999999999999998,135.29029687082982
7.6240000000000006,1.0,135.24160970971778
7.632,1.0,135.19291707925484
7.640000000000001,1.0,135.14421897458217
7.648,1.0,135.09551539083165
7.656000000000001,1.0,135.0468063231255
7.664,1.0,134.99809176657666
7.672,1.0,134.94937171628845
7.68,1.0000000000000002,134.90064616735486
7.688,0.9999999999999999,134.8519151148604
7.696,1.0,134.80317855387997
7.704,1.0,134.75443647947918
7.712,0.9999999999999999,134.70568888671403
7.72,1.0,134.65693577063112
7.728,1.0,134.6081771262675
7.736,0.9999999999999998,134.5594129486508
7.744,0.9999999999999999,134.51064323279908
7.752,0.9999999999999998,134.46186797372096
7.76,0.9999999999999999,134.41308716641552
7.768,1.0,134.3643008058724
7.776,1.0,134.3155088870716
7.784,0.9999999999999999,134.26671140498362
7.792,0.9999999999999999,134.21790835456963
7.8,1.0,134.169099730781
7.808,1.0,134.12028552855966
7.816,1.0,134.07146574283811
7.824,1.0,134.0226403685391
7.832,0.9999999751259908,133.9738094005759
7.84,0.9999999297297414,133.92497283385228
7.848,0.9999998840895905,133.87613066326233
7.856,0.9999998382119155,133.82728288369057
7.864,0.9999997921030409,133.77842949001197
7.872,0.9999997457692372,133.72957047709187
7.88,0.9999996992167212,133.68070583978596
7.888,0.9999996524516565,133.63183557294036
7.896,0.999999605480152,133.58295967139148
7.904,0.9999995583082631,133.5340781299662
7.912,0.9999995109419914,133.4851909434816
7.92,0.9999994633872823,133.43629810674517
7.928,0.9999994156500287,133.38739961455474
7.936,0.9999993677360675,133.3384954616984
7.944,0.9999993196511806,133.28958564295448
7.952,0.9999992714010957,133.2406701530917
7.96,0.999999222991484,133.19174898686896
7.968,0.9999991744279616,133.14282213903547
7.976,0.9999991257160891,133.0938896043306
7.984,0.9999990768613705,133.044951377484
7.992,0.9999990278692539,132.9960074532155
8.0,0.9999989787451307,132.94705782623507
8.008,0.999998929494336,132.89810249124292
8.016,0.9999988801221471,132.84914144292935
8.024000000000001,0.9999988306337848,132.8001746759748
8.032,0.9999987810344123,132.75120218504986
8.04,0.9999987313291342,132.7022239648152
8.048,0.9999986815229976,132.6532400099215
8.056000000000001,0.9999986316209915,132.60425031500944
8.064,0.9999985816280451,132.55525487471
8.072,0.9999985315490295,132.5062536836438
8.08,0.9999984813887559,132.45724673642164
8.088000000000001,0.9999984311519757,132.40823402764426
8.096,0.9999983808433807,132.35921555190234
8.104,0.9999983304676016,132.31019130377635
8.112,0.9999982800292082,132.2611612778367
8.120000000000001,0.9999982295327094,132.21212546864368
8.128,0.9999981789825527,132.1630838707474
8.136,0.999998128383122,132.11403647868767
8.144,0.9999980777387409,132.0649832869941
8.152000000000001,0.9999980270536675,132.015924290186
8.16,0.9999979763320983,131.96685948277243
8.168,0.999997925578165,131.91778885925203
8.176,0.9999978747959352,131.8687124141131
8.184000000000001,0.9999978239894105,131.81963014183347
8.192,0.9999977731625282,131.77054203688058
8.2,0.9999977223191591,131.7214480937114
8.208,0.9999976714631065,131.67234830677214
8.216000000000001,0.9999976205981076,131.6232426704987
8.224,0.9999975697278308,131.57413117931625
8.232,0.9999975188558763,131.52501382763924
8.24,0.9999974679857755,131.47589060987147
8.248000000000001,0.9999974171209889,131.42676152040593
8.256,0.9999973662649073,131.37762655362485
8.264,0.9999973154208492,131.32848570389953
8.272,0.9999972645920624,131.27933896559043
8.280000000000001,0.9999972137817207,131.23018633304693
8.288,0.9999971629929243,131.18102780060752
8.296,0.9999971122286991,131.13186336259943
8.304,0.9999970614919956,131.0826930133389
8.312,0.9999970107856879,131.03351674713088
8.32,0.9999969601125728,130.98433455826904
8.328,0.9999969094753688,130.93514644103573
8.336,0.9999968588767154,130.88595238970183
8.344,0.9999968083191717,130.8367523985269
8.352,0.9999967578052151,130.7875464617587
8.36,0.9999967073372417,130.73833457363358
8.368,0.9999966569175627,130.689116728376
8.376,0.9999966065484047,130.63989292019875
8.384,0.999996556231909,130.5906631433027
8.392,0.9999965059701291,130.5414273918767
8.4,0.9999964557650297,130.49218566009765
8.408,0.9999964056184855,130.44293794213021
8.416,0.9999963555322802,130.39368423212682
8.424,0.9999963055081036,130.3444245242276
8.432,0.9999962555475523,130.29515881256017
8.44,0.9999962056521254,130.24588709123964
8.448,0.9999961558232259,130.1966093543684
8.456,0.9999961060621552,130.14732559603618
8.464,0.9999960563701156,130.09803581031966
8.472,0.9999960067482051,130.04873999128253
8.48,0.9999959571974169,129.99943813297543
8.488,0.999995907718637,129.95013022943564
8.496,0.9999958583126429,129.900816274687
8.504,0.9999958089801003,129.8514962627399
8.512,0.9999957597215621,129.80217018759086
8.52,0.9999957105374644,129.75283804322274
8.528,0.9999956614281263,129.70349982360426
8.536,0.9999956123937451,129.65415552269005
8.544,0.999995563434396,129.60480513442027
8.552,0.9999955145500269,129.55544865272077
8.56,0.999995465740458,129.50608607150255
8.568,0.9999954170053769,129.4567173846618
8.576,0.999995368344337,129.40734258607958
8.584,0.9999953197567536,129.35796166962183
8.592,0.9999952712419007,129.30857462913883
8.6,0.9999952227989074,129.25918145846532
8.608,0.9999951744267551,129.20978215142
8.616,0.9999951261242729,129.16037670180555
8.624,0.999995077890134,129.11096510340815
8.632,0.9999950297228515,129.06154734999743
8.64,0.9999949816207752,129.01212343532606
8.648,0.9999949335820857,128.96269335312968
8.656,0.9999948856047908,128.91325709712638
8.664,0.9999948376867207,128.86381466101656
8.672,0.9999947898255226,128.81436603848258
8.68,0.9999947420186558,128.76491122318848
8.688,0.9999946942633865,128.7154502087797
8.696,0.9999946465567812,128.66598298888263
8.704,0.9999945988957023,128.61650955710437
8.712,0.9999945512768008,128.56702990703224
8.72,0.9999945036965102,128.5175440322336
8.728,0.9999944561510398,128.46805192625524
8.736,0.9999944086363678,128.41855358262313
8.744,0.9999943611482337,128.36904899484202
8.752,0.9999943136821309,128.31953815639477
8.76,0.9999942662332982,128.27002106074224
8.768,0.9999942187967124,128.22049770132253
8.776,0.9999941713670782,128.17096807155056
8.784,0.9999941239388196,128.12143216481766
8.792,0.9999940765060709,128.0718899744909
8.8,0.9999940290626655,128.02234149391262
8.808,0.9999939816021256,127.97278671639984
8.815999999999999,0.9999939341176519,127.92322563524363
8.824,0.9999938866021112,127.87365824370845
8.832,0.9999938390480241,127.82408453503159
8.84,0.9999937914475523,127.77450450242245
8.847999999999999,0.9999937437924856,127.72491813906171
8.856,0.9999936960742276,127.67532543810078
8.864,0.9999936482837806,127.6257263926609
8.872,0.9999936004117297,127.57612099583241
8.879999999999999,0.9999935524482275,127.52650924067376
8.888,0.999993504382976,127.47689112021088
8.896,0.9999934562052089,127.42726662743598
8.904,0.9999934079036719,127.37763575530681
8.911999999999999,0.9999933594666031,127.32799849674558
8.92,0.9999933108817126,127.27835484463782
8.928,0.9999932621361581,127.22870479183152
8.936,0.9999932132165241,127.17904833113577
8.943999999999999,0.999993164108795,127.12938545531962
8.952,0.9999931147983295,127.07971615711085
8.96,0.9999930652698339,127.0300404291948
8.968,0.9999930155073319,126.9803582642127
8.975999999999999,0.9999929654941346,126.93066965476055
8.984,0.9999929152128071,126.88097459338739
8.992,0.9999928646451354,126.83127307259392
9.0,0.9999928137720888,126.78156508483069
9.008,0.9999927625737823,126.73185062249661
9.016,0.9999927110294354,126.68212967793676
9.024000000000001,0.9999926591173289,126.63240224344099
9.032,0.9999926068147595,126.58266831124158
9.04,0.9999925540979916,126.5329278735113
9.048,0.9999925009422044,126.48318092236124
9.056000000000001,0.9999924473214392,126.43342744983848
9.064,0.9999923932085404,126.38366744792377
9.072,0.9999923385750933,126.33390090852892
9.08,0.9999922833913599,126.28412782349422
9.088000000000001,0.9999922276262084,126.23434818458563
9.096,0.9999921712470387,126.18456198349196
9.104,0.999992114219704,126.1347692118217
9.112,0.9999920565084273,126.08496986109978
9.120000000000001,0.999991998075709,126.03516392276435
9.128,0.9999919388822344,125.98535138816312
9.136,0.9999918788867688,125.93553224854953
9.144,0.9999918180460493,125.88570649507894
9.152000000000001,0.9999917563146686,125.83587411880451
9.16,0.9999916936449487,125.7860351106727
9.168,0.9999916299868078,125.7361894615189
9.176,0.9999915652876171,125.68633716206227
9.184000000000001,0.9999914994920477,125.636478202901
9.192,0.9999914325419043,125.58661257450682
9.2,0.9999913643759496,125.53674026721917
9.208,0.9999912949297147,125.48686127123958
9.216000000000001,0.9999912241352934,125.4369755766252
9.224,0.999991151921124,125.38708317328228
9.232,0.9999910782117509,125.33718405095908
9.24,0.9999910029275717,125.2872781992388
9.248000000000001,0.9999909259845605,125.23736560753157
9.256,0.9999908472939721,125.18744626506664
9.264,0.9999907667620219,125.13752016088347
9.272,0.9999906842895369,125.08758728382296
9.280000000000001,0.9999905997715831,125.03764762251792
9.288,0.999990513097058,124.98770116538294
9.296,0.9999904241482499,124.9377479006041
9.304,0.999990332800361,124.88778781612758
9.312000000000001,0.9999902389209868,124.83782089964846
9.32,0.9999901423695514,124.78784713859828
9.328,0.9999900429966959,124.73786652013217
9.336,0.9999899406436048,124.68787903111568
9.344,0.9999898351412799,124.63788465811056
9.352,0.999989726309741,124.5878833873602
9.36,0.9999896139571567,124.53787520477437
9.368,0.9999894978788899,124.48786009591319
9.376,0.9999893778564555,124.43783804597076
9.384,0.9999892536563758,124.3878090397581
9.392,0.9999891250289249,124.33777306168535
9.4,0.9999889917067464,124.28773009574407
9.408,0.9999888534033357,124.23768012548858
9.416,0.9999887098113649,124.18762313401746
9.424,0.9999885606008371,124.13755910395491
9.432,0.9999884054170459,124.0874880174321
9.44,0.9999882438783202,124.03740985606932
9.448,0.9999880755735266,123.98732460095847
9.456,0.9999879000592968,123.93723223264719
9.464,0.9999877168569553,123.88713273112445
9.472,0.9999875254490965,123.83702607580891
9.48,0.9999873252757787,123.78691224554049
9.488,0.999987115730277,123.73679121857649
9.496,0.9999868961543439,123.68666297259344
9.504,0.9999866658329087,123.63652748469656
9.512,0.9999864239881437,123.58638473143893
9.52,0.999986169772809,123.53623468885267
9.528,0.9999859022627829,123.48607733249575
9.536,0.999985620448662,123.4359126375184
9.544,0.999985323226304,123.38574057875391
9.552,0.9999850093861676,123.3355611308404
9.56,0.9999846776012797,123.28537426838095
9.568,0.9999843264136388,123.23517996615233
9.576,0.9999839542188325,123.18497819937392
9.584,0.9999835592486208,123.13476894405252
9.592,0.9999831395511999,123.08455217742149
9.6,0.999982692968823,123.03432787849876
9.608,0.9999822171124162,122.98409602879308
9.616,0.9999817093327851,122.93385661319664
9.624,0.9999811666879762,122.88360962111166
9.632,0.9999805859063015,122.83335504787087
9.64,0.9999799633445284,122.78309289652812
9.648,0.9999792949407245,122.7328231801152
9.656,0.9999785761612736,122.68254592448719
9.664,0.9999778019416675,122.6322611719104
9.672,0.9999769666208435,122.58196898558978
9.68,0.9999760638691715,122.53166945538352
9.688,0.9999750866106923,122.48136270501905
9.696,0.9999740269410794,122.43104890120662
9.704,0.9999728760441157,122.38072826514534
9.712,0.9999716241115173,122.33040108703963
9.72,0.9999702602740428,122.28006774438316
9.728,0.9999687725564084,122.22972872492441
9.736,0.9999671478753602,122.17938465538658
9.744,0.9999653721100612,122.1290363371456
9.752,0.9999634302880542,122.07868479011688
9.76,0.9999613069496516,122.02833130595822
9.768,0.9999589867801728,121.97797751118411
9.776,0.999956455633835,121.92762543960377
9.784,0.9999537021144198,121.8772776111808
9.792,0.9999507199213202,121.82693711028355
9.8,0.999947511201999,121.77660764947883
9.808,0.9999440911454899,121.72629359459297
9.816,0.9999404939551685,121.67599991229488
9.824,0.9999367800721356,121.62573198417296
