freq,mag,phase
6.0,0.9999899270894161,-152.74017148974488
6.008,0.9999922951755464,-153.21158151836977
6.016,0.9999945775509497,-153.6828321076649
6.024,0.9999967758136108,-154.15392303343668
6.032,0.9999988915468425,-154.62485408980535
6.04,1.0,-155.09562508908658
6.048,0.9999999999999999,-155.56623586167254
6.056,1.0,-156.03668625591203
6.064,1.0,-156.5069761379898
6.072,1.0,-156.97710539180517
6.08,1.0,-157.44707391884964
6.088,0.9999999999999999,-157.91688163808433
6.096,0.9999999999999999,-158.386528485816
6.104,1.0,-158.85601441557307
6.112,1.0,-159.32533939798054
6.12,1.0,-159.79450342063464
6.128,1.0,-160.26350648797646
6.136,0.9999999999999999,-160.73234862116541
6.144,0.9999999999999999,-161.20102985795205
6.152,0.9999999999999999,-161.6695502525503
6.16,0.9999999999999999,-162.13790987550902
6.168,0.9999999999999999,-162.60610881358355
6.176,1.0,-163.07414716960645
6.184,1.0,-163.5420250623579
6.192,0.9999999999999999,-164.00974262643575
6.2,0.9999999999999999,-164.47730001212508
6.208,1.0,-164.94469738526772
6.216,1.0,-165.4119349271308
6.224,1.0,-165.87901283427587
6.232,0.9999999999999999,-166.3459313184269
6.24,1.0,-166.81269060633846
6.248,0.9999999999999999,-167.2792909396637
6.256,1.0,-167.7457325748218
6.264,1.0,-168.21201578286536
6.272,1.0,-168.67814084934795
6.28,1.0,-169.14410807419063
6.288,1.0,-169.60991777154942
6.296,1.0,-170.0755702696817
6.304,0.9999999999999999,-170.54106591081313
6.312,0.9999999999999999,-171.00640505100418
6.32,1.0,-171.4715880600166
6.328,1.0,-171.93661532117991
6.336,0.9999999999999999,-172.40148723125802
6.344,1.0,-172.8662042003155
6.352,0.9999999999999999,-173.33076665158413
6.36,0.9999999999999999,-173.79517502132904
6.368,1.0,-174.25942975871578
6.376,0.9999999999999999,-174.7235313256764
6.384,0.9999999999999999,-175.18748019677628
6.392,1.0000000000000002,-175.65127685908072
6.4,1.0,-176.1149218120219
6.408,1.0,-176.57841556726564
6.416,1.0,-177.04175864857865
6.424,1.0,-177.50495159169546
6.432,0.9999999999999999,-177.96799494418622
6.44,1.0,-178.43088926532377
6.448,0.9999999999999998,-178.8936351259517
6.456,0.9999999999999999,-179.35623310835217
6.464,1.0,-179.81868380611405
6.472,1.0,179.71901217599859
6.48,1.0,179.25685422217794
6.4879999999999995,1.0000000000000002,178.79484170570348
6.496,1.0,178.33297398907285
6.504,0.9999999999999999,177.87125042413254
6.5120000000000005,1.0,177.40967035220777
6.52,1.0,176.94823310423314
6.5280000000000005,0.9999999999999999,176.48693800088122
6.536,0.9999999999999999,176.0257843526931
6.5440000000000005,1.0,175.56477146020626
6.552,1.0,175.10389861408404
6.5600000000000005,0.9999999999999999,174.64316509524315
6.568,0.9999999999999999,174.1825701749824
6.5760000000000005,0.9999999999999999,173.72211311510932
6.584,1.0,173.26179316806818
6.592,1.0,172.80160957706582
6.6,0.9999999999999998,172.34156157619873
6.608,1.0,171.88164839057856
6.616,0.9999999999999999,171.4218692364576
6.624,1.0,170.96222332135406
6.632,1.0,170.50270984417628
6.64,1.0,170.0433279953473
6.648,0.9999999999999999,169.5840769569283
6.656,0.9999999999999999,169.1249559027418
6.664,0.9999999999999999,168.66596399849456
6.672,1.0,168.20710040189982
6.68,1.0,167.74836426279902
6.688,1.0,167.28975472328312
6.696,1.0,166.83127091781336
6.704,0.9999999999999999,166.37291197334167
6.712,1.0,165.9146770094303
6.72,1.0,165.45656513837113
6.728,0.9999999999999999,164.9985754653044
6.736,1.0,164.54070708833706
6.744,0.9999999999999999,164.08295909866
6.752,1.0,163.62533058066583
6.76,1.0,163.16782061206484
6.768,1.0,162.71042826400148
6.776,0.9999999999999999,162.25315260116957
6.784,1.0,161.79599268192743
6.792,0.9999999999999999,161.33894755841206
6.8,0.9999999999999999,160.88201627665313
6.808,1.0,160.425197876686
6.816,1.0,159.9684913926646
6.824,0.9999999999999999,159.51189585297325
6.832,0.9999999999999999,159.05541028033844
6.84,1.0,158.5990336919396
6.848,0.9999995238076181,158.1427650995195
6.856,0.9999989147677281,157.6866035094938
6.864,0.9999983115649453,157.23054792306053
6.872,0.9999977144372704,156.77459733630835
6.88,0.9999971236143401,156.31875074032482
6.888,0.9999965393175356,155.86300712130344
6.896,0.9999959617600817,155.40736546065065
6.904,0.9999953911471561,154.95182473509203
6.912,0.99999482767599,154.4963839167776
6.92,0.9999942715359748,154.04104197338717
6.928,0.9999937229087628,153.58579786823427
6.936,0.9999931819683741,153.1306505603703
6.944,0.999992648881298,152.67559900468743
6.952,0.999992123806598,152.22064215202118
6.96,0.9999916068960136,151.76577894925245
6.968,0.9999910982940637,151.31100833940863
6.976,0.9999905981381515,150.85632926176453
6.984,0.9999901065586626,150.4017406519423
6.992,0.9999896236790718,149.947241442011
7.0,0.9999891496160433,149.49283056058553
7.008,0.9999886844795312,149.03850693292463
7.016,0.9999882283728847,148.58426948102888
7.024,0.9999877813929436,148.1301171237373
7.032,0.9999873436301459,147.6760487768243
7.04,0.9999869151686231,147.22206335309494
7.048,0.9999864960863035,146.7681597624806
7.056,0.9999860864550103,146.31433691213311
7.064,0.9999856863405616,145.86059370651918
7.072,0.9999852958028705,145.40692904751342
7.08,0.9999849148960435,144.9533418344912
7.088,0.9999845436684779,144.49983096442085
7.096,0.9999841821629615,144.0463953319552
7.104,0.9999838304167677,143.5930338295224
7.112,0.9999834884617563,143.13974534741632
7.12,0.9999831563244669,142.6865287738863
7.128,0.9999828340262166,142.2333829952262
7.136,0.9999825215831968,141.7803068958631
7.144,0.9999822190065657,141.3272993584448
7.152,0.9999819263025476,140.87435926392772
7.16,0.9999816434725228,140.4214854916632
7.168,0.9999813705131249,139.96867691948364
7.176,0.9999811074163326,139.51593242378837
7.184,0.9999808541695633,139.06325087962824
7.192,0.999980610755765,138.61063116079015
7.2,0.9999803771535101,138.15807213988074
7.208,0.9999801533370841,137.70557268840963
7.216,0.9999799392765782,137.253131676872
7.224,0.9999797349379788,136.80074797483059
7.232,0.9999795402832595,136.34842045099717
7.24,0.9999793552704668,135.89614797331328
7.248,0.9999791798538119,135.4439294090307
7.256,0.999979013983757,134.99176362479105
7.264,0.9999788576071046,134.5396494867049
7.272,0.9999787106670818,134.08758586043035
7.28,0.9999785731034297,133.63557161125115
7.288,0.9999784448524882,133.18360560415405
7.296,0.9999783258472791,132.7316867039056
7.304,0.9999782160175942,132.2798137751286
7.312,0.9999781152900774,131.82798568237786
7.32,0.9999780235883085,131.37620129021525
7.328,0.9999779408328847,130.9244594632846
7.336,0.999977866941504,130.47275906638572
7.344,0.99997780182905,130.0210989645478
7.352,0.9999777454076657,129.56947802310268
7.36,0.9999776975868394,129.11789510775722
7.368,0.9999776582734817,128.66634908466523
7.376,0.9999776273720075,128.21483882049895
7.384,0.9999776047844093,127.76336318251992
7.392,0.99997759041034,127.31192103864922
7.4,0.9999775841471878,126.86051125753748
7.4079999999999995,0.9999775858901516,126.40913270863408
7.416,0.9999775955323189,125.95778426225581
7.4239999999999995,0.9999776129647383,125.5064647896556
7.432,0.9999776380764976,125.0551731630895
7.4399999999999995,0.9999776707547937,124.60390825588496
7.448,0.9999777108850081,124.15266894250631
7.4559999999999995,0.9999777583507772,123.70145409862228
7.464,0.9999778130340675,123.25026260117062
7.4719999999999995,0.9999778748152431,122.79909332842422
7.48,0.9999779435731373,122.34794516005506
7.4879999999999995,0.9999780191851233,121.89681697719925
7.496,0.9999781015271818,121.44570766251992
7.504,0.999978190473969,120.9946161002713
7.5120000000000005,0.9999782858988865,120.5435411763608
7.52,0.9999783876741453,120.09248177841192
7.5280000000000005,0.999978495670834,119.64143679582548
7.536,0.9999786097589842,119.19040511984159
7.5440000000000005,0.9999787298076331,118.73938564359982
7.552,0.9999788556848912,118.28837726220031
7.5600000000000005,0.9999789872580025,117.83737887276303
7.568,0.9999791243934082,117.38638937448799
7.5760000000000005,0.999979266956811,116.93540766871344
7.584,0.9999794148132324,116.48443265897518
7.5920000000000005,0.9999795678270754,116.03346325106399
7.6,0.9999797258621849,115.582498353084
7.6080000000000005,0.999979888781906,115.1315368755091
7.616,0.9999800564491421,114.68057773124048
7.6240000000000006,0.9999802287264137,114.22961983566216
7.632,0.9999804054759145,113.77866210669775
7.640000000000001,0.9999805865595686,113.32770346486491
7.648,0.9999807718390843,112.87674283333135
7.656000000000001,0.9999809611760117,112.42577913796842
7.664,0.9999811544317941,111.97481130740627
7.672,0.9999813514678247,111.52383827308657
7.68,0.9999815521454948,111.07285896931664
7.688,0.9999817563262509,110.6218723333218
7.696,0.9999819638716414,110.17087730529813
7.704,0.999982174643371,109.71987282846446
7.712,0.9999823885033476,109.2688578491138
7.72,0.9999826053137334,108.81783131666492
7.728,0.9999828249369933,108.3667921837129
7.736,0.9999830472359403,107.91573940607974
7.744,0.9999832720737859,107.46467194286423
7.752,0.9999834993141843,107.01358875649176
7.76,0.9999837288212776,106.56248881276335
7.768,0.9999839604597425,106.11137108090472
7.776,0.9999841940948329,105.66023453361449
7.784,0.9999844295924244,105.20907814711248
7.792,0.9999846668190555,104.75790090118727
7.8,0.999984905641972,104.30670177924357
7.808,0.9999851459291659,103.855479768349
7.816,0.9999853875494176,103.40423385928085
7.824,0.9999856303723352,102.9529630465721
7.832,0.9999858742683937,102.50166632855726
7.84,0.999986119108973,102.05034270741783
7.848,0.9999863647663972,101.59899118922732
7.856,0.9999866111139696,101.14761078399602
7.864,0.9999868580260112,100.69620050571523
7.872,0.9999871053778938,100.24475937240133
7.88,0.9999873530460782,99.79328640613942
7.888,0.9999876009081454,99.34178063312646
7.896,0.999987848842832,98.89024108371432
7.904,0.9999880967300621,98.43866679245227
7.912,0.9999883444509803,97.98705679812916
7.92,0.9999885918879824,97.53541014381538
7.928,0.9999888389247467,97.08372587690435
7.936,0.9999890854462639,96.63200304915364
7.944,0.9999893313388659,96.18024071672583
7.952,0.9999895764902561,95.72843794022904
7.96,0.999989820789536,95.2765937847571
7.968,0.9999900641272323,94.8247073199293
7.976,0.999990306395325,94.37277761992998
7.984,0.9999905474872721,93.9208037635476
7.992,0.9999907872980358,93.46878483421364
8.0,0.9999910257241055,93.01671992004107
8.008,0.9999912626635242,92.56460811386259
8.016,0.99999149801591,92.11244851326822
8.024000000000001,0.9999917316824785,91.6602402206433
8.032,0.9999919635660661,91.20798234320543
8.04,0.9999921935711501,90.75567399304114
8.048,0.9999924216038699,90.30331428714277
8.056000000000001,0.9999926475720466,89.85090234744474
8.064,0.9999928713852017,89.39843730085948
8.072,0.9999930929545772,88.94591827931272
8.08,0.9999933121931522,88.49334441977905
8.088000000000001,0.9999935290156611,88.04071486431718
8.096,0.999993743338609,87.58802876010428
8.104,0.9999939550802895,87.1352852594704
8.112,0.9999941641607987,86.68248351993248
8.120000000000001,0.9999943705020493,86.22962270422852
8.128,0.9999945740277869,85.77670198035078
8.136,0.9999947746636012,85.32372052157874
8.144,0.9999949723369403,84.87067750651215
8.152000000000001,0.9999951669771215,84.41757211910384
8.16,0.9999953585153442,83.96440354869169
8.168,0.9999955468847002,83.5111709900305
8.176,0.9999957320201831,83.05787364332376
8.184000000000001,0.9999959138586992,82.60451071425527
8.192,0.9999960923390764,82.15108141401997
8.2,0.9999962674020715,81.69758495935454
8.208,0.9999964389903793,81.24402057256809
8.216000000000001,0.9999966070486396,80.79038748157244
8.224,0.999996771523442,80.33668491991196
8.232,0.9999969323633348,79.88291212679289
8.24,0.999997089518828,79.42906834711275
8.248000000000001,0.9999972429423996,78.97515283148978
8.256,0.9999973925884976,78.5211648362912
8.264,0.9999975384135471,78.06710362366167
8.272,0.99999768037595,77.61296846155143
8.280000000000001,0.9999978184360891,77.1587586237445
8.288,0.999997952556329,76.70447338988599
8.296,0.999998082701019,76.25011204550913
8.304,0.9999982088364917,75.79567388206252
8.312,0.9999983309310646,75.34115819693706
8.32,0.9999984489550389,74.88656429349172
8.328,0.9999985628806987,74.43189148108044
8.336,0.9999986726823096,73.9771390750771
8.344,0.9999987783361168,73.52230639690204
8.352,0.9999988798203413,73.06739277404621
8.36,0.999998977115178,72.6123975400973
8.368,0.9999990702027912,72.15732003476337
8.376,0.9999991590673103,71.70215960389811
8.384,0.9999992436948252,71.24691559952421
8.392,0.999999324073381,70.7915873798579
8.4,0.9999994001929718,70.33617430933174
8.408,0.9999994720455344,69.88067575861866
8.416,0.9999995396249411,69.4250911046541
8.424,0.9999996029269933,68.9694197306595
8.432,0.9999996619494118,68.51366102616382
8.44,0.9999997166918293,68.05781438702655
8.448,0.9999997671557818,67.6018792154587
8.456,0.999999813344699,67.14585492004498
8.464,0.9999998552638932,66.6897409157644
8.472,0.9999998929205502,66.23353662401192
8.48,0.9999999263237175,65.77724147261829
8.488,0.9999999554842931,65.32085489587128
8.496,0.9999999804150146,64.86437633453492
8.504,1.0,64.40780523587
8.512,1.0,63.95114105365289
8.52,1.0,63.49438324819542
8.528,0.9999999999999999,63.03753128636303
8.536,1.0,62.58058464159419
8.544,1.0,62.1235427939179
8.552,1.0,61.66640522997241
8.56,0.9999999999999999,61.20917144302235
8.568,1.0,60.75184093297672
8.576,1.0,60.2944132064054
8.584,0.9999999809263889,59.83688777655665
8.592,0.9999999567433611,59.379264163372895
8.6,0.9999999286571309,58.92154189350781
8.608,0.9999998967046737,58.46372050034127
8.616,0.9999998609245707,58.00579952399596
8.624,0.9999998213569907,57.54777851135185
8.632,0.9999997780436718,57.08965701606191
8.64,0.9999997310279002,56.63143459856615
8.648,0.9999996803544917,56.17311082610674
8.656,0.99999962606977,55.71468527274139
8.664,0.9999995682215472,55.25615751935788
8.672,0.9999995068591024,54.79752715368673
8.68,0.9999994420331595,54.33879377031522
8.688,0.9999993737958659,53.879956970699446
8.696,0.9999993022007715,53.42101636317761
8.704,0.999999227302804,52.96197156298157
8.712,0.9999991491582481,52.502822192249404
8.72,0.9999990678247215,52.043567880036335
8.728,0.9999989833611507,51.584208262326776
8.736,0.9999988958277503,51.124742982044495
8.744,0.9999988052859942,50.665171689064
8.752,0.9999987117985952,50.20549404022019
8.76,0.999998615429479,49.745709699319065
8.768,0.9999985162437588,49.28581833714659
8.776,0.9999984143077106,48.82581963147893
8.784,0.9999983096887478,48.36571326709058
8.792,0.9999982024553944,47.90549893576391
8.8,0.9999980926772608,47.445176336296726
8.808,0.9999979804250164,46.98474517451114
8.815999999999999,0.9999978657703621,46.524205163260426
8.824,0.9999977487860059,46.06355602243689
8.832,0.9999976295456333,45.60279747897896
8.84,0.9999975081238821,45.14192926687772
8.847999999999999,0.9999973845963138,44.68095112718302
8.856,0.9999972590393857,44.219862808009836
8.864,0.9999971315304246,43.75866406454395
8.872,0.9999970021475962,43.29735465904721
8.879999999999999,0.9999968709698789,42.835934360862254
8.888,0.999996738077034,42.374402946417355
8.896,0.9999966035495788,41.91276019923097
8.904,0.9999964674687546,41.45100590991538
8.911999999999999,0.9999963299165006,40.989139876180154
8.92,0.9999961909754236,40.5271619028355
8.928,0.9999960507287685,40.06507180179549
8.936,0.9999959092603883,39.60286939208023
8.943999999999999,0.9999957666547162,39.14055449981792
8.952,0.9999956229967342,38.67812695824682
8.96,0.9999954783719431,38.21558660771691
8.968,0.999995332866334,37.75293329569078
8.975999999999999,0.9999951865663566,37.29016687674415
8.984,0.9999950395588898,36.82728721256636
8.992,0.9999948919312107,36.364294171960665
9.0,0.9999947437709649,35.90118763084361
9.008,0.9999945951661352,35.437967472243976
9.016,0.999994446205012,34.97463358630202
9.024000000000001,0.9999942969761613,34.51118587026805
9.032,0.9999941475683948,34.0476242285004
9.04,0.9999939980707393,33.58394857246296
9.048,0.9999938485724054,33.120158820722736
9.056000000000001,0.9999936991627556,32.65625489894706
9.064,0.9999935499312763,32.19223673989997
9.072,0.9999934009675437,31.72810428343825
9.08,0.9999932523611945,31.26385747650744
9.088000000000001,0.9999931042018945,30.799496273137514
9.096,0.9999929565793078,30.335020634437708
9.104,0.9999928095830654,29.87043052859099
9.112,0.9999926633027341,29.405725930848575
9.120000000000001,0.9999925178277874,28.94090682352393
9.128,0.9999923732475718,28.47597319598619
9.136,0.9999922296512772,28.0109250446529
9.144,0.9999920871279071,27.545762372983017
9.152000000000001,0.9999919457662453,27.080485191469343
9.16,0.9999918056548279,26.615093517630264
9.168,0.9999916668819107,26.149587376001012
9.176,0.9999915295354388,25.683966798124953
9.184000000000001,0.9999913937030174,25.218231822544464
9.192,0.9999912594718796,24.75238249479105
9.2,0.999991126928857,24.286418867374934
9.208,0.9999909961603495,23.820340999774753
9.216000000000001,0.9999908672522949,23.354148958426848
9.224,0.9999907402901387,22.887842816713622
9.232,0.9999906153588042,22.421422654951577
9.24,0.9999904925426636,21.954888560379356
9.248000000000001,0.9999903719255068,21.488240627145295
9.256,0.9999902535905134,21.021478956294185
9.264,0.9999901376202227,20.554603655753656
9.272,0.999990024096504,20.087614840320477
9.280000000000001,0.9999899131005288,19.620512631646466
9.288,0.9999898047127405,19.153297158223623
9.296,0.9999896990128275,18.685968555368706
9.304,0.9999895960796934,18.218526965207936
9.312000000000001,0.999989495991428,17.75097253666121
9.32,0.9999893988252827,17.283305425425418
9.328,0.9999893046576386,16.81552579395747
9.336,0.9999892135639804,16.347633811457193
9.344,0.9999891256188703,15.879629653849918
9.352,0.9999890408959187,15.411513503767672
9.36,0.9999889594677597,14.943285550531362
9.368,0.9999888814060212,14.474945990131047
9.376,0.9999888067813015,14.006495025207226
9.384,0.9999887356631416,13.537932865030248
9.392,0.9999886681199996,13.069259725480713
9.4,0.9999886042192251,12.600475829028035
9.408,0.9999885440270346,12.131581404709982
9.416,0.9999884876084844,11.662576688110299
9.424,0.9999884350274486,11.193461921337446
9.432,0.9999883863465924,10.724237353001321
9.44,0.9999883416273491,10.254903238191087
9.448,0.9999883009298969,9.785459838451034
9.456,0.9999882643131324,9.31590742175759
9.464,0.9999882318346522,8.846246262494196
9.472,0.9999882035507259,8.376476641427447
9.48,0.9999881795162758,7.906598845681186
9.488,0.9999881597848536,7.436613168711684
9.496,0.9999881444086199,6.966519910280811
9.504,0.9999881334383222,6.496319376430423
9.512,0.9999881269232731,6.0260118794546
9.52,0.9999881249113314,5.555597737873128
9.528,0.999988127448879,5.085077276402878
9.536,0.9999881345808053,4.614450825930399
9.544,0.9999881463504827,4.1437187234824355
9.552,0.9999881627997514,3.672881312197567
9.56,0.9999881839688993,3.2019389412958854
9.568,0.9999882098966429,2.730891966049772
9.576,0.9999882406201107,2.2597407477526104
9.584,0.9999882761748256,1.7884856536887528
9.592,0.9999883165946863,1.3171270571013514
9.6,0.9999883619119542,0.845665337161347
9.608,0.9999884121572324,0.37410087893450256
9.616,0.9999884673594548,-0.09756592665048874
9.624,0.9999885275458676,-0.569334682835892
9.632,0.9999885927420163,-1.041204987067711
9.64,0.9999886629717297,-1.5131764310304157
9.648,0.9999887382571078,-1.9852486006806072
9.656,0.9999888186185064,-2.4574210762826705
9.664,0.9999889040745267,-2.9296934324432673
9.672,0.9999889946420006,-3.4020652381478595
9.68,0.9999890903359799,-3.874536056796107
9.688,0.9999891911697245,-4.347105446239265
9.696,0.9999892971546912,-4.819772958816405
9.704,0.9999894083005233,-5.29253814139273
9.712,0.9999895246150405,-5.765400535396637
9.72,0.9999896461042302,-6.238359676858889
9.728,0.9999897727722374,-6.711415096450546
9.736,0.999989904621357,-7.184566319523007
9.744,0.9999900416520242,-7.657812866146803
9.752,0.9999901838628105,-8.13115425115243
9.76,0.9999903312504127,-8.60458998417006
