freq,mag,phase
6.0,1.0,145.75120855385515
6.008,1.0,145.70252753428
6.016,0.9999999999999999,145.65383379105282
6.024,0.9999999999999999,145.605127306389
6.032,0.9999999999999999,145.55640806249096
6.04,1.0,145.50767604154836
6.048,1.0,145.45893122573807
6.056,0.9999999999999999,145.41017359722395
6.064,1.0,145.36140313815707
6.072,1.0,145.31261983067557
6.08,1.0,145.26382365690472
6.088,1.0,145.2150145989569
6.096,0.9999999999999999,145.1661926389316
6.104,0.9999999999999999,145.11735775891532
6.112,0.9999999574022514,145.0685099409817
6.12,0.9999999069044078,145.01964916719146
6.128,0.9999998561380838,144.97077541959231
6.136,0.9999998051129504,144.92188868021907
6.144,0.9999997538386248,144.87298893109366
6.152,0.9999997023246712,144.82407615422485
6.16,0.9999996505805997,144.77515033160867
6.168,0.9999995986158681,144.72621144522796
6.176,0.99999954643988,144.67725947705281
6.184,0.9999994940619865,144.62829440904005
6.192,0.999999441491486,144.57931622313373
6.2,0.9999993887376236,144.53032490126475
6.208,0.9999993358095915,144.4813204253511
6.216,0.9999992827165297,144.43230277729768
6.224,0.9999992294675251,144.38327193899636
6.232,0.9999991760716123,144.33422789232603
6.24,0.9999991225377736,144.2851706191524
6.248,0.9999990688749385,144.23610010132833
6.256,0.9999990150919854,144.18701632069343
6.264,0.999998961197739,144.13791925907438
6.272,0.9999989072009736,144.0888088982847
6.28,0.9999988531104104,144.03968522012485
6.288,0.9999987989347189,143.9905482063822
6.296,0.9999987446825175,143.94139783883102
6.304,0.9999986903623723,143.89223409923252
6.312,0.9999986359827983,143.84305696933478
6.32,0.9999985815522584,143.7938664308727
6.328,0.999998527079165,143.74466246556813
6.336,0.9999984725718789,143.69544505512974
6.344,0.9999984180387091,143.64621418125313
6.352,0.9999983634879146,143.59696982562062
6.36,0.9999983089277023,143.54771196990157
6.368,0.9999982543662292,143.498440595752
6.376,0.9999981998116014,143.44915568481488
6.384,0.9999981452718731,143.39985721871992
6.392,0.9999980907550493,143.35054517908372
6.4,0.9999980362690839,143.30121954750973
6.408,0.9999979818218805,143.2518803055881
6.416,0.9999979274212921,143.2025274348958
6.424,0.9999978730751219,143.15316091699668
6.432,0.9999978187911228,143.1037807334413
6.44,0.9999977645769975,143.05438686576704
6.448,0.9999977104403991,143.00497929549798
6.456,0.9999976563889303,142.9555580041451
6.464,0.9999976024301445,142.90612297320604
6.472,0.9999975485715454,142.85667418416526
6.48,0.9999974948205871,142.8072116184939
6.4879999999999995,0.999997441184674,142.7577352576499
6.496,0.9999973876711613,142.7082450830779
6.504,0.9999973342873552,142.65874107620934
6.5120000000000005,0.9999972810405122,142.6092232184623
6.52,0.99999722793784,142.55969149124164
6.5280000000000005,0.9999971749864972,142.51014587593892
6.536,0.9999971221935934,142.46058635393237
6.5440000000000005,0.9999970695661896,142.41101290658702
6.552,0.9999970171112981,142.3614255152545
6.5600000000000005,0.9999969648358821,142.31182416127317
6.568,0.9999969127468571,142.2622088259681
6.5760000000000005,0.9999968608510892,142.21257949065094
6.584,0.9999968091553968,142.16293613662023
6.592,0.9999967576665499,142.1132787451609
6.6,0.99999670639127,142.0636072975448
6.608,0.9999966553362314,142.01392177503027
6.616,0.999996604508059,141.96422215886238
6.624,0.9999965539133313,141.9145084302729
6.632,0.9999965035585784,141.8647805704801
6.64,0.999996453450282,141.81503856068895
6.648,0.9999964035948773,141.76528238209116
6.656,0.9999963539987512,141.71551201586496
6.664,0.9999963046682436,141.66572744317526
6.672,0.9999962556096468,141.61592864517354
6.68,0.9999962068292061,141.5661156029979
6.688,0.9999961583331195,141.51628829777314
6.696,0.999996110127538,141.4664467106106
6.704,0.9999960622185651,141.4165908226082
6.712,0.9999960146122584,141.36672061485052
6.72,0.9999959673146276,141.31683606840872
6.728,0.9999959203316368,141.2669371643405
6.736,0.9999958736692025,141.21702388369025
6.744,0.9999958273331951,141.16709620748887
6.752,0.9999957813294388,141.11715411675382
6.76,0.9999957356637106,141.06719759248926
6.768,0.9999956903417422,141.0172266156858
6.776,0.9999956453692186,140.9672411673206
6.784,0.9999956007517787,140.91724122835757
6.792,0.9999955564950158,140.86722677974697
6.8,0.9999955126044765,140.8171978024258
6.808,0.9999954690856623,140.76715427731745
6.816,0.9999954259440286,140.717096185332
6.824,0.9999953831849849,140.66702350736605
6.832,0.9999953408138957,140.61693622430275
6.84,0.9999952988360798,140.5668343170117
6.848,0.9999952572568102,140.51671776634922
6.856,0.9999952160813146,140.46658655315804
6.864,0.9999951753147762,140.41644065826748
6.872,0.9999951349623322,140.3662800624934
6.88,0.9999950950290751,140.3161047466382
6.888,0.9999950555200523,140.26591469149074
6.896,0.9999950164402663,140.21570987782658
6.904,0.9999949777946745,140.16549028640767
6.912,0.9999949395881899,140.1152558979825
6.92,0.9999949018256808,140.06500669328616
6.928,0.9999948645119704,140.01474265304023
6.936,0.999994827651838,139.9644637579528
6.944,0.9999947912500181,139.91416998871853
6.952,0.9999947553112009,139.86386132601854
6.96,0.9999947198400321,139.81353775052054
6.968,0.9999946848411131,139.76319924287878
6.976,0.9999946503190021,139.7128457837339
6.984,0.9999946162782121,139.66247735371323
6.992,0.999994582723212,139.61209393343057
7.0,0.9999945496584278,139.56169550348613
7.008,0.9999945170882412,139.51128204446687
7.016,0.9999944850169893,139.46085353694608
7.024,0.9999944534489664,139.4104099614836
7.032,0.9999944223884232,139.35995129862593
7.04,0.999994391839566,139.30947752890597
7.048,0.9999943618065582,139.2589886328432
7.056,0.9999943322935195,139.20848459094358
7.064,0.9999943033045267,139.15796538369966
7.072,0.999994274843612,139.10743099159052
7.08,0.9999942469147658,139.0568813950818
7.088,0.9999942195219342,139.00631657462554
7.096,0.9999941926690212,138.9557365106605
7.104,0.9999941663598864,138.90514118361185
7.112,0.9999941405983475,138.85453057389137
7.12,0.9999941153881784,138.8039046618974
7.128,0.9999940907331106,138.75326342801478
7.136,0.9999940666368327,138.70260685261496
7.144,0.9999940431029899,138.65193491605586
7.152,0.9999940201351856,138.60124759868208
7.16,0.9999939977369795,138.5505448808247
7.168,0.9999939759118892,138.49982674280142
7.176,0.9999939546633894,138.4490931649164
7.184,0.9999939339949127,138.39834412746058
7.192,0.9999939139098483,138.34757961071134
7.2,0.9999938944115437,138.29679959493268
7.208,0.9999938755033034,138.24600406037518
7.216,0.9999938571883901,138.19519298727604
7.224,0.9999938394700233,138.1443663558591
7.232,0.9999938223513809,138.09352414633474
7.24,0.9999938058355977,138.04266633890003
7.248,0.9999937899257672,137.9917929137386
7.256,0.9999937746249394,137.94090385102072
7.264,0.9999937599361235,137.8899991309034
7.272,0.999993745862285,137.83907873353013
7.28,0.9999937324063485,137.78814263903118
7.288,0.9999937195711958,137.73719082752348
7.296,0.9999937073596661,137.68622327911055
7.304,0.9999936957745572,137.63523997388268
7.312,0.999993684818625,137.58424089191678
7.32,0.999993674494582,137.5332260132765
7.328,0.9999936648050995,137.48219531801217
7.336,0.9999936557528075,137.43114878616086
7.344,0.9999936473402921,137.38008639774637
7.352,0.999993639570098,137.3290081327792
7.36,0.9999936324447286,137.27791397125668
7.368,0.9999936259666439,137.2268038931628
7.376,0.9999936201382625,137.1756778784684
7.384,0.9999936149619609,137.1245359071311
7.392,0.9999936104400732,137.07337795909527
7.4,0.9999936065748912,137.0222040142921
7.4079999999999995,0.9999936033686646,136.97101405263967
7.416,0.999993600823601,136.9198080540428
7.4239999999999995,0.9999935989418656,136.86858599839323
7.432,0.9999935977255812,136.81734786556953
7.4399999999999995,0.9999935971768281,136.76609363543724
7.448,0.9999935972976451,136.71482328784862
7.4559999999999995,0.9999935980900271,136.663536802643
7.464,0.9999935995559281,136.61223415964656
7.4719999999999995,0.9999936016972579,136.56091533867246
7.48,0.999993604515885,136.50958031952075
7.4879999999999995,0.9999936080136347,136.45822908197866
7.496,0.9999936121922897,136.4068616058201
7.504,0.999993617053589,136.35547787080623
7.5120000000000005,0.9999936225992302,136.30407785668518
7.52,0.999993628830867,136.25266154319218
7.5280000000000005,0.99999363575011,136.2012289100494
7.536,0.9999936433585265,136.1497799369662
7.5440000000000005,0.999993651657641,136.0983146036391
7.552,0.9999936606489341,136.04683288975167
7.5600000000000005,0.9999936703338436,135.99533477497465
7.568,0.9999936807137625,135.943820238966
7.5760000000000005,0.9999936917900412,135.89228926137082
7.584,0.9999937035639853,135.84074182182152
7.5920000000000005,0.9999937160368572,135.7891778999377
7.6,0.999993729209874,135.73759747532623
7.6080000000000005,0.9999937430842094,135.6860005275813
7.616,0.9999937576609922,135.63438703628452
7.6240000000000006,0.9999937729413065,135.5827569810047
7.632,0.9999937889261916,135.5311103412981
7.640000000000001,0.9999938056166414,135.4794470967084
7.648,0.9999938230136053,135.4277672267667
7.656000000000001,0.9999938411179865,135.3760707109916
7.664,0.9999938599306427,135.32435752888915
7.672,0.9999938794523858,135.27262765995297
7.68,0.9999938996839817,135.22088108366424
7.688,0.9999939206261493,135.16911777949167
7.696,0.9999939422795617,135.1173377268917
7.704,0.9999939646448445,135.06554090530835
7.712,0.9999939877225762,135.01372729417338
7.72,0.9999940115132882,134.96189687290618
7.728,0.9999940360174634,134.9100496209141
7.736,0.9999940612355375,134.8581855175921
7.744,0.9999940871678972,134.80630454232303
7.752,0.9999941138148805,134.7544066744777
7.76,0.9999941411767765,134.70249189341482
7.768,0.9999941692538252,134.65056017848093
7.776,0.9999941980462163,134.5986115090107
7.784,0.9999942275540887,134.54664586432682
7.792,0.9999942577775323,134.49466322374002
7.8,0.9999942887165847,134.44266356654927
7.808,0.9999943203712323,134.39064687204151
7.816,0.9999943527414097,134.3386131194921
7.824,0.9999943858269992,134.2865622881646
7.832,0.9999944196278301,134.2344943573108
7.84,0.9999944541436786,134.18240930617105
7.848,0.9999944893742665,134.1303071139739
7.856,0.9999945253192617,134.07818775993653
7.864,0.9999945619782766,134.02605122326452
7.872,0.9999945993508685,133.9738974831521
7.88,0.9999946374365389,133.92172651878207
7.888,0.9999946762347315,133.869538309326
7.896,0.9999947157448332,133.8173328339441
7.904,0.9999947559661728,133.76511007178541
7.912,0.9999947968980202,133.7128700019879
7.92,0.9999948385395867,133.66061260367832
7.928,0.9999948808900214,133.60833785597254
7.936,0.9999949239484146,133.55604573797535
7.944,0.9999949677137938,133.50373622878072
7.952,0.9999950121851237,133.4514093074718
7.96,0.9999950573613062,133.39906495312093
7.968,0.9999951032411788,133.34670314478979
7.976,0.9999951498235138,133.29432386152948
7.984,0.999995197107017,133.24192708238044
7.992,0.9999952450903278,133.18951278637275
8.0,0.9999952937720172,133.13708095252602
8.008,0.9999953431505871,133.08463155984956
8.016,0.9999953932244694,133.03216458734244
8.024000000000001,0.9999954439920246,132.97968001399352
8.032,0.9999954954515409,132.92717781878162
8.04,0.9999955476012329,132.87465798067552
8.048,0.9999956004392406,132.82212047863413
8.056000000000001,0.9999956539636276,132.76956529160643
8.064,0.9999957081723806,132.71699239853177
8.072,0.9999957630634076,132.66440177833974
8.08,0.9999958186345362,132.61179340995037
8.088000000000001,0.999995874883513,132.5591672722743
8.096,0.9999959318080011,132.50652334421272
8.104,0.9999959894055795,132.45386160465753
8.112,0.9999960476737417,132.4011820324915
8.120000000000001,0.9999961066098917,132.34848460658827
8.128,0.9999961662113462,132.29576930581248
8.136,0.9999962264753295,132.24303610901995
8.144,0.9999962873989731,132.19028499505768
8.152000000000001,0.9999963489793141,132.137515942764
8.16,0.999996411213293,132.08472893096874
8.168,0.9999964740977507,132.0319239384932
8.176,0.9999965376294283,131.9791009441505
8.184000000000001,0.9999966018049636,131.92625992674533
8.192,0.9999966666208892,131.8734008650745
8.2,0.9999967320736304,131.82052373792672
8.208,0.9999967981595028,131.76762852408294
8.216000000000001,0.9999968648747104,131.71471520231628
8.224,0.9999969322153418,131.66178375139236
8.232,0.9999970001773686,131.6088341500693
8.24,0.9999970687566426,131.5558663770979
8.248000000000001,0.9999971379488934,131.50288041122175
8.256,0.9999972077497239,131.44987623117737
8.264,0.9999972781546098,131.39685381569444
8.272,0.9999973491588944,131.34381314349574
8.280000000000001,0.9999974207577869,131.29075419329746
8.288,0.999997492946358,131.23767694380936
8.296,0.9999975657195378,131.18458137373486
8.304,0.9999976390721108,131.13146746177108
8.312,0.9999977129987139,131.07833518660928
8.32,0.9999977874938313,131.02518452693468
8.328,0.999997862551791,130.97201546142693
8.336,0.9999979381667622,130.91882796876004
8.344,0.9999980143327494,130.86562202760268
8.352,0.999998091043588,130.81239761661826
8.36,0.9999981682929422,130.75915471446518
8.368,0.9999982460742978,130.70589329979697
8.376,0.9999983243809586,130.65261335126246
8.384,0.9999984032060432,130.59931484750587
8.392,0.9999984825424763,130.54599776716722
8.4,0.9999985623829866,130.49266208888227
8.408,0.9999986427201009,130.43930779128283
8.416,0.9999987235461371,130.3859348529969
8.424,0.9999988048531999,130.332543252649
8.432,0.9999988866331746,130.2791329688601
8.44,0.99999896887772,130.225703980248
8.448,0.9999990515782634,130.17225626542754
8.456,0.9999991347259939,130.11878980301069
8.464,0.999999218311854,130.06530457160682
8.472,0.9999993023265342,130.01180054982296
8.48,0.9999993867604658,129.95827771626384
8.488,0.9999994716038121,129.9047360495322
8.496,0.9999995568464621,129.8511755282291
8.504,0.9999996424780204,129.7975961309539
8.512,0.9999997284878019,129.7439978363047
8.52,0.9999998148648206,129.69038062287837
8.528,0.9999999015977814,129.63674446927084
8.536,0.9999999886750716,129.58308935407746
8.544,1.0,129.5294152558929
8.552,1.0,129.47572215331166
8.56,1.0,129.42201002492814
8.568,1.0,129.36827884933692
8.576,1.0,129.31452860513292
8.584,0.9999999999999999,129.26075927091162
8.592,0.9999999999999999,129.20697082526945
8.6,0.9999999999999999,129.1531632468037
8.608,1.0,129.09933651411302
8.616,0.9999999999999999,129.0454906057974
8.624,0.9999999999999998,128.99162550045858
8.632,0.9999999999999999,128.9377411767002
8.64,1.0,128.88383761312792
8.648,0.9999999999999999,128.82991478834973
8.656,0.9999999999999998,128.7759726809761
8.664,0.9999999999999999,128.7220112696201
8.672,1.0,128.66803053289783
8.68,0.9999999999999999,128.61403044942827
8.688,1.0,128.56001099783379
8.696,1.0,128.50597215674003
8.704,0.9999999999999999,128.4519139047762
8.712,0.9999999999999999,128.3978362205754
8.72,1.0,128.34373908277436
8.728,0.9999999999999999,128.28962247001394
8.736,1.0,128.235486360939
8.744,1.0,128.18133073419878
8.752,0.9999999999999999,128.12715556844668
8.76,1.0,128.07296084234054
8.768,0.9999999999999999,128.01874653454263
8.776,1.0,127.96451262371971
8.784,1.0,127.91025908854304
8.792,1.0,127.85598590768844
8.8,0.9999999999999999,127.80169305983615
8.808,0.9999999999999999,127.74738052367084
8.815999999999999,1.0,127.69304827788152
8.824,1.0,127.63869630116154
8.832,1.0,127.58432457220825
8.84,1.0,127.529933069723
8.847999999999999,1.0,127.47552177241081
8.856,1.0,127.42109065898022
8.864,1.0,127.36663970814293
8.872,0.9999999999999999,127.31216889861348
8.879999999999999,0.9999999999999999,127.25767820910887
8.888,1.0,127.20316761834808
8.896,1.0,127.14863710505162
8.904,1.0,127.094086647941
8.911999999999999,1.0,127.039516225738
8.92,1.0,126.98492581716404
8.928,1.0,126.93031540093946
8.936,1.0,126.87568495578259
8.943999999999999,1.0,126.8210344604089
8.952,1.0,126.76636389352984
8.96,0.9999999999999999,126.71167323385197
8.968,1.0,126.65696246007546
8.975999999999999,1.0,126.60223155089302
8.984,1.0,126.5474804849882
8.992,1.0,126.49270924103408
9.0,1.0,126.43791779769134
9.008,1.0,126.38310613360662
9.016,0.9999999999999999,126.32827422741038
9.024000000000001,0.9999999999999999,126.27342205771481
9.032,0.9999999999999999,126.21854960311151
9.04,0.9999999999999999,126.16365684216905
9.048,1.0,126.10874375343013
9.056000000000001,1.0,126.05381031540888
9.064,0.9999999999999999,125.99885650658766
9.072,1.0,125.94388230541367
9.08,0.9999999999999999,125.88888769029549
9.088000000000001,0.9999999999999999,125.83387263959925
9.096,0.9999999999999998,125.77883713164448
9.104,1.0,125.72378114469964
9.112,0.9999999999999999,125.66870465697768
9.120000000000001,0.9999999999999999,125.61360764663085
9.128,1.0,125.55849009174537
9.136,1.0,125.50335197033576
9.144,1.0,125.4481932603388
9.152000000000001,1.0,125.39301393960696
9.16,0.9999999999999999,125.33781398590165
9.168,1.0,125.28259337688564
9.176,1.0,125.22735209011556
9.184000000000001,1.0,125.1720901030333
9.192,1.0,125.1168073929575
9.2,1.0,125.06150393707392
9.208,0.9999999999999999,125.00617971242563
9.216000000000001,0.9999999999999999,124.95083469590257
9.224,1.0,124.89546886423028
9.232,0.9999999999999999,124.84008219395815
9.24,0.9999999999999999,124.78467466144694
9.248000000000001,0.9999999999999998,124.7292462428555
9.256,1.0,124.67379691412697
9.264,1.0000000000000002,124.6183266509739
9.272,1.0,124.56283542886277
9.280000000000001,0.9999999999999998,124.50732322299758
9.288,1.0,124.45179000830265
9.296,1.0000000000000002,124.39623575940438
9.304,1.0,124.34066045061208
9.312000000000001,0.9999999999999999,124.28506405589815
9.32,1.0,124.2294465488768
9.328,1.0,124.1738079027819
9.336,1.0,124.11814809044405
9.344,0.9999999999999999,124.06246708426623
9.352,0.9999999999999999,124.00676485619847
9.36,0.9999999999999999,123.95104137771155
9.368,0.9999999999999999,123.89529661976927
9.376,1.0,123.8395305528001
9.384,1.0,123.78374314666698
9.392,1.0,123.72793437063675
9.4,1.0,123.67210419334785
9.408,0.9999999999999999,123.61625258277735
9.416,0.9999999999999999,123.56037950620664
9.424,1.0,123.50448493018634
9.432,0.9999999999999999,123.44856882049994
9.44,1.0,123.39263114212676
9.448,0.9999999999999999,123.33667185920403
9.456,0.9999999999999999,123.28069093498824
9.464,1.0,123.2246883318157
9.472,0.9999999999999999,123.16866401106294
9.48,1.0,123.11261793310655
9.488,0.9999999999999999,123.05655005728283
9.496,1.0,123.00046034184754
9.504,1.0,122.94434874393609
9.512,0.9999999999999999,122.88821521952397
9.52,1.0,122.8320597233881
9.528,1.0,122.77588220906941
9.536,0.9999999849102553,122.71968262883667
9.544,0.9999996181825911,122.66346093365239
9.552,0.9999992369690526,122.60721707314092
9.56,0.9999988410133415,122.55095099555906
9.568,0.9999984300697662,122.49466264777031
9.576,0.9999980039048064,122.43835197522235
9.584,0.9999975622987706,122.38201892192936
9.592,0.9999971050475467,122.3256634304586
9.6,0.9999966319644458,122.26928544192332
9.608,0.9999961428821305,122.21288489598093
9.616,0.9999956376546348,122.15646173083883
9.624,0.9999951161594614,122.1000158832674
9.632,0.9999945782997552,122.04354728862151
9.64,0.9999940240065467,121.98705588087086
9.648,0.9999934532410512,121.93054159264041
9.656,0.9999928659970193,121.87400435526118
9.664,0.9999922623031231,121.81744409883238
9.672,0.9999916422253642,121.76086075229559
9.68,0.9999910058694871,121.70425424352139
9.688,0.9999903533833813,121.64762449940959
9.696,0.999989684959452,121.59097144600288
9.704,0.9999890008369352,121.53429500861509
9.712,0.9999883013041371,121.4775951119739
9.72,0.999987586700568,121.42087168037843
9.728,0.9999868574189467,121.36412463787185
9.736,0.9999861139070444,121.30735390842909
9.744,0.9999853566693413,121.25055941615892
9.752,0.9999845862684597,121.19374108552067
9.76,0.9999838033263456,121.13689884155431
9.768,0.9999830085251683,121.08003261012385
9.776,0.9999822026079016,121.02314231817209
9.784,0.9999813863785596,120.9662278939859
