freq,mag,phase
6.0,1.0004373923547263,25.785001630904766
6.007476736,1.0003053649097475,25.583349498276192
6.014953472,1.0001566217622313,25.383556511914563
6.022429696,0.9999994184627529,25.18583211186628
6.029906432,0.9998423755863562,24.990281764230748
6.037383168,0.999694248154332,24.796703337833733
6.044859904,0.999563306711141,24.605039523756336
6.05233664,0.9994566722235093,24.414984471763518
6.059812864,0.9993804205032046,24.226161494592247
6.0672896,0.9993387602485198,24.038106121232858
6.074766336,0.9993339766308801,23.850329935824266
6.082243072,0.9993664878105941,23.662367982364497
6.089719808,0.9994343254609018,23.4737265654558
6.097196032,0.9995339941165393,23.28392524358554
6.104672768,0.999659827901575,23.09258353203456
6.112149504,0.999804912699003,22.899345719819213
6.11962624,0.9999611844633487,22.704097352652862
6.127102976,1.0001200564742632,22.5066588855172
6.1345792,1.0002726200594536,22.307098150643718
6.142055936,1.0004105595459705,22.105551832363954
6.149532672,1.0005261407447066,21.902236627562868
6.157009408,1.0006129770466132,21.697573036487366
6.164486144,1.0006663001963554,21.4919002905294
6.171962368,1.0006829710481802,21.285767763605012
6.179439104,1.0006622076443192,21.07959004771007
6.18691584,1.00060512977885,20.873958163380813
6.194392576,1.0005146813833308,20.669290235930074
6.201869312,1.000396064313711,20.466018550758122
6.209346048,1.0002557028084562,20.264480996585366
6.216822272,1.0001013217956491,20.064959486547334
6.224299008,0.9999414737868332,19.867502545764385
6.231775744,0.9997851315248638,19.672204099597074
6.23925248,0.9996407866221824,19.478926431791084
6.246729216,0.9995165579514644,19.287450638602607
6.25420544,0.9994192360283106,19.097481047072446
6.261682176,0.9993544051114608,18.90855516344542
6.269158912,0.9993256547589673,18.720295062393085
6.276635648,0.999334508841396,18.532118114987128
6.284112384,0.9993805310485604,18.343579903456394
6.291588608,0.9994612650875045,18.154171477202453
6.299065344,0.9995722432818671,17.963459650942152
6.30654208,0.99970729673447,17.770987548390583
6.314018816,0.9998589760522804,17.576607651008842
6.321495552,1.0000187990035183,17.380073352042263
6.328971776,1.0001781472957192,17.181360253824412
6.336448512,1.000327989069865,16.980544380980117
6.343925248,1.000460039102497,16.777755953523833
6.351401984,1.0005670662996164,16.573386278406346
6.35887872,1.0006430158379773,16.367716992733744
6.366354944,1.000683783165881,16.161251927048472
6.37383168,1.0006870183459953,15.954433692135964
6.381308416,1.0006525032997875,15.747794156601078
6.388785152,1.000582145264375,15.541910492355566
6.396261888,1.0004798651709845,15.337141950878626
6.403738112,1.0003511609804259,15.133890962686827
6.411214848,1.0002031885316702,14.932518642120776
6.418691584,1.0000441797965498,14.733189494042787
6.42616832,0.9998827166462433,14.536011009690258
6.433645056,0.9997281454547582,14.341012156146771
6.44112128,0.9995886155382632,14.147971747184629
6.448598016,0.9994721458416822,13.956617582465597
6.456074752,0.9993850715070348,13.766661381588682
6.463551488,0.9993323628911639,13.577638937464721
6.471028224,0.999316838783293,13.389046689018627
6.478504448,0.9993395995445629,13.200413079132808
6.485981184,0.9993991977220851,13.011214976291496
6.49345792,0.999492456311679,12.820923633871296
6.500934656,0.9996141768533732,12.629193373432756
6.508411392,0.9997577247856094,12.435612760726597
6.515887616,0.9999150538089318,12.239994119884559
6.523364352,1.0000775365631671,12.042170585291965
6.530841088,1.0002360979178064,11.842133192387502
6.538317824,1.000382142635161,11.640030766052847
6.54579456,1.000507302960828,11.436078414527165
6.553270784,1.0006048504145733,11.230568253591455
6.56074752,1.0006692278982139,11.023937644750946
6.568224256,1.0006970212024655,10.816694116556702
6.575700992,1.0006865004374472,10.609247935277052
6.583177728,1.0006381814552703,10.402231189120515
6.590653952,1.0005549067699482,10.19604714982126
6.598130688,1.0004410430786235,9.991217890870463
6.605607424,1.0003030415597038,9.788041536113607
6.61308416,1.000148404131174,9.586834445916642
6.620560896,0.9999856818125008,9.387765228845286
6.628037632,0.9998239057538229,9.190872534337949
6.635513856,0.9996720858680248,8.996087470752759
6.642990592,0.999538586677067,8.803235692039435
6.650467328,0.9994306800216615,8.611992310044094
6.657944064,0.9993546865553898,8.422011970823378
6.6654208,0.999314604693454,8.232788249718759
6.672897024,0.9993128643661716,8.043816583963363
6.68037376,0.9993495381740203,7.85461552074544
6.687850496,0.9994224614436209,7.664650368857923
6.695327232,0.9995279025286172,7.4734331290314895
6.702803968,0.9996597614122221,7.2805982968093295
6.710280192,0.9998109528335234,7.085834032161875
6.717756928,0.9999730067302918,6.888926309247802
6.725233664,1.0001369827041156,6.689748829783056
6.7327104,1.0002938559136618,6.488409485162927
6.740187136,1.0004348778319845,6.285007592417111
6.74766336,1.0005522592835123,6.079839665431789
6.755140096,1.0006394752303023,5.8732719101120185
6.762616832,1.0006915731575583,5.665726325888239
6.770093568,1.000705783880153,5.457701685948869
6.777570304,1.000681382163413,5.249742743613839
6.785046528,1.0006193718550267,5.042325927565764
6.792523264,1.000523399848718,4.835938842014482
6.8,1.000398636331125,4.631054147615673
6.807476736,1.0002519832583125,4.427970710854331
6.814953472,1.000091533215822,4.22695436580562
6.822429696,0.9999262014457242,4.028123725295376
6.829906432,0.999765053889549,3.831500156389838
6.837383168,0.9996170880849679,3.6369439639208885
6.844859904,0.9994904658970543,3.4442302184033267
6.85233664,0.9993923025446957,3.2530506514780666
6.859812864,0.9993280587500122,3.062975320760157
6.8672896,0.9993012667587728,2.8734394793786024
6.874766336,0.9993134545401114,2.6840402006864426
6.882243072,0.9993640097884917,2.4941816308288924
6.889719808,0.9994501995161776,2.303360925625769
6.897196032,0.9995671151452548,2.111121067860569
6.904672768,0.9997086125731431,1.9171469526069667
6.912149504,0.9998665517197143,1.721141955450559
6.91962624,1.0000323037092393,1.5228707331445304
6.927102976,1.0001967550900328,1.3223606169346385
6.9345792,1.0003507494188206,1.1196834843063441
6.942055936,1.0004856763175325,0.9149846927616863
6.949532672,1.000594254594441,0.7086363431017906
6.957009408,1.0006703002703803,0.5009842650785101
6.964486144,1.0007095849526733,0.2925548773706833
6.971962368,1.0007100082875762,0.08381192404486928
6.979439104,1.0006713711378343,-0.1246632049329696
6.98691584,1.0005958405027933,-0.33242418850591476
6.994392576,1.0004874853025962,-0.5389698112823874
7.001869312,1.0003524078652792,-0.7438645415868989
7.009346048,1.0001980751513153,-0.9468176387254413
7.016822272,1.000032814662008,-1.1476385008046206
7.024299008,0.9998659016492463,-1.3462223903851955
7.031775744,0.9997064819269278,-1.542608616274163
7.03925248,0.9995634867393894,-1.7369614288755149
7.046729216,0.9994449072776712,-1.9295916322194329
7.05420544,0.9993572017077293,-2.1208047425574637
7.061682176,0.9993053991326116,-2.311053300609094
7.069158912,0.9992923109249987,-2.5009443862471943
7.076635648,0.9993187653607941,-2.6908916037024024
7.084112384,0.9993832277821857,-2.881495669786526
7.091588608,0.999482252943986,-3.073205835299964
7.099065344,0.9996103828241145,-3.2665019721961053
7.10654208,0.9997605430946621,-3.4616962153756075
7.114018816,0.9999242741049763,-3.6590778772611774
7.121495552,1.0000927896292424,-3.858702733542055
7.128971776,1.0002565006072257,-4.06059692898777
7.136448512,1.0004064669472938,-4.264641176981503
7.143925248,1.0005345282882394,-4.470612846459827
7.151401984,1.000633175841561,-4.678161828008539
7.15887872,1.0006972986282492,-4.886806340997773
7.166354944,1.0007232180730108,-5.096107683617456
7.17383168,1.0007094143043038,-5.30551864711115
7.181308416,1.0006565842343242,-5.514472214211819
7.188785152,1.0005677062032907,-5.7225221837321065
7.196261888,1.0004476567826532,-5.92917365782138
7.203738112,1.0003029146018596,-6.134049590374408
7.211214848,1.0001415851121191,-6.3369124163115815
7.218691584,0.9999725513633673,-6.5375150125451915
7.22616832,0.9998052233530896,-6.735857113598456
7.233645056,0.9996486353545077,-6.932006574862598
7.24112128,0.9995117694319668,-7.126238580203266
7.248598016,0.9994021282041414,-7.318773923745227
7.256074752,0.9993257780638167,-7.510067906316672
7.263551488,0.9992869336127862,-7.700606920775069
7.271028224,0.9992879891246661,-7.890894882825622
7.278504448,0.999328728561358,-8.081474259601933
7.285981184,0.9994069902380807,-8.272924683345698
7.29345792,0.9995185841196678,-8.465619336116333
7.300934656,0.9996572007721497,-8.660077984349327
7.308411392,0.9998152024427878,-8.85657768175273
7.315887616,0.9999839318659206,-9.05531257892199
7.323364352,1.0001539535357424,-9.256339944158345
7.330841088,1.0003158617056742,-9.459665760608427
7.338317824,1.000460837175838,-9.665092209476757
7.34579456,1.0005807350964049,-9.872347530886053
7.353270784,1.0006688179347136,-10.081017947387199
7.36074752,1.0007202959482853,-10.290674537634366
7.368224256,1.0007322961295264,-10.500788894973674
7.375700992,1.0007041058561454,-10.710796507262586
7.383177728,1.0006371481261171,-10.920198615821
7.390653952,1.0005352042803541,-11.128512226536175
7.398130688,1.000403885823746,-11.335288373115588
7.405607424,1.0002502161411806,-11.54012559565846
7.41308416,1.0000829464274816,-11.7428009477865
7.420560896,0.9999111205700403,-11.943194029936171
7.428037632,0.9997444102556367,-12.141334758005403
7.435513856,0.9995918944865647,-12.337294795690731
7.442990592,0.9994621182631892,-12.531373314782416
7.450467328,0.9993624076727786,-12.723953398633464
7.457944064,0.9992981798236608,-12.915370722690536
7.4654208,0.9992729837026157,-13.106230453474947
7.472897024,0.9992885103033731,-13.297050809758899
7.48037376,0.9993436246234754,-13.488347070014276
7.487850496,0.9994354808226711,-13.680680110586525
7.495327232,0.9995591072210276,-13.874501215727978
7.502803968,0.9997074952736954,-14.070181488311068
7.510280192,0.9998725226853644,-14.267991357722629
7.517756928,1.0000449932183852,-14.46815819008665
7.525233664,1.000215598877682,-14.670635928670997
7.5327104,1.0003746227240093,-14.875405625160397
7.540187136,1.0005133945830595,-15.082167351597805
7.54766336,1.0006241636625457,-15.290707153756873
7.555140096,1.0007008372669253,-15.500519985695767
7.562616832,1.0007390895888681,-15.711152174688772
7.570093568,1.0007368843668518,-15.922040237173002
7.577570304,1.0006939146613152,-16.132662552201623
7.585046528,1.000613016149221,-16.342471062849874
7.592523264,1.000498323316972,-16.550965241294076
7.6,1.0003563330937246,-16.757783014076583
7.607476736,1.0001946476940775,-16.96253544199696
7.614953472,1.0000223946127513,-17.165046449227624
7.622429696,0.9998488885364797,-17.36524254695125
7.629906432,0.9996839075301194,-17.56319688259534
7.637383168,0.9995364912311213,-17.759006704868074
7.644859904,0.9994148953748274,-17.953028780905818
7.65233664,0.9993259834746112,-18.145628981232914
7.659812864,0.9992745183226452,-18.337299795811465
7.6672896,0.9992634779691686,-18.52855964361648
7.674766336,0.9992935661241211,-18.71998757301384
7.682243072,0.9993631161415306,-18.912090239741893
7.689719808,0.9994684231254596,-19.105414588212472
7.697196032,0.9996035442654132,-19.300349440490322
7.704672768,0.9997609878402699,-19.49732848137742
7.712149504,0.999932103789083,-19.6965574878683
7.71962624,1.0001074137343111,-19.898189179243275
7.727102976,1.0002773988271492,-20.10216204800625
7.7345792,1.0004324191837413,-20.308375829281918
7.742055936,1.0005639506762376,-20.516522933489025
7.749532672,1.000664677806464,-20.726304837436764
7.757009408,1.0007290987356576,-20.937234887545948
7.764486144,1.000753387924355,-21.148786204110113
7.771962368,1.0007364932772915,-21.360430748616064
7.779439104,1.0006789975265278,-21.57159212747422
7.78691584,1.0005841978411256,-21.781763684043405
7.794392576,1.0004574274083724,-21.990424084101857
7.801869312,1.0003052363301292,-22.197236608049927
7.809346048,1.0001363677221926,-22.4019062931519
7.816822272,0.9999601295583259,-22.60424473322859
7.824299008,0.9997860651095392,-22.804278582645576
7.831775744,0.9996239644110649,-23.00200609553209
7.83925248,0.9994828862103222,-23.19771832659025
7.846729216,0.9993705322160301,-23.391716329040364
7.85420544,0.9992931415375098,-23.584460728420076
7.861682176,0.9992552503702015,-23.776391843370096
7.869158912,0.9992587476434258,-23.968172090560778
7.876635648,0.9993036522919893,-24.160261764390484
7.884112384,0.9993876580875087,-24.3532517208716
7.891588608,0.9995057623192017,-24.5476658190862
7.899065344,0.9996516973982262,-24.74387442109287
7.90654208,0.9998174178954093,-24.94220808653555
7.914018816,0.9999937381244167,-25.14290998005059
7.921495552,1.0001707984812482,-25.345997370233587
7.928971776,1.000338913704185,-25.551483588063114
7.936448512,1.0004888007437593,-25.759146223374984
7.943925248,1.0006120033607302,-25.968702934532523
7.951401984,1.0007018119632463,-26.1797347710939
7.95887872,1.0007531342603109,-26.39172862964726
7.966354944,1.0007631029043296,-26.604171538912237
7.97383168,1.0007313359887149,-26.816494572533895
7.981308416,1.0006593291766366,-27.02814650423638
7.988785152,1.000550936253164,-27.23862936796492
7.996261888,1.0004122519230185,-27.447436327763164
8.003738112,1.0002508831556143,-27.65426376875055
8.011214848,1.0000757770291229,-27.85880851272926
8.018691584,0.9998964797937089,-28.0610060072645
8.02616832,0.9997229974610631,-28.26081953417243
8.033645056,0.9995649658889096,-28.458402113910115
8.04112128,0.9994311322158757,-28.65402962573544
8.048598016,0.9993289235558158,-28.848081582901457
8.056074752,0.9992640630394425,-29.04100686130048
8.063551488,0.9992401960815421,-29.233334059657345
8.071028224,0.9992587600049799,-29.42565089394733
8.078504448,0.9993186270043961,-29.61853383474296
8.085981184,0.999416618169894,-29.812505874768753
8.09345792,0.9995473800377112,-30.008061751906645
8.100934656,0.9997034721606298,-30.205550288941552
8.108411392,0.999876596972997,-30.405361562033413
8.115887616,1.0000570018892747,-30.60753993028925
8.123364352,1.0002347183855398,-30.812215177247367
8.130841088,1.0004000157300963,-31.01919979825035
8.138317824,1.0005434210663384,-31.228356272802127
8.14579456,1.0006573084691088,-31.439253766098034
8.153270784,1.0007352671306373,-31.651493984275607
8.16074752,1.0007730828648431,-31.864534493627282
8.168224256,1.0007682686678543,-32.0778342157638
8.175700992,1.000721288901967,-32.29084734103426
8.183177728,1.0006346787459892,-32.50293457821626
8.190653952,1.0005130381563243,-32.71367214553094
8.198130688,1.000363290393741,-32.92261478111086
8.205607424,1.000193504172094,-33.12939008696836
8.21308416,1.0000130561580194,-33.333814895345014
8.220560896,0.9998319182577663,-33.53584576780192
8.228037632,0.9996601557558034,-33.73547641169323
8.235513856,0.9995072281017517,-33.932946513938816
8.242990592,0.9993818522492964,-34.128523878816495
8.250467328,0.9992906847795041,-34.322660677745105
8.257944064,0.9992391028207183,-34.515863208254075
8.2654208,0.9992299108088774,-34.70868684271906
8.272897024,0.9992635761407402,-34.901667007788454
8.28037376,0.9993384356676127,-35.09539208942815
8.287850496,0.9994503498911276,-35.29044047157041
8.295327232,0.9995929327909027,-35.48723073161897
8.302803968,0.9997586744998286,-35.68612305111519
8.310280192,0.9999382347660232,-35.88737743040012
8.317756928,1.0001216447902332,-36.0911424165375
8.325233664,1.0002988359888447,-36.29737311612305
8.3327104,1.0004600299136654,-36.50595275138559
8.340187136,1.0005961498571994,-36.716537760080634
8.34766336,1.0006998101451756,-36.92878049137331
8.355140096,1.000765147450865,-37.14221895196503
8.362616832,1.0007884540582217,-37.35631438841887
8.370093568,1.0007685937310884,-37.570403417266434
8.377570304,1.0007062974920862,-37.78401365417275
8.385046528,1.0006053431260362,-37.99653861045674
8.392523264,1.0004709304713528,-38.207505303983744
8.4,1.000310682052873,-38.41649874468938
8.407476736,1.000133211534943,-38.623252104356574
8.414953472,0.9999483832881698,-38.82755728478472
8.422429696,0.9997665187559287,-39.0293852496758
8.429906432,0.9995976989189684,-39.22888156776369
8.437383168,0.9994511593956494,-39.42625653128335
8.444859904,0.9993350077257219,-39.62186713325571
8.45233664,0.9992560449734625,-39.81617111740015
8.459812864,0.999218343292753,-40.0097089115234
8.4672896,0.9992241940559552,-40.20305244600952
8.474766336,0.9992734146860033,-40.39676468793055
8.482243072,0.9993631200731206,-40.59144448623978
8.489719808,0.9994885574293401,-40.787647705634285
8.497196032,0.9996426506908958,-40.98573463564876
8.504672768,0.9998171434719246,-41.18611185485518
8.512149504,1.0000020528514564,-41.388938678273334
8.51962624,1.000187472986025,-41.594312333470256
8.527102976,1.0003629950417565,-41.80215036279414
8.5345792,1.0005189432753032,-42.01225345150006
8.542055936,1.0006466515320196,-42.22433000218638
8.549532672,1.0007390248480568,-42.437936376248466
8.557009408,1.0007908697614962,-42.65252930511319
8.564486144,1.0007994603794002,-42.8675760665257
8.571962368,1.0007639515596645,-43.08247559156378
8.579439104,1.0006865336373771,-43.29664262193961
8.58691584,1.000571281947631,-43.50954345342354
8.594392064,1.0004246437813689,-43.7206822122338
8.601869312,1.000254525333337,-43.929730019987566
8.609345536,1.0000703385465808,-44.13640039198641
8.616822784,0.9998824044234852,-44.34056334237439
8.624299008,0.9997009492435066,-44.542256378672356
8.631775232,0.9995359513843683,-44.741629364177975
8.63925248,0.9993970071648187,-44.938959580865294
8.646728704,0.9992913872854082,-45.13463573136601
8.654205952,0.999225249836328,-45.32916481095653
8.661682176,0.9992021098333613,-45.523142605494265
8.6691584,0.9992235895400688,-45.71710093996163
8.676635648,0.9992881406915985,-45.91168210221593
8.684111872,0.9993926424856683,-46.10740554100344
8.69158912,0.999531206889675,-46.304827921715955
8.699065344,0.9996961313602957,-46.504295460006375
8.706541568,0.9998784371740821,-46.70620831096423
8.714018816,1.0000679157381414,-46.91063534517509
8.72149504,1.0002541646678296,-47.11764213428528
8.728972288,1.0004268736579354,-47.327102329297325
8.736448512,1.0005763490654422,-47.538802809318064
8.743924736,1.0006946129964909,-47.75233146066086
8.751401984,1.0007746635001373,-47.96726599668251
8.758878208,1.0008124478597595,-48.18299495466337
8.766355456,1.0008056468634696,-48.39898898967882
8.77383168,1.0007544288736268,-48.61461713430057
8.781307904,1.0006617028660671,-48.82931680821775
8.788785152,1.0005327071006433,-49.04254636143394
8.796261376,1.0003742201510204,-49.2538511185581
8.803738624,1.0001951365143282,-49.46291979102869
8.811214848,1.0000052683171685,-49.66950827778128
8.818692096,0.9998150715660682,-49.87352279135811
8.82616832,0.999635296137944,-50.0750894944682
8.833644544,0.9994755539826735,-50.27435877377355
8.841121792,0.9993450437362245,-50.471682330964875
8.848598016,0.9992509599570206,-50.66749212684873
8.856075264,0.9991983677794978,-50.86236162061552
8.863551488,0.9991904303482124,-51.056787946230095
8.871027712,0.9992277454819962,-51.25145778568108
8.87850496,0.9993081139249573,-51.446974257141605
8.885981184,0.9994269693051583,-51.64383213593259
8.893458432,0.9995782613007067,-51.842552545227065
8.900934656,0.9997532514188038,-52.04353477997497
8.90841088,0.9999424531059568,-52.24703021153286
8.915888128,1.0001352819564406,-52.45312133867616
8.923364352,1.0003211940640189,-52.661814052443944
8.9308416,1.0004898947758118,-52.87294107643892
8.938317824,1.0006319718473495,-53.08620036699251
8.945794048,1.000739566233567,-53.30120208136914
8.953271296,1.0008066192498897,-53.51741091219964
8.96074752,1.0008294551991497,-53.73428496724625
8.968224768,1.0008068430265917,-53.95115753045965
8.975700992,1.0007397850639872,-54.1674922739534
8.983177216,1.0006319882377492,-54.38265877100667
8.990654464,1.0004893598373132,-54.596173733894126
8.998130688,1.0003198773113566,-54.80762438041608
