freq,mag,phase
6.0,0.9999893765864757,72.0738108705441
6.008,0.9999898880989567,71.90819468811289
6.016,0.9999903854583418,71.74250035005751
6.024,0.9999908688966063,71.57672782390999
6.032,0.9999913386435396,71.41087707769111
6.04,0.9999917949267553,71.2449480799125
6.048,0.9999922379716956,71.07894079957852
6.056,0.9999926680016437,70.91285520618823
6.064,0.9999930852377289,70.74669126973737
6.072,0.9999934898989378,70.5804489607203
6.08,0.9999938822021197,70.41412825013192
6.088,0.9999942623619973,70.24772910946965
6.096,0.9999946305911747,70.08125151073536
6.104,0.9999949871001443,69.91469542643725
6.112,0.9999953320972981,69.74806082959192
6.12,0.9999956657889335,69.58134769372612
6.128,0.9999959883792635,69.41455599287879
6.136,0.9999963000704245,69.24768570160299
6.144,0.9999966010624859,69.0807367949677
6.152,0.9999968915534575,68.91370924855991
6.16,0.9999971717392989,68.7466030384863
6.168,0.9999974418139285,68.57941814137537
6.176,0.9999977019692309,68.41215453437917
6.184,0.999997952395068,68.2448121951753
6.192,0.9999981932792846,68.0773911019687
6.2,0.9999984248077207,67.90989123349367
6.208,0.9999986471642178,67.74231256901561
6.216,0.9999988605306281,67.57465508833296
6.224,0.9999990650868253,67.40691877177912
6.232,0.9999992610107108,67.2391036002242
6.24,0.9999994484782248,67.07120955507699
6.248,0.9999996276633542,66.90323661828674
6.256,0.9999997987381415,66.73518477234506
6.264,0.9999999618726947,66.56705400028774
6.272,0.9999999999999999,66.39884428569661
6.28,1.0,66.23055561270134
6.288,1.0,66.0621879659813
6.296,0.9999999999999999,65.89374133076738
6.304,1.0,65.72521569284388
6.312,0.9999999999999999,65.55661103855012
6.32,1.0,65.3879273547825
6.328,1.0,65.21916462899611
6.336,0.9999999999999999,65.05032284920668
6.344,1.0,64.8814020039922
6.352,1.0,64.71240208249493
6.36,0.9999999999999999,64.5433230744229
6.368,0.9999999999999999,64.37416497005196
6.376,1.0,64.20492776022739
6.384,1.0,64.03561143636568
6.392,1.0,63.86621599045635
6.4,1.0,63.696741415063606
6.408,0.9999999999999999,63.52718770332818
6.416,1.0,63.357554848969
6.424,1.0,63.18784284628496
6.432,1.0,63.01805169015662
6.44,1.0,62.84818137604794
6.448,0.9999999999999999,62.678231900007994
6.456,0.9999999999999998,62.50820325867268
6.464,0.9999999999999999,62.338095449266376
6.472,1.0,62.16790846960371
6.48,0.9999999999999999,61.99764231809118
6.4879999999999995,1.0,61.827296993728886
6.496,1.0,61.656872496112086
6.504,1.0,61.48636882543308
6.5120000000000005,1.0,61.31578598248258
6.52,1.0,61.145123968651696
6.5280000000000005,0.9999999999999999,60.9743827859332
6.536,0.9999999999999999,60.803562436923556
6.5440000000000005,0.9999999999999999,60.63266292482418
6.552,1.0,60.4616842534434
6.5600000000000005,0.9999999999999999,60.290626427197765
6.568,0.9999999999999999,60.1194894511139
6.5760000000000005,1.0,59.94827333082991
6.584,1.0,59.776978072597146
6.592,0.9999999999999999,59.605603683281615
6.6,1.0,59.434150170365704
6.608,1.0,59.26261754194968
6.616,1.0,59.09100580675326
6.624,1.0,58.919314974117114
6.632,1.0,58.74754505400452
6.64,0.9999999999999999,58.57569605700278
6.648,1.0,58.40376799432485
6.656,0.9999999999999999,58.23176087781077
6.664,1.0,58.059674719929234
6.672,0.9999999999999998,57.88750953377908
6.68,1.0,57.715265333090805
6.688,1.0,57.542942132227935
6.696,1.0,57.37053994618867
6.704,1.0,57.19805879060728
6.712,0.9999999999999999,57.02549868175548
6.72,1.0,56.85285963654403
6.728,1.0,56.68014167252407
6.736,0.9999999999999999,56.507344807888614
6.744,1.0,56.33446906147391
6.752,1.0,56.161514452760876
6.76,1.0,55.98848100187659
6.768,0.9999999999999999,55.81536872959554
6.776,0.9999999999999999,55.642177657341136
6.784,1.0,55.46890780718699
6.792,1.0,55.29555920185836
6.8,1.0,55.122131864733454
6.808,0.9999999890351691,54.94862581984482
6.816,0.9999999141333127,54.77504109188069
6.824,0.9999998389523326,54.601377706186206
6.832,0.99999976354931,54.42763568876487
6.84,0.9999996879800902,54.25381506627981
6.848,0.9999996122992936,54.07991586605504
6.856,0.9999995365603253,53.90593811607678
6.864,0.9999994608153844,53.731881844994746
6.872,0.9999993851154761,53.557747082123385
6.88,0.9999993095104197,53.38353385744317
6.888,0.9999992340488604,53.209242201601825
6.896,0.9999991587782788,53.03487214591556
6.904,0.9999990837450006,52.860423722370314
6.912,0.9999990089942074,52.68589696362298
6.92,0.9999989345699464,52.511291903002544
6.928,0.9999988605151411,52.33660857451138
6.936,0.9999987868716008,52.161847012826364
6.944,0.9999987136800311,51.98700725330009
6.952,0.9999986409800439,51.812089331961964
6.96,0.9999985688101676,51.637093285519455
6.968,0.9999984972078572,51.46201915135912
6.976,0.9999984262095046,51.28686696754786
6.984,0.999998355850448,51.111636772833954
6.992,0.9999982861649838,50.93632860664817
7.0,0.999998217186374,50.76094250910488
7.008,0.9999981489468589,50.58547852100316
7.016,0.9999980814776658,50.40993668382783
7.024,0.9999980148090192,50.23431703975053
7.032,0.9999979489701515,50.058619631630755
7.04,0.9999978839893126,49.882844503016955
7.048,0.9999978198937801,49.70699169814745
7.056,0.9999977567098693,49.53106126195156
7.064,0.9999976944629435,49.355053240050474
7.072,0.9999976331774241,49.178967678758426
7.08,0.9999975728768002,49.00280462508353
7.088,0.9999975135836391,48.82656412672873
7.096,0.9999974553195958,48.65024623209286
7.104,0.9999973981054241,48.47385099027155
7.112,0.9999973419609853,48.297378451058094
7.12,0.9999972869052596,48.120828664944455
7.128,0.9999972329563545,47.944201683122074
7.136,0.9999971801315161,47.76749755748286
7.144,0.999997128447139,47.590716340620006
7.152,0.9999970779187748,47.413858085828906
7.16,0.9999970285611441,47.236922847107955
7.168,0.9999969803881457,47.05991067915939
7.176,0.9999969334128653,46.88282163739017
7.184,0.999996887647587,46.7056557779128
7.192,0.9999968431038031,46.528413157546005
7.2,0.9999967997922227,46.35109383381572
7.208,0.999996757722783,46.17369786495566
7.216,0.9999967169046583,45.99622530990825
7.224,0.9999966773462706,45.8186762283253
7.232,0.9999966390552986,45.64105068056873
7.24,0.9999966020386873,45.46334872771131
7.248,0.9999965663026593,45.28557043153738
7.256,0.9999965318527235,45.107715854543564
7.264,0.9999964986936849,44.92978505993938
7.272,0.9999964668296542,44.751778111647994
7.28,0.9999964362640581,44.57369507430681
7.288,0.9999964069996483,44.395536013268185
7.296,0.9999963790385124,44.217300994599945
7.304,0.9999963523820817,44.03899008508615
7.312,0.999996327031143,43.860603352227514
7.32,0.999996302985846,43.68214086424218
7.328,0.9999962802457153,43.503602690066096
7.336,0.9999962588096575,43.3249888993538
7.344,0.9999962386759726,43.14629956247872
7.352,0.9999962198423634,42.9675347505339
7.36,0.9999962023059437,42.78869453533239
7.368,0.9999961860632491,42.60977898940782
7.376,0.9999961711102456,42.43078818601485
7.384,0.9999961574423403,42.25172219912965
7.392,0.9999961450543896,42.07258110345035
7.4,0.9999961339407086,41.893364974397485
7.4079999999999995,0.9999961240950812,41.71407388811445
7.416,0.9999961155107694,41.53470792146786
7.4239999999999995,0.9999961081805221,41.35526715204802
7.432,0.9999961020965844,41.17575165816916
7.4399999999999995,0.9999960972507076,40.99616151887009
7.448,0.9999960936341572,40.81649681391416
7.4559999999999995,0.9999960912377245,40.636757623790004
7.464,0.9999960900517321,40.45694402971146
7.4719999999999995,0.9999960900660467,40.2770561136183
7.48,0.9999960912700855,40.09709395817614
7.4879999999999995,0.9999960936528273,39.917057646777
7.496,0.9999960972028202,39.73694726353933
7.504,0.9999961019081915,39.55676289330851
7.5120000000000005,0.9999961077566563,39.37650462165683
7.52,0.9999961147355259,39.19617253488392
7.5280000000000005,0.9999961228317186,39.01576672001672
7.536,0.9999961320317662,38.83528726480999
7.5440000000000005,0.9999961423218248,38.65473425774608
7.552,0.9999961536876825,38.47410778803542
7.5600000000000005,0.9999961661147689,38.29340794561648
7.568,0.9999961795881633,38.11263482115595
7.5760000000000005,0.9999961940926042,37.93178850604878
7.584,0.999996209612497,37.75086909241842
7.5920000000000005,0.9999962261319233,37.56987667311664
7.6,0.9999962436346505,37.38881134172395
7.6080000000000005,0.9999962621041375,37.207673192549166
7.616,0.9999962815235469,37.02646232062998
7.6240000000000006,0.9999963018757502,36.84517882173245
7.632,0.9999963231433396,36.66382279235144
7.640000000000001,0.9999963453086326,36.48239432971018
7.648,0.9999963683536844,36.30089353176061
7.656000000000001,0.9999963922602936,36.11932049718299
7.664,0.999996417010011,35.93767532538616
7.672,0.9999964425841482,35.755958116507124
7.68,0.999996468963787,35.574168971411176
7.688,0.9999964961297851,35.39230799169166
7.696,0.9999965240627865,35.21037527966987
7.704,0.9999965527432283,35.028370938394914
7.712,0.9999965821513496,34.84629507164351
7.72,0.9999966122671989,34.66414778391979
7.728,0.999996643070643,34.48192918045512
7.736,0.9999966745413738,34.29963936720788
7.744,0.9999967066589169,34.1172784508632
7.752,0.9999967394026397,33.9348465388327
7.76,0.999996772751759,33.752343739254265
7.768,0.9999968066853483,33.569770160991695
7.776,0.9999968411823459,33.38712591363443
7.784,0.999996876221563,33.204411107497215
7.792,0.9999969117816909,33.02162585361975
7.8,0.9999969478413089,32.83877026376641
7.808,0.9999969843788908,32.65584445042571
7.816,0.9999970213728145,32.47284852681005
7.824,0.9999970588013671,32.289782606855276
7.832,0.9999970966427546,32.10664680522018
7.84,0.999997134875107,31.92344123728617
7.848,0.9999971734764871,31.740166019156703
7.856,0.9999972124248977,31.556821267656872
7.864,0.9999972516982881,31.373407100332855
7.872,0.9999972912745622,31.189923635451493
7.88,0.9999973311315843,31.00637099199964
7.888,0.999997371247188,30.822749289683674
7.896,0.9999974115991812,30.639058648928945
7.904,0.9999974521653545,30.455299190879163
7.912,0.9999974929234876,30.271471037395806
7.92,0.9999975338513565,30.087574311057494
7.928,0.9999975749267396,29.903609135159343
7.936,0.9999976161274251,29.71957563371232
7.944,0.9999976574312174,29.53547393144259
7.952,0.9999976988159437,29.35130415379078
7.96,0.9999977402594614,29.167066426911326
7.968,0.9999977817396629,28.982760877671673
7.976,0.999997823234484,28.798387633651615
7.984,0.9999978647219093,28.61394682314246
7.992,0.9999979061799782,28.429438575146303
8.0,0.9999979475867926,28.244863019375202
8.008,0.9999979889205218,28.060220286250374
8.016,0.9999980301594096,27.875510506901282
8.024000000000001,0.9999980712817795,27.690733813164957
8.032,0.9999981122660421,27.50589033758502
8.04,0.9999981530907,27.320980213410735
8.048,0.9999981937343538,27.13600357459616
8.056000000000001,0.9999982341757091,26.95096055579931
8.064,0.9999982743935817,26.76585129238113
8.072,0.9999983143669027,26.58067592040449
8.08,0.9999983540747249,26.395434576633246
8.088000000000001,0.9999983934962297,26.210127398531327
8.096,0.99999843261073,26.02475452426167
8.104,0.9999984713976777,25.83931609268509
8.112,0.9999985098366696,25.653812243359305
8.120000000000001,0.9999985479074506,25.468243116537955
8.128,0.9999985855899214,25.28260885316945
8.136,0.9999986228641431,25.09690959489573
8.144,0.999998659710341,24.911145484051307
8.152000000000001,0.9999986961089122,24.725316663662134
8.16,0.9999987320404294,24.539423277444406
8.168,0.9999987674856456,24.353465469803282
8.176,0.9999988024254999,24.16744338583178
8.184000000000001,0.9999988368411226,23.981357171309625
8.192,0.9999988707138389,23.795206972701987
8.2,0.9999989040251744,23.608992937158078
8.208,0.9999989367568611,23.422715212510028
8.216000000000001,0.9999989688908395,23.236373947271655
8.224,0.9999990004092656,23.049969290637055
8.232,0.9999990312945135,22.863501392479257
8.24,0.999999061529182,22.676970403348893
8.248000000000001,0.9999990910960972,22.490376474472995
8.256,0.999999119978317,22.303719757753473
8.264,0.9999991481591373,22.117000405765662
8.272,0.9999991756220938,21.930218571757013
8.280000000000001,0.9999992023509675,21.743374409645703
8.288,0.9999992283297887,21.556468074019122
8.296,0.9999992535428404,21.36949972013234
8.304,0.9999992779746628,21.182469503906677
8.312,0.999999301610058,20.995377581928327
8.32,0.9999993244340912,20.80822411144656
8.328,0.9999993464320979,20.621009250372506
8.336,0.9999993675896848,20.43373315727724
8.344,0.9999993878927347,20.246395991390607
8.352,0.9999994073274102,20.058997912599196
8.36,0.999999425880156,19.87153908144515
8.368,0.9999994435377041,19.68401965912416
8.376,0.9999994602870756,19.496439807484126
8.384,0.9999994761155849,19.308799689023218
8.392,0.9999994910108424,19.121099466888477
8.4,0.9999995049607576,18.933339304873787
8.408,0.9999995179535424,18.74551936741851
8.416,0.9999995299777148,18.557639819605388
8.424,0.9999995410221002,18.36970082715912
8.432,0.9999995510758356,18.18170255644428
8.44,0.9999995601283723,17.99364517446382
8.448,0.9999995681694775,17.805528848856973
8.456,0.9999995751892381,17.61735374789771
8.464,0.9999995811780636,17.429120040492574
8.472,0.9999995861266867,17.240827896179205
8.48,0.9999995900261678,17.052477485124022
8.488,0.9999995928678962,16.864068978120745
8.496,0.999999594643593,16.675602546588095
8.504,0.9999995953453132,16.48707836256822
8.512,0.9999995949654468,16.298496598724405
8.52,0.9999995934967228,16.109857428339403
8.528,0.9999995909322099,15.921161025313166
8.536,0.9999995872653186,15.732407564161136
8.544,0.9999995824898034,15.543597220011899
8.552,0.9999995765997641,15.354730168605474
8.56,0.9999995695896484,15.165806586290932
8.568,0.9999995614542527,14.976826650024648
8.576,0.9999995521887238,14.787790537367876
8.584,0.9999995417885609,14.598698426484972
8.592,0.9999995302496166,14.40955049614092
8.6,0.9999995175680982,14.220346925699555
8.608,0.9999995037405699,14.03108789512103
8.616,0.9999994887639526,13.841773584959986
8.624,0.9999994726355262,13.652404176363028
8.632,0.9999994553529304,13.462979851066846
8.64,0.9999994369141647,13.273500791395627
8.648,0.9999994173175911,13.083967180259185
8.656,0.9999993965619339,12.894379201150306
8.664,0.9999993746462807,12.704737038142854
8.672,0.9999993515700826,12.515040875889103
8.68,0.9999993273331559,12.325290899617775
8.688,0.999999301935682,12.135487295131366
8.696,0.9999992753782081,11.945630248804122
8.704,0.9999992476616473,11.755719947579374
8.712,0.9999992187872792,11.565756578967438
8.72,0.999999188756751,11.37574033104293
8.728,0.9999991575720755,11.185671392442657
8.736,0.9999991252356342,10.99554995236286
8.744,0.999999091750175,10.805376200557095
8.752,0.9999990571188135,10.615150327333438
8.76,0.9999990213450324,10.424872523552349
8.768,0.9999989844326811,10.234542980623814
8.776,0.9999989463859764,10.044161890505189
8.784,0.9999989072095015,9.853729445698331
8.792,0.9999988669082057,9.663245839247375
8.8,0.9999988254874045,9.47271126473585
8.808,0.9999987829527786,9.282125916284434
8.815999999999999,0.9999987393103733,9.091489988548064
8.824,0.9999986945665982,8.90080367671345
8.832,0.9999986487282265,8.710067176496542
8.84,0.9999986018023937,8.519280684139797
8.847999999999999,0.9999985537965979,8.328444396409436
8.856,0.9999985047186974,8.137558510592863
8.864,0.9999984545769107,7.9466232244960615
8.872,0.9999984033798156,7.7556387364407895
8.879999999999999,0.9999983511363469,7.564605245261813
8.888,0.9999982978557969,7.373522950304212
8.896,0.9999982435478131,7.182392051420742
8.904,0.9999981882223961,6.9912127489689855
8.911999999999999,0.9999981318899008,6.799985243808469
8.92,0.9999980745610316,6.608709737297973
8.928,0.9999980162468447,6.417386431292788
8.936,0.9999979569587415,6.226015528141831
8.943999999999999,0.9999978967084729,6.034597230684683
8.952,0.9999978355081323,5.843131742248861
8.96,0.999997773370157,5.651619266646996
8.968,0.999997710307325,5.460060008173889
8.975999999999999,0.9999976463327537,5.268454171603522
8.984,0.9999975814598978,5.076801962186221
8.992,0.9999975157025465,4.88510358564582
9.0,0.9999974490748222,4.693359248176642
9.008,0.9999973815911787,4.50156915644044
9.016,0.999997313266397,4.309733517563531
9.024000000000001,0.9999972441155858,4.117852539133879
9.032,0.9999971741541764,3.925926429198027
9.04,0.9999971033979221,3.7339553962579926
9.048,0.9999970318628951,3.541939649268323
9.056000000000001,0.999996959565484,3.3498793976331487
9.064,0.9999968865223904,3.1577748512030395
9.072,0.9999968127506272,2.965626220271856
9.08,0.9999967382675164,2.7734337155737503
9.088000000000001,0.9999966630906844,2.581197548280155
9.096,0.9999965872380595,2.3889179299966075
9.104,0.9999965107278718,2.196595072759514
9.112,0.9999964335786452,2.0042291890331314
9.120000000000001,0.9999963558091994,1.8118204917064873
9.128,0.9999962774386434,1.6193691940901385
9.136,0.9999961984863736,1.426875509912925
9.144,0.9999961189720706,1.2343396533188473
9.152000000000001,0.9999960389156951,1.041761838863971
9.16,0.9999959583374852,0.8491422815131255
9.168,0.9999958772579538,0.6564811966366008
9.176,0.9999957956978832,0.4637788000069832
9.184000000000001,0.9999957136783231,0.2710353077960077
9.192,0.9999956312205859,0.07825093657119678
9.2,0.9999955483462448,-0.11457409670747376
9.208,0.9999954650771279,-0.30743957469080335
9.216000000000001,0.9999953814353157,-0.5003452796435579
9.224,0.9999952974431379,-0.6932909934478617
9.232,0.9999952131231676,-0.8862764976066217
9.24,0.9999951284982198,-1.079301573246752
9.248000000000001,0.9999950435913446,-1.272366001122461
9.256,0.9999949584258262,-1.465469561618646
9.264,0.9999948730251772,-1.6586120347543865
9.272,0.9999947874131333,-1.8517932001862227
9.280000000000001,0.9999947016136521,-2.045012837211464
9.288,0.9999946156509063,-2.238270724771647
9.296,0.9999945295492814,-2.431566641456073
9.304,0.9999944433333686,-2.624900365505107
9.312000000000001,0.9999943570279644,-2.818271674813568
9.32,0.999994270658062,-3.011680346934196
9.328,0.9999941842488501,-3.2051261590812596
9.336,0.9999940978257067,-3.398608888133882
9.344,0.9999940114141949,-3.5921283106394144
9.352,0.9999939250400578,-3.7856842028172015
9.36,0.9999938387292158,-3.979276340561759
9.368,0.999993752507759,-4.172904499446609
9.376,0.9999936664019446,-4.3665684547274335
9.384,0.9999935804381915,-4.560267981345979
9.392,0.9999934946430752,-4.754002853933214
9.4,0.9999934090433235,-4.947772846813237
9.408,0.9999933236658107,-5.141577734006478
9.416,0.999993238537554,-5.335417289233607
9.424,0.9999931536857067,-5.529291285918777
9.432,0.9999930691375551,-5.723199497193506
9.44,0.9999929849205116,-5.91714169589999
9.448,0.9999929010621116,-6.111117654594989
9.456,0.9999928175900062,-6.305127145553109
9.464,0.999992734531959,-6.499169940770769
9.472,0.9999926519158391,-6.693245811969504
9.48,0.9999925697696171,-6.887354530599902
9.488,0.9999924881213593,-7.081495867844915
9.496,0.9999924069992224,-7.275669594623886
9.504,0.9999923264314488,-7.469875481595793
9.512,0.9999922464463595,-7.664113299163369
9.52,0.999992167072351,-7.8583828174763415
9.528,0.9999920883378879,-8.052683806435477
9.536,0.9999920102714982,-8.247016035695964
9.544,0.9999919329017677,-8.44137927467144
9.552,0.9999918562573352,-8.635773292537314
9.56,0.9999917803668853,-8.830197858234895
9.568,0.9999917052591444,-9.024652740474712
9.576,0.9999916309628737,-9.219137707740614
9.584,0.9999915575068645,-9.413652528293163
9.592,0.9999914849199332,-9.608196970173701
9.6,0.9999914132309131,-9.802770801207767
9.608,0.9999913424686513,-9.997373789009213
9.616,0.9999912726620013,-10.192005700983588
9.624,0.999991203839818,-10.38666630433229
9.632,0.9999911360309517,-10.58135536605597
9.64,0.9999910692642425,-10.776072652958655
9.648,0.9999910035685137,-10.970817931651226
9.656,0.9999909389725669,-11.16559096855553
9.664,0.9999908755051756,-11.360391529907826
9.672,0.9999908131950793,-11.555219381762981
9.68,0.999990752070978,-11.750074289997873
9.688,0.9999906921615255,-11.944956020315614
9.696,0.9999906334953242,-12.139864338248985
9.704,0.9999905761009196,-12.334799009164643
