freq,mag,phase
6.0,0.9991778063876929,10.116439245479162
6.002287104,0.9992668822834179,9.936437993572545
6.004574208,0.9994027290521201,9.754681705277482
6.006861312,0.9995762372384486,9.570505303421763
6.009147904,0.9997765824182787,9.383447774066338
6.011435008,0.9999911294338195,9.193278260817861
6.013722112,1.000206232500665,8.999804425797883
6.016009216,1.000408505480371,8.803166208318459
6.01829632,1.0005850567465473,8.603620072242931
6.020583424,1.0007249104114397,8.401637945829938
6.022870016,1.000819116659817,8.197813377832446
6.02515712,1.0008617381644513,7.992841541577121
6.027444224,1.0008501223609367,7.787475378753947
6.029731328,1.0007849398255413,7.582503133261513
6.032018432,1.000670315210606,7.378682388673587
6.034305536,1.0005133404486308,7.176681411786293
6.036592128,1.0003239932552488,6.977001521743929
6.038879232,1.0001141865243026,6.780073623112362
6.041166336,0.9998969464564135,6.58607731542061
6.04345344,0.9996860510604193,6.395053847083087
6.045740544,0.9994950046012647,6.206754015848479
6.048027648,0.999335528847174,6.0208466397421505
6.05031424,0.9992179849672552,5.8368382002423305
6.052601344,0.9991496903084026,5.653972986835266
6.054888448,0.9991349709694614,5.471577657747302
6.057175552,0.9991748537727309,5.2888457238090965
6.059462656,0.9992668813241747,5.1049994350383345
6.06174976,0.9994050912880342,4.919316972862895
6.064036352,0.999580928330807,4.73118969598097
6.066323456,0.9997832193647465,4.540165454691459
6.06861056,0.9999993119118464,4.34593420395396
6.070897664,1.000215476848115,4.148439339923879
6.073184768,1.000418210492404,3.9477301662100053
6.075471872,1.0005947277960403,3.7441092204988484
6.077758464,1.0007336886411158,3.5380513368800526
6.080045568,1.0008266215836956,3.330136455099233
6.082332672,1.0008675665432152,3.1210939695578257
6.084619776,1.0008539341213196,2.9116893447722965
6.08690688,1.0007864726974707,2.7027055170997025
6.089193984,1.0006695184864165,2.49489139253948
6.091481088,1.0005103616077318,2.2888942765065763
6.09376768,1.000318931978573,2.0852758537039815
6.096054784,1.0001072945899716,1.8844119404746569
6.098341888,0.9998887615426897,1.686502466482332
6.100628992,0.9996771534176685,1.4915267641646364
6.102916096,0.9994857082127493,1.2993277424487466
6.1052032,0.9993266078911252,1.109500411195884
6.107489792,0.999209893007875,0.9215185975477895
6.109776896,0.9991428915243129,0.7346968248425632
6.112064,0.9991298625395132,0.5482921818767204
6.114351104,0.9991718362559471,0.3615331419903421
6.116638208,0.9992659064228244,0.17360070238139397
6.118925312,0.9994063181452896,-0.016212916982920846
6.121211904,0.9995841995024414,-0.208487052746723
6.123499008,0.9997884252253664,-0.4037023466913162
6.125786112,1.0000060524406897,-0.6021589988097847
6.128073216,1.000223268356738,-0.8039227492257582
6.13036032,1.0004265385562001,-1.0089163118023339
6.132647424,1.0006031771409276,-1.2168139215978908
6.134934016,1.000741742550491,-1.4271808986828658
6.13722112,1.000833799692209,-1.6393797036761235
6.139508224,1.0008733248825394,-1.8526946578278012
6.141795328,1.0008580174717427,-2.0663757132697853
6.144082432,1.0007886826518935,-2.2796244054349066
6.146369536,1.000669634570377,-2.49167062828581
6.148656128,1.000508385298567,-2.7018843198622022
6.150943232,1.0003151496339064,-2.9096969708393536
6.153230336,1.0001018045828676,-3.1147343812977906
6.15551744,0.9998819138922599,-3.3168333440404414
6.157804544,0.9996694421060301,-3.515946386044982
6.160091648,0.9994776710046356,-3.7123121177870213
6.162378752,0.9993185289694018,-3.9063224894538213
6.164665344,0.9992024159795387,-4.098492412858632
6.166952448,0.9991362797678796,-4.2895180355296665
6.169239552,0.9991247532942361,-4.480156198918282
6.171526656,0.9991682593905952,-4.671185629646486
6.17381376,0.9992641126356305,-4.863422867240665
6.176100864,0.9994064712134425,-5.057530112086225
6.178387456,0.9995862496571386,-5.254176690125125
6.18067456,0.9997921561511233,-5.4537985160904805
6.182961664,1.0000111809166696,-5.656679510587566
6.185248768,1.000229645338169,-5.86289553285888
6.187535872,1.0004336361787627,-6.072358644947454
6.189822976,1.0006105742394904,-6.284757548085897
6.192109568,1.0007490025406043,-6.4996091375121035
6.194396672,1.0008404593198859,-6.716322702577388
6.196683776,1.0008791900273588,-6.9341369420977825
6.19897088,1.000862500798964,-7.152305918455847
6.201257984,1.0007915642778817,-7.370051873067783
6.203545088,1.000670885663455,-7.586568351035066
6.20583168,1.0005079253569857,-7.801238621252929
6.208118784,1.0003128605223166,-8.013483922042765
6.210405888,1.000098026918027,-8.22293820518647
6.212692992,0.9998769439000962,-8.429460267315385
6.214980096,0.9996632861100432,-8.632989753051678
6.2172672,0.999470772027675,-8.83376310224386
6.219553792,0.9993115613996888,-9.032138411892957
6.221840896,0.9991955859719459,-9.228732053491415
6.224128,0.9991299321705954,-9.424181690644273
6.226415104,0.9991193422128721,-9.619235159638666
6.228702208,0.9991642135342746,-9.81476054220509
6.230989312,0.9992614231816594,-10.011494790110037
6.233275904,0.999405380872531,-10.210143323600654
6.235563008,0.9995868242006373,-10.411329801581482
6.237850112,0.9997942084219894,-10.61554909773295
6.240137216,1.0000147590048094,-10.823041562864573
6.24242432,1.0002343519077666,-11.033907615356796
6.244711424,1.0004393961246436,-11.248034768067514
6.246998528,1.000616842252879,-11.465120339000347
6.24928512,1.0007555758071784,-11.684688086263701
6.251572224,1.000846848033045,-11.906088255958325
6.253859328,1.0008849074596666,-12.12864781210286
6.256146432,1.0008674607333459,-12.351519395458535
6.258433536,1.0007954042756144,-12.57395320135092
6.26072064,1.0006732535756344,-12.795161755306637
6.263007232,1.0005089114180286,-13.014503132051294
6.265294336,1.000312321411517,-13.231434475632673
6.26758144,1.0000960884320773,-13.445546544359845
6.269868544,0.9998734890084414,-13.65668789696553
6.272155648,0.9996587588193327,-13.864868660806769
6.274442752,0.9994653503587488,-14.070270925708815
6.276729344,0.9993056075136824,-14.2732891441334
6.279016448,0.999189257420571,-14.474496744134969
6.281303552,0.9991239830105542,-14.674587281003872
6.283590656,0.999113734870244,-14.874323977938527
6.28587776,0.9991592906474243,-15.074487097043063
6.288164864,0.9992577108201661,-15.275903997848792
6.290451456,0.9994029091212783,-15.479272662865235
6.29273856,0.9995857500939318,-15.685230064545811
6.295025664,0.9997946835843893,-15.894186707688903
6.297312768,1.0000165431934813,-16.10647699408151
6.299599872,1.000237473633718,-16.32214624704799
6.301886976,1.0004434984410717,-16.54112795685622
6.304173568,1.000621853063023,-16.763067569174773
6.306460672,1.0007611475100815,-16.98753481508024
6.308747776,1.0008526742380233,-17.213843237290313
6.31103488,1.000890645820617,-17.44128980042916
6.313321984,1.000872785407703,-17.669079394650435
6.315609088,1.0008000342564711,-17.896396832387946
6.317896192,1.000676994507481,-18.12252525391318
6.320182784,1.0005112790990172,-18.34676646402705
6.322469888,1.0003134619940544,-18.56857704720756
6.324756992,1.000095703638348,-18.787567754178408
6.327044096,0.9998717665201438,-19.0035895377252
6.3293312,0.9996558315094742,-19.21659668177016
6.331618304,0.9994614028209832,-19.426832786657922
6.333904896,0.9993006467648727,-19.63470062315675
6.336192,0.9991837694262279,-19.840757843166898
6.338479104,0.9991182075299028,-20.045684348746907
6.340766208,0.9991078919502862,-20.250234037277146
6.343053312,0.9991538655047403,-20.455271011669527
6.345340416,0.9992529469132075,-20.661544306920703
6.347627008,0.9993991192090013,-20.86979073911748
6.349914112,0.999582984699071,-21.080647185588116
6.352201216,0.9997932033386698,-21.294549998170908
6.35448832,1.0000165606164682,-21.511774963033417
6.356775424,1.0002389569986274,-21.73244188224177
6.359062528,1.0004462484341576,-21.95643304743236
6.36134912,1.0006256904466375,-22.183391560344006
6.363636224,1.0007660066618163,-22.41290306192575
6.365923328,1.000858225785729,-22.644275848076422
6.368210432,1.0008965006644743,-22.876786322490748
6.370497536,1.0008786941828711,-23.109686276030853
6.37278464,1.0008057094047058,-23.34209355430527
6.375071232,1.0006819223706416,-23.57332405245223
6.377358336,1.0005153864454526,-23.80265076532799
6.37964544,1.0003163862204814,-24.029550782686105
6.381932544,1.000097290300959,-24.253641147491525
6.384219648,0.9998720077670702,-24.474692330615362
6.386506752,0.99965457563883,-24.692770977088422
6.388793344,0.9994586991130933,-24.908057611678693
6.391080448,0.9992966836356468,-25.120937631546354
6.393367552,0.9991787779806054,-25.33201152595175
6.395654656,0.9991123566285414,-25.54194347720582
6.39794176,0.9991017383768872,-25.751519190751957
6.400228864,0.9991474547017909,-25.96155819761365
6.402515968,0.9992468036016496,-26.172841278519556
6.40480256,0.9993934387845135,-26.386128799724542
6.407089664,0.9995783780296513,-26.60201311494079
6.409376768,0.9997897301065695,-26.82097967597294
6.411663872,1.0000144216830047,-27.043315013973157
6.413950976,1.0002382333711148,-27.269082655078027
6.41623808,1.0004470499023668,-27.498197221310544
6.418524672,1.0006281112717061,-27.73034711756419
6.420811776,1.0007696330049773,-27.965019917625405
6.42309888,1.0008630888811705,-28.20160910839827
6.425385984,1.0009022492832085,-28.439384437305407
6.427673088,1.0008849629508658,-28.677495710518865
6.429960192,1.0008121168900959,-28.915182045195365
6.432246784,1.0006882302279334,-29.15168526966365
6.434533888,1.0005211213330643,-29.386273580555272
6.436820992,1.00032126345896,-29.618433502772767
6.439108096,1.000100933096126,-29.84777355905582
6.4413952,0.9998742935390941,-30.0740804553279
6.443682304,0.9996551429431517,-30.297381209908593
6.445968896,0.9994576570594219,-30.517880329711772
6.448256,0.9992940835148721,-30.735959126153997
6.450543104,0.999174672436834,-30.952192616205377
6.452830208,0.9991069273160501,-31.167288174715335
6.455117312,0.9990953201683891,-31.382011786295266
6.457404416,0.9991404431163299,-31.59720157533828
6.459691008,0.9992396097479623,-31.813630450918936
6.461978112,0.9993864825244934,-32.03205430483588
6.464265216,0.9995719258621,-32.25307581268118
6.46655232,0.9997843063526884,-32.47723622265795
6.468839424,1.0000102661788903,-32.70475396484189
6.471126528,1.0002356723192471,-32.93574033747202
6.473413632,1.0004462868918558,-33.17011334521969
6.475700224,1.000629108278239,-33.40751659080717
6.477987328,1.0007725294949283,-33.64748882466246
6.480274432,1.0008674495543044,-33.88943861894696
6.482561536,1.0009081484756273,-34.13254345354257
6.48484864,1.0008919628657753,-34.376052116696506
6.487135744,1.0008197647263477,-34.619138041838966
6.489422336,1.0006961768143914,-34.86102193585879
6.49170944,1.0005287697852094,-35.10105405276594
6.493996544,1.0003281818930294,-35.33861553646026
6.496283648,1.000106738890821,-35.57336081121725
6.498570752,0.9998785995978895,-35.805049977724764
6.500857856,0.9996578482796888,-36.03371288273277
6.503144448,0.9994582842741224,-36.259573832915784
6.505431552,0.9992926414635684,-36.48296946521952
6.507718656,0.9991712474837235,-36.7045073368403
6.51000576,0.9991018251440869,-36.92491028052427
6.512292864,0.9990886484936253,-37.14489025984616
6.514579968,0.9991325979314053,-37.36530846379174
6.51686656,0.9992309953966253,-37.586955297161126
6.519153664,0.9993776495519339,-37.8106202868681
6.521440768,0.9995634293673322,-38.03688805382502
6.523727872,0.9997766105012882,-38.26627110463161
6.526014976,1.000003867475426,-38.499044726539125
6.52830208,1.000230984862901,-38.73532253423466
6.530588672,1.0004435759560977,-38.975004668837805
6.532875776,1.0006284876758498,-39.2177534116549
6.53516288,1.0007740701198593,-39.463103411057475
6.537449984,1.0008713443938493,-39.710437503019605
6.539737088,1.0009138328505305,-39.95899741059178
6.542024192,1.0008993124549634,-40.20797135179549
6.544310784,1.000828275571147,-40.456544247831154
6.546597888,1.0007053653041023,-40.70395799887304
6.548884992,1.0005381944922538,-40.94948884806039
6.551172096,1.0003371165138266,-41.19258274633578
6.5534592,1.0001148048592903,-41.43283573404365
6.555746304,0.9998851265353923,-41.670038230922934
6.558033408,0.9996624508406974,-41.90418141172255
6.56032,0.9994608131159546,-42.135486064810124
6.562607104,0.9992927883080259,-42.36433268012857
6.564894208,0.9991690043214042,-42.59125499681799
6.567181312,0.9990971914338698,-42.81699104943721
6.569468416,0.999081933560581,-43.04231168238602
6.57175552,0.9991242549944968,-43.26802796361021
6.574042112,0.9992213910642163,-43.49497516414884
6.576329216,0.9993674750918431,-43.723903993880846
6.57861632,0.9995532721305589,-43.955445103046635
6.580903424,0.9997670336950033,-44.19008241406188
6.583190528,0.9999954597323016,-44.42816186233663
6.585477632,1.0002243000640545,-44.669727441794336
6.587764224,1.0004391648735218,-44.91474055522773
6.590051328,1.000626491891962,-45.16285860403262
6.592338432,1.0007747585975264,-45.41363440852178
6.594625536,1.0008745441505507,-45.666424563004774
6.59691264,1.0009196863342298,-45.920446000761494
6.599199744,1.000907160053556,-46.17495259884455
6.601486336,1.0008378697112825,-46.4290895497983
6.60377344,1.0007161438203296,-46.6820550957192
6.606060544,1.0005494688228511,-46.93317829679893
6.608347648,1.0003482895110714,-47.181850074319264
6.610634752,1.0001251087296552,-47.427688414624285
6.612921856,0.9998939067037389,-47.67043638047383
6.615208448,0.9996691724279613,-47.91014269358282
6.617495552,0.9994650531485142,-48.146947106324774
6.619782656,0.999294132395038,-48.38125503307093
6.62206976,0.9991675028027606,-48.613643127720216
6.624356864,0.9990927440382338,-48.84474331638398
6.626643968,0.999074868383178,-49.07541510123166
6.628931072,0.999114914784318,-49.30645415336401
6.631217664,0.9992104033867915,-49.538696252229315
6.633504768,0.9993553691954405,-49.77288758947447
6.635791872,0.9995407993795453,-50.00968880372441
6.638078976,0.9997548644837632,-50.249575428299686
6.64036608,0.9999845239202546,-50.49290285287894
6.642653184,1.0002150716402498,-50.73976998376349
6.644939776,1.0004323428654638,-50.99007625997086
6.64722688,1.0006225881853061,-51.24354145001912
6.649513984,1.0007739355724845,-51.499710268899534
6.651801088,1.0008768592205344,-51.75790533567834
6.654088192,1.0009250667521101,-52.01742389924436
6.656375296,1.0009153790198517,-52.277429479126184
6.658661888,1.0008483503353551,-52.5370930627747
6.660948992,1.0007282518744258,-52.79565108849124
6.663236096,1.0005625043587096,-53.05234884628025
6.6655232,1.0003613745392126,-53.30663133240004
6.667810304,1.0001375597624977,-53.55806331726439
6.670097408,0.9999049119538012,-53.806418906892176
6.672384,0.9996780266810564,-54.05165577388592
6.674671104,0.99947108607755,-54.29397779264147
6.676958208,0.9992970559707519,-54.533749263112476
6.679245312,0.9991669796280319,-54.77154118202461
6.681532416,0.9990888454497985,-55.00804784887732
6.68381952,0.9990677859490321,-55.24401763718223
6.686106112,0.9991050340464395,-55.48033871642657
6.688393216,0.9991982648141299,-55.717806475128505
6.69068032,0.999341688453282,-55.95720239952327
6.692967424,0.9995263833780447,-56.19918339774045
6.695254528,0.9997406997127218,-56.444253419887325
6.697541632,0.9999713602913366,-56.69274116636391
6.699828224,1.00020378131758,-56.94482521416172
6.702115328,1.0004236229324415,-57.20036829788936
6.704402432,1.000617011679963,-57.459108762476525
6.706689536,1.000771828653537,-57.72055162818343
6.70897664,1.0008785383086203,-57.98410053908306
6.711263744,1.0009303602683879,-58.24903404405337
6.713550848,1.0009239421647238,-58.51447923330941
6.71583744,1.000859766717615,-58.77963850151238
6.718124544,1.000741833043336,-59.043704231529404
6.720411648,1.0005774270361492,-59.305949023842274
6.722698752,1.000376780636313,-59.56579143643203
6.724985856,1.0001524441057605,-59.822765077214086
6.72727296,0.9999183322558274,-60.076650096002986
6.729559552,0.9996891216952032,-60.327397869612504
6.731846656,0.9994791570008915,-60.57517932381566
6.73413376,0.999301645101386,-60.82036530311013
6.736420864,0.9991676581606656,-61.06349840168838
6.738707968,0.9990854736269067,-61.30527901380412
6.740995072,0.9990606705368656,-61.546499993181136
6.743281664,0.9990944576020452,-61.787993372824836
6.745568768,0.9991848470329969,-62.030575793242164
6.747855872,0.9993262400500692,-62.27504548254861
6.750142976,0.9995099632340101,-62.522067756539876
6.75243008,0.9997241153650752,-62.772183427903705
6.754717184,0.9999556805097125,-63.025728535494004
6.757003776,1.00019009178039,-63.282831779982644
6.75929088,1.0004126840992615,-63.54344766912813
6.761577984,1.000609453957541,-63.80728382737729
6.763865088,1.0007682406821956,-64.07389921130105
6.766152192,1.0008791473388525,-64.34268324970247
6.768439296,1.0009351715444919,-64.61285508832455
6.770725888,1.0009326853720475,-64.88363260489676
6.773012992,1.0008719648306397,-65.15415309217872
6.775300096,1.0007567473241974,-65.42360861477657
6.7775872,1.0005940926892662,-65.69129456256373
6.779874304,1.0003942795427307,-65.95654863400944
6.782161408,1.0001695102626469,-66.2189854612457
6.784448512,0.9999340584642185,-66.47826790617981
6.786735104,0.9997024331158175,-66.73440464493248
6.789022208,0.9994892786541518,-66.9875294830209
6.791309312,0.9993078400211356,-67.23798591973005
6.793596416,0.9991694565688879,-67.48633030123405
6.79588352,0.9990829198614474,-67.73327324983524
6.798170624,0.9990536765357864,-67.97953953318228
6.800457216,0.9990833916142265,-68.2260459462186
6.80274432,0.9991704799948958,-68.47356877841953
6.805031424,0.9993094076314752,-68.72291833045774
6.807318528,0.9994915055802978,-68.97480558952341
6.809605632,0.999705386958863,-69.22972997698346
6.811892736,0.9999377876579756,-69.48809593030154
6.814179328,1.0001741027243898,-69.75001863984394
6.816466432,1.0003996003954874,-70.01550695177147
6.818753536,1.0006001327394167,-70.28424225981074
6.82104064,1.0007633156483844,-70.55579518849028
6.823327744,1.0008789359926074,-70.82954778771855
6.825614848,1.0009395592359038,-71.10478538634352
6.82790144,1.000941690473188,-71.38065819246394
6.830188544,1.0008849352836344,-71.65634210685435
6.832475648,1.000772986957721,-71.93101615525502
6.834762752,1.000612549317468,-72.20392600227947
6.837049856,1.0004138293352516,-72.47444319090252
6.83933696,1.0001890460536873,-72.74210417113129
6.841623552,0.9999522688000417,-73.00662862853879
6.843910656,0.9997183008896142,-73.267955709718
6.84619776,0.9995017280684385,-73.52621709855842
6.848484864,0.9993160303654696,-73.78174495678037
6.850771968,0.9991728420252154,-74.03511378804232
6.853059072,0.9990812617908625,-74.28696186001477
6.855345664,0.9990470546878674,-74.53808782534166
6.857632768,0.999072282195745,-74.78932406133514
6.859919872,0.9991554269918541,-75.04153034476907
6.862206976,0.9992914198123621,-75.29552757852224
6.86449408,0.9994715676132556,-75.55197858262781
6.866781184,0.9996848883408102,-75.8114535447489
6.869068288,0.9999178542601965,-76.07432891983596
6.87135488,1.0001560161323728,-76.34082472016274
6.873641984,1.000384415795103,-76.61083311817245
6.875929088,1.0005889808309674,-76.88417534468935
6.878216192,1.000756935730023,-77.1603662088303
6.880503296,1.000877569216434,-77.43883587560768
6.8827904,1.0009435864922556,-77.71883268534451
6.885076992,1.0009508030354988,-77.99952707712934
6.887364096,1.000898593466121,-78.28010742121747
6.8896512,1.000790302855122,-78.55971117268055
6.891938304,1.0006326252743265,-78.83757534694139
6.894225408,1.0004353585528896,-79.11308204622034
6.896512512,1.0002107727500114,-79.38572652935618
6.898799104,0.9999727807786984,-79.65520101949433
6.901086208,0.999736363596171,-79.92145035037386
6.903373312,0.999516090691888,-80.18457572132621
6.905660416,0.9993258302595045,-80.44493639657435
6.90794752,0.9991775655479005,-80.70298850339444
6.910234624,0.9990804933052322,-80.95945229017047
6.912521216,0.9990407949691,-81.2151252700789
6.91480832,0.9990608824738451,-81.47079363915365
6.917095424,0.9991395068803463,-81.72735865278584
