freq,mag,phase
6.0,0.9999932444285395,-14.164625386370362
6.008,0.9999948061062486,-14.4498955778996
6.016,0.9999963146239917,-14.735197312152842
6.024,0.9999977709111227,-15.020530197603016
6.032,0.9999991758880936,-15.305893842756598
6.04,0.9999999999999999,-15.591287856160628
6.048,0.9999999999999999,-15.876711846409755
6.056,0.9999999999999999,-16.162165422153272
6.064,0.9999999999999999,-16.447648192102225
6.072,1.0000000000000002,-16.733159765036515
6.08,1.0,-17.018699749811955
6.088,1.0,-17.30426775536749
6.096,1.0,-17.589863390732276
6.104,0.9999999999999998,-17.875486265032887
6.112,1.0,-18.161135987500508
6.12,1.0000000000000002,-18.4468121674781
6.128,1.0,-18.732514414427662
6.136,1.0,-19.018242337937412
6.144,1.0,-19.30399554772913
6.152,1.0,-19.589773653665336
6.16,1.0,-19.875576265756592
6.168,1.0,-20.16140299416886
6.176,1.0,-20.447253449230725
6.184,0.9999999999999998,-20.733127241440776
6.192,0.9999999999999999,-21.01902398147492
6.2,1.0,-21.30494328019375
6.208,1.0,-21.590884748649895
6.216,0.9999999999999999,-21.87684799809544
6.224,1.0,-22.162832639989226
6.232,1.0,-22.448838286004296
6.24,1.0,-22.73486454803539
6.248,0.9999999999999999,-23.02091103820621
6.256,1.0,-23.30697736887697
6.264,1.0,-23.593063152651805
6.272,0.9999999999999999,-23.87916800238621
6.28,1.0,-24.165291531194537
6.288,1.0,-24.4514333524574
6.296,0.9999999999999999,-24.737593079829235
6.304,1.0,-25.02377032724575
6.312,1.0,-25.309964708931425
6.32,1.0,-25.596175839406975
6.328,0.9999999999999999,-25.882403333496956
6.336,1.0,-26.168646806337172
6.344,1.0,-26.454905873382298
6.352,0.9999999999999999,-26.741180150413314
6.36,0.9999999999999999,-27.027469253545135
6.368,1.0,-27.31377279923407
6.376,0.9999999999999999,-27.600090404285407
6.384,0.9999999999999999,-27.88642168586098
6.392,1.0,-28.172766261486633
6.4,0.9999999999999999,-28.459123749059923
6.408,0.9999999999999999,-28.745493766857532
6.416,1.0,-29.03187593354292
6.424,1.0,-29.31826986817384
6.432,0.9999999999999998,-29.60467519020996
6.44,1.0,-29.891091519520355
6.448,1.0,-30.177518476391164
6.456,0.9999999999999999,-30.463955681533058
6.464,1.0,-30.750402756088896
6.472,0.9999999999999999,-31.03685932164129
6.48,1.0,-31.323325000220077
6.4879999999999995,0.9999999999999999,-31.609799414309975
6.496,0.9999999999999999,-31.896282186858244
6.504,1.0,-32.18277294128192
6.5120000000000005,0.9999999999999999,-32.469271301475864
6.52,0.9999999999999999,-32.75577689181978
6.5280000000000005,0.9999999999999999,-33.04228933718629
6.536,1.0,-33.328808262948044
6.5440000000000005,0.9999999999999999,-33.61533329498572
6.552,1.0,-33.90186405969501
6.5600000000000005,0.9999999999999999,-34.18840018399479
6.568,0.9999999999999999,-34.474941295334084
6.5760000000000005,0.9999999999999999,-34.76148702170009
6.584,1.0,-35.04803699162526
6.592,1.0,-35.33459083419519
6.6,1.0,-35.621148179055936
6.608,1.0,-35.907708656421526
6.616,1.0,-36.19427189708153
6.624,0.9999999999999999,-36.480837532408515
6.632,1.0,-36.76740519436555
6.64,0.9999999999999999,-37.053974515513644
6.648,1.0,-37.34054512901923
6.656,0.9999999999999999,-37.62711666866165
6.664,1.0000000000000002,-37.91368876884061
6.672,0.9999999999999998,-38.20026106458348
6.68,1.0,-38.48683319155301
6.688,1.0,-38.77340478605438
6.696,0.9999999999999998,-39.059975485042905
6.704,1.0,-39.34654492613133
6.712,1.0,-39.633112747597124
6.72,0.9999999999999999,-39.91967858839
6.728,1.0,-40.20624208813918
6.736,1.0,-40.49280288716073
6.744,1.0,-40.77936062646496
6.752,0.9999999999999999,-41.06591494776369
6.76,0.9999999999999999,-41.35246549347756
6.768,0.9999999999999999,-41.63901190674332
6.776,1.0,-41.92555383142114
6.784,1.0,-42.21209091210176
6.792,1.0,-42.4986227941139
6.8,1.0,-42.78514912353132
6.808,1.0,-43.07166954718013
6.816,0.9999999999999999,-43.35818371264599
6.824,0.9999999999999999,-43.64469126828116
6.832,1.0,-43.93119186321183
6.84,1.0,-44.21768514734516
6.848,1.0,-44.5041707713764
6.856,1.0,-44.79064838679603
6.864,1.0000000000000002,-45.07711764589682
6.872,0.9999998692736315,-45.363578201780925
6.88,0.9999994209308155,-45.650029708366866
6.888,0.9999989755415024,-45.93647182039662
6.896,0.9999985332793777,-46.222904193442574
6.904,0.9999980943135698,-46.509326483914606
6.912,0.9999976588086945,-46.79573834906689
6.92,0.9999972269249029,-47.08213944700496
6.928,0.9999967988179246,-47.3685294366926
6.936,0.9999963746391154,-47.654907977958715
6.944,0.9999959545355024,-47.94127473150422
6.952,0.9999955386498288,-48.22762935890891
6.96,0.9999951271206015,-48.513971522638265
6.968,0.9999947200821334,-48.80030088605024
6.976,0.9999943176645928,-49.086617113402085
6.984,0.9999939199940442,-49.37291986985707
6.992,0.999993527192498,-49.65920882149126
7.0,0.9999931393779526,-49.945483635300164
7.008,0.9999927566644415,-50.23174397920542
7.016,0.9999923791620767,-50.51798952206151
7.024,0.9999920069770946,-50.80421993366237
7.032,0.9999916402119019,-51.09043488474791
7.04,0.9999912789651174,-51.37663404701073
7.048,0.9999909233316199,-51.662817093102525
7.056,0.9999905734025913,-51.94898369664078
7.064,0.9999902292655609,-52.23513353221508
7.072,0.9999898910044501,-52.52126627539371
7.08,0.9999895586996174,-52.80738160273003
7.088,0.9999892324279012,-53.09347919176892
7.096,0.9999889122626651,-53.37955872105317
7.104,0.9999885982738413,-53.665619870129774
7.112,0.9999882905279742,-53.95166231955632
7.12,0.9999879890882641,-54.23768575090725
7.128,0.9999876940146124,-54.52368984678013
7.136,0.9999874053636626,-54.80967429080193
7.144,0.9999871231888446,-55.0956387676351
7.152,0.9999868475404189,-55.38158296298395
7.16,0.999986578465518,-55.667506563600575
7.168,0.9999863160081912,-55.95340925729111
7.176,0.9999860602094445,-56.239290732921766
7.184,0.999985811107287,-56.52515068042486
7.192,0.9999855687367698,-56.81098879080485
7.2,0.999985333130031,-57.096804756144344
7.208,0.9999851043163357,-57.38259826960999
7.216,0.9999848823221201,-57.66836902545843
7.224,0.9999846671710316,-57.954116719042204
7.232,0.9999844588839719,-58.23984104681555
7.24,0.9999842574791369,-58.525541706340256
7.248,0.9999840629720598,-58.81121839629144
7.256,0.999983875375651,-59.096870816463316
7.264,0.99998369470024,-59.38249866777483
7.272,0.9999835209536154,-59.66810165227547
7.28,0.9999833541410665,-59.95367947315076
7.288,0.9999831942654228,-60.23923183472802
7.296,0.9999830413270951,-60.52475844248182
7.304,0.9999828953241147,-60.81025900303957
7.312,0.999982756252175,-61.09573322418706
7.32,0.9999826241046691,-61.381180814873844
7.328,0.999982498872731,-61.66660148521869
7.336,0.9999823805452744,-61.95199494651507
7.344,0.9999822691090308,-62.23736091123636
7.352,0.9999821645485912,-62.52269909304129
7.36,0.9999820668464415,-62.80800920677916
7.368,0.999981975983004,-63.0932909684951
7.376,0.9999818919366729,-63.378544095435274
7.384,0.9999818146838554,-63.66376830605206
7.392,0.9999817441990078,-63.94896332000919
7.4,0.999981680454673,-64.23412885818682
7.4079999999999995,0.9999816234215194,-64.51926464268651
7.416,0.999981573068377,-64.80437039683653
7.4239999999999995,0.9999815293622751,-65.08944584519634
7.432,0.9999814922684789,-65.37449071356212
7.4399999999999995,0.9999814617505265,-65.65950472897107
7.448,0.9999814377702642,-65.94448761970685
7.4559999999999995,0.9999814202878841,-66.22943911530382
7.464,0.9999814092619599,-66.5143589465524
7.4719999999999995,0.9999814046494817,-66.79924684550329
7.48,0.9999814064058916,-67.08410254547258
7.4879999999999995,0.9999814144851203,-67.36892578104604
7.496,0.9999814288396212,-67.65371628808421
7.504,0.9999814494204041,-67.93847380372635
7.5120000000000005,0.9999814761770727,-68.22319806639565
7.52,0.9999815090578555,-68.50788881580316
7.5280000000000005,0.9999815480096431,-68.79254579295268
7.536,0.9999815929780194,-69.07716874014478
7.5440000000000005,0.9999816439072969,-69.36175740098163
7.552,0.9999817007405499,-69.64631152037079
7.5600000000000005,0.9999817634196463,-69.93083084453009
7.568,0.9999818318852829,-70.21531512099126
7.5760000000000005,0.9999819060770151,-70.49976409860476
7.584,0.9999819859332918,-70.78417752754332
7.5920000000000005,0.9999820713914864,-71.06855515930674
7.6,0.9999821623879285,-71.35289674672522
7.6080000000000005,0.9999822588579363,-71.63720204396411
7.616,0.9999823607358479,-71.92147080652735
7.6240000000000006,0.999982467955051,-72.20570279126183
7.632,0.999982580448016,-72.4898977563609
7.640000000000001,0.9999826981463252,-72.77405546136876
7.648,0.9999828209807032,-73.05817566718363
7.656000000000001,0.9999829488810478,-73.34225813606221
7.664,0.9999830817764589,-73.62630263162276
7.672,0.999983219595269,-73.91030891884942
7.68,0.999983362265072,-74.19427676409539
7.688,0.9999835097127522,-74.47820593508673
7.696,0.9999836618645132,-74.76209620092592
7.704,0.9999838186459067,-75.04594733209534
7.712,0.9999839799818608,-75.32975910046078
7.72,0.9999841457967074,-75.61353127927485
7.728,0.9999843160142108,-75.89726364318038
7.736,0.9999844905575941,-76.18095596821377
7.744,0.9999846693495679,-76.46460803180825
7.752,0.9999848523123561,-76.74821961279717
7.76,0.9999850393677228,-77.03179049141724
7.768,0.9999852304369986,-77.31532044931161
7.776,0.9999854254411075,-77.59880926953312
7.784,0.9999856243005922,-77.88225673654725
7.792,0.9999858269356398,-78.16566263623521
7.8,0.9999860332661066,-78.44902675589698
7.808,0.9999862432115444,-78.73234888425418
7.816,0.9999864566912238,-79.015628811453
7.824,0.9999866736241606,-79.29886632906702
7.832,0.9999868939291382,-79.58206123010015
7.84,0.9999871175247322,-79.8652133089892
7.848,0.9999873443293352,-80.14832236160679
7.856,0.9999875742611783,-80.4313881852639
7.864,0.9999878072383562,-80.71441057871257
7.872,0.9999880431788485,-80.99738934214847
7.88,0.9999882820005436,-81.28032427721342
7.888,0.9999885236212599,-81.56321518699795
7.896,0.999988767958769,-81.84606187604368
7.904,0.9999890149308166,-82.12886415034579
7.912,0.9999892644551447,-82.41162181735534
7.92,0.9999895164495127,-82.69433468598163
7.928,0.999989770831718,-82.97700256659446
7.936,0.9999900275196167,-83.25962527102634
7.944,0.9999902864311452,-83.54220261257468
7.952,0.9999905474843392,-83.82473440600397
7.96,0.9999908105973536,-84.10722046754783
7.968,0.9999910756884824,-84.3896606149111
7.976,0.9999913426761792,-84.67205466727181
7.984,0.999991611479074,-84.95440244528314
7.992,0.9999918820159939,-85.23670377107538
8.0,0.9999921542059808,-85.5189584682578
8.008,0.9999924279683103,-85.80116636192034
8.016,0.9999927032225088,-86.08332727863572
8.024000000000001,0.999992979888372,-86.36544104646077
8.032,0.9999932578859821,-86.64750749493832
8.04,0.999993537135725,-86.92952645509895
8.048,0.9999938175583074,-87.21149775946255
8.056000000000001,0.9999940990747734,-87.49342124203962
8.064,0.9999943816065207,-87.77529673833304
8.072,0.9999946650753165,-88.05712408533964
8.08,0.9999949494033143,-88.33890312155137
8.088000000000001,0.9999952345130692,-88.62063368695678
8.096,0.9999955203275526,-88.90231562304228
8.104,0.9999958067701674,-89.18394877279371
8.112,0.999996093764764,-89.46553298069733
8.120000000000001,0.9999963812356528,-89.74706809274102
8.128,0.9999966691076204,-90.02855395641552
8.136,0.9999969573059432,-90.30999042071562
8.144,0.9999972457563997,-90.5913773361412
8.152000000000001,0.9999975343852866,-90.87271455469812
8.16,0.9999978231194296,-91.15400192989922
8.168,0.9999981118861972,-91.43523931676555
8.176,0.9999984006135146,-91.71642657182703
8.184000000000001,0.9999986892298742,-91.99756355312321
8.192,0.9999989776643501,-92.27865012020426
8.2,0.9999992658466071,-92.55968613413175
8.208,0.9999995537069155,-92.84067145747937
8.216000000000001,0.9999998411761606,-93.12160595433345
8.224,1.0,-93.40248949029362
8.232,1.0,-93.68332193247373
8.24,1.0,-93.9641031495021
8.248000000000001,0.9999999999999999,-94.244833011522
8.256,0.9999999999999999,-94.52551139019221
8.264,1.0,-94.80613815868759
8.272,1.0,-95.0867131916993
8.280000000000001,1.0,-95.36723636543506
8.288,0.9999999999999998,-95.64770755761958
8.296,0.9999999999999999,-95.92812664749486
8.304,0.9999999999999999,-96.20849351582035
8.312,0.9999999999999999,-96.48880804487295
8.32,0.9999999999999999,-96.76907011844752
8.328,1.0,-97.04927962185647
8.336,0.9999999999999999,-97.32943644193038
8.344,0.9999999999999999,-97.60954046701742
8.352,1.0,-97.88959158698388
8.36,1.0,-98.16958969321352
8.368,0.9999999999999999,-98.44953467860803
8.376,1.0,-98.72942643758628
8.384,1.0,-99.00926486608475
8.392,1.0,-99.28904986155665
8.4,1.0,-99.56878132297224
8.408,0.9999999999999999,-99.84845915081792
8.416,0.9999999999999999,-100.12808324709646
8.424,0.9999999999999999,-100.40765351532602
8.432,1.0,-100.68716986054028
8.44,1.0,-100.96663218928737
8.448,1.0,-101.2460404096299
8.456,0.9999999999999999,-101.52539443114394
8.464,1.0,-101.8046941649188
8.472,1.0,-102.08393952355603
8.48,1.0,-102.3631304211691
8.488,1.0000000000000002,-102.64226677338233
8.496,1.0,-102.92134849733047
8.504,1.0,-103.20037551165753
8.512,0.9999999999999999,-103.47934773651639
8.52,1.0,-103.75826509356746
8.528,1.0,-104.0371275059782
8.536,0.9999999999999999,-104.31593489842176
8.544,0.9999999999999999,-104.59468719707641
8.552,0.9999999999999999,-104.87338432962407
8.56,0.9999999999999999,-105.15202622524973
8.568,0.9999999999999999,-105.43061281463984
8.576,1.0,-105.70914402998167
8.584,1.0,-105.98761980496171
8.592,1.0000000000000002,-106.26604007476476
8.6,1.0,-106.54440477607245
8.608,1.0,-106.82271384706225
8.616,0.9999999999999999,-107.10096722740568
8.624,0.9999999999999999,-107.3791648582676
8.632,0.9999999999999999,-107.65730668230408
8.64,1.0,-107.9353926436617
8.648,1.0,-108.21342268797542
8.656,0.9999999999999999,-108.49139676236763
8.664,1.0,-108.76931481544615
8.672,1.0,-109.04717679730311
8.68,0.9999999999999999,-109.32498265951288
8.688,0.9999999999999999,-109.60273235513091
8.696,0.9999999999999999,-109.88042583869152
8.704,0.9999999999999999,-110.15806306620676
8.712,1.0,-110.43564399516411
8.72,0.9999999999999998,-110.71316858452522
8.728,0.9999999999999999,-110.99063679472361
8.736,0.9999999999999999,-111.2680485876633
8.744,0.9999999999999999,-111.54540392671645
8.752,1.0,-111.8227027767219
8.76,0.9999999999999999,-112.09994510398279
8.768,1.0,-112.37713087626506
8.776,0.9999999999999999,-112.65426006279489
8.784,0.9999999999999999,-112.93133263425723
8.792,1.0,-113.20834856279316
8.8,1.0,-113.48530782199829
8.808,1.0,-113.7622103869202
8.815999999999999,0.9999999999999999,-114.03905623405655
8.824,0.9999999999999999,-114.31584534135285
8.832,0.9999999999999999,-114.59257768819995
8.84,0.9999999999999999,-114.86925325543208
8.847999999999999,0.9999999999999999,-115.14587202532444
8.856,1.0,-115.42243398159093
8.864,0.9999999999999999,-115.69893910938166
8.872,1.0,-115.97538739528055
8.879999999999999,1.0,-116.25177882730314
8.888,1.0000000000000002,-116.52811339489404
8.896,1.0,-116.80439108892418
8.904,1.0000000000000002,-117.08061190168861
8.911999999999999,1.0,-117.35677582690398
8.92,1.0,-117.63288285970584
8.928,1.0,-117.90893299664592
8.936,0.9999999999999999,-118.18492623568967
8.943999999999999,1.0,-118.46086257621377
8.952,1.0,-118.73674201900312
8.96,1.0,-119.01256456624826
8.968,1.0,-119.28833022154261
8.975999999999999,1.0,-119.56403898987976
8.984,1.0,-119.83969087765081
8.992,0.9999999999999999,-120.11528589264114
9.0,1.0,-120.39082404402785
9.008,1.0,-120.66630534237693
9.016,1.0000000000000002,-120.94172979964026
9.024000000000001,1.0,-121.21709742915253
9.032,0.9999999999999998,-121.49240824562857
9.04,1.0,-121.76766226516017
9.048,0.9999999999999999,-122.04285950521324
9.056000000000001,1.0,-122.31799998462454
9.064,1.0,-122.5930837235987
9.072,1.0,-122.86811074370536
9.08,1.0,-123.14308106787583
9.088000000000001,0.9999999999999999,-123.41799472039995
9.096,1.0,-123.69285172692288
9.104,1.0,-123.96765211444226
9.112,0.9999999999999999,-124.2423959113047
9.120000000000001,0.9999999999999999,-124.51708314720244
9.128,1.0,-124.79171385317039
9.136,1.0,-125.0662880615827
9.144,0.9999999999999999,-125.34080580614956
9.152000000000001,1.0,-125.6152671219137
9.16,1.0,-125.88967204524701
9.168,0.9999999999999999,-126.16402061384747
9.176,0.9999999999999999,-126.43831286673559
9.184000000000001,1.0,-126.71254884425085
9.192,0.9999999999999999,-126.98672858804825
9.2,1.0,-127.26085214109528
9.208,0.9999999999999998,-127.53491954766803
9.216000000000001,1.0,-127.80893085334762
9.224,1.0,-128.0828861050169
9.232,1.0,-128.35678535085697
9.24,0.9999999999999999,-128.63062864034342
9.248000000000001,0.9999999999999999,-128.90441602424264
9.256,0.9999999999999999,-129.17814755460847
9.264,0.9999999999999999,-129.45182328477847
9.272,0.9999999999999999,-129.72544326937032
9.280000000000001,1.0,-129.9990075642779
9.288,0.9999999999999999,-130.27251622666785
9.296,1.0,-130.54596931497582
9.304,1.0000000000000002,-130.81936688890278
9.312000000000001,0.9999999999999999,-131.092709009411
9.32,1.0,-131.36599573872058
9.328,1.0,-131.6392271403055
9.336,1.0,-131.91240327889005
9.344,1.0,-132.18552422044448
9.352,0.9999999999999999,-132.45859003218183
9.36,1.0,-132.73160078255344
9.368,1.0,-133.00455654124562
9.376,1.0,-133.27745737917527
9.384,1.0,-133.55030336848637
9.392,1.0,-133.82309458254565
9.4,1.0,-134.09583109593913
9.408,0.9999999999999999,-134.36851298446754
9.416,1.0,-134.64114032514306
9.424,1.0,-134.9137131961845
9.432,0.9999999999999999,-135.18623167701404
9.44,1.0,-135.45869584825272
9.448,1.0,-135.7311057917166
9.456,0.9999999999999999,-136.00346159041257
9.464,1.0,-136.2757633285345
9.472,1.0,-136.5480110914587
9.48,1.0,-136.82020496574037
9.488,1.0000000000000002,-137.09234503910898
9.496,1.0,-137.36443140046453
9.504,1.0,-137.63646413987297
9.512,0.9999999999999999,-137.90844334856257
9.52,0.9999999999999999,-138.18036911891915
9.528,1.0,-138.4522415444824
9.536,1.0,-138.72406071994118
9.544,1.0000000000000002,-138.99582674112983
9.552,1.0,-139.2675397050234
9.56,1.0,-139.53919970973388
9.568,0.9999999999999999,-139.8108068545054
9.576,1.0,-140.08236123971056
9.584,1.0,-140.3538629668456
9.592,0.9999999999999999,-140.6253121385265
9.6,1.0,-140.89670885848432
9.608,0.9999999999999999,-141.1680532315612
9.616,1.0,-141.43934536370574
9.624,1.0,-141.7105853619688
9.632,1.0,-141.98177333449914
9.64,0.9999999999999999,-142.25290939053892
9.648,1.0,-142.52399364041943
9.656,1.0,-142.7950261955568
9.664,0.9999999999999999,-143.06600716844713
9.672,0.9999999999999999,-143.3369366726627
9.68,1.0,-143.607814822847
9.688,1.0000000000000002,-143.87864173471067
9.696,1.0,-144.14941752502673
9.704,1.0,-144.42014231162648
9.712,1.0,-144.69081621339456
9.72,1.0,-144.96143935026504
9.728,1.0,-145.2320118432162
9.736,1.0,-145.50253381426697
9.744,0.9999999999999999,-145.77300538647134
9.752,1.0,-146.04342668391484
9.76,1.0,-146.3137978317092
9.768,1.0,-146.58411895598854
9.776,1.0,-146.85439018390406
9.784,1.0,-147.1246116436202
9.792,1.0,-147.3947834643095
9.8,1.0,-147.66490577614852
9.808,1.0,-147.93497871031278
9.816,1.0,-148.20500239897257
9.824,0.9999999999999998,-148.47497697528803
9.832,1.0,-148.74490257340497
9.84,1.0,-149.0147793284497
9.847999999999999,1.0,-149.2846073765248
9.856,1.0,-149.55438685470452
9.864,1.0000000000000002,-149.8241179010299
9.872,1.0,-150.0938006545041
9.879999999999999,1.0,-150.3634352550882
9.888,1.0,-150.63302184369616
9.896,0.9999999999999999,-150.90256056219008
9.904,1.0,-151.17205155337578
9.911999999999999,0.9999999999999999,-151.4414949609981
9.92,0.9999999999999999,-151.7108909297362
9.928,1.0,-151.98023960519868
9.936,1.0,-152.24954113391908
9.943999999999999,0.9999999999999999,-152.51879566335126
9.952,1.0,-152.78800334186454
9.96,1.0,-153.057164318739
9.968,1.0,-153.3262787441607
9.975999999999999,1.0,-153.59534676921731
9.984,1.0,-153.86436854589297
9.992,1.0,-154.13334422706373
10.0,1.0,-154.40227396649286
10.008,1.0,-154.67115791882603
10.016,0.9999999999999999,-154.93999623958675
10.024000000000001,1.0,-155.2087890851713
