freq,mag,phase
6.0,0.9999978367278315,104.79572185510531
6.008,0.9999980700015623,104.68301086405803
6.016,0.9999982967137134,104.57024937582523
6.024,0.9999985169661298,104.45743733241162
6.032,0.9999987308599354,104.3445746758154
6.04,0.9999989384955328,104.2316613480289
6.048,0.9999991399726036,104.11869729103904
6.056,0.9999993353901118,104.00568244682789
6.064,0.9999995248463035,103.8926167573732
6.072,0.9999997084387076,103.77950016464888
6.08,0.9999998862641376,103.66633261062563
6.088,1.0,103.55311403727141
6.096,0.9999999999999999,103.43984438655198
6.104,1.0,103.32652360043147
6.112,1.0000000000000002,103.21315162087292
6.12,1.0000000000000002,103.0997283898388
6.128,1.0,102.98625384929159
6.136,1.0,102.87272794119427
6.144,1.0,102.75915060751097
6.152,1.0,102.64552179020744
6.16,1.0,102.53184143125162
6.168,0.9999999999999999,102.41810947261425
6.176,1.0,102.30432585626933
6.184,1.0,102.1904905241948
6.192,0.9999999999999999,102.07660341837298
6.2,1.0,101.96266448079129
6.208,0.9999999999999999,101.84867365344263
6.216,1.0,101.73463087832609
6.224,1.0,101.62053609744747
6.232,1.0,101.50638925281989
6.24,1.0,101.3921902864643
6.248,1.0,101.2779391404101
6.256,0.9999999999999999,101.16363575669571
6.264,0.9999999999999999,101.04928007736919
6.272,1.0,100.93487204448874
6.28,1.0,100.82041160012336
6.288,1.0,100.70589868635344
6.296,1.0,100.59133324527123
6.304,1.0,100.47671521898164
6.312,0.9999999999999999,100.36204454960263
6.32,0.9999999999999999,100.24732117926594
6.328,0.9999999999999999,100.13254505011763
6.336,0.9999999999999999,100.01771610431865
6.344,1.0,99.9028342840456
6.352,0.9999999999999998,99.78789953149106
6.36,0.9999999999999999,99.6729117888645
6.368,0.9999999999999999,99.55787099839262
6.376,1.0,99.44277710232018
6.384,0.9999999999999999,99.32763004291043
6.392,0.9999999999999999,99.21242976244588
6.4,1.0,99.0971762032288
6.408,1.0,98.9818693075819
6.416,1.0,98.86650901784895
6.424,1.0,98.75109527639536
6.432,0.9999999999999999,98.63562802560882
6.44,1.0,98.5201072079
6.448,1.0,98.40453276570304
6.456,1.0,98.2889046414763
6.464,0.9999999999999999,98.17322277770293
6.472,0.9999999999999999,98.05748711689158
6.48,1.0,97.94169760157689
6.4879999999999995,1.0,97.82585417432031
6.496,1.0,97.70995677771056
6.504,0.9999999999999999,97.5940053543645
6.5120000000000005,1.0,97.47799984692745
6.52,0.9999999999999999,97.36194019807424
6.5280000000000005,1.0,97.24582635050945
6.536,1.0,97.12965824696842
6.5440000000000005,1.0,97.01343583021762
6.552,0.9999999999999999,96.89715904305551
6.5600000000000005,1.0,96.78082782831306
6.568,0.9999999999999999,96.66444212885452
6.5760000000000005,0.9999999999999999,96.54800188757795
6.584,1.0,96.43150704741603
6.592,1.0,96.31495755133662
6.6,0.9999999999999999,96.19835334234345
6.608,1.0,96.08169436347684
6.616,1.0,95.96498055781429
6.624,1.0,95.84821186847125
6.632,0.9999999999999999,95.73138823860171
6.64,1.0,95.6145096113989
6.648,1.0,95.49757593009602
6.656,1.0,95.38058713796687
6.664,1.0,95.26354317832651
6.672,0.9999999999999999,95.14644399453208
6.68,1.0,95.02928952998327
6.688,1.0,94.91207972812323
6.696,1.0,94.7948145324391
6.704,1.0,94.67749388646283
6.712,1.0,94.56011773377178
6.72,1.0,94.44268601798943
6.728,1.0,94.32519868278617
6.736,1.0,94.20765567187988
6.744,1.0,94.09005692903672
6.752,0.9999999999999999,93.97240239807181
6.76,0.9999999999999999,93.85469202284992
6.768,1.0,93.7369257472862
6.776,0.9999999999999999,93.6191035153469
6.784,0.9999999999999998,93.50122527105007
6.792,0.9999999999999999,93.38329095846629
6.8,1.0,93.26530052171937
6.808,1.0,93.14725390498705
6.816,1.0,93.02915105250183
6.824,1.0,92.91099190855154
6.832,0.9999999999999999,92.79277641748018
6.84,1.0,92.67450452368861
6.848,0.9999999999999999,92.5561761716353
6.856,1.0,92.43779130583701
6.864,0.9999999999999999,92.31934987086956
6.872,1.0,92.20085181136861
6.88,0.9999999999999999,92.08229707203033
6.888,1.0,91.96368559761214
6.896,1.0,91.84501733293354
6.904,0.9999999999999999,91.72629222287674
6.912,0.9999999999999999,91.60751021238747
6.92,0.9999999999999999,91.48867124647573
6.928,1.0,91.36977527021655
6.936,1.0,91.25082222875065
6.944,1.0,91.13181206728532
6.952,1.0,91.01274473109514
6.96,0.9999999999999998,90.89362016552265
6.968,0.9999999999999999,90.77443831597925
6.976,0.9999999999999999,90.65519912794583
6.984,0.9999999999999999,90.53590254697365
6.992,1.0,90.416548518685
7.0,1.0,90.29713698877406
7.008,0.9999999999999999,90.17766790300762
7.016,1.0,90.05814120722583
7.024,0.9999999999999999,89.93855684734304
7.032,0.9999999999999999,89.81891476934852
7.04,1.0,89.69921491930727
7.048,1.0,89.57945724336076
7.056,1.0,89.45964168772778
7.064,1.0,89.33976819870514
7.072,0.9999999999999998,89.21983672266849
7.08,0.9999999999999999,89.09984720607318
7.088,1.0,88.97979959545486
7.096,1.0000000000000002,88.85969383743053
7.104,1.0,88.73952987869905
7.112,1.0,88.6193076660422
7.12,0.9999999999999999,88.4990271463253
7.128,0.9999999999999999,88.37868826649803
7.136,1.0,88.25829097359532
7.144,0.9999999999999999,88.13783521473805
7.152,0.9999999999999998,88.01732093713392
7.16,1.0,87.8967480880782
7.168,1.0,87.77611661495459
7.176,1.0,87.655426465236
7.184,0.9999999999999999,87.53467758648537
7.192,1.0000000000000002,87.41386992635648
7.2,1.0,87.29300343259474
7.208,1.0,87.17207805303805
7.216,0.9999999999999999,87.05109373561758
7.224,1.0,86.93005042835863
7.232,1.0000000000000002,86.8089480793814
7.24,1.0,86.68778663690183
7.248,1.0,86.56656604923248
7.256,1.0,86.44528626478323
7.264,1.0,86.32394723206231
7.272,0.9999999999999999,86.20254889967687
7.28,1.0,86.08109121633403
7.288,1.0,85.95957413084162
7.296,0.9999999999999999,85.83799759210898
7.304,1.0,85.71636154914792
7.312,0.9999999999999999,85.5946659510734
7.32,1.0,85.47291074710452
7.328,1.0,85.35109588656523
7.336,1.0,85.22922131888528
7.344,1.0,85.10728699360098
7.352,1.0,84.9852928603561
7.36,1.0,84.86323886890273
7.368,1.0,84.74112496910205
7.376,1.0,84.61895111092527
7.384,1.0,84.49671724445443
7.392,1.0,84.37442331988328
7.4,1.0,84.2520692875181
7.4079999999999995,0.9999999999999999,84.12965509777861
7.416,0.9999999999999999,84.00718070119878
7.4239999999999995,0.9999999999999999,83.88464604842774
7.432,1.0,83.76205109023053
7.4399999999999995,0.9999999999999999,83.63939577748918
7.448,0.9999999999999999,83.51668006120332
7.4559999999999995,1.0,83.39390389249125
7.464,0.9999999999999998,83.27106722259064
7.4719999999999995,1.0,83.14817000285959
7.48,0.9999999999999999,83.02521218477726
7.4879999999999995,0.9999999999999999,82.90219371994505
7.496,0.9999999999999998,82.7791145600871
7.504,1.0,82.65597465705154
7.5120000000000005,1.0,82.53277396281105
7.52,0.9999999999999999,82.40951242946403
7.5280000000000005,0.9999999999999998,82.28619000923518
7.536,1.0,82.16280665447663
7.5440000000000005,0.9999999999999999,82.03936231766862
7.552,1.0,81.91585695142061
7.5600000000000005,0.9999999999999998,81.79229050847192
7.568,1.0,81.66866294169284
7.5760000000000005,1.0,81.54497420408529
7.584,1.0,81.42122424878397
7.5920000000000005,0.9999999999999999,81.29741302905694
7.6,1.0,81.17354049830686
7.6080000000000005,0.9999999999999999,81.04960661007154
7.616,0.9999999999999999,80.92561131802512
7.6240000000000006,0.9999999999999999,80.80155457597873
7.632,0.9999999999999999,80.67743633788163
7.640000000000001,1.0,80.55325655782181
7.648,1.0,80.42901519002721
7.656000000000001,1.0,80.3047121888663
7.664,1.0,80.18034750884932
7.672,1.0,80.05592110462882
7.68,1.0,79.93143293100088
7.688,1.0,79.80688294290582
7.696,1.0,79.68227109542916
7.704,1.0,79.55759734380256
7.712,1.0,79.43286164340466
7.72,1.0,79.30806394976206
7.728,1.0,79.18320421855017
7.736,1.0,79.05828240559416
7.744,0.9999999999999999,78.93329846686984
7.752,1.0,78.8082523585046
7.76,1.0,78.68314403677833
7.768,1.0,78.55797345812424
7.776,1.0,78.43274057912994
7.784,1.0,78.30744535653822
7.792,0.9999999999999999,78.18208774724802
7.8,1.0,78.05666770831535
7.808,0.9999999999999999,77.93118519695419
7.816,1.0,77.8056401705374
7.824,1.0,77.6800325865977
7.832,1.0,77.55436240282853
7.84,0.9999999999999999,77.42862957708499
7.848,1.0,77.30283406738474
7.856,1.0,77.17697583190902
7.864,0.9999999999999999,77.05105482900345
7.872,1.0,76.92507101717898
7.88,1.0,76.79902435511292
7.888,1.0,76.67291480164971
7.896,1.0,76.54674231580199
7.904,1.0,76.42050685675146
7.912,1.0,76.29420838384975
7.92,0.9999999999999999,76.16784685661946
7.928,0.9999999999999999,76.04142223475506
7.936,0.9999999999999999,75.91493447812375
7.944,1.0,75.7883835467665
7.952,0.9999999999999999,75.66176940089883
7.96,1.0,75.53509200091197
7.968,1.0,75.40835130737352
7.976,0.9999999999999999,75.28154728102862
7.984,1.0,75.15467988280072
7.992,1.0,75.0277490737926
8.0,1.0,74.9007548152873
8.008,1.0,74.77369706874899
8.016,1.0,74.64657579582398
8.024000000000001,0.9999999999999999,74.51939095834159
8.032,1.0,74.3921425183152
8.04,0.9999999999999999,74.26483043794305
8.048,1.0,74.13745467960915
8.056000000000001,1.0,74.01001520588446
8.064,0.9999999999999999,73.88251197952755
8.072,0.9999999999999999,73.75494496348573
8.08,1.0,73.62731412089576
8.088000000000001,1.0,73.49961941508512
8.096,1.0,73.37186080957268
8.104,1.0,73.24403826806969
8.112,1.0,73.11615175448075
8.120000000000001,0.9999999999999999,72.9882012329048
8.128,1.0,72.86018666763597
8.136,0.9999999999999999,72.73210802316457
8.144,0.9999999999999999,72.60396526417792
8.152000000000001,1.0,72.47575835556148
8.16,1.0,72.34748726239965
8.168,1.0,72.21915194997673
8.176,0.9999999999999999,72.09075238377785
8.184000000000001,0.9999999999999998,71.96228852948992
8.192,0.9999999999999999,71.8337603530027
8.2,0.9999999999999999,71.70516782040939
8.208,1.0,71.57651089800794
8.216000000000001,0.9999999999999999,71.44778955230178
8.224,0.9999999999999999,71.31900375000087
8.232,1.0,71.1901534580225
8.24,1.0,71.06123864349226
8.248000000000001,1.0,70.93225927374515
8.256,1.0,70.80321531632632
8.264,1.0,70.67410673899204
8.272,0.9999999999999999,70.54493350971066
8.280000000000001,1.0,70.41569559666357
8.288,0.9999999999999999,70.28639296824615
8.296,1.0,70.15702559306858
8.304,1.0,70.02759343995686
8.312,1.0,69.8980964779538
8.32,1.0,69.76853467631983
8.328,1.0,69.63890800453403
8.336,0.9999999999999999,69.50921643229499
8.344,1.0,69.3794599295218
8.352,1.0,69.24963846635485
8.36,0.9999999999999999,69.11975201315703
8.368,1.0,68.9898005405143
8.376,1.0,68.85978401923695
8.384,0.9999999999999999,68.72970242036027
8.392,1.0,68.59955571514563
8.4,1.0,68.46934387508134
8.408,1.0,68.33906687188362
8.416,1.0,68.20872467749744
8.424,1.0,68.07831726409759
8.432,1.0,67.94784460408935
8.44,1.0,67.81730667010973
8.448,1.0,67.68670343502808
8.456,0.9999999999999999,67.55603487194729
8.464,1.0,67.42530095420443
8.472,1.0,67.29450165537193
8.48,0.9999999999999999,67.16363694925826
8.488,0.9999999999999999,67.03270680990903
8.496,0.9999999999999999,66.90171121160778
8.504,1.0,66.77065012887697
8.512,0.9999999999999999,66.63952353647873
8.52,1.0,66.50833140941616
8.528,1.0,66.37707372293364
8.536,1.0,66.24575045251835
8.544,1.0,66.1143615739007
8.552,0.9999999999999998,65.98290706305546
8.56,1.0,65.85138689620267
8.568,1.0,65.71980104980852
8.576,1.0,65.5881495005861
8.584,0.9999999999999999,65.45643222549653
8.592,1.0,65.32464920174966
8.6,1.0,65.19280040680513
8.608,0.9999999999999999,65.0608858183731
8.616,1.0,64.92890541441525
8.624,1.0,64.79685917314566
8.632,0.9999999999999999,64.66474707303166
8.64,1.0,64.53256909279466
8.648,0.9999999999999999,64.40032521141123
8.656,1.0,64.26801540811373
8.664,0.9999999999999999,64.13563966239138
8.672,1.0,64.00319795399106
8.68,1.0,63.8706902629182
8.688,0.9999999999999999,63.73811656943759
8.696,1.0,63.60547685407441
8.704,1.0,63.47277109761489
8.712,1.0,63.33999928110738
8.72,0.9999999999999999,63.207161385863046
8.728,1.0,63.074257393456875
8.736,0.9999999999999999,62.9412872857284
8.744,1.0,62.8082510447827
8.752,1.0,62.67514865299109
8.76,1.0,62.5419800929922
8.768,1.0,62.40874534769252
8.776,1.0,62.275444400267624
8.784,1.0,62.142077234162606
8.792,1.0,62.00864383309335
8.8,1.0,61.87514418104695
8.808,0.9999999999999999,61.74157826228291
8.815999999999999,1.0,61.60794606133377
8.824,0.9999999999999999,61.47424756300592
8.832,0.9999999999999999,61.340482752380666
8.84,0.9999999999999999,61.20665161481477
8.847999999999999,1.0,61.072754135941466
8.856,1.0,60.93879030167115
8.864,1.0,60.804760098192354
8.872,0.9999999999999999,60.670663511972506
8.879999999999999,1.0,60.53650052975861
8.888,1.0,60.402271138578215
8.896,1.0,60.267975325740196
8.904,0.9999999999999999,60.13361307883558
8.911999999999999,1.0,59.999184385738204
8.92,0.9999999999999999,59.86468923460565
8.928,0.9999999999999999,59.73012761388006
8.936,1.0,59.595499512288875
8.943999999999999,0.9999999999999999,59.4608049188456
8.952,1.0,59.32604382285055
8.96,1.0,59.19121621389184
8.968,1.0,59.05632208184598
8.975999999999999,0.9999999999999999,58.921361416878675
8.984,1.0,58.786334209445585
8.992,1.0,58.65124045029321
9.0,1.0,58.51608013045958
9.008,1.0000000000000002,58.38085324127496
9.016,1.0,58.24555977436266
9.024000000000001,0.9999999999999999,58.110199721639866
9.032,1.0,57.97477307531832
9.04,1.0,57.83927982790499
9.048,1.0,57.70371997220292
9.056000000000001,0.9999999999999999,57.568093501312006
9.064,1.0,57.43240040862967
9.072,1.0,57.29664068785151
9.08,1.0,57.16081433297216
9.088000000000001,1.0000000000000002,57.02492133828601
9.096,0.9999999999999999,56.88896169838788
9.104,1.0,56.75293540817368
9.112,1.0,56.6168424628412
9.120000000000001,1.0,56.48068285789088
9.128,0.9999999999999999,56.344456589126445
9.136,1.0,56.208163652655486
9.144,1.0,56.07180404489033
9.152000000000001,1.0,55.93537776254869
9.16,0.9999999999999999,55.7988848026544
9.168,1.0,55.66232516253791
9.176,1.0,55.52569883983716
9.184000000000001,1.0,55.38900583249815
9.192,1.0,55.25224613877574
9.2,0.9999999999999999,55.11541975723408
9.208,1.0,54.978526686747486
9.216000000000001,1.0,54.841566926501
9.224,1.0,54.704540475991145
9.232,0.9999999999999999,54.567447335026365
9.24,0.9999999999999999,54.43028750372783
9.248000000000001,0.9999999999999998,54.29306098253008
9.256,1.0,54.15576777218158
9.264,1.0,54.01840787374538
9.272,1.0,53.880981288599685
9.280000000000001,1.0,53.743488018438605
9.288,1.0,53.60592806527267
9.296,0.9999999999999999,53.46830143142942
9.304,1.0,53.33060811955401
9.312000000000001,1.0,53.19284813260988
9.32,1.0,53.055021473879364
9.328,1.0,52.91712814696411
9.336,0.9999999999999999,52.77916815578579
9.344,1.0,52.641141504586685
9.352,1.0,52.50304819793017
9.36,0.9999999999999999,52.36488824070143
9.368,1.0000000000000002,52.226661638107785
9.376,0.9999999999999999,52.08836839567949
9.384,1.0,51.950008519270085
9.392,0.9999999999999999,51.811582015057105
9.4,1.0,51.67308888954245
9.408,1.0,51.534529149553116
9.416,1.0,51.395902802241466
9.424,1.0,51.25720985508601
9.432,1.0000000000000002,51.11845031589171
9.44,0.9999999999999999,50.97962419279064
9.448,1.0,50.84073149424236
9.456,1.0,50.70177222903456
9.464,0.9999999999999999,50.56274640628335
9.472,1.0,50.42365403543401
9.48,1.0,50.284495126261106
9.488,0.9999999999999999,50.14526968886939
9.496,1.0,50.00597773369389
9.504,1.0,49.86661927150061
9.512,1.0,49.72719431338684
9.52,0.9999999999999999,49.58770287078169
9.528,1.0,49.448144955446466
9.536,1.0,49.3085205794752
9.544,1.0,49.168829755294894
9.552,0.9999999999999999,49.02907249566619
9.56,1.0,48.889248813683515
9.568,1.0,48.749358722775796
9.576,1.0,48.60940223670644
9.584,1.0,48.469379369574234
9.592,0.9999999999999999,48.32929013581326
9.6,0.9999999999999999,48.18913455019363
9.608,1.0,48.04891262782159
9.616,1.0000000000000002,47.908624384140154
9.624,0.9999999999999999,47.768269834929136
9.632,1.0,47.62784899630585
9.64,0.9999999999999999,47.48736188472514
9.648,0.9999999999999999,47.34680851698001
9.656,0.9999999999999999,47.20618891020166
9.664,1.0,47.06550308186008
9.672,1.0,46.92475104976415
9.68,0.9999999999999999,46.78393283206209
9.688,0.9999999999999998,46.64304844724168
9.696,1.0,46.50209791413064
9.704,0.9999999999999999,46.36108125189676
9.712,1.0,46.219998480048375
9.72,0.9999999999999999,46.07884961843447
9.728,1.0,45.937634687245065
9.736,1.0,45.796353707011335
9.744,1.0,45.65500669860607
9.752,1.0,45.51359368324363
9.76,1.0,45.37211468248047
9.768,0.9999999999999999,45.23056971821511
9.776,0.9999999999999999,45.08895881268857
9.784,1.0,44.94728198848437
9.792,1.0,44.80553926852895
9.8,1.0,44.663730676091646
9.808,1.0,44.521856234785055
9.816,1.0,44.37991596856506
9.824,0.9999999999999999,44.23790990173116
9.832,0.9999999999999998,44.09583805892642
9.84,0.9999999999999999,43.95370046513789
9.847999999999999,1.0,43.81149714569651
9.856,1.0,43.66922812627728
9.864,0.9999999999999998,43.52689343289957
9.872,1.0,43.384493091927084
9.879999999999999,1.0,43.242027130067946
9.888,0.9999999999999999,43.099495574374835
9.896,1.0,42.95689845224516
9.904,1.0,42.814235791421076
9.911999999999999,0.9999999999999999,42.67150761998952
9.92,1.0,42.528713966382284
9.928,1.0000000000000002,42.3858548593762
9.936,0.9999999999999999,42.24293032809305
9.943999999999999,1.0,42.09994040199965
9.952,1.0,41.95688511090784
9.96,1.0,41.8137644849746
9.968,1.0,41.670578554702054
9.975999999999999,0.9999999999999999,41.52732735093733
9.984,1.0,41.384010904872675
9.992,1.0,41.24062924804544
10.0,1.0,41.09718241233813
10.008,0.9999999999999999,40.953670429978125
10.016,1.0,40.8100933335378
10.024000000000001,0.9999999999999999,40.66645115593461
10.032,0.9999999999999999,40.522743930430764
10.04,1.0,40.378971690633314
10.048,1.0,40.23513447049396
10.056000000000001,1.0,40.091232304309145
10.064,0.9999999999999999,39.94726522671984
10.072,1.0,39.80323327271139
10.08,1.0,39.659136477613416
10.088000000000001,1.0000000000000002,39.5149748770998
10.096,1.0,39.370748507188495
10.104,0.9999999999999999,39.22645740424125
10.112,1.0,39.08210160496357
10.120000000000001,0.9999999999999999,38.93768114640459
10.128,1.0,38.793196065956884
10.136,0.9999999999999999,38.64864640135614
10.144,0.9999999999999999,38.50403219068103
10.152000000000001,1.0,38.35935347235316
10.16,0.9999999999999999,38.21461028513667
10.168,1.0,38.06980266813805
10.176,0.9999999999999999,37.92493066080589
10.184000000000001,0.9999999999999999,37.77999430293074
10.192,1.0,37.63499363464475
10.2,1.0,37.489928696421394
10.208,0.9999999999999999,37.3447995290752
10.216000000000001,1.0,37.19960617376156
10.224,0.9999999999999999,37.05434867197637
10.232,1.0,36.90902706555562
10.24,1.0,36.76364139667516
10.248000000000001,0.9999999999999999,36.61819170785049
10.256,0.9999999999999999,36.47267804193625
10.264,1.0,36.32710044212588
10.272,1.0000000000000002,36.18145895195131
10.280000000000001,1.0,36.035753615282594
10.288,1.0,35.88998447632758
10.296,1.0,35.74415157963133
10.304,1.0,35.59825497007588
10.312000000000001,1.0,35.452294692879775
10.32,1.0,35.30627079359773
10.328,1.0,35.16018331811999
10.336,0.9999999999999999,35.014032312672
10.344000000000001,0.9999999999999999,34.86781782381401
10.352,1.0,34.72153989844059
10.36,0.9999999999999999,34.575198583779965
10.368,1.0,34.42879392739372
10.376000000000001,1.0,34.28232597717627
10.384,1.0,34.1357947813543
10.392,1.0,33.98920038848622
10.4,1.0,33.84254284746162
10.408000000000001,1.0,33.69582220750088
10.416,1.0,33.549038518154404
10.424,1.0,33.40219182930217
10.432,1.0,33.25528219115304
10.440000000000001,1.0,33.10830965424436
10.448,0.9999999999999999,32.961274269441205
10.456,0.9999999999999999,32.81417608793574
10.464,0.9999999999999999,32.66701516124664
10.472000000000001,1.0000000000000002,32.51979154121853
10.48,1.0,32.37250528002126
10.488,1.0,32.22515643014918
10.496,1.0,32.07774504442053
10.504000000000001,0.9999999999999999,31.930271175976827
10.512,1.0,31.78273487828208
10.52,1.0,31.63513620512206
10.528,1.0,31.487475210603566
10.536000000000001,1.0,31.339751949153893
10.544,0.9999999999999999,31.191966475519813
