freq,mag,phase
6.0,0.9999981838473594,-128.28370424418438
6.008,0.9999984212067613,-128.60114057880412
6.016,0.999998640277409,-128.91786449332315
6.024,0.9999988415278832,-129.23388036848633
6.032,0.9999990254196504,-129.54919258292773
6.04,0.9999991924071332,-129.86380551292064
6.048,0.999999342937778,-130.1777235321334
6.056,0.9999994774521237,-130.4909510113918
6.064,0.9999995963838707,-130.80349231844696
6.072,0.9999997001599495,-131.11535181775
6.08,0.9999997892005889,-131.4265338702319
6.088,0.9999998639193841,-131.73704283308965
6.096,0.9999999247233647,-132.04688305957788
6.104,0.9999999720130639,-132.3560588988063
6.112,0.9999999999999999,-132.66457469554265
6.12,0.9999999999999999,-132.972434790021
6.128,1.0,-133.27964351775583
6.136,1.0,-133.586205209361
6.144,0.9999999999999999,-133.8921241903742
6.152,0.9999999935795395,-134.1974047810867
6.16,0.9999999569525816,-134.50205129637777
6.168,0.9999999097897851,-134.8060680455545
6.176,0.9999998524362297,-135.1094593321963
6.184,0.9999997852311637,-135.41222945400463
6.192,0.999999708508071,-135.71438270265676
6.2,0.9999996225947347,-136.01592336366522
6.208,0.9999995278133025,-136.31685571624098
6.216,0.9999994244803505,-136.61718403316178
6.224,0.9999993129069458,-136.9169125806446
6.232,0.9999991933987123,-137.21604561822272
6.24,0.9999990662558926,-137.51458739862724
6.248,0.999998931773409,-137.81254216767226
6.256,0.9999987902409294,-138.1099141641451
6.264,0.9999986419429262,-138.40670761969997
6.272,0.9999984871587381,-138.7029267587562
6.28,0.9999983261626331,-138.99857579839994
6.288,0.9999981592238678,-139.2936589482903
6.296,0.9999979866067471,-139.58818041056887
6.304,0.9999978085706855,-139.88214437977356
6.312,0.9999976253702658,-140.17555504275575
6.32,0.9999974372552975,-140.46841657860108
6.328,0.9999972444708763,-140.7607331585543
6.336,0.9999970472574421,-141.05250894594715
6.344,0.9999968458508354,-141.34374809613004
6.352,0.9999966404823566,-141.63445475640688
6.36,0.9999964313788212,-141.92463306597372
6.368,0.9999962187626162,-142.21428715586
6.376,0.999996002851757,-142.50342114887388
6.384,0.999995783859941,-142.79203915954997
6.392,0.999995561996605,-143.0801452941007
6.4,0.999995337466977,-143.36774365037053
6.408,0.9999951104721321,-143.6548383177933
6.416,0.9999948812090449,-143.94143337735247
6.424,0.999994649870644,-144.22753290154427
6.432,0.9999944166458622,-144.51314095434375
6.44,0.9999941817196916,-144.79826159117357
6.448,0.999993945273232,-145.0828988588757
6.456,0.9999937074837452,-145.36705679568547
6.464,0.999993468524703,-145.65073943120888
6.472,0.9999932285658402,-145.93395078640182
6.48,0.9999929877732013,-146.21669487355229
6.4879999999999995,0.9999927463091921,-146.49897569626503
6.496,0.9999925043326287,-146.7807972494488
6.504,0.9999922619987827,-147.0621635193053
6.5120000000000005,0.9999920194594332,-147.34307848332185
6.52,0.9999917768629114,-147.62354611026473
6.5280000000000005,0.9999915343541487,-147.90357036017642
6.536,0.9999912920747227,-148.18315518437373
6.5440000000000005,0.9999910501629043,-148.46230452544918
6.552,0.9999908087537009,-148.74102231727358
6.5600000000000005,0.9999905679789044,-149.01931248500173
6.568,0.9999903279671334,-149.29717894507925
6.5760000000000005,0.9999900888438785,-149.57462560525215
6.584,0.9999898507315462,-149.85165636457785
6.592,0.9999896137495017,-150.12827511343875
6.6,0.9999893780141115,-150.40448573355707
6.608,0.9999891436387861,-150.68029209801196
6.616,0.9999889107340221,-150.95569807125852
6.624,0.9999886794074428,-151.23070750914835
6.632,0.9999884497638402,-151.50532425895187
6.64,0.999988221905215,-151.77955215938286
6.648,0.9999879959308162,-152.05339504062403
6.656,0.9999877719371824,-152.3268567243546
6.664,0.9999875500181793,-152.5999410237797
6.672,0.9999873302650395,-152.87265174366095
6.68,0.9999871127664003,-153.14499268034882
6.688,0.9999868976083419,-153.4169676218166
6.696,0.9999866848744253,-153.68858034769588
6.704,0.9999864746457291,-153.95983462931315
6.712,0.9999862670008853,-154.2307342297284
6.72,0.9999860620161172,-154.50128290377464
6.728,0.9999858597652743,-154.77148439809926
6.736,0.9999856603198674,-155.04134245120622
6.744,0.9999854637491042,-155.31086079350007
6.752,0.9999852701199246,-155.58004314733103
6.76,0.9999850794970325,-155.84889322704126
6.768,0.9999848919429329,-156.11741473901267
6.776,0.999984707517963,-156.38561138171576
6.784,0.9999845262803255,-156.65348684575955
6.792,0.9999843482861226,-156.9210448139429
6.8,0.9999841735893861,-157.1882889613069
6.808,0.9999840022421117,-157.45522295518853
6.816,0.9999838342942885,-157.7218504552749
6.824,0.9999836697939316,-157.98817511365934
6.832,0.9999835087871116,-158.25420057489796
6.84,0.9999833513179854,-158.51993047606734
6.848,0.9999831974288271,-158.7853684468236
6.856,0.999983047160057,-159.05051810946193
6.864,0.9999829005502698,-159.31538307897748
6.872,0.9999827576362654,-159.57996696312696
6.88,0.9999826184530763,-159.84427336249138
6.888,0.999982483033997,-160.10830587053954
6.896,0.9999823514106101,-160.37206807369245
6.904,0.9999822236128149,-160.63556355138857
6.912,0.9999820996688553,-160.8987958761501
6.92,0.9999819796053458,-161.1617686136499
6.928,0.9999818634472973,-161.42448532277916
6.936,0.9999817512181455,-161.6869495557162
6.944,0.9999816429397741,-161.9491648579957
6.952,0.9999815386325432,-162.21113476857886
6.96,0.9999814383153118,-162.47286281992436
6.968,0.9999813420054651,-162.73435253805985
6.976,0.9999812497189372,-162.99560744265432
6.984,0.9999811614702371,-163.25663104709128
6.992,0.9999810772724713,-163.51742685854214
7.0,0.9999809971373681,-163.77799837804093
7.008,0.9999809210753012,-164.03834910055906
7.016,0.9999808490953125,-164.2984825150812
7.024,0.9999807812051353,-164.5584021046814
7.032,0.9999807174112155,-164.81811134660015
7.04,0.999980657718736,-165.07761371232172
7.048,0.999980602131638,-165.33691266765243
7.056,0.9999805506526402,-165.5960116727991
7.064,0.9999805032832639,-165.85491418244848
7.072,0.9999804600238518,-166.11362364584693
7.08,0.9999804208735903,-166.3721435068806
7.088,0.9999803858305275,-166.63047720415648
7.096,0.999980354891597,-166.88862817108355
7.104,0.9999803280526357,-167.14659983595473
7.112,0.9999803053084041,-167.40439562202903
7.12,0.9999802866526061,-167.6620189476147
7.128,0.9999802720779075,-167.91947322615206
7.136,0.9999802615759568,-168.1767618662975
7.144,0.999980255137402,-168.43388827200766
7.152,0.9999802527519105,-168.69085584262385
7.16,0.9999802544081864,-168.94766797295725
7.168,0.9999802600939904,-169.20432805337433
7.176,0.9999802697961544,-169.4608394698826
7.184,0.999980283500603,-169.717205604217
7.192,0.999980301192368,-169.97342983392653
7.2,0.9999803228556069,-170.22951553246114
7.208,0.9999803484736195,-170.48546606925933
7.216,0.9999803780288646,-170.74128480983578
7.224,0.9999804115029766,-170.99697511586947
7.232,0.9999804488767814,-171.25254034529212
7.24,0.999980490130313,-171.50798385237718
7.248,0.9999805352428298,-171.7633089878288
7.256,0.9999805841928288,-172.0185190988712
7.264,0.9999806369580623,-172.27361752933874
7.272,0.9999806935155522,-172.52860761976575
7.28,0.9999807538416071,-172.78349270747705
7.288,0.9999808179118338,-173.03827612667854
7.296,0.9999808857011552,-173.2929612085483
7.304,0.999980957183823,-173.54755128132774
7.312,0.9999810323334319,-173.80204967041323
7.32,0.9999811111229356,-174.05645969844775
7.328,0.9999811935246586,-174.31078468541315
7.336,0.9999812795103097,-174.5650279487223
7.344,0.9999813690509985,-174.81919280331184
7.352,0.9999814621172456,-175.07328256173477
7.36,0.9999815586789972,-175.3273005342538
7.368,0.9999816587056388,-175.58125002893433
7.376,0.9999817621660063,-175.8351343517382
7.384,0.9999818690284007,-176.08895680661738
7.392,0.9999819792605984,-176.34272069560788
7.4,0.9999820928298663,-176.596429318924
7.4079999999999995,0.9999822097029717,-176.8500859750526
7.416,0.9999823298461951,-177.10369396084786
7.4239999999999995,0.999982453225343,-177.3572565716258
7.432,0.9999825798057584,-177.61077710125963
7.4399999999999995,0.9999827095523333,-177.86425884227452
7.448,0.9999828424295195,-178.11770508594316
7.4559999999999995,0.9999829784013401,-178.37111912238126
7.464,0.9999831174314008,-178.62450424064326
7.4719999999999995,0.9999832594829016,-178.8778637288181
7.48,0.9999834045186458,-179.13120087412548
7.4879999999999995,0.9999835525010535,-179.3845189630116
7.496,0.9999837033921689,-179.63782128124606
7.504,0.9999838571536743,-179.89111111401803
7.5120000000000005,0.9999840137468973,179.85560825396712
7.52,0.9999841731328232,179.60233353839084
7.5280000000000005,0.9999843352721037,179.3490614552245
7.536,0.9999845001250686,179.09578872063267
7.5440000000000005,0.9999846676517327,178.84251205087526
7.552,0.9999848378118096,178.589228162211
7.5600000000000005,0.999985010564717,178.33593377079913
7.568,0.99998518586959,178.08262559260268
7.5760000000000005,0.9999853636852867,177.82930034329002
7.584,0.9999855439704007,177.57595473813763
7.5920000000000005,0.9999857266832693,177.32258549193193
7.6,0.9999859117819813,177.0691893188714
7.6080000000000005,0.9999860992243864,176.81576293246815
7.616,0.9999862889681063,176.56230304545028
7.6240000000000006,0.9999864809705391,176.308806369663
7.632,0.9999866751888725,176.05526961597064
7.640000000000001,0.9999868715800886,175.801689494158
7.648,0.9999870701009743,175.54806271283192
7.656000000000001,0.9999872707081289,175.29438597932233
7.664,0.999987473357973,175.04065599958412
7.672,0.9999876780067551,174.7868694780977
7.68,0.9999878846105614,174.53302311777068
7.688,0.9999880931253221,174.2791136198387
7.696,0.999988303506821,174.02513768376662
7.704,0.9999885157107016,173.77109200714926
7.712,0.9999887296924747,173.5169732856127
7.72,0.9999889454075278,173.26277821271475
7.728,0.9999891628111308,173.0085034798462
7.736,0.9999893818584439,172.7541457761313
7.744,0.999989602504525,172.49970178832876
7.752,0.9999898247043366,172.24516820073234
7.76,0.9999900484127537,171.99054169507156
7.768,0.9999902735845703,171.7358189504126
7.776,0.999990500174506,171.48099664305877
7.784,0.999990728137213,171.2260714464512
7.792,0.9999909574272843,170.9710400310695
7.8,0.9999911879992591,170.7158990643325
7.808,0.9999914198076292,170.46064521049885
7.816,0.999991652806847,170.20527513056763
7.824,0.9999918869513307,169.94978548217898
7.832,0.9999921221954715,169.69417291951495
7.84,0.9999923584936401,169.43843409320002
7.848,0.9999925958001922,169.18256565020184
7.856,0.9999928340694764,168.92656423373214
7.864,0.9999930732558384,168.6704264831473
7.872,0.9999933133136285,168.41414903384938
7.88,0.9999935541972076,168.1577285171867
7.888,0.9999937958609524,167.90116156035512
7.896,0.9999940382592629,167.64444478629872
7.904,0.9999942813465664,167.38757481361094
7.912,0.9999945250773253,167.13054825643576
7.92,0.999994769406041,166.87336172436875
7.928,0.9999950142872615,166.61601182235833
7.936,0.9999952596755852,166.35849515060718
7.944,0.9999955055256691,166.10080830447365
7.952,0.9999957517922314,165.84294787437324
7.96,0.9999959984300594,165.58491044568032
7.968,0.999996245394014,165.32669259862968
7.976,0.999996492639035,165.06829090821864
7.984,0.9999967401201474,164.8097019441089
7.992,0.9999969877924649,164.5509222705286
8.0,0.9999972356111986,164.29194844617467
8.008,0.9999974835316583,164.0327770241153
8.016,0.9999977315092605,163.77340455169218
8.024000000000001,0.9999979794995328,163.51382757042364
8.032,0.9999982274581185,163.2540426159073
8.04,0.9999984753407822,162.99404621772314
8.048,0.9999987231034156,162.73383489933664
8.056000000000001,0.9999989707020409,162.4734051780026
8.064,0.9999992180928173,162.21275356466845
8.072,0.9999994652320451,161.9518765638783
8.08,0.9999997120761709,161.6907706736767
8.088000000000001,0.9999999585817927,161.4294323855136
8.096,0.9999999999999999,161.16785818414823
8.104,1.0,160.9060445475544
8.112,1.0,160.64398794682515
8.120000000000001,1.0,160.3816848460785
8.128,1.0,160.11913170236298
8.136,1.0,159.85632496556326
8.144,1.0,159.59326107830663
8.152000000000001,1.0,159.32993647586957
8.16,0.9999999999999999,159.06634758608465
8.168,1.0,158.8024908292474
8.176,1.0,158.53836261802417
8.184000000000001,0.9999999999999999,158.27395935736007
8.192,1.0,158.00927744438715
8.2,1.0,157.74431326833312
8.208,1.0,157.4790632104302
8.216000000000001,1.0,157.21352364382528
8.224,0.9999999999999999,156.9476909334892
8.232,1.0,156.68156143612737
8.24,1.0,156.41513150009055
8.248000000000001,1.0,156.14839746528637
8.256,0.9999999999999999,155.88135566309097
8.264,0.9999999999999998,155.61400241626126
8.272,1.0,155.34633403884771
8.280000000000001,0.9999999999999998,155.07834683610804
8.288,1.0,154.8100371044209
8.296,0.9999999999999999,154.54140113120016
8.304,1.0,154.27243519481036
8.312,1.0,154.0031355644823
8.32,1.0,153.7334985002291
8.328,0.9999999999999999,153.46352025276363
8.336,1.0,153.1931970634155
8.344,0.9999999999999999,152.92252516405003
8.352,1.0,152.65150077698655
8.36,1.0,152.38012011491887
8.368,0.9999999999999999,152.108379380835
8.376,1.0,151.836274767939
8.384,1.0,151.56380245957243
8.392,1.0,151.29095862913775
8.4,0.9999999999999999,151.01773944002133
8.408,1.0,150.7441410455186
8.416,1.0,150.47015958875886
8.424,1.0000000000000002,150.19579120263202
8.432,0.9999999999999999,149.92103200971525
8.44,0.9999999999999999,149.64587812220185
8.448,1.0,149.3703256418296
8.456,0.9999999999999999,149.0943706598116
8.464,1.0,148.8180092567668
8.472,1.0,148.54123750265282
8.48,1.0,148.26405145669858
8.488,1.0,147.98644716733932
8.496,1.0,147.7084206721517
8.504,1.0,147.4299679977908
8.512,0.9999999999999999,147.15108515992785
8.52,1.0,146.87176816318956
8.528,1.0,146.59201300109825
8.536,1.0,146.31181565601392
8.544,1.0,146.0311720990768
8.552,1.0,145.7500782901524
8.56,0.9999999999999999,145.46853017777656
8.568,1.0,145.18652369910322
8.576,1.0,144.90405477985271
8.584,1.0,144.62111933426235
8.592,1.0,144.33771326503754
8.6,0.9999999999999998,144.05383246330578
8.608,1.0,143.76947280857092
8.616,1.0,143.4846301686701
8.624,1.0,143.1993003997317
8.632,1.0,142.91347934613572
8.64,1.0,142.62716284047485
8.648,0.9999999999999999,142.34034670351886
8.656,1.0,142.05302674417902
8.664,1.0,141.76519875947645
8.672,1.0,141.4768585345103
8.68,0.9999999999999998,141.18800184242994
8.688,0.9999999999999999,140.8986244444074
8.696,1.0,140.6087220896134
8.704,1.0,140.31829051519418
8.712,1.0,140.02732544625172
8.72,1.0,139.73582259582506
8.728,1.0,139.44377766487491
8.736,1.0,139.15118634226968
8.744,1.0,138.8580443047748
8.752,1.0,138.56434721704343
8.76,0.9999999999999999,138.27009073161065
8.768,1.0,137.97527048888946
8.776,0.9999999999999998,137.67988211716994
8.784,0.9999999999999999,137.38392123262037
8.792,1.0000000000000002,137.08738343929187
8.8,0.9999999999999999,136.7902643291251
8.808,1.0,136.49255948196037
8.815999999999999,0.9999999999999999,136.19426446554988
8.824,1.0,135.89537483557382
8.832,1.0,135.59588613565882
8.84,1.0,135.2957938973997
8.847999999999999,0.9999999999999999,134.99509364038434
8.856,1.0,134.69378087222157
8.864,0.9999999999999999,134.3918510885728
8.872,1.0,134.08929977318658
8.879999999999999,0.9999999999999999,133.7861223979364
8.888,1.0,133.48231442286243
8.896,1.0,133.17787129621675
8.904,1.0,132.8727884545118
8.911999999999999,1.0,132.56706132257275
8.92,0.9999999999999999,132.2606853135936
8.928,1.0,131.95365582919757
8.936,0.9999999999999999,131.64596825950045
8.943999999999999,1.0,131.33761798317863
8.952,1.0,131.02860036754117
8.96,1.0,130.71891076860584
8.968,0.9999999999999998,130.40854453117942
8.975999999999999,0.9999999999999999,130.09749698894214
8.984,1.0,129.78576346453693
8.992,0.9999999999999999,129.47333926966286
9.0,1.0,129.16021970517323
9.008,1.0,128.846400061178
9.016,0.9999999999999999,128.5318756171515
9.024000000000001,1.0,128.21664164204478
9.032,0.9999999999999999,127.90069339440242
9.04,0.9999999999999999,127.58402612248499
9.048,1.0,127.26663506439616
9.056000000000001,0.9999999999999999,126.94851544821539
9.064,1.0,126.62966249213557
9.072,1.0,126.31007140460592
9.08,1.0,125.989737384481
9.088000000000001,1.0,125.66865562117461
9.096,1.0,125.34682129482006
9.104,1.0,125.02422957643512
9.112,1.0,124.70087562809411
9.120000000000001,0.9999999999999999,124.3767546031054
9.128,1.0,124.05186164619472
9.136,0.9999999999999999,123.72619189369512
9.144,1.0,123.39974047374281
9.152000000000001,1.0,123.0725025064801
9.16,0.9999999999999999,122.7444731042641
9.168,0.9999999999999999,122.41564737188224
9.176,1.0,122.08602040677465
9.184000000000001,1.0,121.75558729926372
9.192,1.0,121.42434313278997
9.2,1.0,121.09228298415503
9.208,1.0,120.75940192377249
9.216000000000001,1.0,120.42569501592543
9.224,0.9999999999999999,120.09115731903162
9.232,0.9999999999999999,119.75578388591605
9.24,1.0,119.4195697640912
9.248000000000001,0.9999999999999999,119.0825099960455
9.256,1.0000000000000002,118.74459961953913
9.264,1.0,118.40583366790788
9.272,1.0,118.06620717037534
9.280000000000001,1.0,117.72571515237371
9.288,1.0,117.38435263587222
9.296,1.0,117.04211463971448
9.304,0.9999999999999999,116.69899617996451
9.312000000000001,1.0,116.35499227026159
9.32,1.0,116.0100979221838
9.328,0.9999999999999999,115.66430814562052
9.336,0.9999999999999999,115.31761794915425
9.344,1.0,114.97002234045198
9.352,1.0,114.62151632666514
9.36,1.0,114.27209491484012
9.368,1.0,113.92175311233741
9.376,0.9999999999999999,113.57048592726169
9.384,0.9999999999999999,113.21828836890045
9.392,0.9999999999999999,112.86515544817419
9.4,1.0,112.51108217809532
9.408,1.0,112.15606357423884
9.416,0.9999999999999999,111.80009465522195
9.424,1.0,111.44317044319578
9.432,1.0,111.08528596434633
9.44,0.9999999999999998,110.72643624940764
9.448,0.9999999999999999,110.36661633418477
9.456,0.9999999999999999,110.00582126008878
9.464,1.0,109.64404607468207
9.472,1.0,109.28128583223616
9.48,0.9999999999999999,108.9175355942997
9.488,1.0,108.55279043027934
9.496,0.9999999999999998,108.18704541803123
9.504,0.9999999999999999,107.82029564446532
9.512,1.0,107.45253620616086
9.52,1.0,107.08376220999479
9.528,1.0,106.71396877378149
9.536,1.0,106.34315102692595
9.544,1.0,105.97130411108819
9.552,1.0,105.59842318086162
9.56,1.0,105.22450340446271
9.568,0.9999999999999999,104.84953996443494
9.576,1.0,104.47352805836427
9.584,1.0,104.09646289960901
9.592,1.0,103.71833971804158
9.6,1.0,103.33915376080479
9.608,1.0,102.9589002930803
9.616,0.9999999999999999,102.57757459887172
9.624,0.9999999999999999,102.19517198180006
9.632,1.0,101.81168776591421
9.64,1.0,101.42711729651377
9.648,0.9999999999999999,101.04145594098716
9.656,0.9999999999999999,100.65469908966223
9.664,0.9999999999999999,100.26684215667241
9.672,1.0,99.87788058083541
9.68,0.9999999999999999,99.48780982654766
9.688,1.0,99.09662538469149
9.696,1.0,98.70432277355813
9.704,0.9999999999999998,98.31089753978354
9.712,1.0,97.91634525930033
9.72,1.0,97.52066153830253
9.728,0.9999999999999999,97.12384201422654
9.736,0.9999999999999999,96.725882356745
9.744,1.0,96.326778268777
9.752,0.9999999999999999,95.92652548751128
9.76,1.0,95.52511978544571
9.768,0.9999999999999999,95.12255697143996
9.776,0.9999999999999999,94.7188328917844
9.784,1.0,94.31394343128225
9.792,0.9999999999999999,93.9078845143479
9.8,1.0,93.50065210611855
9.808,0.9999999999999999,93.09224221358204
9.816,0.9999999999999999,92.68265088671781
9.824,0.9999999999999998,92.27187421965414
9.832,1.0,91.85990835183846
9.84,0.9999999999999999,91.44674946922379
9.847999999999999,1.0,91.03239380546826
9.856,0.9999999999999999,90.61683764315012
9.864,0.9999999999999999,90.20007731499702
9.872,1.0,89.78210920512927
9.879999999999999,1.0,89.36292975031736
9.888,0.9999999999999999,88.94253544125398
9.896,0.9999999999999999,88.52092282384007
9.904,0.9999999999999999,88.09808850048455
9.911999999999999,1.0,87.67402913141763
9.92,1.0,87.24874143601836
9.928,1.0,86.82222219415563
9.936,1.0,86.39446824754206
