freq,mag,phase
6.0,0.9999864205122992,-142.93240944035568
6.008,0.999986174394113,-143.37754110247502
6.016,0.9999859230845028,-143.82250384606982
6.024,0.9999856670976378,-144.26729796445346
6.032,0.9999854069367675,-144.71192376384292
6.04,0.9999851430943031,-145.15638156325275
6.048,0.9999848760518977,-145.60067169438858
6.056,0.9999846062805289,-146.04479450154102
6.064,0.9999843342405814,-146.48875034147878
6.072,0.9999840603819303,-146.93253958334242
6.08,0.9999837851440254,-147.37616260853747
6.088,0.9999835089559772,-147.81961981062804
6.096,0.9999832322366402,-148.26291159522978
6.104,0.999982955394702,-148.70603837990345
6.112,0.9999826788287695,-149.14900059404792
6.12,0.9999824029274517,-149.59179867879368
6.128,0.999982128069457,-150.034433086896
6.136,0.9999818546236725,-150.4769042826283
6.144,0.9999815829492619,-150.91921274167538
6.152,0.9999813133957459,-151.36135895102706
6.16,0.9999810463031009,-151.80334340887134
6.168,0.9999807820018444,-152.24516662448832
6.176,0.9999805208131272,-152.6868291181436
6.184,0.999980263048827,-153.12833142098202
6.192,0.9999800090116379,-153.5696740749216
6.2,0.9999797589951632,-154.01085763254747
6.208,0.999979513284008,-154.45188265700583
6.216,0.999979272153871,-154.89274972189864
6.224,0.9999790358716429,-155.33345941117716
6.232,0.9999788046954925,-155.77401231903744
6.24,0.9999785788749679,-156.21440904981415
6.248,0.9999783586510829,-156.65465021787642
6.256,0.9999781442564157,-157.0947364475218
6.264,0.9999779359152043,-157.53466837287246
6.272,0.9999777338434404,-157.9744466377702
6.28,0.9999775382489605,-158.4140718956721
6.288,0.9999773493315463,-158.85354480954672
6.296,0.9999771672830141,-159.29286605176998
6.304,0.999976992287317,-159.7320363040215
6.312,0.9999768245206319,-160.17105625718136
6.32,0.9999766641514648,-160.6099266112269
6.328,0.9999765113407336,-161.04864807512982
6.336,0.9999763662418759,-161.48722136675352
6.344,0.999976229000937,-161.9256472127508
6.352,0.999976099756665,-162.36392634846186
6.36,0.9999759786406132,-162.80205951781232
6.368,0.9999758657772273,-163.2400474732121
6.376,0.9999757612839448,-163.67789097545375
6.384,0.999975665271289,-164.115590793612
6.392,0.9999755778429658,-164.55314770494292
6.4,0.9999754990959577,-164.9905624947837
6.408,0.9999754291206178,-165.4278359564529
6.416,0.9999753680007669,-165.86496889115054
6.424,0.9999753158137855,-166.30196210785917
6.432,0.9999752726307107,-166.73881642324454
6.44,0.9999752385163301,-167.17553266155744
6.448,0.9999752135292723,-167.61211165453523
6.456,0.9999751977221079,-168.04855424130383
6.464,0.9999751911414366,-168.48486126828033
6.472,0.9999751938279869,-168.9210335890759
6.48,0.9999752058167011,-169.35707206439878
6.4879999999999995,0.9999752271368373,-169.79297756195797
6.496,0.9999752578120548,-170.2287509563673
6.504,0.9999752978605144,-170.66439312904913
6.5120000000000005,0.9999753472949614,-171.09990496814004
6.52,0.9999754061228249,-171.53528736839488
6.5280000000000005,0.9999754743463074,-171.97054123109297
6.536,0.9999755519624725,-172.40566746394344
6.5440000000000005,0.9999756389633427,-172.84066698099204
6.552,0.9999757353359829,-173.275540702527
6.5600000000000005,0.9999758410625955,-173.71028955498699
6.568,0.9999759561206086,-174.14491447086752
6.5760000000000005,0.9999760804827645,-174.57941638863002
6.584,0.9999762141172128,-175.01379625260867
6.592,0.9999763569875941,-175.44805501292032
6.6,0.9999765090531305,-175.88219362537285
6.608,0.9999766702687151,-176.3162130513748
6.616,0.9999768405849971,-176.75011425784527
6.624,0.9999770199484704,-177.18389821712432
6.632,0.9999772083015598,-177.6175659068835
6.64,0.9999774055827065,-178.05111831003728
6.648,0.9999776117264555,-178.48455641465424
6.656,0.99997782666354,-178.9178812138694
6.664,0.9999780503209645,-179.35109370579644
6.672,0.9999782826220934,-179.78419489344054
6.68,0.999978523486731,179.78281421538836
6.688,0.9999787728312055,179.34993260816174
6.696,0.9999790305684552,178.91715926771857
6.704,0.9999792966081055,178.4844931723508
6.712,0.9999795708565546,178.05193329588818
6.72,0.9999798532170553,177.6194786077831
6.728,0.9999801435897933,177.1871280731947
6.736,0.9999804418719684,176.75488065307252
6.744,0.9999807479578746,176.32273530424004
6.752,0.9999810617389805,175.8906909794774
6.76,0.9999813831040055,175.45874662760394
6.768,0.9999817119390003,175.02690119356035
6.776,0.9999820481274226,174.59515361849006
6.784,0.9999823915502158,174.1635028398206
6.792,0.9999827420858846,173.7319477913444
6.8,0.9999830996105705,173.30048740329892
6.808,0.9999834639981285,172.86912060244677
6.816,0.9999838351202004,172.43784631215513
6.824,0.9999842128462904,172.00666345247478
6.832,0.9999845970438368,171.5755709402188
6.84,0.9999849875782872,171.14456768904063
6.848,0.9999853843131696,170.71365260951208
6.856,0.9999857871101641,170.28282460920062
6.864,0.9999861958291756,169.85208259274626
6.872,0.9999866103284016,169.4214254619381
6.88,0.9999870304644058,168.99085211579055
6.888,0.9999874560921845,168.56036145061898
6.896,0.999987887065237,168.1299523601149
6.904,0.9999883232356332,167.699623735421
6.912,0.9999887644540819,167.2693744652055
6.92,0.9999892105699963,166.83920343573615
6.928,0.9999896614315621,166.40910953095408
6.936,0.9999901168858015,165.97909163254678
6.944,0.9999905767786398,165.5491486200211
6.952,0.9999910409549684,165.11927937077556
6.96,0.9999915092587108,164.68948276017247
6.968,0.9999919815328825,164.25975766160946
6.976,0.999992457619657,163.83010294659073
6.984,0.9999929373604255,163.4005174847979
6.992,0.9999934205958586,162.97100014416043
7.0,0.999993907165968,162.5415497909255
7.008,0.9999943969101651,162.112165289728
7.016,0.999994889667321,161.6828455036594
7.024,0.9999953852758261,161.25358929433688
7.032,0.9999958835736464,160.82439552197167
7.04,0.9999963843983822,160.39526304543722
7.048,0.999996887587325,159.9661907223369
7.056,0.9999973929775127,159.53717740907135
7.064,0.9999979004057864,159.1082219609054
7.072,0.999998409708844,158.67932323203473
7.08,0.9999989207232954,158.2504800756521
7.088,0.9999994332857159,157.821691344013
7.096,0.9999999472326987,157.3929558885015
7.104,1.0,156.96427255969496
7.112,1.0000000000000002,156.53564020742917
7.12,1.0,156.1070576808625
7.128,1.0,155.67852382854002
7.136,1.0,155.25003749845712
7.144,1.0,154.82159753812306
7.152,0.9999999999999999,154.39320279462365
7.16,1.0,153.9648521146842
7.168,1.0,153.53654434473157
7.176,1.0,153.1082783309563
7.184,0.9999999999999999,152.68005291937405
7.192,0.9999999999999999,152.2518669558871
7.2,0.9999999999999999,151.82371928634518
7.208,0.9999999999999999,151.39560875660595
7.216,1.0,150.9675342125956
7.224,0.9999999999999999,150.5394945003686
7.232,1.0,150.11148846616726
7.24,0.9999999999999999,149.6835149564813
7.248,0.9999999999999999,149.2555728181067
7.256,1.0,148.82766089820439
7.264,1.0,148.3997780443586
7.272,1.0,147.97192310463507
7.28,1.0,147.54409492763864
7.288,0.9999999999999999,147.11629236257073
7.296,0.9999999999999999,146.6885142592866
7.304,1.0,146.26075946835212
7.312,1.0,145.83302684110032
7.32,1.0,145.40531522968772
7.328,1.0,144.9776234871502
7.336,1.0,144.54995046745876
7.344,0.9999999999999999,144.12229502557489
7.352,1.0,143.69465601750576
7.36,1.0,143.26703230035886
7.368,1.0,142.8394227323969
7.376,1.0,142.41182617309173
7.384,1.0,141.98424148317852
7.392,1.0,141.55666752470952
7.4,1.0,141.12910316110754
7.4079999999999995,0.9999999999999999,140.7015472572191
7.416,0.9999999999999999,140.27399867936725
7.4239999999999995,1.0,139.8464562954048
7.432,1.0,139.41891897476594
7.4399999999999995,1.0,138.99138558851928
7.448,0.9999999999999999,138.56385500941883
7.4559999999999995,1.0,138.13632611195672
7.464,1.0,137.70879777241373
7.4719999999999995,1.0,137.28126886891118
7.48,1.0,136.85373828146115
7.4879999999999995,1.0,136.4262048920181
7.496,1.0,135.99866758452833
7.504,1.0,135.57112524498115
7.5120000000000005,0.9999999999999999,135.1435767614581
7.52,0.9999999999999999,134.71602102418345
7.5280000000000005,0.9999999999999999,134.28845692557297
7.536,0.9999999999999999,133.86088336028416
7.5440000000000005,1.0,133.43329922526436
7.552,1.0,133.00570341980054
7.5600000000000005,0.9999999999999999,132.57809484556728
7.568,1.0,132.1504724066757
7.5760000000000005,1.0,131.72283500972122
7.584,0.9999999999999999,131.29518156383227
7.5920000000000005,0.9999999999999999,130.8675109807172
7.6,0.9999999999999999,130.43982217471287
7.6080000000000005,1.0,130.01211406283107
7.616,1.0,129.58438556480664
7.6240000000000006,1.0,129.15663560314363
7.632,1.0,128.72886310316295
7.640000000000001,1.0,128.30106699304807
7.648,1.0,127.87324620389232
7.656000000000001,1.0,127.44539966974429
7.664,1.0,127.01752632765456
7.672,1.0,126.58962511772096
7.68,1.0,126.16169498313458
7.688,0.9999999999999999,125.73373487022515
7.696,0.9999999999999999,125.30574372850623
7.704,0.9999999999999999,124.87772051072042
7.712,1.0,124.44966417288425
7.72,1.0,124.02157367433276
7.728,0.9999999999999998,123.59344797776433
7.736,1.0,123.16528604928489
7.744,1.0,122.73708685845212
7.752,1.0,122.30884937831964
7.76,0.9999999999999999,121.88057258548068
7.768,1.0,121.45225546011196
7.776,0.9999999999999999,121.02389698601708
7.784,1.0,120.59549615067
7.792,0.9999999999999998,120.16705194525812
7.8,0.9999999999999999,119.73856336472545
7.808,0.9999999999999999,119.31002940781539
7.816,1.0,118.88144907711343
7.824,1.0,118.45282137908974
7.832,1.0,118.02414532414164
7.84,0.9999999999999999,117.59541992663567
7.848,1.0,117.16664420494975
7.856,0.9999999999999999,116.73781718151521
7.864,0.9999999999999999,116.3089378828583
7.872,1.0,115.88000533964204
7.88,1.0,115.45101858670758
7.888,0.9999999999999999,115.02197666311555
7.896,1.0,114.59287861218709
7.904,1.0,114.16372348154506
7.912,0.9999999999999999,113.73451032315475
7.92,0.9999999999999998,113.30523819336457
7.928,1.0,112.87590615294675
7.936,1.0,112.44651326713765
7.944,1.0,112.01705860567796
7.952,1.0,111.58754124285298
7.96,0.9999999999999998,111.15796025753248
7.968,1.0,110.72831473321054
7.976,0.9999999999999998,110.29860375804523
7.984,0.9999999999999998,109.86882642489817
7.992,0.9999999999999999,109.43898183137392
8.0,1.0,109.00906907985916
8.008,1.0,108.57908727756191
8.016,0.9999999999999999,108.14903553655023
8.024000000000001,1.0,107.71891297379145
8.032,0.9999999999999999,107.28871871119057
8.04,1.0,106.8584518756287
8.048,1.0,106.4281115990015
8.056000000000001,0.9999999999999999,105.9976970182577
8.064,0.9999999999999999,105.56720727543691
8.072,1.0,105.13664151770752
8.08,0.9999999999999999,104.70599889740456
8.088000000000001,0.9999999999999998,104.2752785720676
8.096,0.9999999999999999,103.8444797044781
8.104,0.9999999999999999,103.41360146269656
8.112,0.9999999999999999,102.9826430200999
8.120000000000001,1.0,102.55160355541881
8.128,1.0,102.12048225277442
8.136,1.0,101.68927830171494
8.144,1.0,101.25799089725244
8.152000000000001,1.0,100.82661923989957
8.16,1.0,100.3951625357057
8.168,1.0,99.96361999629288
8.176,0.9999999999999999,99.53199083889213
8.184000000000001,1.0,99.10027428637947
8.192,1.0,98.6684695673115
8.2,0.9999999999999999,98.23657591596078
8.208,0.9999999999999999,97.80459257235142
8.216000000000001,1.0,97.37251878229459
8.224,1.0,96.94035379742343
8.232,1.0,96.50809687522779
8.24,0.9999999999999999,96.07574727908927
8.248000000000001,1.0,95.64330427831607
8.256,1.0,95.21076714817718
8.264,1.0,94.77813516993663
8.272,1.0,94.34540763088776
8.280000000000001,1.0,93.91258382438748
8.288,1.0,93.47966304988977
8.296,1.0,93.04664461297932
8.304,0.9999999999999999,92.6135278254051
8.312,1.0,92.180312005114
8.32,0.9999999999999999,91.74699647628331
8.328,1.0,91.31358056935447
8.336,1.0,90.88006362106506
8.344,0.9999999999999999,90.44644497448226
8.352,1.0,90.01272397903448
8.36,1.0,89.57889999054439
8.368,1.0,89.14497237126024
8.376,1.0,88.71094048988857
8.384,1.0,88.27680372162506
8.392,0.9999999999999999,87.8425614481869
8.4,1.0,87.40821305784331
8.408,0.9999999999999999,86.97375794544749
8.416,0.9999999999999999,86.53919551246672
8.424,1.0,86.10452516701393
8.432,1.0,85.66974632387752
8.44,0.9999999999999999,85.23485840455237
8.448,1.0,84.7998608372693
8.456,0.9999999999999999,84.36475305702571
8.464,1.0,83.92953450561464
8.472,1.0,83.49420463165494
8.48,0.9999999999999999,83.05876289061985
8.488,0.9999999999999999,82.62320874486689
8.496,1.0,82.18754166366595
8.504,1.0,81.75176112322866
8.512,1.0,81.31586660673611
8.52,1.0,80.87985760436774
8.528,1.0,80.44373361332865
8.536,1.0,80.00749413787801
8.544,0.9999999999999999,79.57113868935583
8.552,1.0,79.13466678621103
8.56,1.0,78.69807795402761
8.568,1.0,78.26137172555231
8.576,1.0,77.82454764072028
8.584,0.9999999999999999,77.38760524668223
8.592,1.0,76.95054409782959
8.6,1.0,76.51336375582116
8.608,1.0,76.07606378960782
8.616,0.9999999999999999,75.63864377545853
8.624,0.9999999999999999,75.20110329698461
8.632,1.0,74.76344194516523
8.64,1.0,74.32565931837105
8.648,1.0,73.88775502238924
8.656,1.0,73.44972867044656
8.664,1.0,73.01157988323382
8.672,1.0,72.57330828892839
8.68,1.0,72.13491352321802
8.688,1.0,71.6963952293229
8.696,1.0,71.25775305801886
8.704,0.9999998152142578,70.81898666765878
8.712,0.9999992914229331,70.38009572419519
8.72,0.999998768251313,69.94107990120112
8.728,0.999998245836655,69.5019388798921
8.736,0.9999977243161403,69.06267234914637
8.744,0.9999972038268419,68.62328000552621
8.752,0.9999966845056942,68.18376155329759
8.76,0.9999961664894597,67.74411670445079
8.768,0.9999956499146988,67.30434517871942
8.776,0.9999951349177366,66.86444670360048
8.784,0.9999946216346334,66.42442101437253
8.792,0.9999941102011501,65.9842678541152
8.8,0.9999936007527201,65.54398697372677
8.808,0.9999930934244149,65.10357813194278
8.815999999999999,0.999992588350914,64.66304109535311
8.824,0.9999920856664735,64.22237563841949
8.832,0.9999915855048939,63.78158154349262
8.84,0.9999910879994894,63.34065860082858
8.847999999999999,0.9999905932830572,62.89960660860475
8.856,0.9999901014878446,62.4584253729359
8.864,0.9999896127455201,62.01711470788982
8.872,0.9999891271871405,61.57567443550219
8.879999999999999,0.9999886449431216,61.134104385791154
8.888,0.9999881661432053,60.69240439677171
8.896,0.9999876909164318,60.25057431447
8.904,0.9999872193911061,59.80861399293652
8.911999999999999,0.9999867516947691,59.366523294259146
8.92,0.9999862879541679,58.92430208857604
8.928,0.999985828295224,58.48195025408827
8.936,0.9999853728430034,58.03946767707142
8.943999999999999,0.9999849217216881,57.596854251887066
8.952,0.9999844750545448,57.154109880993985
8.96,0.9999840329638965,56.71123447495911
8.968,0.9999835955710912,56.26822795246758
8.975999999999999,0.9999831629964753,55.825090240332436
8.984,0.9999827353593616,55.38182127350416
8.992,0.9999823127780026,54.9384209950799
9.0,0.9999818953695603,54.49488935631188
9.008,0.9999814832500785,54.05122631661519
9.016,0.9999810765344539,53.60743184357579
9.024000000000001,0.9999806753364082,53.16350591295776
9.032,0.9999802797684602,52.71944850871002
9.04,0.9999798899418973,52.27525962297228
9.048,0.9999795059667494,51.8309392560812
9.056000000000001,0.9999791279517602,51.38648741657594
9.064,0.9999787560043607,50.941904121202796
9.072,0.999978390230643,50.49718939491957
9.08,0.9999780307353325,50.05234327089957
9.088000000000001,0.9999776776217625,49.60736579053543
9.096,0.9999773309918475,49.16225700344179
9.104,0.9999769909460577,48.7170169674577
9.112,0.9999766575833944,48.27164574864881
9.120000000000001,0.9999763310013625,47.82614342130901
9.128,0.9999760112959478,47.380510067961374
9.136,0.9999756985615913,46.93474577935842
9.144,0.9999753928911643,46.488850654482306
9.152000000000001,0.9999750943759458,46.04282480054461
9.16,0.9999748031055964,45.59666833298499
9.168,0.9999745191681374,45.15038137546964
9.176,0.999974242649926,44.703964059889245
9.184000000000001,0.9999739736356338,44.257416526356806
9.192,0.9999737122082213,43.8107389232042
9.2,0.9999734584489203,43.36393140697838
9.208,0.999973212437208,42.916994142437524
9.216000000000001,0.9999729742507873,42.46992730254637
9.224,0.9999727439655661,42.0227310684709
9.232,0.9999725216556358,41.57540562957228
9.24,0.9999723073932497,41.12795118340084
9.248000000000001,0.9999721012488056,40.68036793568925
9.256,0.9999719032908249,40.23265610034496
9.264,0.9999717135859311,39.78481589944205
9.272,0.9999715321988356,39.33684756321281
9.280000000000001,0.9999713591923144,38.888751330038836
9.288,0.9999711946271924,38.44052744644117
9.296,0.9999710385623262,37.99217616706989
9.304,0.9999708910545846,37.54369775469341
9.312000000000001,0.999970752158834,37.09509248018734
9.32,0.9999706219279195,36.646360622522224
9.328,0.9999705004126512,36.197502468751
9.336,0.999970387661787,35.748518313995824
9.344,0.9999702837220174,35.29940846143476
9.352,0.9999701886379512,34.85017322228685
9.36,0.9999701024521017,34.400812915797815
9.368,0.9999700252048702,33.951327869223995
9.376,0.9999699569345364,33.50171841781683
9.384,0.9999698976772418,33.05198490480559
9.392,0.999969847466979,32.60212768138079
9.4,0.9999698063355793,32.152147106675436
9.408,0.9999697743127005,31.702043547747486
9.416,0.9999697514258168,31.251817379559807
9.424,0.9999697377002063,30.80146898496139
9.432,0.9999697331589427,30.350998754666186
9.44,0.9999697378228837,29.900407087232924
9.448,0.999969751710664,29.449694389042858
9.456,0.9999697748386839,28.998861074278338
9.464,0.9999698072211024,28.547907564899294
9.472,0.9999698488698299,28.0968342906206
9.48,0.9999698997945191,27.64564168888728
9.488,0.9999699600025604,27.194330204850644
9.496,0.9999700294990741,26.742900291342277
9.504,0.9999701082869039,26.291352408848876
9.512,0.9999701963666139,25.839687025485045
9.52,0.9999702937364822,25.387904616966843
9.528,0.9999704003924965,24.936005666583284
9.536,0.9999705163283515,24.483990665168747
9.544,0.9999706415354445,24.0318601110731
9.552,0.9999707760028733,23.5796145101329
9.56,0.9999709197174341,23.12725437564026
9.568,0.9999710726636194,22.674780228312745
9.576,0.9999712348236173,22.22219259626104
9.584,0.9999714061773106,21.7694920149575
9.592,0.999971586702277,21.316679027202614
9.6,0.9999717763737895,20.863754183092286
9.608,0.9999719751648171,20.410718039982964
9.616,0.9999721830460272,19.95757116245773
9.624,0.9999723999857869,19.50431412229012
9.632,0.9999726259501658,19.050947498408945
9.64,0.9999728609029398,18.597471876860887
9.648,0.999973104805593,18.143887850773986
9.656,0.9999733576173258,17.690196020318982
9.664,0.9999736192950546,17.236396992671597
9.672,0.9999738897934218,16.782491381972545
9.68,0.9999741690647994,16.328479809288567
9.688,0.9999744570592951,15.874362902571184
9.696,0.9999747537247613,15.420141296616471
9.704,0.9999750590068008,14.96581563302255
9.712,0.9999753728487756,14.511386560148098
9.72,0.9999756951918163,14.056854733068601
9.728,0.9999760259748304,13.602220813533563
9.736,0.9999763651345122,13.147485469921598
9.744,0.9999767126053539,12.692649377196286
9.752,0.9999770683196557,12.237713216860062
9.76,0.9999774322075377,11.782677676908898
9.768,0.9999778041969508,11.327543451784834
9.776,0.9999781842136916,10.872311242329513
9.784,0.9999785721814136,10.41698175573542
9.792,0.9999789680216408,9.961555705498247
9.8,0.9999793716537833,9.506033811366873
9.808,0.9999797829951507,9.050416799294492
9.816,0.9999802019609675,8.594705401387433
9.824,0.9999806284643897,8.13890035585503
9.832,0.9999810624165213,7.683002406957276
9.84,0.9999815037264301,7.2270123049534405
9.847999999999999,0.999981952301165,6.770930806048673
9.856,0.999982408045776,6.314758672340936
9.864,0.99998287086333,5.858496671767283
9.872,0.9999833406549328,5.40214557804916
9.879999999999999,0.9999838173197457,4.945706170637074
9.888,0.9999843007550074,4.489179234655152
9.896,0.9999847908560547,4.032565560845067
9.904,0.9999852875163422,3.5758659455090154
9.911999999999999,0.9999857906274652,3.119081190452105
9.92,0.9999863000791818,2.6622121029246015
9.928,0.9999868157594346,2.2052594955636007
