freq,mag,phase
6.0,0.9999956674674262,108.76046999391241
6.008,0.9999957015147136,108.65177529992293
6.016,0.9999957374088251,108.54302380015537
6.024,0.9999957750963651,108.43421540735261
6.032,0.9999958145244566,108.32535003428788
6.04,0.9999958556407401,108.2164275937649
6.048,0.9999958983933738,108.10744799861811
6.056,0.9999959427310315,107.99841116171267
6.064,0.9999959886029037,107.88931699594472
6.072,0.999996035958695,107.78016541424152
6.08,0.9999960847486251,107.67095632956165
6.088,0.9999961349234273,107.56168965489499
6.096,0.9999961864343473,107.45236530326311
6.104,0.9999962392331427,107.34298318771934
6.112,0.9999962932720832,107.23354322134888
6.12,0.9999963485039485,107.12404531726906
6.128,0.9999964048820278,107.01448938862944
6.136,0.9999964623601197,106.9048753486121
6.144,0.9999965208925303,106.79520311043161
6.152,0.9999965804340729,106.68547258733548
6.16,0.9999966409400681,106.5756836926041
6.168,0.9999967023663403,106.46583633955107
6.176,0.9999967646692197,106.35593044152334
6.184,0.9999968278055392,106.2459659119014
6.192,0.9999968917326351,106.13594266409946
6.2,0.999996956408345,106.02586061156569
6.208,0.9999970217910071,105.9157196677824
6.216,0.9999970878394598,105.80551974626619
6.224,0.9999971545130404,105.69526076056822
6.232,0.9999972217715833,105.58494262427438
6.24,0.9999972895754206,105.47456525100552
6.248,0.999997357885379,105.36412855441763
6.256,0.9999974266627812,105.25363244820213
6.264,0.9999974958694424,105.14307684608592
6.272,0.9999975654676713,105.0324616618318
6.28,0.9999976354202673,104.9217868092386
6.288,0.9999977056905207,104.81105220214131
6.296,0.9999977762422105,104.70025775441152
6.304,0.9999978470396048,104.58940337995743
6.312,0.9999979180474574,104.47848899272425
6.32,0.9999979892310086,104.3675145066943
6.328,0.9999980605559831,104.25647983588739
6.336,0.9999981319885898,104.14538489436092
6.344,0.9999982034955185,104.03422959621018
6.352,0.9999982750439411,103.92301385556866
6.36,0.9999983466015083,103.81173758660819
6.368,0.9999984181363505,103.70040070353926
6.376,0.9999984896170744,103.58900312061124
6.384,0.9999985610127627,103.47754475211265
6.392,0.9999986322929735,103.36602551237142
6.4,0.9999987034277372,103.25444531575518
6.408,0.9999987743875571,103.14280407667142
6.416,0.9999988451434071,103.0311017095679
6.424,0.9999989156667299,102.91933812893282
6.432,0.999998985929437,102.80751324929513
6.44,0.999999055903906,102.69562698522479
6.448,0.9999991255629794,102.58367925133307
6.456,0.999999194879964,102.47166996227281
6.464,0.9999992638286289,102.35959903273871
6.472,0.9999993323832043,102.2474663774676
6.48,0.9999994005183793,102.1352719112388
6.4879999999999995,0.9999994682093016,102.02301554887431
6.496,0.9999995354315752,101.91069720523915
6.504,0.9999996021612592,101.79831679524172
6.5120000000000005,0.9999996683748662,101.68587423383394
6.52,0.9999997340493604,101.57336943601179
6.5280000000000005,0.9999997991621579,101.46080231681535
6.536,0.9999998636911219,101.34817279132933
6.5440000000000005,0.9999999276145639,101.23548077468325
6.552,0.9999999909112415,101.12272618205185
6.5600000000000005,1.0,101.00990892865524
6.568,1.0,100.89702892975947
6.5760000000000005,1.0,100.78408610067662
6.584,1.0,100.67108035676529
6.592,0.9999999999999999,100.55801161343084
6.6,1.0,100.44487978612571
6.608,1.0,100.33168479034985
6.616,0.9999999999999999,100.21842654165098
6.624,0.9999999999999998,100.10510495562491
6.632,0.9999999999999999,99.99171994791597
6.64,1.0,99.87827143421731
6.648,0.9999999999999999,99.76475933027122
6.656,0.9999999999999999,99.65118355186951
6.664,1.0,99.5375440148539
6.672,1.0,99.42384063511633
6.68,1.0,99.31007332859933
6.688,1.0,99.19624201129638
6.696,0.9999999999999999,99.0823465992523
6.704,1.0,98.96838700856361
6.712,0.9999999999999998,98.8543631553789
6.72,1.0,98.74027495589924
6.728,1.0,98.62612232637844
6.736,1.0,98.51190518312359
6.744,1.0,98.39762344249536
6.752,0.9999999999999999,98.28327702090839
6.76,0.9999999999999999,98.16886583483168
6.768,1.0,98.05438980078904
6.776,1.0,97.93984883535938
6.784,0.9999999999999999,97.82524285517728
6.792,1.0,97.71057177693314
6.8,0.9999999999999999,97.59583551737386
6.808,0.9999999999999999,97.48103399330301
6.816,1.0,97.36616712158151
6.824,1.0,97.25123481912773
6.832,0.9999999999999999,97.13623700291814
6.84,1.0,97.02117358998767
6.848,1.0,96.9060444974301
6.856,1.0,96.79084964239853
6.864,1.0,96.67558894210579
6.872,1.0,96.56026231382486
6.88,1.0,96.44486967488933
6.888,1.0000000000000002,96.32941094269384
6.896,1.0,96.21388603469453
6.904,0.9999999999999998,96.09829486840944
6.912,0.9999999999999999,95.982637361419
6.92,1.0,95.8669134313665
6.928,0.9999999999999998,95.75112299595853
6.936,0.9999999999999999,95.63526597296533
6.944,1.0,95.51934228022147
6.952,0.9999999999999998,95.40335183562613
6.96,1.0,95.28729455714367
6.968,0.9999999999999999,95.17117036280402
6.976,1.0,95.05497917070323
6.984,0.9999999999999999,94.93872089900393
6.992,1.0,94.82239546593573
7.0,0.9999999999999999,94.70600278979585
7.008,1.0,94.5895427889495
7.016,0.9999999999999999,94.47301538183038
7.024,0.9999999999999999,94.35642048694118
7.032,0.9999999999999999,94.23975802285415
7.04,1.0,94.12302790821145
7.048,0.9999999999999999,94.00623006172583
7.056,0.9999999999999999,93.88936440218099
7.064,0.9999999999999998,93.77243084843214
7.072,0.9999999999999999,93.65542931940655
7.08,1.0,93.538359734104
7.088,1.0,93.4212220115974
7.096,0.9999999999999999,93.30401607103313
7.104,0.9999999999999999,93.18674183163179
7.112,0.9999999999999999,93.06939921268852
7.12,1.0,92.95198813357375
7.128,0.9999999999999999,92.83450851373347
7.136,0.9999999999999999,92.71696027269003
7.144,0.9999999999999998,92.59934333004252
7.152,0.9999999999999999,92.48165760546732
7.16,1.0,92.36390301871876
7.168,0.9999999999999999,92.24607948962952
7.176,1.0,92.12818693811134
7.184,1.0,92.01022528415545
7.192,1.0,91.89219444783316
7.2,1.0,91.7740943492965
7.208,0.9999999999999999,91.65592490877869
7.216,0.9999999999999998,91.53768604659473
7.224,1.0,91.41937768314207
7.232,1.0,91.30099973890104
7.24,1.0,91.18255213443555
7.248,0.9999999999999999,91.06403479039358
7.256,0.9999999999999999,90.94544762750785
7.264,0.9999999999999999,90.82679056659633
7.272,1.0,90.70806352856293
7.28,0.9999999999999999,90.58926643439801
7.288,1.0,90.47039920517899
7.296,0.9999999999999999,90.35146176207101
7.304,0.9999999999999999,90.23245402632749
7.312,0.9999999999999999,90.11337591929075
7.32,0.9999999999999999,89.99422736239262
7.328,0.9999999999999999,89.87500827715506
7.336,0.9999999999999999,89.75571858519078
7.344,0.9999999999999999,89.63635820820386
7.352,0.9999999999999998,89.51692706799038
7.36,0.9999999999999999,89.39742508643903
7.368,1.0,89.27785218553178
7.376,1.0,89.15820828734451
7.384,0.9999999999999999,89.03849331404759
7.392,0.9999999999999998,88.91870718790656
7.4,1.0,88.79884983128288
7.4079999999999995,0.9999999999999999,88.67892116663438
7.416,1.0,88.55892111651599
7.4239999999999995,1.0,88.43884960358056
7.432,1.0,88.31870655057922
7.4399999999999995,0.9999999999999999,88.19849188036233
7.448,0.9999999999999999,88.0782055158799
7.4559999999999995,0.9999999999999999,87.95784738018246
7.464,0.9999999999999999,87.83741739642159
7.4719999999999995,0.9999999999999999,87.7169154878507
7.48,1.0,87.59634157782558
7.4879999999999995,0.9999999999999999,87.4756955898053
7.496,1.0,87.35497744735258
7.504,0.9999999999999999,87.2341870741348
7.5120000000000005,1.0,87.11332439392444
7.52,1.0,86.99238933059999
7.5280000000000005,0.9999999999999998,86.8713818081464
7.536,1.0,86.75030175065605
7.5440000000000005,1.0,86.62914908232923
7.552,1.0,86.50792372747502
7.5600000000000005,0.9999999999999998,86.38662561051186
7.568,1.0,86.26525465596836
7.5760000000000005,0.9999999606501996,86.14381078848396
7.584,0.9999999048202595,86.02229393280973
7.5920000000000005,0.9999998486421025,85.90070401380898
7.6,0.9999997921342987,85.77904095645808
7.6080000000000005,0.9999997353155488,85.65730468584712
7.616,0.9999996782046794,85.53549512718077
7.6240000000000006,0.9999996208206409,85.41361220577882
7.632,0.9999995631825038,85.29165584707714
7.640000000000001,0.9999995053094559,85.16962597662818
7.648,0.9999994472207996,85.047522520102
7.656000000000001,0.9999993889359483,84.92534540328677
7.664,0.9999993304744236,84.80309455208966
7.672,0.9999992718558524,84.68076989253754
7.68,0.9999992130999634,84.55837135077778
7.688,0.9999991542265846,84.43589885307898
7.696,0.9999990952556396,84.31335232583177
7.704,0.9999990362071446,84.19073169554956
7.712,0.9999989771012061,84.06803688886929
7.72,0.9999989179580169,83.9452678325522
7.728,0.9999988587978527,83.82242445348471
7.736,0.9999987996410711,83.69950667867909
7.744,0.9999987405081056,83.57651443527429
7.752,0.9999986814194644,83.45344765053669
7.76,0.9999986223957269,83.33030625186099
7.768,0.9999985634575402,83.20709016677088
7.776,0.9999985046256166,83.08379932291992
7.784,0.9999984459207301,82.96043364809233
7.792,0.9999983873637127,82.83699307020375
7.8,0.9999983289754526,82.71347751730214
7.808,0.9999982707768897,82.58988691756846
7.816,0.9999982127890139,82.4662211993176
7.824,0.9999981550328604,82.34248029099913
7.832,0.9999980975295079,82.21866412119819
7.84,0.9999980403000742,82.09477261863618
7.848,0.9999979833657147,81.97080571217174
7.856,0.9999979267476171,81.8467633308015
7.864,0.9999978704670008,81.72264540366086
7.872,0.9999978145451113,81.59845186002501
7.88,0.999997759003219,81.47418262930951
7.888,0.9999977038626143,81.34983764107139
7.896,0.9999976491446065,81.22541682500977
7.904,0.9999975948705182,81.10092011096688
7.912,0.9999975410616847,80.97634742892882
7.92,0.9999974877394487,80.85169870902644
7.928,0.9999974349251586,80.72697388153615
7.936,0.9999973826401642,80.6021728768809
7.944,0.999997330905815,80.47729562563089
7.952,0.9999972797434553,80.35234205850456
7.96,0.9999972291744227,80.22731210636938
7.968,0.9999971792200437,80.10220570024276
7.976,0.9999971299016309,79.97702277129292
7.984,0.9999970812404801,79.85176325083975
7.992,0.9999970332578676,79.72642707035573
8.0,0.9999969859750457,79.60101416146675
8.008,0.9999969394132405,79.47552445595306
8.016,0.9999968935936491,79.34995788575011
8.024000000000001,0.999996848537435,79.22431438294947
8.032,0.999996804265727,79.0985938797998
8.04,0.9999967607996137,78.97279630870752
8.048,0.9999967181601425,78.84692160223793
8.056000000000001,0.9999966763683154,78.72096969311606
8.064,0.9999966354450858,78.59494051422759
8.072,0.9999965954113557,78.46883399861966
8.08,0.9999965562879723,78.3426500795018
8.088000000000001,0.9999965180957254,78.21638869024704
8.096,0.9999964808553439,78.09004976439262
8.104,0.999996444587492,77.96363323564093
8.112,0.9999964093127677,77.83713903786047
8.120000000000001,0.9999963750516978,77.71056710508688
8.128,0.999996341824737,77.58391737152371
8.136,0.9999963096522619,77.45718977154338
8.144,0.9999962785545713,77.33038423968819
8.152000000000001,0.9999962485518797,77.20350071067116
8.16,0.9999962196643171,77.07653911937714
8.168,0.9999961919119237,76.94949940086354
8.176,0.9999961653146485,76.82238149036132
8.184000000000001,0.9999961398923455,76.6951853232761
8.192,0.9999961156647701,76.56791083518897
8.2,0.9999960926515765,76.44055796185741
8.208,0.9999960708723155,76.31312663921634
8.216000000000001,0.9999960503464299,76.18561680337903
8.224,0.9999960310932524,76.05802839063814
8.232,0.9999960131320025,75.93036133746652
8.24,0.9999959964817827,75.80261558051828
8.248000000000001,0.9999959811615773,75.67479105662979
8.256,0.9999959671902469,75.54688770282063
8.264,0.9999959545865273,75.41890545629447
8.272,0.9999959433690259,75.29084425444012
8.280000000000001,0.9999959335562182,75.16270403483252
8.288,0.9999959251664454,75.03448473523379
8.296,0.9999959182179116,74.90618629359396
8.304,0.9999959127286797,74.77780864805223
8.312,0.9999959087166708,74.64935173693782
8.32,0.9999959061996575,74.52081549877094
8.328,0.9999959051952645,74.39219987226394
8.336,0.9999959057209642,74.26350479632202
8.344,0.9999959077940734,74.1347302100446
8.352,0.999995911431751,74.0058760527259
8.36,0.9999959166509949,73.87694226385634
8.368,0.9999959234686394,73.7479287831232
8.376,0.9999959319013514,73.61883555041193
8.384,0.9999959419656281,73.48966250580689
8.392,0.9999959536777953,73.36040958959255
8.4,0.999995967054002,73.23107674225436
8.408,0.9999959821102196,73.10166390447993
8.416,0.9999959988622381,72.97217101715982
8.424,0.9999960173256642,72.84259802138885
8.432,0.9999960375159174,72.71294485846676
8.44,0.9999960594482272,72.58321146989958
8.448,0.999996083137632,72.45339779740041
8.456,0.9999961085989737,72.32350378289058
8.464,0.9999961358468975,72.1935293685006
8.472,0.9999961648958471,72.06347449657126
8.48,0.999996195760063,71.93333910965454
8.488,0.9999962284535807,71.80312315051482
8.496,0.9999962629902254,71.67282656212974
8.504,0.9999962993836113,71.54244928769137
8.512,0.9999963376471387,71.4119912706071
8.52,0.9999963777939906,71.28145245450092
8.528,0.9999964198371312,71.15083278321416
8.536,0.9999964637893017,71.02013220080677
8.544,0.9999965096630192,70.88935065155823
8.552,0.9999965574705727,70.75848807996871
8.56,0.999996607224022,70.62754443075998
8.568,0.999996658935194,70.49651964887661
8.576,0.9999967126156802,70.36541367948682
8.584,0.9999967682768351,70.23422646798382
8.592,0.999996825929772,70.10295795998653
8.6,0.9999968855853625,69.97160810134095
8.608,0.9999969472542326,69.84017683812094
8.616,0.9999970109467603,69.70866411662955
8.624,0.9999970766730737,69.5770698833998
8.632,0.9999971444430489,69.44539408519599
8.64,0.9999972142663057,69.31363666901453
8.648,0.9999972861522077,69.18179758208527
8.656,0.9999973601098582,69.04987677187225
8.664,0.9999974361480978,68.91787418607511
8.672,0.9999975142755038,68.78578977262983
8.68,0.9999975945003856,68.65362347971005
8.688,0.9999976768307837,68.52137525572795
8.696,0.999997761274467,68.38904504933551
8.704,0.9999978478389313,68.25663280942533
8.712,0.9999979365313958,68.124138485132
8.72,0.9999980273588016,67.99156202583289
8.728,0.9999981203278098,67.85890338114952
8.736,0.9999982154447979,67.72616250094826
8.744,0.9999983127158597,67.59333933534178
8.752,0.9999984121468016,67.46043383468987
8.76,0.999998513743141,67.32744594960064
8.768,0.9999986175101038,67.19437563093156
8.776,0.9999987234526238,67.06122282979057
8.784,0.9999988315753381,66.92798749753705
8.792,0.999998941882587,66.79466958578305
8.8,0.9999990543784123,66.66126904639427
8.808,0.9999991690665533,66.52778583149122
8.815999999999999,0.999999285950447,66.39421989345017
8.824,0.9999994050332245,66.26057118490435
8.832,0.9999995263177102,66.12683965874503
8.84,0.9999996498064191,65.99302526812252
8.847999999999999,0.9999997755015559,65.85912796644732
8.856,0.9999999034050124,65.72514770739112
8.864,1.0,65.59108444488803
8.872,0.9999999999999999,65.45693813313558
8.879999999999999,1.0,65.32270872659575
8.888,1.0,65.18839617999603
8.896,1.0,65.05400044833074
8.904,0.9999999999999999,64.91952148686188
8.911999999999999,1.0,64.78495925112023
8.92,1.0,64.65031369690652
8.928,0.9999999999999999,64.51558478029251
8.936,1.0,64.38077245762206
8.943999999999999,1.0000000000000002,64.24587668551209
8.952,1.0,64.11089742085382
8.96,0.9999999999999999,63.97583462081382
8.968,0.9999999999999999,63.840688242835114
8.975999999999999,1.0,63.7054582446381
8.984,0.9999999999999999,63.57014458422179
8.992,1.0,63.4347472198649
9.0,1.0,63.29926611012688
9.008,1.0,63.16370121384889
9.016,0.9999999999999999,63.028052490155034
9.024000000000001,0.9999999999999999,62.892319898453444
9.032,0.9999999999999999,62.756503398437225
9.04,0.9999999999999999,62.62060295008564
9.048,1.0,62.484618513665076
9.056000000000001,0.9999999999999999,62.34855004973024
9.064,1.0,62.21239751912526
9.072,0.9999999999999999,62.07616088298456
9.08,1.0,61.93984010273406
9.088000000000001,1.0,61.80343514009228
9.096,1.0,61.666945957071405
9.104,1.0,61.53037251597823
9.112,1.0,61.39371477941532
9.120000000000001,1.0,61.25697271028208
9.128,1.0,61.12014627177587
9.136,0.9999999999999999,60.983235427392906
9.144,0.9999999999999999,60.84624014092941
9.152000000000001,1.0,60.70916037648273
9.16,0.9999999999999999,60.571996098452395
9.168,1.0,60.43474727154097
9.176,0.9999999999999998,60.29741386075532
9.184000000000001,1.0,60.159995831407656
9.192,0.9999999999999999,60.02249314911649
9.2,1.0,59.8849057798077
9.208,1.0000000000000002,59.74723368971557
9.216000000000001,0.9999999999999999,59.60947684538395
9.224,1.0,59.47163521366718
9.232,1.0,59.333708761731124
9.24,1.0,59.19569745705424
9.248000000000001,1.0,59.05760126742865
9.256,1.0,58.9194201609612
9.264,0.9999999999999999,58.78115410607434
9.272,0.9999999999999999,58.64280307150721
9.280000000000001,1.0,58.50436702631683
9.288,1.0,58.36584593987895
9.296,0.9999999999999999,58.227239781889054
9.304,1.0,58.08854852236346
9.312000000000001,1.0,57.94977213164033
9.32,1.0,57.810910580380735
9.328,1.0,57.67196383956946
9.336,0.9999999999999999,57.532931880516166
9.344,1.0,57.393814674856486
9.352,1.0,57.254612194552735
9.36,1.0,57.11532441189523
9.368,0.9999999999999999,56.975951299503016
9.376,0.9999999999999999,56.836492830325085
9.384,1.0,56.696948977641114
9.392,1.0,56.55731971506271
9.4,1.0,56.417605016534125
9.408,1.0,56.277804856333525
9.416,0.9999999999999999,56.13791920907364
9.424,0.9999999999999999,55.99794804970303
9.432,0.9999999999999999,55.85789135350677
9.44,1.0,55.71774909610772
9.448,1.0,55.577521253467154
9.456,0.9999999999999999,55.43720780188602
9.464,1.0,55.29680871800557
9.472,1.0,55.156323978808636
9.48,1.0,55.015753561620265
9.488,1.0,54.87509744410891
9.496,1.0,54.73435560428712
9.504,1.0,54.5935280205127
9.512,0.9999999999999999,54.45261467148945
9.52,0.9999999999999999,54.31161553626819
9.528,1.0,54.170530594247545
9.536,1.0,54.029359825175064
9.544,1.0,53.88810320914787
9.552,1.0,53.746760726613786
9.56,0.9999999999999998,53.605332358372
9.568,0.9999999999999999,53.46381808557421
9.576,1.0,53.32221788972521
9.584,1.0,53.18053175268404
9.592,0.9999999999999999,53.03875965666466
9.6,1.0,52.89690158423695
9.608,1.0,52.754957518327394
9.616,1.0,52.61292744222018
9.624,1.0,52.4708113395578
9.632,0.9999999999999999,52.32860919434207
9.64,1.0,52.18632099093484
9.648,0.9999999999999999,52.043946714058904
9.656,1.0,51.90148634879879
9.664,1.0,51.758939880601595
9.672,1.0,51.61630729527773
9.68,1.0,51.47358857900185
9.688,1.0,51.330783718313455
9.696,1.0,51.18789270011794
9.704,1.0,51.044915511687094
9.712,0.9999999999999999,50.90185214066016
9.72,0.9999999999999999,50.7587025750443
9.728,0.9999999999999998,50.615466803215696
9.736,0.9999999999999999,50.472144813919954
9.744,0.9999999999999999,50.32873659627317
9.752,0.9999999999999999,50.18524213976239
9.76,1.0,50.04166143424663
9.768,1.0,49.897994469957275
9.776,1.0,49.75424123749916
9.784,0.9999999999999999,49.61040172785091
9.792,1.0,49.46647593236601
9.8,1.0,49.32246384277311
9.808,0.9999999999999999,49.1783654511771
9.816,0.9999999999999999,49.034180750059456
9.824,0.9999999999999999,48.88990973227918
9.832,1.0,48.74555239107326
9.84,1.0,48.60110872005745
9.847999999999999,0.9999999999999999,48.456578713226826
9.856,0.9999999999999999,48.311962364956436
9.864,0.9999999999999999,48.16725967000205
9.872,1.0,48.02247062350068
9.879999999999999,1.0,47.877595220971095
9.888,0.9999999999999998,47.73263345831457
9.896,0.9999999999999998,47.587585331815426
9.904,1.0,47.44245083814168
9.911999999999999,0.9999999999999999,47.29722997434547
9.92,0.9999999999999999,47.151922737863686
9.928,0.9999999999999999,47.006529126518615
9.936,1.0,46.86104913851839
9.943999999999999,1.0,46.715482772457506
9.952,1.0,46.56983002731738
9.96,1.0,46.4240909024669
9.968,1.0,46.278265397662956
9.975999999999999,0.9999999999999999,46.13235351305075
9.984,0.9999999999999999,45.986355249164426
9.992,1.0,45.840270606927604
10.0,1.0,45.694099587653724
10.008,1.0,45.54784219304651
10.016,0.9999999999999999,45.40149842520044
