freq,mag,phase
6.0,0.9999945686115193,55.654200147173206
6.008,0.9999945934483654,55.473937184801876
6.016,0.9999946164950316,55.293629503012625
6.024,0.9999946378059046,55.11327710852612
6.032,0.9999946574342495,54.93288000860413
6.04,0.9999946754322245,54.752438211048734
6.048,0.9999946918508988,54.57195172420165
6.056,0.9999947067402656,54.39142055694347
6.064,0.9999947201492593,54.21084471869286
6.072,0.9999947321257691,54.03022421940582
6.08,0.9999947427166561,53.84955906957489
6.088,0.9999947519677669,53.668849280228436
6.096,0.9999947599239478,53.48809486292981
6.104,0.9999947666290623,53.30729582977661
6.112,0.9999947721260021,53.12645219339982
6.12,0.9999947764567044,52.94556396696312
6.128,0.9999947796621657,52.764631164162
6.136,0.9999947817824543,52.58365379922297
6.144,0.9999947828567266,52.40263188690281
6.152,0.9999947829232405,52.221565442487716
6.16,0.9999947820193683,52.040454481792416
6.168,0.9999947801816118,51.85929902115947
6.176,0.9999947774456152,51.67809907745834
6.184,0.9999947738461783,51.49685466808463
6.192,0.9999947694172706,51.31556581095919
6.2,0.9999947641920451,51.134232524527306
6.208,0.9999947582028498,50.95285482775784
6.216,0.9999947514812412,50.77143274014236
6.224,0.9999947440579993,50.58996628169437
6.232,0.9999947359631371,50.40845547294829
6.24,0.9999947272259161,50.226900334958735
6.248,0.999994717874857,50.045300889299604
6.256,0.9999947079377537,49.86365715806312
6.264,0.9999946974416839,49.681969163859094
6.272,0.9999946864130226,49.500236929813916
6.28,0.9999946748774545,49.318460479569715
6.288,0.9999946628599845,49.13663983728347
6.296,0.9999946503849505,48.95477502762612
6.304,0.9999946374760359,48.77286607578159
6.312,0.9999946241562796,48.59091300744599
6.32,0.999994610448089,48.408915848826624
6.328,0.9999945963732505,48.22687462664108
6.336,0.9999945819529409,48.04478936811634
6.344,0.9999945672077395,47.86266010098783
6.352,0.9999945521576382,47.68048685349852
6.36,0.9999945368220526,47.49826965439791
6.368,0.9999945212198337,47.3160085329412
6.376,0.999994505369277,47.13370351888825
6.384,0.9999944892881352,46.9513546425027
6.392,0.9999944729936275,46.768961934550966
6.4,0.9999944565024496,46.586525426301314
6.408,0.9999944398307858,46.4040451495229
6.416,0.9999944229943172,46.22152113648477
6.424,0.9999944060082325,46.03895341995492
6.432,0.9999943888872391,45.856342033199326
6.44,0.999994371645572,45.673687009980966
6.448,0.9999943542970025,45.490988384558754
6.456,0.9999943368548511,45.30824619168671
6.464,0.9999943193319922,45.12546046661283
6.472,0.9999943017408692,44.94263124507813
6.48,0.9999942840934994,44.75975856331569
6.4879999999999995,0.9999942664014855,44.576842458049626
6.496,0.9999942486760234,44.393882966493976
6.504,0.9999942309279133,44.21088012635193
6.5120000000000005,0.9999942131675662,44.0278339758145
6.52,0.9999941954050149,43.844744553559856
6.5280000000000005,0.9999941776499206,43.6616118987519
6.536,0.9999941599115836,43.47843605103964
6.5440000000000005,0.999994142198951,43.29521705055578
6.552,0.9999941245206242,43.111954937916046
6.5600000000000005,0.9999941068848688,42.92864975421778
6.568,0.9999940892996224,42.74530154103927
6.5760000000000005,0.9999940717725017,42.56191034043831
6.584,0.9999940543108113,42.37847619495153
6.592,0.9999940369215529,42.19499914759303
6.6,0.9999940196114309,42.01147924185349
6.608,0.9999940023868611,41.82791652169904
6.616,0.9999939852539789,41.64431103157023
6.624,0.9999939682186462,41.4606628163809
6.632,0.999993951286459,41.27697192151718
6.64,0.9999939344627544,41.09323839283635
6.648,0.9999939177526194,40.90946227666572
6.656,0.9999939011608955,40.7256436198017
6.664,0.9999938846921883,40.54178246950851
6.672,0.9999938683508728,40.35787887351719
6.68,0.999993852141101,40.17393288002453
6.688,0.9999938360668087,39.98994453769187
6.696,0.9999938201317219,39.805913895644046
6.704,0.9999938043393635,39.6218410034683
6.712,0.9999937886930604,39.437725911213136
6.72,0.9999937731959488,39.25356866938716
6.728,0.9999937578509819,39.069369328958075
6.736,0.9999937426609342,38.88512794135142
6.744,0.9999937276284108,38.70084455844953
6.752,0.9999937127558493,38.516519232590355
6.76,0.9999936980455297,38.332152016566354
6.768,0.9999936834995784,38.14774296362335
6.776,0.9999936691199733,37.963292127459354
6.784,0.9999936549085512,37.77879956222343
6.792,0.9999936408670125,37.59426532251459
6.8,0.9999936269969272,37.40968946338059
6.808,0.9999936132997395,37.22507204031674
6.816,0.9999935997767742,37.04041310926483
6.824,0.9999935864292409,36.855712726611905
6.832,0.9999935732582408,36.670970949189105
6.84,0.9999935602647705,36.48618783427047
6.848,0.9999935474497269,36.30136343957181
6.856,0.9999935348139132,36.11649782324953
6.864,0.9999935223580427,35.93159104389936
6.872,0.9999935100827446,35.74664316055528
6.88,0.9999934979885682,35.561654232688234
6.888,0.999993486075987,35.376624320204996
6.896,0.9999934743454045,35.19155348344699
6.904,0.9999934627971574,35.00644178318898
6.912,0.9999934514315206,34.82128928063801
6.92,0.9999934402487118,34.636096037432104
6.928,0.9999934292488949,34.45086211563906
6.936,0.9999934184321848,34.2655875777553
6.944,0.9999934077986513,34.08027248670458
6.952,0.9999933973483234,33.89491690583678
6.96,0.9999933870811919,33.70952089892673
6.968,0.9999933769972159,33.524084530172956
6.976,0.9999933670963231,33.33860786419643
6.984,0.9999933573784168,33.15309096603933
6.992,0.9999933478433767,32.967533901163875
7.0,0.9999933384910646,32.78193673545102
7.008,0.9999933293213272,32.5962995351992
7.016,0.9999933203339989,32.410622367123146
7.024,0.9999933115289056,32.2249052983526
7.032,0.9999933029058673,32.039148396431045
7.04,0.9999932944647035,31.853351729314486
7.048,0.9999932862052331,31.667515365370186
7.056,0.9999932781272799,31.481639373375366
7.064,0.9999932702306743,31.295723822515985
7.072,0.999993262515257,31.109768782385466
7.08,0.9999932549808808,30.923774322983398
7.088,0.9999932476274145,30.737740514714275
7.096,0.9999932404547454,30.551667428386267
7.104,0.9999932334627807,30.365555135209853
7.112,0.9999932266514513,30.179403706796574
7.12,0.9999932200207144,29.993213215157805
7.128,0.9999932135705556,29.806983732703365
7.136,0.99999320730099,29.62071533224034
7.144,0.9999932012120668,29.434408086971647
7.152,0.9999931953038698,29.248062070494893
7.16,0.9999931895765207,29.061677356800942
7.168,0.99999318403018,28.875254020272706
7.176,0.9999931786650502,28.688792135683784
7.184,0.9999931734813764,28.502291778197165
7.192,0.9999931684794505,28.315753023363925
7.2,0.9999931636596108,28.129175947121936
7.208,0.9999931590222443,27.94256062579449
7.216,0.9999931545677897,27.755907136089025
7.224,0.9999931502967375,27.56921555509579
7.232,0.9999931462096324,27.382485960286534
7.24,0.9999931423070746,27.195718429513132
7.248,0.9999931385897219,27.00891304100632
7.256,0.9999931350582901,26.82206987337429
7.264,0.9999931317135556,26.63518900560142
7.272,0.9999931285563552,26.448270517046907
7.28,0.9999931255875892,26.26131448744342
7.288,0.9999931228082207,26.074320996895754
7.296,0.9999931202192787,25.887290125879495
7.304,0.9999931178218575,25.700221955239662
7.312,0.9999931156171188,25.513116566189385
7.32,0.9999931136062921,25.32597404030851
7.328,0.9999931117906763,25.13879445954223
7.336,0.99999311017164,24.951577906199798
7.344,0.9999931087506229,24.76432446295311
7.352,0.9999931075291354,24.577034212835347
7.36,0.9999931065087612,24.38970723923958
7.368,0.9999931056911562,24.2023436259175
7.376,0.9999931050780502,24.014943456977928
7.384,0.9999931046712472,23.827506816885524
7.392,0.999993104472626,23.640033790459356
7.4,0.9999931044841407,23.45252446287154
7.4079999999999995,0.9999931047078202,23.264978919645912
7.416,0.9999931051457709,23.077397246656506
7.4239999999999995,0.9999931058001746,22.889779530126372
7.432,0.9999931066732901,22.702125856625948
7.4399999999999995,0.9999931077674532,22.514436313071922
7.448,0.9999931090850762,22.32671098672558
7.4559999999999995,0.99999311062865,22.138949965191685
7.464,0.9999931124007423,21.951153336416766
7.4719999999999995,0.9999931144039979,21.763321188688078
7.48,0.99999311664114,21.57545361063183
7.4879999999999995,0.9999931191149687,21.387550691212123
7.496,0.9999931218283619,21.199612519729204
7.504,0.9999931247842753,21.011639185818435
7.5120000000000005,0.9999931279857408,20.82363077944849
7.52,0.9999931314358688,20.635587390920303
7.5280000000000005,0.9999931351378454,20.44750911086532
7.536,0.9999931390949338,20.259396030244414
7.5440000000000005,0.9999931433104741,20.07124824034613
7.552,0.9999931477878817,19.88306583278558
7.5600000000000005,0.9999931525306478,19.694848899502713
7.568,0.9999931575423386,19.506597532761234
7.5760000000000005,0.999993162826596,19.318311825146793
7.584,0.9999931683871354,19.129991869565902
7.5920000000000005,0.9999931742277461,18.941637759244244
7.6,0.9999931803522906,18.75324958772546
7.6080000000000005,0.9999931867647046,18.564827448869448
7.616,0.9999931934689954,18.376371436851237
7.6240000000000006,0.9999932004692416,18.187881646159237
7.632,0.9999932077695927,17.99935817159409
7.640000000000001,0.9999932153742681,17.810801108266944
7.648,0.9999932232875561,17.622210551598297
7.656000000000001,0.9999932315138144,17.433586597316232
7.664,0.999993240057467,17.244929341455304
7.672,0.9999932489230057,17.056238880354773
7.68,0.9999932581149876,16.86751531065738
7.688,0.9999932676380352,16.67875872930781
7.696,0.9999932774968344,16.489969233551207
7.704,0.9999932876961347,16.30114692093175
7.712,0.9999932982407475,16.1122918892912
7.72,0.9999933091355449,15.923404236767409
7.728,0.9999933203854595,15.734484061792879
7.736,0.9999933319954828,15.545531463093294
7.744,0.9999933439706634,15.356546539686034
7.752,0.9999933563161076,15.167529390878734
7.76,0.9999933690369764,14.978480116267802
7.768,0.9999933821384852,14.789398815736936
7.776,0.9999933956259027,14.600285589455643
7.784,0.9999934095045496,14.411140537877815
7.792,0.9999934237797972,14.221963761740183
7.8,0.9999934384570659,14.032755362060886
7.808,0.9999934535418238,13.843515440137987
7.816,0.999993469039587,13.65424409754794
7.824,0.9999934849559158,13.464941436144187
7.832,0.9999935012964146,13.275607558055611
7.84,0.9999935180667313,13.086242565685072
7.848,0.9999935352725542,12.89684656170792
7.856,0.9999935529196118,12.707419649070504
7.864,0.99999357101367,12.517961930988676
7.872,0.9999935895605332,12.328473510946303
7.88,0.9999936085660401,12.138954492693765
7.888,0.999993628036064,11.949404980246468
7.896,0.9999936479765095,11.759825077883361
7.904,0.9999936683933128,11.570214890145404
7.912,0.9999936892924398,11.38057452183409
7.92,0.9999937106798835,11.19090407800993
7.928,0.9999937325616628,11.001203663990996
7.936,0.9999937549438219,10.811473385351338
7.944,0.9999937778324278,10.621713347919549
7.952,0.9999938012335681,10.431923657777226
7.96,0.999993825153351,10.24210442125747
7.968,0.9999938495979022,10.052255744943372
7.976,0.9999938745733643,9.862377735666504
7.984,0.9999939000858934,9.672470500505428
7.992,0.9999939261416602,9.482534146784143
8.0,0.9999939527468453,9.292568782070607
8.008,0.9999939799076397,9.102574514175222
8.016,0.9999940076302424,8.912551451149223
8.024000000000001,0.9999940359208577,8.722499701283352
8.032,0.9999940647856949,8.53241937310622
8.04,0.9999940942309659,8.342310575382719
8.048,0.9999941242628834,8.152173417112579
8.056000000000001,0.9999941548876591,7.962008007528915
8.064,0.9999941861115026,7.771814456096653
8.072,0.9999942179406184,7.581592872510901
8.08,0.9999942503812048,7.391343366695501
8.088000000000001,0.999994283439453,7.201066048801596
8.096,0.9999943171215429,7.010761029206031
8.104,0.999994351433644,6.8204284185097155
8.112,0.9999943863819121,6.630068327536199
8.120000000000001,0.9999944219724873,6.439680867330212
8.128,0.9999944582114932,6.249266149156058
8.136,0.999994495105034,6.058824284495996
8.144,0.9999945326591938,5.8683553850487895
8.152000000000001,0.999994570880033,5.677859562728259
8.16,0.999994609773589,5.487336929661658
8.168,0.9999946493458726,5.296787598188059
8.176,0.9999946896028659,5.1062116808569025
8.184000000000001,0.9999947305505215,4.915609290426535
8.192,0.9999947721947602,4.724980539862594
8.2,0.9999948145414698,4.534325542336379
8.208,0.9999948575965016,4.343644411223405
8.216000000000001,0.9999949013656707,4.1529372601019325
8.224,0.9999949458547523,3.962204202751357
8.232,0.9999949910694816,3.771445353150564
8.24,0.9999950370155494,3.5806608254764947
8.248000000000001,0.9999950836986041,3.389850734102659
8.256,0.9999951311242457,3.1990151935975324
8.264,0.9999951792980271,3.008154318722904
8.272,0.9999952282254507,2.817268224432431
8.280000000000001,0.9999952779119673,2.6263570258701714
8.288,0.9999953283629729,2.4354208383689544
8.296,0.9999953795838096,2.24445977744874
8.304,0.9999954315797608,2.0534739588151605
8.312,0.9999954843560511,1.8624634983581068
8.32,0.9999955379178449,1.6714285121498655
8.328,0.9999955922702425,1.4803691164439263
8.336,0.9999956474182805,1.2892854276730674
8.344,0.999995703366929,1.098177562448178
8.352,0.9999957601210904,0.9070456375563347
8.36,0.9999958176855956,0.7158897699596006
8.368,0.9999958760652063,0.5247100767931394
8.376,0.9999959352646085,0.33350667536399714
8.384,0.999995995288415,0.14227968314920492
8.392,0.9999960561411598,-0.048970782205438705
8.4,0.9999961178273,-0.24024460288724236
8.408,0.999996180351211,-0.43154166091785734
8.416,0.9999962437171874,-0.6228618381551784
8.424,0.9999963079294389,-0.8142050162945268
8.432,0.9999963729920904,-1.0055710768705817
8.44,0.9999964389091799,-1.1969599012585797
8.448,0.9999965056846558,-1.3883713706762084
8.456,0.9999965733223763,-1.5798053661848455
8.464,0.9999966418261084,-1.7712617686914243
8.472,0.9999967111995243,-1.962740458949677
8.48,0.9999967814462013,-2.1542413175620196
8.488,0.9999968525696195,-2.345764224980784
8.496,0.9999969245731607,-2.5373090615100935
8.504,0.9999969974601064,-2.7288757073071093
8.512,0.9999970712336367,-2.9204640423839066
8.52,0.9999971458968275,-3.112073946608711
8.528,0.999997221452651,-3.303705299707787
8.536,0.999997297903973,-3.495357981266655
8.544,0.9999973752535498,-3.68703187073201
8.552,0.9999974535040307,-3.878726847412924
8.56,0.9999975326579524,-4.070442790482748
8.568,0.9999976127177396,-4.2621795789803425
8.576,0.9999976936857038,-4.4539370918119605
8.584,0.9999977755640411,-4.6457152077524935
8.592,0.9999978583548307,-4.837513805447341
8.6,0.9999979420600333,-5.029332763413664
8.608,0.9999980266814916,-5.22117196004225
8.616,0.999998112220926,-5.413031273598776
8.624,0.9999981986799352,-5.604910582225664
8.632,0.9999982860599951,-5.796809763943336
8.64,0.9999983743624559,-5.988728696652098
8.648,0.9999984635885418,-6.180667258133367
8.656,0.99999855373935,-6.37262532605157
8.664,0.9999986448158485,-6.5646027779553595
8.672,0.9999987368188759,-6.756599491279525
8.68,0.9999988297491395,-6.948615343346203
8.688,0.9999989236072137,-7.140650211366785
8.696,0.9999990183935403,-7.332703972443126
8.704,0.9999991141084252,-7.52477650356946
8.712,0.9999992107520399,-7.716867681633613
8.72,0.9999993083244176,-7.908977383418889
8.728,0.9999994068254541,-8.101105485605329
8.736,0.9999995062549054,-8.293251864771555
8.744,0.9999996066123883,-8.485416397396031
8.752,0.9999997078973771,-8.677598959858953
8.76,0.9999998101092047,-8.869799428443457
8.768,0.9999999132470596,-9.062017679337528
8.776,1.0,-9.254253588635208
8.784,1.0,-9.446507032338507
8.792,1.0,-9.638777886358605
8.8,1.0,-9.831066026517767
8.808,1.0,-10.023371328550555
8.815999999999999,0.9999999999999999,-10.215693668105656
8.824,1.0,-10.408032920747353
8.832,0.9999999999999999,-10.600388961956961
8.84,1.0,-10.792761667134508
8.847999999999999,1.0,-10.985150911600313
8.856,0.9999999999999999,-11.177556570596504
8.864,0.9999999999999999,-11.3699785192885
8.872,0.9999999999999999,-11.562416632766586
8.879999999999999,1.0,-11.754870786047618
8.888,1.0,-11.947340854076451
8.896,0.9999999999999999,-12.139826711727418
8.904,1.0,-12.332328233805969
8.911999999999999,0.9999999999999999,-12.524845295050305
8.92,1.0,-12.717377770132847
8.928,1.0,-12.909925533661692
8.936,1.0,-13.102488460182268
8.943999999999999,0.9999999999999999,-13.295066424178932
8.952,1.0,-13.487659300076478
8.96,1.0,-13.680266962241562
8.968,1.0,-13.872889284984371
8.975999999999999,0.9999999999999999,-14.065526142560204
8.984,0.9999999999999998,-14.258177409170994
8.992,1.0,-14.450842958966708
9.0,1.0,-14.643522666047037
9.008,1.0,-14.836216404462974
9.016,0.9999999999999999,-15.028924048218304
9.024000000000001,1.0,-15.221645471271026
9.032,0.9999999999999999,-15.414380547535048
9.04,0.9999999999999999,-15.60712915088173
9.048,0.9999999999999999,-15.799891155141406
9.056000000000001,0.9999999999999999,-15.99266643410479
9.064,0.9999999999999999,-16.185454861524644
9.072,0.9999999999999999,-16.37825631111736
9.08,0.9999999999999999,-16.571070656564444
9.088000000000001,0.9999999999999999,-16.763897771513943
9.096,1.0,-16.956737529582107
9.104,1.0,-17.14958980435492
9.112,0.9999999999999999,-17.34245446938968
9.120000000000001,0.9999999999999999,-17.535331398216314
9.128,1.0,-17.728220464339103
9.136,1.0,-17.92112154123822
9.144,1.0,-18.114034502371222
9.152000000000001,1.0,-18.306959221174477
9.16,1.0,-18.49989557106478
9.168,1.0,-18.69284342544095
9.176,1.0,-18.885802657685318
9.184000000000001,0.9999999999999999,-19.078773141165115
9.192,1.0,-19.271754749234095
9.2,0.9999999999999999,-19.46474735523417
9.208,1.0,-19.657750832496834
9.216000000000001,1.0,-19.850765054344556
9.224,0.9999999999999999,-20.043789894092473
9.232,1.0,-20.236825225049905
9.24,0.9999999999999999,-20.429870920521857
9.248000000000001,1.0,-20.622926853810398
9.256,1.0,-20.815992898216297
9.264,0.9999999999999999,-21.00906892704063
9.272,1.0,-21.202154813586148
9.280000000000001,1.0,-21.395250431158782
9.288,0.9999999999999999,-21.5883556530692
9.296,1.0,-21.78147035263441
9.304,0.9999999999999999,-21.974594403179132
9.312000000000001,1.0,-22.167727678037355
9.32,0.9999999999999999,-22.36087005055377
9.328,1.0,-22.55402139408548
9.336,1.0,-22.74718158200335
9.344,1.0,-22.9403504876934
9.352,1.0,-23.133527984558622
9.36,1.0,-23.326713946020128
9.368,1.0,-23.51990824551898
9.376,1.0,-23.71311075651737
9.384,1.0,-23.906321352500424
9.392,1.0000000000000002,-24.099539906977395
9.4,0.9999999999999999,-24.292766293483453
9.408,0.9999999999999999,-24.486000385580887
9.416,1.0,-24.6792420568609
9.424,0.9999999999999998,-24.872491180944756
9.432,1.0,-25.065747631485642
9.44,1.0,-25.25901128216979
9.448,1.0,-25.452282006718296
9.456,0.9999999999999998,-25.645559678888265
9.464,1.0,-25.838844172474673
9.472,1.0,-26.032135361311447
9.48,0.9999999999999998,-26.225433119273333
9.488,1.0,-26.418737320277017
9.496,1.0,-26.612047838282916
9.504,0.9999999999999998,-26.805364547296367
9.512,1.0,-26.998687321369378
9.52,0.9999999999999999,-27.192016034601835
9.528,1.0,-27.38535056114322
9.536,1.0,-27.57869077519382
9.544,0.9999999999999998,-27.772036551006483
9.552,0.9999999999999999,-27.965387762887786
9.56,1.0,-28.158744285199802
9.568,1.0,-28.352105992361242
9.576,1.0,-28.545472758849233
9.584,1.0,-28.73884445920047
9.592,1.0,-28.932220968013013
9.6,0.9999999999999999,-29.12560215994733
9.608,1.0,-29.318987909728193
9.616,1.0,-29.512378092145756
9.624,1.0,-29.705772582057296
9.632,0.9999999999999999,-29.899171254388367
9.64,1.0,-30.092573984134596
9.648,1.0,-30.285980646362773
9.656,1.0,-30.47939111621261
9.664,0.9999999999999999,-30.67280526889789
9.672,0.9999999999999999,-30.86622297970819
9.68,1.0,-31.05964412401005
9.688,1.0,-31.253068577248712
9.696,0.9999999999999999,-31.446496214949164
9.704,0.9999999999999999,-31.639926912718025
9.712,1.0,-31.833360546244506
9.72,1.0,-32.02679699130231
9.728,1.0,-32.22023612375061
9.736,0.9999999999999999,-32.413677819535884
9.744,0.9999999999999999,-32.60712195469295
9.752,1.0000000000000002,-32.800568405346766
9.76,1.0,-32.994017047713506
9.768,1.0,-33.18746775810227
