freq,mag,phase
6.0,1.0000980141343776,-123.41890121382552
6.004269056,1.000216485927486,-123.6667227762209
6.008538112,1.0003222854877998,-123.91612141079345
6.012806656,1.0004089097507722,-124.16693216809516
6.017075712,1.0004710696374648,-124.41880673110325
6.021344768,1.00050516236848,-124.67143107097903
6.025613824,1.000509164202475,-124.92434059078748
6.029882368,1.0004827864075614,-125.17710138652888
6.034151424,1.0004275255869428,-125.42938164744665
6.03842048,1.0003467685977323,-125.68070277206554
6.042689536,1.000245275407544,-125.9308017268263
6.046958592,1.0001290003072854,-126.17934840618648
6.051227136,1.000004891269764,-126.42628689130233
6.055496192,0.9998803343008071,-126.67152618385714
6.059765248,0.9997626550448898,-126.91506753310212
6.064034304,0.9996589835851531,-127.15709354307236
6.068302848,0.9995753588305683,-127.39783449326342
6.072571904,0.9995168419722138,-127.63762162869865
6.07684096,0.9994868424365172,-127.87678591092778
6.081110016,0.9994872267200734,-128.1157897352807
6.085379072,0.999518040005013,-128.35503438880775
6.089647616,0.9995772308715086,-128.59496995923055
6.093916672,0.999661554031562,-128.83592103292813
6.098185728,0.999765830304936,-129.07826133212717
6.102454784,0.999884024225449,-129.3221721118201
6.10672384,1.0000088997435228,-129.56783357216574
6.110992384,1.000133186967804,-129.8152773656491
6.11526144,1.0002494260339847,-130.06448091144512
6.119530496,1.000350812790432,-130.3152047543127
6.123799552,1.0004311626869515,-130.56726817680385
6.128068096,1.0004858573501703,-130.8202860714878
6.132337152,1.0005116533797984,-131.07393509574223
6.136606208,1.0005068700574917,-131.32776615827407
6.140875264,1.0004718668565638,-131.58134432080172
6.14514432,1.0004086581080696,-131.83425684351425
6.149412864,1.000321104762441,-132.08614285132128
6.15368192,1.0002142581149687,-132.336693899977
6.157950976,1.0000945289374747,-132.58568177640532
6.162220032,0.9999689770223028,-132.83299630291242
6.166488576,0.9998451361034393,-133.07859106202122
6.170757632,0.9997302279182321,-133.3225033401427
6.175026688,0.9996313083985131,-133.56498049145736
6.179295744,0.9995540045233828,-133.80622742187165
6.1835648,0.9995030701728149,-134.04661915856022
6.187833344,0.9994816101796445,-134.28648631090286
6.1921024,0.9994907778791792,-134.5263488590846
6.196371456,0.9995300812279269,-134.76655365812556
6.200640512,0.9995971519459449,-135.00753249480258
6.204909056,0.9996881050222226,-135.24967858302193
6.209178112,0.9997974691365992,-135.49325424948003
6.213447168,0.9999187889416687,-135.7384722293473
6.217716224,1.0000447724572081,-135.9854871874078
6.22198528,1.0001680719003665,-136.23428968496597
6.226253824,1.0002813310467726,-136.4847643139538
6.23052288,1.0003776026567013,-136.73676154921424
6.234791936,1.0004514713315518,-136.98995739753565
6.239060992,1.0004983981649416,-137.24404367983024
6.243329536,1.0005156250996128,-137.49863518857083
6.247598592,1.0005021351467183,-137.7532576572233
6.251867648,1.0004586563874913,-138.00752650368327
6.256136704,1.000387784718899,-138.26102080737516
6.26040576,1.0002937477119778,-138.51338795563
6.264674304,1.0001820567571182,-138.76434530156513
6.26894336,1.0000594127166764,-139.01368143286314
6.273212416,0.9999330238433366,-139.2612601909974
6.277481472,0.9998104602724952,-139.50716873772572
6.281750016,0.9996989141833679,-139.75144009481647
6.286019072,0.9996051204742925,-139.99429166726037
6.290288128,0.9995346762203786,-140.23600132627274
6.294557184,0.9994916700615033,-140.47695229573583
6.29882624,0.9994787627003929,-140.71756191747565
6.303094784,0.9994966428245383,-140.95818707893895
6.30736384,0.9995443229358582,-141.1993165604207
6.311632896,0.9996189397855415,-141.4413606295278
6.315901952,0.9997161819179639,-141.68464782814118
6.320171008,0.9998300889555216,-141.92940609625845
6.324439552,0.9999540987136059,-142.1758909786865
6.328708608,1.0000806657781431,-142.4241580579973
6.332977664,1.000202297676409,-142.67421180351343
6.33724672,1.0003118850461992,-142.92592245576975
6.341515264,1.000402863461896,-143.1790605571453
6.34578432,1.000469761076267,-143.43334261352192
6.350053376,1.0005087017810539,-143.68837138321337
6.354322432,1.0005173135978682,-143.94378810722168
6.358591488,1.0004950787442763,-144.1991328134972
6.362860032,1.0004433415913851,-144.45399055943585
6.367129088,1.000365089067532,-144.7079666816886
6.371398144,1.0002649836823974,-144.96070635493584
6.3756672,1.0001490241249233,-145.211969644808
6.379935744,1.000024045560997,-145.46156685444583
6.3842048,0.9998974006684219,-145.7094103837326
6.388473856,0.9997766972778717,-145.955564330922
6.392742912,0.9996690679358243,-146.20010311266466
6.397011968,0.999580967915407,-146.44330930382594
6.401280512,0.9995175671027525,-146.68546071651892
6.405549568,0.9994826821002848,-146.9269192491264
6.409818624,0.9994784436394057,-147.16819635148428
6.41408768,0.9995050213204519,-147.4096103642055
6.418356224,0.9995609137830778,-147.6516457437466
6.42262528,0.9996427352576214,-147.89465872440036
6.426894336,0.9997457698575573,-148.1390378065898
6.431163392,0.9998638015362948,-148.3849422478759
6.435432448,0.9999897864294283,-148.632626597085
6.439700992,1.0001163533750972,-148.88212678486724
6.443970048,1.0002358862270926,-149.133338127982
6.448239104,1.0003412852629083,-149.38619825614145
6.45250816,1.0004263644297466,-149.64037893293732
6.456776704,1.0004860192381118,-149.89562558029442
6.46104576,1.0005167399891892,-150.1515494693562
6.465314816,1.0005166419014606,-150.4076931240381
6.469583872,1.0004858241478458,-150.66366973310448
6.473852928,1.0004259870992784,-150.91899891752803
6.478121472,1.0003406511417519,-151.17335409283
6.482390528,1.000235016074574,-151.42640989289856
6.486659584,1.000115186102169,-151.67787220286843
6.49092864,0.9999883700849395,-151.92765298420835
6.495197184,0.9998620001114705,-152.17566615717325
6.49946624,0.9997437556460267,-152.42201691614233
6.503735296,0.9996405438060477,-152.66677313517278
6.508004352,0.9995585166189981,-152.91027815896797
6.512273408,0.9995025738054669,-153.1528415264999
6.516541952,0.999475989557955,-153.39481233715705
6.520811008,0.9994804333431232,-153.6366805444241
6.525080064,0.9995156305373416,-153.87884521541739
6.52934912,0.999579459028032,-154.12172678733478
6.533618176,0.9996682671686461,-154.36568493580018
6.53788672,0.9997765845859308,-154.61109259800142
6.542155776,0.9998980979780592,-154.85811531532516
6.546424832,1.0000256321740524,-155.10693244295481
6.550693888,1.0001515707702815,-155.35751447276033
6.554962432,1.0002683811016346,-155.60985329759677
6.559231488,1.0003691820316498,-155.86376526517924
6.563500544,1.0004479174197298,-156.1189433919586
6.5677696,1.0004999952021043,-156.3750705164215
6.572038656,1.000522336668074,-156.63172391459864
6.5763072,1.0005134777851263,-156.8885103728494
6.580576256,1.0004740745607672,-157.14497029116419
6.584845312,1.0004063871494713,-157.4007220707467
6.589114368,1.0003144024550983,-157.65537528824507
6.593382912,1.0002035703654737,-157.9086106951519
6.597651968,1.0000805119761615,-158.1602150732486
6.601921024,0.9999524541149585,-158.41008437704232
6.60619008,0.9998270739591565,-158.65822414611785
6.610459136,0.9997118570063845,-158.90465158837011
6.61472768,0.9996133922967793,-159.14961807228013
6.618996736,0.9995378794573923,-159.39336211524616
6.623265792,0.9994896480487351,-159.63627898761834
6.627534848,0.9994715355694969,-159.87870413547603
6.631803392,0.9994847507831023,-160.12115422278956
6.636072448,0.9995284901421244,-160.3640150804368
6.640341504,0.99959999163427,-160.60771280082216
6.64461056,0.9996952324134804,-160.8526139262966
6.648879616,0.9998085203878594,-161.09896528531473
6.65314816,0.9999330237345061,-161.34705508070573
6.657417216,1.000061462556888,-161.59691415810144
6.661686272,1.00018615461976,-161.84856575234636
6.665955328,1.0002997199953747,-162.10192265293912
6.670223872,1.000395374949107,-162.3567824392771
6.674492928,1.000467483936735,-162.61284296646818
6.678761984,1.0005117764355762,-162.8697340638604
6.68303104,1.0005254612512355,-163.12705921416457
6.687300096,1.0005079960831913,-163.38437479058197
6.69156864,1.0004601016258197,-163.64125431448886
6.695837696,1.0003848830276103,-163.89726240508406
6.700106752,1.0002865129817415,-164.15207921514795
6.704375808,1.0001710821896979,-164.40543560983164
6.708644864,1.0000452696558828,-164.65710894377395
6.712913408,0.9999166079889807,-164.9070145836203
6.717182464,0.9997926731540369,-165.15516535167131
6.72145152,0.9996809048730977,-165.40167898070197
6.725720576,0.999587854832888,-165.64674920771586
6.72998912,0.9995191057951602,-165.89071411750777
6.734258176,0.9994788465531261,-166.1338834764308
6.738527232,0.9994694861225847,-166.3767743102079
6.742796288,0.9994913351501874,-166.6197801193321
6.747065344,0.9995433765019819,-166.8632886974982
6.751333888,0.9996223867288243,-167.10775018073704
6.755602944,0.9997238170713068,-167.35349202627273
6.759872,0.9998414118437202,-167.60079256414087
6.764141056,0.9999684338818563,-167.84984440963234
6.7684096,1.0000971136041483,-168.1006809428342
6.772678656,1.0002201362599341,-168.3533225301676
6.776947712,1.0003298416317838,-168.60762154464012
6.781216768,1.0004199201718684,-168.8633333583911
6.785485824,1.0004850052482592,-169.12018800908217
6.789754368,1.0005212028175392,-169.37774198700944
6.794023424,1.0005262946999565,-169.63557518918665
6.79829248,1.0005001423697963,-169.89331687055812
6.802561536,1.0004440231407423,-170.15048872933446
6.80683008,1.0003614401399894,-170.40670585836054
6.811099136,1.0002572503520724,-170.66165391498146
6.815368192,1.0001376019959785,-170.91501212415923
6.819637248,1.0000096414509494,-171.16664857609618
6.823906304,0.9998807851673353,-171.41651198478613
6.828174848,0.9997589572899511,-171.66462199810073
6.832443904,0.9996512637147679,-171.91112930362485
6.83671296,0.9995640239289365,-172.1562744300403
6.840982016,0.9995026375936288,-172.40038325335036
6.84525056,0.9994705161084173,-172.64384971495804
6.849519616,0.9994697510639717,-172.88711874831566
6.853788672,0.9995004282659476,-173.1305947842752
6.858057728,0.9995605631036204,-173.37472808807993
6.862326784,0.9996467055384596,-173.61990067021927
6.866595328,0.999753766246735,-173.86647571663292
6.870864384,0.9998752674674832,-174.1146234873973
6.87513344,1.0000041606355208,-174.3645715246179
6.879402496,1.000132723659824,-174.6163535529874
6.88367104,1.0002533199945935,-174.86988948189028
6.887940096,1.0003587187578493,-175.1250211378008
6.892209152,1.0004428927562992,-175.38151658861142
6.896478208,1.0005004738887568,-175.63900523628746
6.900747264,1.0005284567393287,-175.89714588904562
6.905015808,1.0005248649987202,-176.15544435922558
6.909284864,1.000489928806179,-176.41348426529922
6.91355392,1.0004257729431645,-176.67084908278937
6.917822976,1.0003362365999613,-176.9271849732349
6.922092032,1.0002266389464234,-177.18208469139523
6.926360576,1.0001032860827097,-177.43538729017538
6.930629632,0.9999737012363271,-177.68690405030287
6.934898688,0.9998454577476262,-177.93664702417755
6.939167744,0.9997261856360177,-178.18463552680464
6.943436288,0.9996230601634016,-178.43110163313403
6.947705344,0.9995419643493922,-178.67625434636432
6.9519744,0.9994881299178836,-178.92048264169142
6.956243456,0.9994644010097663,-179.16418080749608
6.960512512,0.9994724244296822,-179.40777356950977
6.964781056,0.9995115890622346,-179.651709119946
6.969050112,0.9995796921090294,-179.89642049219879
6.973319168,0.9996725730978677,179.8577525950937
6.977588224,0.9997849894238308,179.61043050457343
6.981856768,0.9999099853015709,179.36145357263865
6.986125824,1.0000401204243516,179.11065923245033
6.99039488,1.000167889327086,178.85804881933373
6.994663936,1.0002855752270312,178.60370004795269
6.998932992,1.0003862784267752,178.34779365727593
7.003201536,1.0004638608734413,178.09063664382128
7.007470592,1.000513986263827,177.83254497734868
7.011739648,1.0005333533806433,177.57398710916314
7.016008704,1.0005209021813188,177.31534858032964
7.020277248,1.0004775176563032,177.05710058709684
7.024546304,1.0004056409322373,176.79961609768011
7.02881536,1.0003094753934678,176.54335367398093
7.033084416,1.0001947876984303,176.2885329591787
7.037353472,1.0000683453986856,176.03538370358464
7.041622016,0.9999376273849597,175.78404563109922
7.045891072,0.9998104537790885,175.5345168573089
7.050160128,0.9996944108582209,175.286676847984
7.054429184,0.9995962646867251,175.04034794573872
7.058697728,0.9995218823418295,174.79520705902237
7.062966784,0.9994758481534106,174.5509038979368
7.06723584,0.9994607242416469,174.30704264220614
7.071504896,0.9994774733722271,174.0631540004953
7.075773952,0.9995252090284034,173.81880845106483
7.080042496,0.9996009626142051,173.57357264467544
7.084311552,0.999700361662158,173.32711674919366
7.088580608,0.999817466532718,173.07913005123947
7.092849664,0.999945246473919,172.82937275230046
7.097118208,1.0000762215558876,172.57780339041884
7.101387264,1.0002026734273528,172.3244303174108
7.10565632,1.0003170178794745,172.06934752782016
7.109925376,1.0004123348909444,171.8127733595556
7.114194432,1.0004830908080247,171.5550318972462
7.118462976,1.0005251048496526,171.29650562047627
7.122732032,1.0005358829268023,171.03755064879115
7.127001088,1.0005147917907626,170.77871762367184
7.131270144,1.0004629860235996,170.52035898841905
7.1355392,1.000383489569343,170.26291296640352
7.139807744,1.0002810855438375,170.00673464839267
7.1440768,1.0001617803047764,169.75210632690812
7.148345856,1.0000327847478494,169.49921684155578
7.152614912,0.9999016435949528,169.24814444164494
7.156883456,0.9997760503330618,168.99887102316646
7.161152512,0.9996637100755519,168.75128013474946
7.165421568,0.9995710135312359,168.50509558220227
7.169690624,0.9995037158208789,168.26004492292756
7.17395968,0.999465747668574,168.01573501029344
7.178228224,0.9994593147203856,167.77174830912517
7.18249728,0.9994848640434131,167.52760441256277
7.186766336,0.9995409074301409,167.2828709601525
7.191035392,0.999624185142004,167.03716193777106
7.195303936,0.9997295844374146,166.79012146451686
7.199572992,0.9998509282831467,166.54146490097688
7.203842048,0.9999810895021846,166.29104526376565
7.208111104,1.000112349159547,166.03879959184545
7.21238016,1.0002367593520223,165.7847141012394
7.216648704,1.0003470816566795,165.52900710969428
7.22091776,1.000436674350985,165.27186553988426
7.225186816,1.0005003092272282,165.01362942094195
7.229455872,1.0005341190930281,164.7547266211142
7.233724416,1.0005362469990071,164.49557138899195
7.237993472,1.0005062244631584,164.23658098778196
7.242262528,1.0004462051296248,163.9782157840798
7.246531584,1.0003594263474889,163.72089161427724
7.25080064,1.0002512022416388,163.46493737634435
7.255069184,1.0001278894353225,163.2105881855358
7.25933824,0.9999967552575796,162.9580069005945
7.263607296,0.9998656081672622,162.70730130517236
7.267876352,0.9997423013567479,162.45834685650942
7.272144896,0.9996342490348866,162.21103427363207
7.276413952,0.9995475332210347,161.96509417920993
7.280683008,0.9994875716940604,161.72018597744753
7.284952064,0.9994578064791814,161.47588929113985
7.28922112,0.9994602146659854,161.23179031041352
7.293489664,0.9994945908175478,160.98742073977675
7.29775872,0.9995588166289319,160.74239047674604
7.302027776,0.9996490964427175,160.49624023103752
7.306296832,0.9997602096253503,160.2486764356193
7.310565888,0.9998853529536343,159.99943465818654
7.314834432,1.0000173597448234,159.7483726616725
7.319103488,1.0001482558770485,159.49550130101827
7.323372544,1.000270099562429,159.2408183777734
7.3276416,1.0003759898033402,158.98452996687257
7.331910144,1.0004593988843546,158.7269304294869
7.3361792,1.0005155019871024,158.46833465131394
7.340448256,1.0005409563823429,158.20913798342784
7.344717312,1.0005341753273949,157.9498475136275
7.348986368,1.0004954652351536,157.69083426379925
7.353254912,1.0004272598149608,157.43260448388526
7.357523968,1.0003335722732465,157.1754740075636
7.361793024,1.0002198687539754,156.91980668226643
7.36606208,1.0000930078331205,156.66584974976377
7.370330624,0.9999604888616179,156.4136783087085
7.37459968,0.9998299828955258,156.16338399513492
7.378868736,0.999709403741905,155.914839404977
7.383137792,0.9996059343529244,155.6678488333077
7.387406848,0.9995256643184791,155.42218773511703
7.391675392,0.9994733492518209,155.1774534250196
7.395944448,0.9994523540567728,154.9332317159738
7.400213504,0.9994634932479551,154.6890844674828
7.40448256,0.99950661591825,154.44455562877462
7.408751104,0.9995787671457501,154.1992005687494
7.41302016,0.9996759019419179,153.95265358982607
7.417289216,0.9997921372449327,153.70463283666575
7.421558272,0.9999207734570671,153.45486303504111
7.425827328,1.000053814009246,153.20324223516045
7.430095872,1.0001837195059207,152.9497857958186
7.434364928,1.0003025581874845,152.69458184081935
7.438633984,1.000403499084392,152.43782263299454
7.44290304,1.0004802688531258,152.17982353760172
7.447171584,1.000528555987271,151.9209617550303
7.45144064,1.0005452841303342,151.66161660972696
7.455709696,1.0005295563692103,151.40225724845686
7.459978752,1.000482329931951,151.14336251404606
7.464247808,1.0004062699632361,150.8852979202025
7.468516352,1.0003058461982572,150.62850772690473
7.472785408,1.000187257026886,150.3732389817651
7.477054464,1.000057333369232,150.11971573023106
7.48132352,0.9999237227347729,149.86805469693786
7.485592064,0.9997944451169195,149.61822603399156
7.48986112,0.9996772692768394,149.3701396355167
7.494130176,0.9995789936274685,149.12356942202132
7.498399232,0.9995055201465558,148.878222583714
7.502668288,0.9994612798969846,148.63370942758317
7.506936832,0.9994489059494427,148.38956885260023
7.511205888,0.9994690825672782,148.14539261879577
7.515474944,0.9995206424609175,147.90072233585002
7.519744,0.9996006482191299,147.6551182750826
7.524013056,0.9997042504203437,147.40824549839343
7.5282816,0.9998252359953145,147.15977522214095
7.532550656,0.9999565810218524,146.9095219577666
7.536819712,1.000090343996875,146.65741575567142
7.541088768,1.000218661444923,146.40346661195287
7.545357312,1.0003340603078803,146.14781458867137
7.549626368,1.0004293288017205,145.89068178321227
7.553895424,1.0004992295180222,145.63239551870186
7.55816448,1.000539285149881,145.37331971463001
7.562433536,1.0005472819656192,145.11390418890525
7.56670208,1.0005225770462758,144.85464040577133
7.570971136,1.0004668372158816,144.59591445410706
7.575240192,1.000383221263119,144.33820181837152
7.579509248,1.0002765950013786,144.08177630825455
7.583777792,1.000153484775319,143.8270115242204
7.588046848,1.00002093992807,143.57399695803963
7.592315904,0.9998870229505222,143.32288677986895
7.59658496,0.9997595639272773,143.0736133438586
7.600854016,0.999646243859913,142.82604516621873
7.60512256,0.9995537091423942,142.5799423291305
7.609391616,0.9994875076244794,142.33494608545797
7.613660672,0.9994516094759375,142.0906493308811
7.617929728,0.999447953203655,141.84667335328743
7.622198272,0.9994771766249957,141.602507232341
7.626467328,0.9995372246761364,141.35772461408425
7.630736384,0.9996246358701608,141.11191404106694
7.63500544,0.9997343376523988,140.86470754935814
7.639274496,0.9998596247756155,140.61584902999275
7.64354304,0.999993224371527,140.3651957667657
7.647812096,1.0001270327207026,140.1126580189447
7.652081152,1.000253367307728,139.85828606296573
7.656350208,1.0003644774537497,139.6022627777317
7.660618752,1.000453862337331,139.3448223527104
7.664887808,1.0005163773142796,139.08632147690193
7.669156864,1.0005480145671275,138.8271691695155
7.67342592,1.0005470607661713,138.56778789556333
7.677694976,1.0005134308106285,138.3086745287843
7.68196352,1.0004493317455583,138.05024105418207
7.686232576,1.0003582720158044,137.79290278144305
7.690501632,1.0002459283662601,137.53700066662563
7.694770688,1.0001186306942078,137.28276419985534
7.699039232,0.9999842603368756,137.03039503975444
7.703308288,0.9998504535581793,136.77991988760743
7.707577344,0.9997254514736061,136.5312371000791
