freq,mag,phase
6.0,1.0,37.64232777931326
6.008,0.9999999999999999,37.43673610373888
6.016,1.0,37.23109640853636
6.024,1.0,37.02540873768771
6.032,1.0,36.81967313546094
6.04,0.9999999999999999,36.61388964641097
6.048,1.0,36.408058315380636
6.056,1.0,36.20217918750169
6.064,1.0,35.996252308195714
6.072,0.9999999999999999,35.79027772317504
6.08,0.9999999999999998,35.58425547844375
6.088,1.0,35.37818562029855
6.096,1.0,35.17206819532979
6.104,1.0,34.96590325042225
6.112,0.9999999286612438,34.7596908327562
6.12,0.9999996582736379,34.55343098980811
6.128,0.9999993933202189,34.347123769351825
6.136,0.9999991337142683,34.14076921945923
6.144,0.9999988793698869,33.93436738850119
6.152,0.9999986302019918,33.72791832514846
6.16,0.9999983861263166,33.52142207837254
6.168,0.9999981470594097,33.31487869744655
6.176,0.999997912918633,33.10828823194608
6.184,0.9999976836221596,32.90165073175002
6.192,0.9999974590889751,32.694966247041386
6.2,0.9999972392388728,32.48823482830825
6.208,0.9999970239924552,32.281456526344435
6.216,0.9999968132711307,32.074631392250446
6.224,0.999996606997113,31.86775947743415
6.232,0.9999964050934197,31.660840833611744
6.24,0.9999962074838701,31.45387551280844
6.248,0.9999960140930844,31.246863567359263
6.256,0.9999958248464822,31.03980504990987
6.264,0.9999956396702796,30.832700013417206
6.272,0.9999954584914893,30.625548511150544
6.28,0.999995281237918,30.418350596691884
6.288,0.9999951078381649,30.211106323936963
6.296,0.9999949382216203,30.003815747095878
6.304,0.9999947723184629,29.796478920693847
6.312,0.9999946100596592,29.589095899571955
6.32,0.9999944513769619,29.381666738887816
6.328,0.9999942962029061,29.174191494116336
6.336,0.9999941444708099,28.96667022105039
6.344,0.9999939961147712,28.75910297580149
6.352,0.9999938510696662,28.551489814800515
6.36,0.999993709271147,28.34383079479835
6.368,0.9999935706556404,28.13612597286656
6.376,0.9999934351603452,27.928375406398075
6.384,0.9999933027232316,27.72057915310777
6.392,0.9999931732830366,27.5127372710332
6.4,0.9999930467792646,27.30484981853514
6.408,0.9999929231521836,27.0969168542983
6.416,0.9999928023428243,26.88893843733185
6.424,0.9999926842929774,26.680914626970083
6.432,0.9999925689451908,26.472845482873012
6.44,0.9999924562427683,26.2647310650269
6.448,0.9999923461297676,26.05657143374497
6.456,0.9999922385509971,25.848366649667792
6.464,0.9999921334520143,25.640116773764024
6.472,0.9999920307791227,25.431821867330843
6.48,0.9999919304793716,25.223481991994525
6.4879999999999995,0.9999918325005509,25.015097209711048
6.496,0.9999917367911906,24.80666758276645
6.504,0.9999916433005579,24.5981931737776
6.5120000000000005,0.9999915519786542,24.389674045692406
6.52,0.9999914627762141,24.18111026179062
6.5280000000000005,0.9999913756447015,23.972501885684025
6.536,0.9999912905363075,23.763848981317242
6.5440000000000005,0.9999912074039483,23.55515161296782
6.552,0.9999911262012614,23.34640984524712
6.5600000000000005,0.9999910468826053,23.137623743100352
6.568,0.9999909694030542,22.928793371807423
6.5760000000000005,0.9999908937183969,22.719918796982956
6.584,0.9999908197851344,22.511000084577134
6.592,0.9999907475604757,22.302037300875746
6.6,0.9999906770023368,22.093030512500828
6.608,0.9999906080693367,21.88397978641097
6.616,0.9999905407207952,21.674885189901733
6.624,0.9999904749167292,21.465746790605998
6.632,0.9999904106178515,21.25656465649434
6.64,0.9999903477855667,21.04733885587541
6.648,0.999990286381968,20.83806945739626
6.656,0.9999902263698359,20.62875653004266
6.664,0.9999901677126332,20.419400143139498
6.672,0.999990110374503,20.21000036635102
6.68,0.9999900543202667,20.00055726968119
6.688,0.9999899995154191,19.791070923473953
6.696,0.9999899459261264,19.58154139841356
6.704,0.9999898935192223,19.371968765524805
6.712,0.9999898422622064,19.162353096173348
6.72,0.9999897921232394,18.95269446206592
6.728,0.999989743071141,18.74299293525061
6.736,0.9999896950753855,18.533248588117083
6.744,0.9999896481061005,18.32346149339682
6.752,0.9999896021340611,18.11363172416332
6.76,0.9999895571306895,17.903759353832346
6.768,0.9999895130680486,17.693844456162072
6.776,0.999989469918841,17.483887105253316
6.784,0.999989427656405,17.273887375549684
6.792,0.9999893862547099,17.063845341837773
6.8,0.9999893456883548,16.853761079247278
6.808,0.9999893059325632,16.64363466325121
6.816,0.9999892669631807,16.43346616966596
6.824,0.9999892287566704,16.223255674651472
6.832,0.9999891912901101,16.01300325471134
6.84,0.999989154541189,15.802708986692911
6.848,0.9999891184882029,15.592372947787418
6.856,0.9999890831100521,15.381995215529997
6.864,0.999989048386236,15.1715758677998
6.872,0.9999890142968508,14.961114982820087
6.88,0.9999889808225846,14.75061263915822
6.888,0.9999889479447152,14.540068915725739
6.896,0.9999889156451046,14.32948389177839
6.904,0.9999888839061959,14.118857646916142
6.912,0.9999888527110095,13.908190261083206
6.92,0.9999888220431395,13.697481814568015
6.928,0.9999887918867483,13.486732388003238
6.936,0.9999887622265653,13.275942062365734
6.944,0.9999887330478802,13.065110918976549
6.952,0.9999887043365397,12.854239039500836
6.96,0.9999886760789459,12.643326505947815
6.968,0.9999886482620476,12.432373400670736
6.976,0.9999886208733404,12.221379806366762
6.984,0.9999885939008603,12.01034580607691
6.992,0.9999885673331802,11.799271483185928
7.0,0.9999885411594058,11.588156921422218
7.008,0.9999885153691702,11.377002204857694
7.016,0.9999884899526322,11.165807417907638
7.024,0.9999884649004688,10.954572645330604
7.032,0.9999884402038727,10.74329797222823
7.04,0.9999884158545487,10.531983484045076
7.048,0.9999883918447063,10.320629266568464
7.056,0.9999883681670592,10.109235405928274
7.064,0.9999883448148164,9.897801988596775
7.072,0.9999883217816823,9.686329101388381
7.08,0.9999882990618487,9.474816831459455
7.088,0.9999882766499911,9.263265266308071
7.096,0.9999882545412647,9.051674493773795
7.104,0.9999882327313002,8.840044602037372
7.112,0.9999882112161966,8.628375679620534
7.12,0.9999881899925197,8.416667815385695
7.128,0.9999881690572949,8.204921098535639
7.136,0.9999881484080033,7.993135618613242
7.144,0.9999881280425775,7.7813114655011955
7.152,0.9999881079593954,7.56944872942163
7.16,0.9999880881572767,7.357547500935817
7.168,0.9999880686354755,7.145607870943822
7.176,0.9999880493936789,6.933629930684127
7.184,0.9999880304319989,6.721613771733307
7.192,0.9999880117509696,6.509559486005593
7.2,0.99998799335154,6.297467165752561
7.208,0.9999879752350695,6.085336903562657
7.216,0.9999879574033246,5.873168792360817
7.224,0.9999879398584702,5.6609629254080485
7.232,0.9999879226030678,5.448719396300983
7.24,0.9999879056400682,5.236438298971434
7.248,0.999987888972806,5.024119727685956
7.256,0.9999878726049953,4.811763777045332
7.264,0.9999878565407242,4.599370541984115
7.272,0.9999878407844481,4.38694011777017
7.28,0.999987825340986,4.174472600004096
7.288,0.9999878102155115,3.9619680846187832
7.296,0.9999877954135531,3.7494266678788057
7.304,0.9999877809409826,3.5368484463799628
7.312,0.9999877668040126,3.3242335170486785
7.32,0.9999877530091903,3.111581977141436
7.328,0.9999877395633907,2.89889392424422
7.336,0.9999877264738125,2.686169456271932
7.344,0.9999877137479706,2.4734086714677717
7.352,0.999987701393691,2.2606116684026327
7.36,0.9999876894191045,2.0477785459744844
7.368,0.9999876778326414,1.8349094034077271
7.376,0.9999876666430242,1.6220043402525688
7.384,0.9999876558592626,1.4090634563843292
7.392,0.9999876454906469,1.1960868520027996
7.4,0.999987635546742,0.9830746276315363
7.4079999999999995,0.99998762603738,0.7700268841171883
7.416,0.9999876169726559,0.5569437226287112
7.4239999999999995,0.9999876083629201,0.3438252446568489
7.432,0.9999876002187714,0.13067155201309696
7.4399999999999995,0.9999875925510519,-0.08251725317070464
7.448,0.999987585370839,-0.29574106844347636
7.4559999999999995,0.9999875786894408,-0.5089997910353034
7.464,0.9999875725183874,-0.7222933178585907
7.4719999999999995,0.9999875668694251,-0.9356215455084911
7.48,0.9999875617545102,-1.1489843702640763
7.4879999999999995,0.9999875571858013,-1.3623816880887607
7.496,0.999987553175653,-1.575813394631571
7.504,0.9999875497366086,-1.7892793852275422
7.5120000000000005,0.9999875468813942,-2.0027795548989875
7.52,0.9999875446229098,-2.21631379835599
7.5280000000000005,0.9999875429742241,-2.429882009997656
7.536,0.9999875419485666,-2.6434840839126266
7.5440000000000005,0.9999875415593196,-2.8571199138803776
7.552,0.9999875418200127,-3.070789393371743
7.5600000000000005,0.9999875427443136,-3.2844924155502446
7.568,0.9999875443460222,-3.4982288732726436
7.5760000000000005,0.9999875466390629,-3.711998659090286
7.584,0.9999875496374762,-3.925801665249698
7.5920000000000005,0.9999875533554117,-4.139637783693947
7.6,0.9999875578071216,-4.353506906063254
7.6080000000000005,0.99998756300695,-4.567408923696405
7.616,0.9999875689693294,-4.781343727631366
7.6240000000000006,0.9999875757087684,-4.995311208606732
7.632,0.9999875832398477,-5.209311257062363
7.640000000000001,0.9999875915772092,-5.423343763140867
7.648,0.9999876007355499,-5.637408616688277
7.656000000000001,0.9999876107296124,-5.851505707255522
7.664,0.9999876215741786,-6.06563492409916
7.672,0.9999876332840594,-6.279796156182847
7.68,0.9999876458740873,-6.493989292178225
7.688,0.9999876593591085,-6.708214220466164
7.696,0.999987673753974,-6.922470829137916
7.704,0.9999876890735306,-7.136759005996289
7.712,0.9999877053326136,-7.351078638556829
7.72,0.9999877225460364,-7.565429614049033
7.728,0.9999877407285839,-7.779811819417561
7.736,0.9999877598950012,-7.994225141323467
7.744,0.9999877800599878,-8.208669466145453
7.752,0.9999878012381854,-8.423144679981137
7.76,0.9999878234441709,-8.6376506686483
7.768,0.9999878466924469,-8.85218731768622
7.776,0.9999878709974327,-9.06675451235694
7.784,0.9999878963734539,-9.281352137646618
7.792,0.999987922834735,-9.495980078266854
7.8,0.9999879503953887,-9.710638218656017
7.808,0.9999879790694058,-9.925326442980667
7.816,0.9999880088706478,-10.140044635136903
7.824,0.9999880398128351,-10.354792678751744
7.832,0.9999880719095388,-10.569570457184588
7.84,0.9999881051741696,-10.784377853528627
7.848,0.9999881396199691,-10.999214750612271
7.856,0.9999881752599995,-11.214081031000642
7.864,0.999988212107133,-11.428976576997044
7.872,0.9999882501740425,-11.643901270644452
7.88,0.9999882894731915,-11.858854993727025
7.888,0.9999883300168222,-12.073837627771667
7.896,0.999988371816948,-12.288849054049518
7.904,0.9999884148853403,-12.503889153577573
7.912,0.9999884592335198,-12.71895780712024
7.92,0.9999885048727447,-12.93405489519093
7.928,0.9999885518140025,-13.149180298053695
7.936,0.9999886000679953,-13.364333895724853
7.944,0.9999886496451331,-13.579515567974646
7.952,0.9999887005555198,-13.794725194328908
7.96,0.9999887528089443,-14.009962654070765
7.968,0.9999888064148689,-14.225227826242314
7.976,0.9999888613824175,-14.440520589646408
7.984,0.9999889177203656,-14.655840822848358
7.992,0.9999889754371286,-14.871188404177685
8.0,0.9999890345407504,-15.086563211729995
8.008,0.9999890950388922,-15.301965123368651
8.016,0.9999891569388208,-15.517394016726781
8.024000000000001,0.999989220247398,-15.732849769208931
8.032,0.9999892849710682,-15.948332257992984
8.04,0.9999893511158476,-16.163841360032198
8.048,0.9999894186873112,-16.379376952057015
8.056000000000001,0.9999894876905826,-16.59493891057687
8.064,0.9999895581303214,-16.81052711188227
8.072,0.9999896300107126,-17.026141432046845
8.08,0.999989703335453,-17.241781746929252
8.088000000000001,0.99998977810774,-17.457447932175107
8.096,0.999989854330261,-17.67313986321913
8.104,0.9999899320051788,-17.88885741528729
8.112,0.9999900111341228,-18.104600463398775
8.120000000000001,0.9999900917181741,-18.320368882368083
8.128,0.9999901737578556,-18.53616254680717
8.136,0.9999902572531183,-18.751981331127766
8.144,0.9999903422033305,-18.96782510954344
8.152000000000001,0.9999904286072652,-19.183693756071705
8.16,0.999990516463088,-19.39958714453636
8.168,0.9999906057683443,-19.61550514856986
8.176,0.999990696519949,-19.83144764161548
8.184000000000001,0.9999907887141729,-20.04741449692953
8.192,0.9999908823466307,-20.263405587583847
8.2,0.9999909774122702,-20.479420786468147
8.208,0.9999910739053585,-20.695459966292418
8.216000000000001,0.9999911718194711,-20.911522999589224
8.224,0.9999912711474807,-21.1276097587162
8.232,0.9999913718815435,-21.343720115858684
8.24,0.999991474013088,-21.559853943032067
8.248000000000001,0.9999915775328043,-21.776011112084266
8.256,0.9999916824306311,-21.992191494698396
8.264,0.9999917886957443,-22.2083949623954
8.272,0.9999918963165461,-22.424621386536618
8.280000000000001,0.9999920052806534,-22.640870638326287
8.288,0.9999921155748857,-22.857142588814426
8.296,0.9999922271852539,-23.07343710889951
8.304,0.9999923400969509,-23.289754069331185
8.312,0.9999924542943393,-23.506093340712876
8.32,0.9999925697609401,-23.722454793504955
8.328,0.9999926864794231,-23.93883829802715
8.336,0.9999928044315963,-24.15524372446181
8.344,0.9999929235983958,-24.37167094285642
8.352,0.9999930439598742,-24.58811982312692
8.36,0.9999931654951932,-24.80459023506028
8.368,0.9999932881826123,-25.021082048317876
8.376,0.9999934119994798,-25.23759513243813
8.384,0.9999935369222233,-25.45412935683997
8.392,0.9999936629263423,-25.670684590825523
8.4,0.9999937899863979,-25.887260703583635
8.408,0.9999939180760055,-26.103857564192676
8.416,0.9999940471678267,-26.32047504162405
8.424,0.9999941772335617,-26.53711300474512
8.432,0.9999943082439418,-26.7537713223228
8.44,0.9999944401687229,-26.970449863026506
8.448,0.9999945729766792,-27.18714849543184
8.456,0.9999947066355968,-27.40386708802358
8.464,0.9999948411122679,-27.620605509199475
8.472,0.9999949763724857,-27.83736362727332
8.48,0.9999951123810403,-28.054141310478723
8.488,0.9999952491017142,-28.270938426972325
8.496,0.9999953864972787,-28.487754844837625
8.504,0.9999955245294895,-28.70459043208826
8.512,0.9999956631590866,-28.921445056671907
8.52,0.9999958023457901,-29.138318586473574
8.528,0.9999959420483001,-29.355210889319643
8.536,0.9999960822242949,-29.572121832981228
8.544,0.9999962228304328,-29.7890512851782
8.552,0.9999963638223496,-30.00599911358265
8.56,0.9999965051546632,-30.222965185823025
8.568,0.9999966467809742,-30.4399493694876
8.576,0.9999967886538675,-30.656951532128673
8.584,0.9999969307249181,-30.873971541266098
8.592,0.9999970729446941,-31.09100926439159
8.6,0.9999972152627622,-31.308064568972267
8.608,0.9999973576276943,-31.52513732245495
8.616,0.9999974999870742,-31.742227392269914
8.624,0.9999976422875045,-31.959334645835103
8.632,0.9999977844746181,-32.17645895055996
8.64,0.9999979264930846,-32.393600173849784
8.648,0.9999980682866244,-32.610758183109425
8.656,0.9999982097980183,-32.82793284574781
8.664,0.999998350969122,-33.04512402918169
8.672,0.9999984917408798,-33.26233160084018
8.68,0.9999986320533387,-33.479555428168446
8.688,0.9999987718456661,-33.696795378632366
8.696,0.9999989110561668,-33.914051319722326
8.704,0.9999990496223017,-34.13132311895771
8.712,0.9999991874807085,-34.348610643890844
8.72,0.9999993245672212,-34.565913762111485
8.728,0.9999994608168943,-34.7832323412508
8.736,0.9999995961640261,-35.000566248985784
8.744,0.999999730542184,-35.217915353043246
8.752,0.9999998638842301,-35.43527952120439
8.76,0.9999999961223507,-35.6526586213086
8.768,1.0,-35.870052521258096
8.776,1.0,-36.0874610890217
8.784,1.0,-36.30488419263945
8.792,1.0,-36.52232170022637
8.8,1.0,-36.73977347997706
8.808,1.0,-36.95723940016936
8.815999999999999,1.0,-37.17471932916891
8.824,0.9999999999999999,-37.39221313543297
8.832,0.9999999999999999,-37.60972068751451
8.84,1.0,-37.827241854066244
8.847999999999999,0.9999999999999999,-38.04477650384472
8.856,1.0,-38.26232450571423
8.864,1.0,-38.479885728650515
8.872,1.0,-38.69746004174481
8.879999999999999,1.0,-38.91504731420764
8.888,0.9999999999999999,-39.13264741537258
8.896,1.0,-39.350260214699766
8.904,1.0,-39.567885581779585
8.911999999999999,0.9999999999999999,-39.785523386336386
8.92,0.9999999999999999,-40.00317349823181
8.928,1.0,-40.22083578746815
8.936,1.0,-40.43851012419165
8.943999999999999,1.0,-40.65619637869598
8.952,0.9999999999999999,-40.87389442142513
8.96,0.9999999999999999,-41.09160412297649
8.968,0.9999999999999999,-41.309325354103734
8.975999999999999,1.0,-41.52705798571987
8.984,1.0,-41.7448018888999
8.992,0.9999999999999999,-41.96255693488323
9.0,1.0,-42.18032299507629
9.008,0.9999999999999999,-42.39809994105505
9.016,0.9999999999999998,-42.615887644567145
9.024000000000001,0.9999999999999999,-42.83368597753386
9.032,0.9999999999999999,-43.051494812052276
9.04,0.9999999999999999,-43.269314020397076
9.048,1.0,-43.48714347502231
9.056000000000001,0.9999999999999999,-43.70498304856271
9.064,1.0,-43.92283261383521
9.072,1.0,-44.14069204384028
9.08,0.9999999999999999,-44.358561211762876
9.088000000000001,1.0,-44.576439990973284
9.096,0.9999999999999999,-44.79432825502796
9.104,1.0,-45.01222587767015
9.112,1.0,-45.23013273283013
9.120000000000001,0.9999999999999999,-45.44804869462546
9.128,0.9999999999999999,-45.66597363736107
9.136,1.0,-45.88390743552905
9.144,1.0,-46.10184996380844
9.152000000000001,0.9999999999999999,-46.31980109706446
9.16,0.9999999999999998,-46.53776071034794
9.168,1.0,-46.75572867889447
9.176,1.0,-46.973704878123264
9.184000000000001,0.9999999999999998,-47.191689183635766
9.192,1.0,-47.409681471214164
9.2,1.0,-47.62768161681994
9.208,0.9999999999999999,-47.84568949659185
9.216000000000001,0.9999999999999999,-48.06370498684369
9.224,1.0,-48.281727964062256
9.232,0.9999999999999999,-48.49975830490493
9.24,0.9999999999999999,-48.71779588619697
9.248000000000001,0.9999999999999999,-48.93584058492854
9.256,1.0,-49.15389227825189
9.264,1.0,-49.371950843478196
9.272,1.0,-49.59001615807414
9.280000000000001,1.0,-49.80808809965824
9.288,0.9999999999999999,-50.02616654599732
9.296,1.0,-50.24425137500267
9.304,1.0000000000000002,-50.46234246472591
9.312000000000001,1.0,-50.680439693354764
9.32,1.0,-50.89854293920888
9.328,1.0,-51.1166520807353
9.336,0.9999999999999999,-51.33476699650393
9.344,1.0,-51.55288756520259
9.352,1.0,-51.77101366563255
9.36,1.0000000000000002,-51.98914517670317
9.368,0.9999999999999999,-52.207281977427215
9.376,1.0,-52.42542394691539
9.384,1.0,-52.6435709643715
9.392,1.0,-52.861722909086666
9.4,1.0,-53.07987966043453
9.408,1.0,-53.29804109786531
9.416,1.0,-53.51620710090082
9.424,0.9999999999999999,-53.73437754912862
9.432,1.0,-53.95255232219684
9.44,0.9999999999999999,-54.17073129980842
9.448,0.9999999999999999,-54.38891436171585
9.456,1.0000000000000002,-54.607101387715474
9.464,0.9999999937010687,-54.8252922576423
9.472,0.9999998223752329,-55.043486851364314
9.48,0.999999648154233,-55.26168504877747
9.488,0.9999994711503416,-55.47988672980006
9.496,0.9999992914793835,-55.69809177436788
9.504,0.9999991092606696,-55.91630006242875
9.512,0.9999989246169257,-56.134511473937955
9.52,0.999998737674218,-56.352725888852916
9.528,0.9999985485618699,-56.57094318712881
9.536,0.9999983574123794,-56.78916324871369
9.544,0.999998164361327,-57.0073859535443
9.552,0.9999979695472829,-57.22561118154148
9.56,0.9999977731117067,-57.44383881260643
9.568,0.9999975751988458,-57.66206872661631
9.576,0.9999973759556279,-57.88030080342111
9.584,0.9999971755315485,-58.09853492283952
9.592,0.9999969740785586,-58.31677096465624
9.6,0.9999967717509426,-58.535008808618336
9.608,0.9999965687052004,-58.753248334432946
9.616,0.9999963650999177,-58.9714894217643
9.624,0.9999961610956408,-59.1897319502317
9.632,0.9999959568547436,-59.407975799407204
9.64,0.9999957525412934,-59.62622084881418
9.648,0.9999955483209144,-59.84446697792533
9.656,0.9999953443606493,-60.06271406616205
9.664,0.9999951408288168,-60.28096199289294
9.672,0.9999949378948704,-60.499210637433634
9.68,0.9999947357292521,-60.71745987904611
9.688,0.9999945345032476,-60.93570959693898
9.696,0.999994334388838,-61.153959670267405
9.704,0.9999941355585528,-61.372209978134094
