freq,mag,phase
6.0,1.000162152661341,-18.87058027455976
6.013605376,1.0002317710098247,-19.338591591243706
6.027210752,1.0002933307833433,-19.807590234797043
6.040816128,1.0003417099929537,-20.277326828286856
6.054422016,1.00037477688135,-20.747680230970516
6.068027392,1.0003909919004579,-21.218434573134942
6.081632768,1.0003895313918723,-21.6894442085181
6.095238144,1.0003702643842782,-22.160377336146755
6.10884352,1.0003338695663873,-22.631139139821293
6.122448896,1.0002821511504514,-23.10142805759868
6.136054272,1.0002171954598358,-23.571188114371292
6.149659648,1.000141778615554,-24.04011798925966
6.163265536,1.0000595668338093,-24.50824313277976
6.176870912,0.999974184104533,-24.975405974753357
6.190476288,0.9998892668103158,-25.441629824227803
6.204081664,0.9998090314237496,-25.90693577821287
6.21768704,0.9997368444173731,-26.371422110553443
6.231292416,0.9996763909336752,-26.83516516877616
6.244897792,0.9996300603238304,-27.298331431417814
6.258503168,0.9996006028018296,-27.761155744248253
6.272109056,0.9995891008350158,-28.22381256908169
6.285714432,0.9995960680546195,-28.686532226091778
6.299319808,0.9996217511672925,-29.149545014321923
6.312925184,0.9996645939514661,-29.61305144045769
6.32653056,0.99972315826986,-30.077268678137774
6.340135936,0.9997945928398253,-30.54238141649402
6.353741312,0.9998758168415925,-31.008587420368222
6.367346688,0.9999630601551757,-31.475884348685835
6.380952576,1.0000526014646736,-31.944372147468393
6.394557952,1.0001401430412786,-32.41404362848983
6.408163328,1.0002217967618656,-32.88489293304212
6.421768704,1.0002938978175189,-33.356774409047176
6.43537408,1.0003528610702697,-33.82962565216264
6.448979456,1.0003961698523316,-34.303145649630316
6.462584832,1.0004215110200227,-34.777256104828574
6.47619072,1.00042787143374,-35.251673940266905
6.489796096,1.0004147739144602,-35.72619837340107
6.503401472,1.0003824502985206,-36.20055651938745
6.517006848,1.0003326768181988,-36.67450411244303
6.530612224,1.0002672140959654,-37.14787735957696
6.5442176,1.0001894788440175,-37.620500063663584
6.557822976,1.00010236193561,-38.09226421253003
6.571428352,1.0000100904023665,-38.562987291847044
6.58503424,0.9999168271782616,-39.03266080001761
6.598639616,0.9998269063507274,-39.50136117763138
6.612244992,0.9997441946667761,-39.969100434732624
6.625850368,0.9996726102896872,-40.4359704378967
6.639455744,0.9996156655454687,-40.902150410239074
6.65306112,0.9995757775367511,-41.36786406593758
6.666666496,0.9995551850848233,-41.83325441113345
6.680271872,0.9995544714343575,-42.298624724203435
6.69387776,0.9995742659466107,-42.76421872623799
6.707483136,0.9996134782653714,-43.23029009165754
6.721088512,0.9996706011458946,-43.69703093811328
6.734693888,0.9997431826585884,-44.164652280272875
6.748299264,0.9998275456597885,-44.63337415979733
6.76190464,0.9999205162887334,-45.103261844285484
6.775510016,1.0000175816740025,-45.5744577445431
6.789115392,1.0001143316201289,-46.04691026593187
6.80272128,1.000206407028417,-46.52066111826762
6.816326656,1.0002896469803662,-46.99563483919092
6.829932032,1.0003600152891063,-47.47165776937557
6.843537408,1.0004144048297452,-47.94859054992953
6.857142784,1.0004502746570034,-48.426160255281175
6.87074816,1.000465813897954,-48.90418052136399
6.884353536,1.0004599641302794,-49.38242625928499
6.897959424,1.0004332874653272,-49.860581286685516
6.9115648,1.0003866404521746,-50.338422804740844
6.925170176,1.0003221412945544,-50.81573024449927
6.938775552,1.0002426235825685,-51.2922393738895
6.952380928,1.0001515115687423,-51.76784042030529
6.965986304,1.0000527875931509,-52.242414503002905
6.97959168,0.9999511148920599,-52.71586782076648
6.993197056,0.9998512519513674,-53.188193567725676
7.006802944,0.9997574563304142,-53.65943107897585
7.02040832,0.9996742456517446,-54.12969709358286
7.034013696,0.9996053446681606,-54.59912739378915
7.047619072,0.9995540391569396,-55.067904781655024
7.061224448,0.9995226633541893,-55.53634223287999
7.074829824,0.9995131555413528,-56.0045527324146
7.0884352,0.9995255836446898,-56.47289979415165
7.102040576,0.9995597007624819,-56.941674004660875
7.115646464,0.9996140760431281,-57.41107211821612
7.12925184,0.9996864850066128,-57.881325373931695
7.142857216,0.9997734029323212,-58.3526987484778
7.156462592,0.9998712880515921,-58.82530228695904
7.170067968,0.9999756146769265,-59.29928085519152
7.183673344,1.0000813412977279,-59.774657522101116
7.19727872,1.0001842242877086,-60.25142821661865
7.210884608,1.0002791949480225,-60.729541845042675
7.224489984,1.000361873291156,-61.2088966422757
7.23809536,1.000428702659003,-61.689283894895006
7.251700736,1.0004762266819733,-62.170492045575564
7.265306112,1.0005022832282469,-62.65230723806513
7.278911488,1.0005056568848456,-63.13446565316345
7.292516864,1.0004861301953962,-63.616594536345325
7.30612224,1.0004441547046474,-64.09856694785988
7.319728128,1.0003815648189098,-64.57996629484587
7.333333504,1.0003014319632497,-65.06067382065036
7.34693888,1.0002070113936181,-65.54039894516988
7.360544256,1.0001027610884365,-66.01906094957512
7.374149632,0.9999930220794238,-66.49653507481649
7.387755008,0.9998832571802987,-66.97278753876722
7.401360384,0.9997777460175871,-67.44779971505989
7.41496576,0.999682054793044,-67.92173311285637
7.428571648,0.9996002410804581,-68.39464499183079
7.442177024,0.9995361893325783,-68.86682359602965
7.4557824,0.9994929055704285,-69.33840823774054
7.469387776,0.9994725045113427,-69.8097138508379
7.482993152,0.9994761732083599,-70.28102649861636
7.496598528,0.9995037034524125,-70.75262750369991
7.510203904,0.9995539004439096,-71.22483374667287
7.52380928,0.9996248674149445,-71.69786827417549
7.537415168,0.9997131553359092,-72.17201282234996
7.551020544,0.9998151384019645,-72.64742433758629
7.56462592,0.9999261089927176,-73.12428929850837
7.578231296,1.0000410413299547,-73.60265742071763
7.591836672,1.000154694768615,-74.0825508252945
7.605442048,1.0002621313410605,-74.56391658092745
7.619047424,1.00035798059316,-75.04669175330822
7.632653312,1.0004381764838495,-75.53067608848488
7.646258688,1.000498884705697,-76.0156523408514
7.659864064,1.0005371075084506,-76.5013835930982
7.67346944,1.0005512094417681,-76.98758234883363
7.687074816,1.0005401721209397,-77.47396273243507
7.700680192,1.0005045511765958,-77.96017798172404
7.714285568,1.0004456907496218,-78.44597230150225
7.727890944,1.0003663288576978,-78.93105681516656
7.741496832,1.0002696609460722,-79.41521859300634
7.755102208,1.00016029374982,-79.89822614818537
7.768707584,1.0000429526343058,-80.37999352987546
7.78231296,0.9999230231971504,-80.86042653717298
7.795918336,0.9998059604384362,-81.33952914289932
7.809523712,0.9996969307126536,-81.81738426360957
7.823129088,0.9996013821221783,-82.29406627145386
7.836734464,0.9995232108087525,-82.76978899238156
7.850340352,0.9994664211390907,-83.24485383752881
7.863945728,0.9994337214940336,-83.71941567841402
7.877551104,0.9994265853600467,-84.19390008272966
7.89115648,0.9994456091573972,-84.66853995343207
7.904761856,0.9994900388965582,-85.14368486479144
7.918367232,0.9995579026384336,-85.61963490736254
7.931972608,0.9996463720687195,-86.09666160801214
7.945577984,0.9997514047306829,-86.57498954760149
7.959183872,0.999868421480958,-87.05480372762862
7.972789248,0.9999921073893695,-87.53623699621758
7.986394624,1.0001167649199831,-88.01931262145038
8.0,1.0002369023309443,-88.50404010217966
8.013605376,1.0003467804442054,-88.99029132766908
8.027210752,1.0004415934689435,-89.4779536913929
8.040816128,1.0005168207166262,-89.9668308289642
8.054422016,1.000569050678262,-90.4566190185395
8.068027392,1.000595524576175,-90.94706224508934
8.081632768,1.0005951738765537,-91.43779573346553
8.095238144,1.0005676659112526,-91.92848468296594
8.10884352,1.000514191432875,-92.41889050901219
8.122448896,1.0004369954172994,-92.9085937429092
8.136054272,1.0003395710548264,-93.39742255794175
8.149659648,1.0002260019126312,-93.88508985922154
8.163265536,1.0001016156770213,-94.37142966692252
8.176870912,0.9999719491588879,-94.85631868843707
8.190476288,0.999842856101123,-95.3397930946763
8.204081664,0.9997201226342921,-95.82186427706063
8.21768704,0.9996095437529501,-96.30259715897458
8.231292416,0.9995159959676542,-96.78219216306152
8.244897792,0.9994442235667744,-97.26088955098554
8.258503168,0.9993972789121126,-97.73900902328502
8.272109056,0.9993775976385239,-98.21678280256118
8.285714432,0.9993861426767942,-98.69464728155984
8.299319808,0.999422777757147,-99.17289708052812
8.312925184,0.9994860211742365,-99.6518635024572
8.32653056,0.9995729815514246,-100.1318884424756
8.340135936,0.9996799042950005,-100.61321441365372
8.353741312,0.9998020396399205,-101.09607633831881
8.367346688,0.9999339189536369,-101.58063023432248
8.380952576,1.0000695981960275,-102.06695502791499
8.394557952,1.000202849881773,-102.55507175818254
8.408163328,1.000327653810028,-103.04491107161914
8.421768704,1.0004382368919014,-103.5363833485781
8.43537408,1.0005296097653305,-104.02921010812551
8.448979456,1.000597328331318,-104.52316064026377
8.462584832,1.000638297872378,-105.01796523107623
8.47619072,1.000650530320133,-105.51321755484368
8.489796096,1.000633268255851,-106.00865283346825
8.503401472,1.0005870958687566,-106.5038452413043
8.517006848,1.000513884359035,-106.99841545300359
8.530612224,1.0004170747207257,-107.4921514243743
8.5442176,1.0003007285025796,-107.98474785294077
8.557822976,1.000170056793495,-108.47594962921119
8.571428352,1.0000309702957872,-108.96565598943265
8.58503424,0.9998896629727688,-109.45377021825861
8.598639616,0.9997526896219255,-109.94033015570443
8.61224448,0.9996261577977789,-110.42538653712613
8.625850368,0.9995159854888093,-110.90912689088178
8.639456256,0.9994273221946767,-111.3917667316062
8.65306112,0.9993642971769213,-111.87358555890548
8.666667008,0.9993297841039904,-112.35494358938436
8.680271872,0.9993257749047881,-112.83618653559678
8.69387776,0.9993524994996037,-113.31767873621736
8.707482624,0.9994088535325848,-113.7997933792827
8.721088512,0.9994924777496417,-114.2829083910457
8.734693376,0.9995998204735452,-114.7673272058413
8.748299264,0.9997259432100898,-115.25329703288334
8.761905152,0.9998653016658725,-115.7410238750799
8.775510016,1.0000116726554786,-116.23067732427714
8.789115904,1.0001583689033497,-116.72221533244071
8.802720768,1.0002987412585995,-117.2157136553777
8.816326656,1.0004262456657222,-117.710974889463
8.82993152,1.0005351849359956,-118.20786148134522
8.843537408,1.0006205043775513,-118.70610464217954
8.857143296,1.000677968237214,-119.20538757968791
8.87074816,1.0007051894769732,-119.70536128521864
8.884354048,1.000700388302277,-120.2056424985723
8.897958912,1.0006638696047103,-120.70583005622692
8.9115648,1.000596962880871,-121.2055454551442
8.925169664,1.0005025521703395,-121.70445787308516
8.938775552,1.0003848418641366,-122.20222315550568
8.95238144,1.0002489688738492,-122.69859158795119
8.965986304,1.000100980572601,-123.1933967809002
8.979592192,0.9999477538242022,-123.68648511608374
8.993197056,0.9997960402859015,-124.17786288566508
9.006802944,0.9996526610143617,-124.66754025899651
9.020407808,0.9995244939482973,-125.15570758105619
9.034013696,0.9994171654846385,-125.64255523156292
9.04761856,0.9993358203721366,-126.12837176560126
9.061224448,0.9992844401391631,-126.61347534314825
9.074830336,0.9992652304030636,-127.09830436099791
9.0884352,0.9992795471112069,-127.58320391511303
9.102041088,0.999326810079612,-128.0686084143455
9.115645952,0.9994049376668857,-128.55492473435925
9.12925184,0.9995107388460123,-129.0424729591403
9.142856704,0.9996394721708194,-129.53161349855336
9.156462592,0.9997853687100493,-130.0225935085994
9.17006848,0.9999419083875792,-130.5155320724263
9.183673344,1.0001020494956336,-131.01056900181402
9.197279232,1.0002585180530987,-131.5077246065291
9.210884096,1.0004041997062945,-132.0068755250761
9.224489984,1.0005323501773415,-132.5078810634587
9.238094848,1.0006371335288085,-133.01049649198433
9.251700736,1.0007136243401915,-133.51436128055224
9.265306624,1.0007581318622483,-134.01914430946061
9.278911488,1.0007685256157453,-134.52444644044115
9.292517376,1.0007441370736312,-135.02985655648428
9.30612224,1.0006858281877424,-135.5349232375594
9.319728128,1.000596085149566,-136.03928062662834
9.333332992,1.0004788189313014,-136.54252596349247
9.34693888,1.000339136770758,-137.04436336818412
9.360543744,1.000183314155012,-137.54456216011894
9.374149632,1.0000182739732213,-138.04297003482193
9.38775552,0.9998515262768456,-138.5394731329271
9.401360384,0.9996905950484003,-139.03411815165498
9.414966272,0.9995429402235096,-139.52699464168484
9.428571136,0.9994151645813295,-140.01835596254082
9.442177024,0.9993134265973175,-140.50841368715658
9.455781888,0.9992424153827197,-140.9975344558146
9.469387776,0.9992054365012906,-141.4861199085434
9.482993664,0.9992044714918736,-141.9746246421258
9.496598528,0.9992398368300801,-142.46344791721813
9.510204416,0.9993100197963561,-142.95304385523391
9.52380928,0.9994121790278169,-143.44385619003043
9.537415168,0.9995415864949678,-143.93621422085334
9.551020032,0.9996926704823701,-144.4304176877773
9.56462592,0.9998588070974884,-144.92670668035058
9.578230784,1.0000323068564048,-145.42526180697715
9.591836672,1.000205423189555,-145.92607506774067
9.60544256,1.0003703093383671,-146.4291389253809
9.619047424,1.000519344474698,-146.9342799080098
9.632653312,1.0006457223228253,-147.44129008238858
9.646258176,1.0007435314638857,-147.94985663631257
9.659864064,1.000808323549374,-148.45960265986517
9.673468928,1.0008368414835955,-148.97010363722507
9.687074816,1.000827572030705,-149.4809001394325
9.700680704,1.0007806425687285,-149.9915614303065
9.714285568,1.0006981612969108,-150.5016067898599
9.727891456,1.0005835557474003,-151.01062064462306
9.74149632,1.0004417734065039,-151.5182474631954
9.755102208,1.000279240977407,-152.02418281149662
9.768707072,1.0001030516051999,-152.52823425498312
9.78231296,0.9999212533492675,-153.03024481965517
9.795918848,0.9997419527566922,-153.53018234547656
9.809523712,0.999573499446855,-154.0281531714939
9.8231296,0.9994234034865705,-154.52429912749596
9.836734464,0.99929874013444,-155.01890781954899
9.850340352,0.9992052889919246,-155.5123058616149
9.863945216,0.9991475427574843,-156.00491592764777
9.877551104,0.9991282670025554,-156.49716525299223
9.891155968,0.9991486589897192,-156.98955691881727
9.904761856,0.9992078305369215,-157.48257504742918
9.918367744,0.9993034824198329,-157.97668395266112
9.931972608,0.9994316109894354,-158.47229797766053
9.945578496,0.9995862592368178,-158.96977951336865
9.95918336,0.9997607326813177,-159.46942738185854
9.972789248,0.9999472385981035,-159.97145806630166
9.986394112,1.0001373010205241,-160.47595167413212
10.0,1.0003223100758056,-160.9829123310456
10.013605888,1.000493891131776,-161.49223762529653
10.027210752,1.0006440860042805,-162.00370365113614
10.04081664,1.0007660763173967,-162.5170184023496
10.054421504,1.0008540557697627,-163.03181945281227
10.068027392,1.0009039054294382,-163.54766052872446
10.081632256,1.0009130143116747,-164.06405298350623
10.095238144,1.0008809183768501,-164.58050040430192
10.108844032,1.0008087192330604,-165.0965225946982
10.122448896,1.0006993917335298,-165.61162619371484
10.136054784,1.000557706552423,-166.125372126763
10.149659648,1.0003900837658155,-166.6374169855291
10.163265536,1.0002036005090105,-167.1474708084922
10.1768704,1.0000068999026646,-167.65535756004687
10.190476288,0.9998087083229386,-168.1609930476303
10.204081152,0.9996181683529467,-168.66439906937458
10.21768704,0.9994436640217274,-169.16571742331735
10.231292928,0.9992935965364579,-169.665189644834
10.244897792,0.9991747368872332,-170.16314874590222
10.25850368,0.9990928047630897,-170.66001618789346
10.272108544,0.9990515271761925,-171.15627753756183
10.285714432,0.9990533281216782,-171.6524031495853
10.299319296,0.999098163169325,-172.1489571781028
10.312925184,0.9991844244366072,-172.6464479949772
10.326531072,0.9993082405509754,-173.14536048901763
10.340135936,0.999464445848919,-173.64614849519015
10.353741824,0.9996459856960297,-174.14915559432308
10.367346688,0.9998446853927784,-174.6546472410642
10.380952576,1.0000518075768425,-175.16279910420843
10.39455744,1.0002579376049903,-175.6736393572172
10.408163328,1.000453536391074,-176.18713951323414
10.421769216,1.0006299700502723,-176.70308940997523
10.43537408,1.000778953441414,-177.22122035179265
10.448979968,1.0008935912335892,-177.7411708659025
10.462584832,1.0009684066499247,-178.26249674657294
10.47619072,1.0009998054605,-178.78466206163546
10.489795584,1.0009863288508214,-179.3071498781529
10.503401472,1.0009279510428257,-179.82940540296607
10.517006336,1.0008271282512564,179.64909335585926
10.530612224,1.0006883473880082,179.1288455137509
10.544218112,1.000517439075647,178.61031685299787
10.557822976,1.000322159717551,178.0938188944645
10.571428864,1.0001110477530597,177.5796214078299
10.585033728,0.9998936508961391,177.06788013418472
10.598639616,0.9996796476246135,176.55860219404818
10.61224448,0.9994789480977807,176.05171491251656
10.625850368,0.999300695936284,175.54701571004492
10.639456256,0.9991530832028287,175.0441254820776
10.65306112,0.9990431592505074,174.5427209688018
10.666667008,0.9989760345066524,174.0422237283256
10.680271872,0.9989551307015787,173.54216399112806
10.69387776,0.9989815267397623,173.04190998103772
10.707482624,0.999054456986906,172.54092032256233
10.721088512,0.9991709670877796,172.03863079529208
10.734693376,0.9993258230431131,171.53453753859728
10.748299264,0.999512478867065,171.02817373657038
10.761905152,0.999722427170936,170.5192358879225
10.775510016,0.9999464362008069,170.00746881742333
10.789115904,1.0001741929432177,169.49276066444418
10.802720768,1.0003957047645577,168.97510333053688
10.816326656,1.0006006640681488,168.45466040037948
10.82993152,1.0007797518348855,167.931655295673
10.843537408,1.0009247516075308,167.40647028799307
10.857143296,1.0010287485225258,166.8795364482436
10.87074816,1.0010868849257886,166.35139330931278
10.884354048,1.0010961372010065,165.82261197472093
10.897958912,1.001055964006652,165.29381351836406
10.9115648,1.0009677031452822,164.7655730319912
10.925169664,1.0008350021997583,164.23844596653277
10.938775552,1.0006636858160265,163.71296799329832
10.95238144,1.000461111861902,163.18957497161892
10.965986304,1.000236374409855,162.66858621279778
10.979592192,0.9999995528623256,162.15023831048097
10.993197056,0.9997611544082567,161.6346126626989
11.006802944,0.9995320598396754,161.1216886755289
11.020407808,0.9993227945492502,160.61127174154683
11.034013696,0.9991429363397625,160.10309840404557
11.04761856,0.9990006934400526,159.59674119830467
11.061224448,0.9989031115634667,159.09171808034333
11.074830336,0.9988546893667077,158.58746435026706
11.0884352,0.9988580209293911,158.0833448078877
11.102041088,0.9989133282082023,157.57873068681064
11.115645952,0.999018268952481,157.07296659965868
11.12925184,0.999168720617877,156.5655038571266
11.142856704,0.9993577912487673,156.05581073654417
11.156462592,0.9995774102392401,155.543451889401
11.17006848,0.9998176651346894,155.0280841391608
11.183673344,1.000067851231431,154.50954609218232
11.197279232,1.0003166274809947,153.98776497831793
11.210884096,1.0005527785939536,153.46280317247027
11.224489984,1.0007654529041545,152.934885533358
11.238094848,1.0009449902083216,152.40436729629522
11.251700736,1.001082902867507,151.87166853158743
11.265306624,1.0011727657750913,151.33734812242264
11.278911488,1.0012100778800879,150.8020271193679
11.292517376,1.0011930077291478,150.26632074072054
11.30612224,1.0011218164647127,149.7309298608966
11.319728128,1.0009993487425128,149.1964602126132
11.333332992,1.0008308097594656,148.66356353579593
11.34693888,1.000623499447193,148.1327334556264
11.360543744,1.0003865108962484,147.6043765944026
11.374149632,1.0001305010395078,147.07883870934214
11.38775552,0.9998666988572491,146.55627087702123
11.401360384,0.9996072778606623,146.03674170840688
11.414966272,0.9993638284734857,145.52010172653758
