freq,mag,phase
6.0,0.9999938861721576,92.95560277355155
6.008,0.9999946449555004,92.82292778426412
6.016,0.9999953871627539,92.69018815095598
6.024,0.9999961129895988,92.55738383372258
6.032,0.9999968226305184,92.42451479283346
6.04,0.9999975162787991,92.29158098873334
6.048,0.9999981941265318,92.15858238204324
6.056,0.9999988563646118,92.02551893356156
6.064,0.9999995031827404,91.8923906042652
6.072,1.0,91.75919735531082
6.08,1.0,91.62593914803573
6.088,0.9999999999999999,91.49261594395915
6.096,0.9999999999999998,91.35922770478335
6.104,1.0,91.22577439239473
6.112,1.0,91.09225596886496
6.12,0.9999999999999999,90.9586723964521
6.128,1.0,90.82502363760177
6.136,1.0,90.69130965494824
6.144,0.9999999999999999,90.55753041131558
6.152,1.0,90.42368586971887
6.16,1.0,90.28977599336518
6.168,0.9999999999999999,90.1558007456549
6.176,1.0,90.02176009018272
6.184,1.0,89.88765399073893
6.192,0.9999999999999999,89.75348241131042
6.2,1.0,89.61924531608193
6.208,1.0,89.48494266943717
6.216,1.0,89.35057443595998
6.224,1.0,89.21614058043548
6.232,1.0,89.08164106785118
6.24,0.9999999999999999,88.94707586339827
6.248,0.9999999999999999,88.81244493247264
6.256,1.0,88.67774824067612
6.264,0.9999999999999999,88.54298575381763
6.272,0.9999999999999999,88.40815743791428
6.28,1.0000000000000002,88.2732632591927
6.288,1.0,88.13830318409005
6.296,1.0,88.0032771792552
6.304,0.9999999999999999,87.86818521155008
6.312,1.0,87.73302724805062
6.32,0.9999999999999999,87.59780325604805
6.328,0.9999999999999999,87.46251320305012
6.336,0.9999999999999999,87.32715705678213
6.344,0.9999999999999999,87.19173478518829
6.352,1.0,87.05624635643275
6.36,0.9999999999999999,86.92069173890089
6.368,1.0,86.78507090120044
6.376,1.0,86.64938381216271
6.384,1.0,86.51363044084376
6.392,0.9999999999999999,86.37781075652559
6.4,0.9999999999999999,86.24192472871735
6.408,1.0,86.1059723271565
6.416,1.0,85.96995352181004
6.424,1.0,85.8338682828757
6.432,1.0,85.69771658078312
6.44,0.9999999999999999,85.56149838619507
6.448,1.0,85.42521367000865
6.456,1.0,85.28886240335646
6.464,1.0,85.15244455760791
6.472,1.0,85.01596010437022
6.48,0.9999999999999999,84.8794090154899
6.4879999999999995,0.9999999999999998,84.74279126305375
6.496,0.9999999999999999,84.60610681939006
6.504,0.9999999999999998,84.46935565707007
6.5120000000000005,0.9999999999999999,84.33253774890885
6.52,1.0,84.1956530679668
6.5280000000000005,0.9999999999999999,84.05870158755064
6.536,1.0,83.92168328121484
6.5440000000000005,1.0,83.78459812276259
6.552,1.0,83.64744608624731
6.5600000000000005,1.0,83.5102271459736
6.568,1.0,83.37294127649871
6.5760000000000005,0.9999999999999999,83.23558845263348
6.584,1.0,83.09816864944386
6.592,1.0,82.96068184225193
6.6,1.0000000000000002,82.82312800663723
6.608,0.9999999999999999,82.68550711843793
6.616,0.9999999999999999,82.5478191537521
6.624,0.9999999999999999,82.41006408893894
6.632,1.0,82.27224190062
6.64,0.9999999999999998,82.1343525656804
6.648,1.0,81.99639606127009
6.656,1.0,81.85837236480508
6.664,1.0,81.72028145396867
6.672,0.9999999999999999,81.58212330671269
6.68,1.0,81.44389790125875
6.688,1.0,81.30560521609948
6.696,1.0,81.16724522999974
6.704,0.9999999999999999,81.0288179219979
6.712,0.9999999999999999,80.89032327140707
6.72,1.0,80.75176125781638
6.728,1.0,80.6131318610921
6.736,0.9999999999999999,80.4744350613791
6.744,0.9999999999999999,80.33567083910185
6.752,1.0,80.19683917496592
6.76,1.0,80.05794004995899
6.768,1.0,79.91897344535228
6.776,1.0,79.77993934270172
6.784,0.9999999999999999,79.64083772384923
6.792,1.0,79.50166857092394
6.8,0.9999999999999999,79.36243186634344
6.808,0.9999999999999999,79.22312759281515
6.816,1.0,79.08375573333738
6.824,1.0,78.94431627120073
6.832,1.0,78.80480918998936
6.84,1.0,78.66523447358212
6.848,0.9999999999999999,78.5255921061539
6.856,1.0,78.38588207217693
6.864,1.0,78.24610435642188
6.872,1.0,78.10625894395933
6.88,1.0,77.96634582016087
6.888,1.0,77.82636497070041
6.896,1.0,77.68631638155547
6.904,0.9999999999999999,77.54620003900843
6.912,1.0,77.40601592964774
6.92,1.0,77.26576404036929
6.928,1.0,77.12544435837756
6.936,1.0,76.98505687118698
6.944,1.0,76.84460156662314
6.952,1.0,76.70407843282406
6.96,0.9999999999999999,76.56348745824147
6.968,1.0,76.42282863164209
6.976,1.0,76.2821019421089
6.984,1.0,76.14130737904232
6.992,0.9999999999999999,76.0004449321616
7.0,1.0,75.85951459150604
7.008,1.0,75.71851634743622
7.016,1.0,75.57745019063533
7.024,1.0,75.43631611211043
7.032,1.0,75.29511410319364
7.04,1.0,75.15384415554354
7.048,0.9999999999999999,75.01250626114631
7.056,1.0,74.8711004123171
7.064,0.9999999999999999,74.7296266017013
7.072,1.0,74.58808482227568
7.08,1.0,74.4464750673498
7.088,1.0,74.30479733056724
7.096,1.0,74.16305160590687
7.104,1.0,74.02123788768411
7.112,0.9999999999999999,73.87935617055214
7.12,1.0,73.73740644950335
7.128,1.0,73.59538871987041
7.136,0.9999999999999999,73.45330297732765
7.144,1.0,73.31114921789234
7.152,1.0,73.16892743792584
7.16,1.0,73.02663763413508
7.168,0.9999999999999999,72.88427980357359
7.176,1.0,72.74185394364297
7.184,1.0,72.59936005209403
7.192,1.0,72.4567981270281
7.2,1.0,72.31416816689834
7.208,0.9999999999999999,72.17147017051097
7.216,0.9999999999999999,72.02870413702651
7.224,1.0,71.88587006596107
7.232,1.0,71.7429679571877
7.24,0.9999999999999999,71.59999781093752
7.248,1.0,71.45695962780106
7.256,1.0,71.3138534087295
7.264,0.9999999999999999,71.17067915503603
7.272,1.0,71.02743686839692
7.28,0.9999999999999998,70.884126550853
7.288,1.0,70.7407482048108
7.296,1.0,70.59730183304377
7.304,1.0,70.45378743869374
7.312,0.9999999999999999,70.31020502527196
7.32,1.0,70.16655459666046
7.328,1.0,70.02283615711337
7.336,0.9999999999999999,69.87904971125803
7.344,1.0,69.73519526409642
7.352,0.9999999999999999,69.59127282100626
7.36,0.9999999999999999,69.44728238774239
7.368,1.0,69.30322397043795
7.376,1.0,69.1590975756057
7.384,1.0,69.01490321013918
7.392,1.0,68.87064088131406
7.4,1.0,68.72631059678936
7.4079999999999995,0.9999999999999999,68.5819123646087
7.416,0.9999999999999999,68.43744619320145
7.4239999999999995,0.9999999999999999,68.29291209138425
7.432,0.9999999999999999,68.14831006836194
7.4399999999999995,0.9999999999999999,68.00364013372901
7.448,1.0,67.85890229747073
7.4559999999999995,1.0,67.71409656996458
7.464,1.0,67.56922296198121
7.4719999999999995,1.0,67.42428148468599
7.48,1.0,67.27927214963991
7.4879999999999995,1.0,67.1341949688012
7.496,1.0,66.98904995452622
7.504,0.9999999999999999,66.84383711957099
7.5120000000000005,0.9999999999999999,66.69855647709215
7.52,1.0,66.55320804064844
7.5280000000000005,0.9999999999999999,66.40779182420171
7.536,1.0,66.26230784211843
7.5440000000000005,1.0,66.11675610917054
7.552,1.0,65.97113664053708
7.5600000000000005,1.0,65.82544945180507
7.568,0.9999999115745584,65.67969455897102
7.5760000000000005,0.9999997873509416,65.53387197844187
7.584,0.9999996645657149,65.38798172703653
7.5920000000000005,0.9999995432278936,65.24202382198673
7.6,0.9999994233459604,65.09599828093864
7.6080000000000005,0.9999993049278673,64.9499051219537
7.616,0.9999991879810439,64.80374436351016
7.6240000000000006,0.999999072512402,64.65751602450396
7.632,0.9999989585283418,64.51122012425031
7.640000000000001,0.9999988460347559,64.36485668248454
7.648,0.9999987350370377,64.21842571936361
7.656000000000001,0.9999986255400852,64.071927255467
7.664,0.9999985175483069,63.9253613117983
7.672,0.9999984110656286,63.77872790978598
7.68,0.9999983060954971,63.6320270712849
7.688,0.9999982026408878,63.485258818577385
7.696,0.9999981007043103,63.338423174374384
7.704,0.9999980002878119,63.191520161816754
7.712,0.999997901392987,63.044549804476354
7.72,0.9999978040209796,62.89751212635727
7.728,0.9999977081724909,62.750407151897
7.736,0.9999976138477842,62.60323490596762
7.744,0.9999975210466907,62.45599541387697
7.752,0.9999974297686166,62.30868870136978
7.76,0.9999973400125464,62.16131479462892
7.768,0.9999972517770511,62.013873720276536
7.776,0.9999971650602927,61.866365505375164
7.784,0.9999970798600297,61.71879017742895
7.792,0.9999969961736243,61.5711477643848
7.8,0.9999969139980467,61.42343829463351
7.808,0.9999968333298814,61.27566179701095
7.816,0.9999967541653337,61.12781830079919
7.824,0.9999966765002344,60.97990783572767
7.832,0.9999966003300461,60.831930431974314
7.84,0.999996525649869,60.6838861201667
7.848,0.999996452454447,60.535774931383195
7.856,0.9999963807381722,60.387596897154026
7.864,0.999996310495093,60.23935204946254
7.872,0.9999962417189171,60.091040420746154
7.88,0.9999961744030197,59.94266204389771
7.888,0.999996108540448,59.79421695226635
7.896,0.9999960441239268,59.64570517965884
7.904,0.9999959811458657,59.49712676034047
7.912,0.999995919598363,59.34848172903645
7.92,0.9999958594732125,59.199770120932705
7.928,0.9999958007619097,59.05099197167722
7.936,0.9999957434556567,58.902147317380994
7.944,0.9999956875453677,58.75323619461921
7.952,0.9999956330216759,58.60425864043229
7.96,0.9999955798749388,58.455214692327004
7.968,0.9999955280952432,58.30610438827755
7.976,0.9999954776724119,58.15692776672663
7.984,0.9999954285960088,58.00768486658648
7.992,0.9999953808553445,57.85837572724002
8.0,0.9999953344394833,57.70900038854193
8.008,0.999995289337247,57.5595588908196
8.016,0.9999952455372212,57.41005127487428
8.024000000000001,0.9999952030277622,57.26047758198207
8.032,0.9999951617970017,57.110837853895184
8.04,0.9999951218328514,56.961132132842636
8.048,0.9999950831230107,56.81136046153151
8.056000000000001,0.9999950456549708,56.66152288314801
8.064,0.999995009416021,56.51161944135846
8.072,0.999994974393254,56.36165018031025
8.08,0.999994940573572,56.211615144632916
8.088000000000001,0.9999949079436913,56.0615143794392
8.096,0.9999948764901485,55.91134793032608
8.104,0.9999948461993068,55.76111584337562
8.112,0.9999948170573594,55.61081816515609
8.120000000000001,0.9999947890503376,55.460454942723054
8.128,0.9999947621641138,55.3100262236202
8.136,0.9999947363844088,55.159532055880376
8.144,0.999994711696797,55.00897248802661
8.152000000000001,0.9999946880867109,54.85834756907309
8.16,0.9999946655394467,54.70765734852613
8.168,0.9999946440401712,54.55690187638508
8.176,0.9999946235739253,54.40608120314331
8.184000000000001,0.9999946041256299,54.25519537978928
8.192,0.9999945856800927,54.10424445780738
8.2,0.9999945682220104,53.95322848917887
8.208,0.9999945517359775,53.80214752638281
8.216000000000001,0.9999945362064898,53.65100162239712
8.224,0.9999945216179487,53.499790830699446
8.232,0.9999945079546683,53.34851520526793
8.24,0.9999944952008798,53.19717480058237
8.248000000000001,0.9999944833407375,53.04576967162498
8.256,0.9999944723583212,52.89429987388138
8.264,0.9999944622376453,52.74276546334141
8.272,0.9999944529626611,52.59116649650004
8.280000000000001,0.9999944445172625,52.43950303035836
8.288,0.9999944368852914,52.28777512242438
8.296,0.9999944300505432,52.13598283071385
8.304,0.9999944239967701,51.98412621375121
8.312,0.9999944187076878,51.83220533057049
8.32,0.9999944141669802,51.68022024071602
8.328,0.9999944103583029,51.52817100424346
8.336,0.9999944072652898,51.376057681720454
8.344,0.9999944048715568,51.22388033422767
8.352,0.9999944031607073,51.07163902335942
8.36,0.9999944021163372,50.91933381122467
8.368,0.999994401722038,50.76696476044768
8.376,0.9999944019614041,50.614531934169044
8.384,0.999994402818035,50.46203539604619
8.392,0.9999944042755414,50.309475210254476
8.4,0.99999440631755,50.15685144148771
8.408,0.9999944089277069,50.00416415495919
8.416,0.9999944120896834,49.85141341640224
8.424,0.99999441578718,49.69859929207115
8.432,0.9999944200039297,49.54572184874181
8.44,0.9999944247237049,49.39278115371259
8.448,0.9999944299303203,49.23977727480494
8.456,0.9999944356076369,49.08671028036428
8.464,0.9999944417395679,48.93358023926052
8.472,0.9999944483100803,48.7803872208891
8.48,0.9999944553032024,48.62713129517126
8.488,0.9999944627030264,48.47381253255525
8.496,0.999994470493712,48.32043100401657
8.504,0.9999944786594915,48.16698678105903
8.512,0.9999944871846737,48.01347993571509
8.52,0.9999944960536475,47.85991054054687
8.528,0.999994505250887,47.70627866864651
8.536,0.9999945147609534,47.55258439363708
8.544,0.9999945245685021,47.39882778967304
8.552,0.9999945346582836,47.245008931441
8.56,0.9999945450151486,47.09112789416024
8.568,0.9999945556240516,46.937184753583544
8.576,0.9999945664700555,46.78317958599742
8.584,0.9999945775383335,46.629112468223234
8.592,0.9999945888141754,46.4749834776173
8.6,0.9999946002829877,46.320792692071855
8.608,0.9999946119303004,46.16654019001534
8.616,0.9999946237417691,46.01222605041322
8.624,0.9999946357031781,45.85785035276833
8.632,0.9999946478004456,45.703413177121625
8.64,0.9999946600196242,45.54891460405251
8.648,0.9999946723469068,45.39435471467962
8.656,0.999994684768629,45.23973359066107
8.664,0.9999946972712722,45.08505131419523
8.672,0.9999947098414667,44.93030796802102
8.68,0.9999947224659953,44.77550363541854
8.688,0.9999947351317958,44.62063840020946
8.696,0.9999947478259646,44.46571234675762
8.704,0.9999947605357592,44.31072555996933
8.712,0.9999947732486019,44.15567812529402
8.72,0.9999947859520812,44.00057012872442
8.728,0.9999947986339562,43.845401656797385
8.736,0.9999948112821591,43.69017279659384
8.744,0.9999948238847968,43.53488363573965
8.752,0.9999948364301547,43.379534262405684
8.76,0.9999948489066988,43.22412476530847
8.768,0.9999948613030786,43.06865523371031
8.776,0.9999948736081292,42.913125757419984
8.784,0.9999948858108743,42.75753642679272
8.792,0.999994897900528,42.60188733273096
8.8,0.9999949098664972,42.446178566684345
8.808,0.9999949216983843,42.290410220650315
8.815999999999999,0.9999949333859895,42.13458238717423
8.824,0.9999949449193127,41.97869515934976
8.832,0.9999949562885545,41.822748630819284
8.84,0.9999949674841209,41.66674289577403
8.847999999999999,0.9999949784966227,41.510678048954354
8.856,0.9999949893168784,41.35455418565007
8.864,0.9999949999359175,41.198371401700726
8.872,0.9999950103449792,41.04212979349584
8.879999999999999,0.9999950205355177,40.885829457974985
8.888,0.9999950304992009,40.72947049262818
8.896,0.999995040227914,40.57305299549601
8.904,0.9999950497137597,40.416577065169975
8.911999999999999,0.9999950589490619,40.26004280079236
8.92,0.9999950679263644,40.103450302056665
8.928,0.9999950766384341,39.946799669207756
8.936,0.9999950850782615,39.79009100304192
8.943999999999999,0.9999950932390635,39.63332440490698
8.952,0.9999951011142829,39.476499976702506
8.96,0.9999951086975893,39.31961782087988
8.968,0.9999951159828826,39.16267804044251
8.975999999999999,0.9999951229642918,39.005680738945635
8.984,0.9999951296361764,38.8486260204967
8.992,0.9999951359931293,38.691513989755286
9.0,0.9999951420299736,38.53434475193314
9.008,0.999995147741768,38.377118412794275
9.016,0.9999951531238042,38.21983507865489
9.024000000000001,0.9999951581716096,38.062494856383495
9.032,0.999995162880946,37.90509785340096
9.04,0.9999951672478127,37.74764417768026
9.048,0.9999951712684443,37.59013393774661
9.056000000000001,0.9999951749393133,37.4325672426775
9.064,0.9999951782571288,37.2749442021025
9.072,0.9999951812188386,37.117264926203234
9.08,0.9999951838216279,36.95952952571324
9.088000000000001,0.9999951860629189,36.80173811191806
9.096,0.9999951879403751,36.64389079665499
9.104,0.9999951894518947,36.485987692312904
9.112,0.9999951905956168,36.32802891183221
9.120000000000001,0.9999951913699179,36.17001456870481
9.128,0.9999951917734122,36.011944776973685
9.136,0.9999951918049533,35.8538196512329
9.144,0.9999951914636311,35.695639306627314
9.152000000000001,0.9999951907487733,35.53740385885251
9.16,0.9999951896599456,35.37911342415447
9.168,0.9999951881969485,35.22076811932929
9.176,0.9999951863598203,35.06236806172305
9.184000000000001,0.9999951841488343,34.90391336923155
9.192,0.9999951815644983,34.74540416030001
9.2,0.999995178607556,34.586840553922684
9.208,0.9999951752789824,34.42822266964261
9.216000000000001,0.9999951715799867,34.26955062755147
9.224,0.9999951675120102,34.11082454828904
9.232,0.9999951630767244,33.95204455304285
9.24,0.9999951582760309,33.79321076354788
9.248000000000001,0.999995153112061,33.63432330208628
9.256,0.9999951475871734,33.47538229148684
9.264,0.9999951417039535,33.31638785512458
9.272,0.9999951354652121,33.157340116920366
9.280000000000001,0.9999951288739847,32.99823920134055
9.288,0.9999951219335294,32.83908523339643
9.296,0.9999951146473256,32.67987833864374
9.304,0.9999951070190733,32.52061864318226
9.312000000000001,0.9999950990526908,32.36130627365527
9.32,0.9999950907523129,32.20194135724913
9.328,0.9999950821222907,32.04252402169258
9.336,0.9999950731671882,31.88305439525625
9.344,0.9999950638917815,31.723532606752293
9.352,0.9999950543010571,31.56395878553347
9.36,0.9999950444002096,31.404333061492956
9.368,0.9999950341946399,31.24465556506328
9.376,0.9999950236899534,31.084926427216164
9.384,0.9999950128919579,30.925145779461506
9.392,0.9999950018066615,30.765313753846964
9.4,0.9999949904402705,30.605430482957196
9.408,0.9999949787991872,30.445496099913154
9.416,0.9999949668900079,30.28551073837143
9.424,0.9999949547195197,30.125474532523572
9.432,0.9999949422946998,29.965387617095192
9.44,0.9999949296227113,29.805250127345413
9.448,0.999994916710902,29.645062199065947
9.456,0.9999949035668014,29.48482396858046
9.464,0.9999948901981192,29.324535572743578
9.472,0.9999948766127399,29.164197148940303
9.48,0.9999948628187235,29.003808835084932
9.488,0.9999948488243007,28.843370769620474
9.496,0.9999948346378714,28.682883091517514
9.504,0.9999948202680007,28.522345940273603
9.512,0.9999948057234168,28.361759455912082
9.52,0.999994791013008,28.20112377898147
9.528,0.9999947761458202,28.040439050554166
9.536,0.9999947611310531,27.879705412225952
9.544,0.999994745978057,27.71892300611456
9.552,0.9999947306963319,27.558091974859078
9.56,0.9999947152955213,27.397212461618658
9.568,0.9999946997854107,27.23628461007177
9.576,0.9999946841759249,27.07530856441488
9.584,0.9999946684771239,26.914284469361707
9.592,0.9999946526992003,26.753212470141847
9.6,0.9999946368524743,26.59209271250001
9.608,0.9999946209473926,26.43092534269458
9.616,0.999994604994524,26.269710507496857
9.624,0.9999945890045555,26.108448354189576
9.632,0.9999945729882896,25.947139030566074
9.64,0.9999945569566406,25.785782684928822
9.648,0.9999945409206309,25.62437946608852
9.656,0.999994524891387,25.462929523362643
9.664,0.9999945088801372,25.301433006574477
9.672,0.999994492898207,25.139890066051596
9.68,0.9999944769570147,24.978300852624912
9.688,0.99999446106807,24.816665517627115
9.696,0.9999944452429677,24.654984212891637
9.704,0.9999944294933858,24.493257090751126
9.712,0.9999944138310805,24.331484304036334
9.72,0.9999943982678833,24.16966600607457
9.728,0.9999943828156965,24.00780235068855
9.736,0.9999943674864895,23.845893492194804
9.744,0.9999943522922955,23.68393958540252
9.752,0.9999943372452061,23.52194078561189
9.76,0.9999943223573693,23.35989724861292
9.768,0.9999943076409836,23.197809130683765
9.776,0.9999942931082958,23.035676588589485
9.784,0.9999942787715954,22.873499779580342
9.792,0.9999942646432121,22.71127886139055
9.8,0.9999942507355098,22.549013992236492
9.808,0.9999942370608849,22.386705330815456
9.816,0.9999942236317602,22.224353036303853
9.824,0.999994210460582,22.06195726835586
9.832,0.999994197559815,21.89951818710165
9.84,0.9999941849419395,21.73703595314596
9.847999999999999,0.9999941726194462,21.57451072756631
9.856,0.999994160604832,21.411942671911483
9.864,0.9999941489105967,21.249331948199877
9.872,0.999994137549238,21.086678718917817
9.879999999999999,0.9999941265332475,20.92398314701779
9.888,0.9999941158751069,20.761245395916777
9.896,0.9999941055872834,20.598465629494683
9.904,0.9999940956822259,20.43564401209243
9.911999999999999,0.9999940861723596,20.272780708510208
9.92,0.9999940770700835,20.10987588400573
9.928,0.9999940683877655,19.946929704292547
9.936,0.9999940601377372,19.783942335538136
9.943999999999999,0.9999940523322913,19.620913944362037
