freq,mag,phase
6.0,1.0005117737575326,143.09289754402792
6.002286592,1.000656324804167,142.9177506392107
6.004572672,1.0007620230355982,142.7407713088664
6.006859264,1.0008200389415303,142.56262068286856
6.009145344,1.000826592125493,142.38397526601074
6.011431936,1.000781405334148,142.2056620917145
6.013718016,1.000687248055076,142.02837104176834
6.016004608,1.0005500689435336,141.85272292140107
6.018290688,1.0003784575994097,141.6793516070521
6.02057728,1.0001832217673532,141.5086298130512
6.022863872,0.9999767152684034,141.34083337869694
6.025149952,0.9997720249550154,141.1760332656041
6.027436544,0.9995819682169439,141.01414328967263
6.029722624,0.999418620016547,140.85479851864199
6.032009216,0.9992923807507803,140.69755901374467
6.034295296,0.9992110962259112,140.54187929126934
6.036581888,0.9991799968048674,140.38697808161007
6.03886848,0.9992013127629734,140.23219794435576
6.04115456,0.9992733303833186,140.07674100179764
6.043441152,0.9993915962550484,139.9199102691995
6.045727232,0.9995488990021073,139.76108102751658
6.048013824,0.9997349228132966,139.59976323817287
6.050299904,0.9999381902468748,139.43565064084834
6.052586496,1.000145781727424,139.2685671218864
6.054872576,1.0003446432489325,139.09852244655536
6.057159168,1.0005219885171015,138.9257702637851
6.05944576,1.0006669051074715,138.75071926627825
6.06173184,1.0007700963900177,138.57385550308405
6.064018432,1.0008251295632973,138.3958312823895
6.066304512,1.0008283887633642,138.21742675997874
6.068591104,1.0007797849918674,138.03935724168855
6.070877184,1.0006823627107209,137.8623383436438
6.073163776,1.000542137384512,137.68704371119156
6.075450368,1.0003679374305372,137.51404794009042
6.077736448,1.0001708777696008,137.34375788846185
6.08002304,0.9999632319530143,137.17642179814493
6.08230912,0.99975825773256,137.0120481277709
6.084595712,0.9995687647904657,136.85059707597753
6.086881792,0.9994069807446003,136.69169479265545
6.089168384,0.9992828836111465,136.53486227782787
6.091454464,0.9992042861992753,136.37955924849342
6.093741056,0.9991764877179292,136.2250064170433
6.096027648,0.9992010377119444,136.07049208309303
6.098313728,0.9992765769767715,135.91526965320912
6.10060032,0.9993981048967653,135.75862877336007
6.1028864,0.9995581647233165,135.59995481272458
6.105172992,0.999746530965674,135.43874398892993
6.107459072,0.9999512900079968,135.2747020894674
6.109745664,1.0001594630001487,135.10768943026798
6.112032256,1.000358063633711,134.93770984949876
6.114318336,1.0005344747488312,134.7650116210658
6.116604928,1.0006774835989112,134.59003939498564
6.118891008,1.000778176083018,134.41330534971632
6.1211776,1.0008301896617362,134.23547586654666
6.12346368,1.000830030061206,134.05728742294554
6.125750272,1.0007780115574634,133.87944923374593
6.128036352,1.0006771675142916,133.7027542698243
6.130322944,1.0005338931781733,133.52782476942627
6.132609536,1.0003571445508896,133.35521300216996
6.134895616,1.000158267881468,133.18537178516124
6.137182208,0.9999495897825235,133.01845776096295
6.139468288,0.9997444038168893,132.85460219015428
6.14175488,0.9995556534496259,132.69357703876287
6.14404096,0.9993951739675154,132.53513533943374
6.146327552,0.9992733340468177,132.37872358441453
6.148614144,0.9991976226763283,132.2237882588599
6.150900224,0.999173058856554,132.06959576649604
6.153186816,0.9992011259218593,131.9153749215461
6.155472896,0.9992800355720258,131.7603976692041
6.157759488,0.9994048528267833,131.60392890194646
6.160045568,0.9995676671631623,131.44542091547632
6.16233216,0.9997581786838432,131.28432937150183
6.16461824,0.9999644411848504,131.12037799889652
6.166904832,1.0001733399491146,130.95342577904069
6.169191424,1.0003716343872353,130.7835159866021
6.171477504,1.0005469766178667,130.6109310107483
6.173764096,1.0006880724693092,130.4360604685773
6.176050176,1.0007861648880587,130.25943570191802
6.178336768,1.0008350034206852,130.081780442411
6.180622848,1.0008316141961418,129.90380910434615
6.18290944,1.0007759786055856,129.72627201330553
6.18519552,1.0006717527487805,129.54990186429063
6.187482112,1.0005254207635066,129.3753470838356
6.189768704,1.0003462283970361,129.20317885721778
6.192054784,1.0001454471720586,129.0337530561614
6.194341376,0.9999357799670381,128.86731207162566
6.196627456,0.9997303126582928,128.70390831132696
6.198914048,0.9995422478310094,128.54339218099068
6.201200128,0.9993835040483003,128.38539466928478
6.20348672,0.9992638593771499,128.2294365006291
6.205773312,0.9991910935254258,128.07489056927676
6.208059392,0.999169865664565,127.92102331010571
6.210345984,0.9992013522904302,127.76710907046454
6.212632064,0.9992837496706153,127.61239250075315
6.214918656,0.9994118954240132,127.45612508449531
6.217204736,0.9995774724572956,127.29774718031497
6.219491328,0.9997701621279366,127.13677787469341
6.221777408,0.9999779658695332,126.9729354244154
6.224064,1.000187385973031,126.80606166925891
6.226350592,1.0003852693800626,126.63625315958599
6.228636672,1.000559435163425,126.46374227982518
6.230923264,1.0006985760613158,126.28896791259497
6.233209344,1.000794153078771,126.11253231073086
6.235495936,1.0008397901265351,125.93506647313653
6.237782016,1.0008328416015746,125.7573227854277
6.240068608,1.0007736558947191,125.580052198159
6.2423552,1.000666066690416,125.40402922643462
6.24464128,1.0005166718597729,125.22986715688522
6.246927872,1.0003349406565563,125.05812663608181
6.249213952,1.0001323482410602,124.88916200225269
6.251500544,0.9999215786919795,124.72324387979629
6.253786624,0.9997161869922901,124.56031282158078
6.256073216,0.9995288594767713,124.4002620803336
6.258359296,0.9993715759778833,124.242748733276
6.260645888,0.9992543921313773,124.08718842200553
6.26293248,0.9991846574229348,123.93306189435097
6.26521856,0.9991666906630036,123.77956700085582
6.267505152,0.9992018214907655,123.62595403449956
6.269791232,0.9992878854942377,123.471468674913
6.272077824,0.999419134227261,123.31543488081127
6.274363904,0.9995876776174331,123.15723030982988
6.276650496,0.9997824915049524,122.99639862395514
6.278937088,0.9999916327638139,122.83263252606478
6.281223168,1.0002015370024642,122.66584576235286
6.28350976,1.00039919841482,122.49611793925396
6.28579584,1.0005721021824345,122.32371143629237
6.288082432,1.0007092162469375,122.14907011046964
6.290368512,1.000801982241311,121.97275486463317
6.292655104,1.0008444783287274,121.79550300461842
6.294941184,1.0008340388961778,121.61800679493041
6.297227776,1.0007713470950628,121.4410618556903
6.299514368,1.0006603086462564,121.26539036161019
6.301800448,1.0005077455729625,121.09161971984483
6.30408704,1.000323516600597,120.92031400905721
6.30637312,1.0001191377376013,120.75182171288009
6.308659712,0.9999075439668411,120.58638211090073
6.310945792,0.9997018079488446,120.42396422190093
6.313232384,0.9995154625133753,120.26441998326312
6.315518464,0.9993599268557337,120.1073494310432
6.317805056,0.999245042578474,119.95227609037667
6.320091648,0.999178274735835,119.79855024992396
6.322377728,0.9991638164899236,119.64541891071744
6.32466432,0.9992025533895913,119.49210786297498
6.3269504,0.9992920871094642,119.33790512568926
6.329236992,0.9994267846477102,119.18205298891462
6.331523072,0.9995979746853952,119.02402517835878
6.333809664,0.9997950178596475,118.8633367506755
6.336096256,1.0000055037874789,118.69969169086698
6.338382336,1.000215958600681,118.53296727219366
6.340668928,1.0004131485996717,118.36333388021366
6.342955008,1.0005847107496713,118.19104111145248
6.3452416,1.000719775684749,118.01652407599417
6.34752768,1.0008096613533295,117.84040498757707
6.349814272,1.0008490420944889,117.66332735952838
6.352100352,1.00083494144394,117.48610819319671
6.354386944,1.0007686611592987,117.30946886518215
6.356673536,1.0006541092277894,117.13416395326111
6.358959616,1.0004984916400481,116.96080659115584
6.361246208,1.0003117714385237,116.78993423185614
6.363532288,1.0001056124408063,116.62194845371438
6.36581888,0.9998929960087285,116.45700610514041
6.36810496,0.9996874682770285,116.29507920565919
6.370391552,0.9995019234955156,116.13603985745374
6.372678144,0.9993480368200535,115.97946480249617
6.374964224,0.9992357600098822,115.8248720111146
6.377250816,0.9991719706555408,115.67153301058141
6.379536896,0.999161029764556,115.51877683747558
6.381823488,0.9992034429910049,115.36578037944035
6.384109568,0.9992964648249513,115.21183563068108
6.38639616,0.9994345163037424,115.05622430646868
6.38868224,0.9996085711638982,114.89835852273696
6.390968832,0.9998078182811018,114.73778416927564
6.393255424,1.0000195071207938,114.57425383801805
6.395541504,1.0002304065442664,114.40764239663703
6.397828096,1.0004272411326083,114.23809687118661
6.400114176,1.0005974450561923,114.06591556529564
6.402400768,1.0007302150650583,113.89152977406516
6.404686848,1.0008174830745153,113.71556908534411
6.40697344,1.0008533745830106,113.53872324695568
6.409260032,1.0008357206242828,113.36177527019707
6.411546112,1.0007657574535567,113.18545592202037
6.413832704,1.0006476839427223,113.01049907676709
6.416118784,1.000489062017972,112.83757583229485
6.418405376,1.0002998634861253,112.66717294504217
6.420691456,1.0000919137162336,112.49969793838703
6.422978048,0.9998783800251252,112.33524381351889
6.425264128,0.9996728986857678,112.17385346549702
6.42755072,0.9994882807372298,112.01531589516284
6.429837312,0.999336254113821,111.85924778209298
6.432123392,0.9992264294234428,111.7050946802229
6.434409984,0.9991659243460006,111.55218082769605
6.436696064,0.9991584588786139,111.39980531558903
6.438982656,0.9992045974970574,111.24714276774438
6.441268736,0.9993013881203343,111.09345872065062
6.443555328,0.9994426721332097,110.93803229350209
6.44584192,0.9996194959534351,110.7803605455643
6.448128,0.9998209048807118,110.61990620006911
6.450414592,1.0000339955972142,110.45648324189777
6.452700672,1.0002452186721564,110.29000683853965
6.454987264,1.0004414357238745,110.12056227486809
6.457273344,1.0006102912597539,109.94847048867842
6.459559936,1.000740751724786,109.77424316638323
6.461846016,1.0008251098989653,109.5984366304138
6.464132608,1.0008575921714182,109.42184180819068
6.4664192,1.0008364175025726,109.24516180605508
6.46870528,1.0007625952210253,109.06916827304066
6.470991872,1.0006411178560142,108.89460124435465
6.473277952,1.0004793733728508,108.72210492591358
6.475564544,1.000287634211253,108.55216889322598
6.477850624,1.0000779609661876,108.38518276530067
6.480137216,0.9998636797541557,108.22124289680465
6.482423296,0.9996582127106031,108.06041862757884
6.484709888,0.9994746574380566,107.90237565680991
6.48699648,0.9993245287077018,107.74681615893724
6.48928256,0.9992174328240478,107.59312628686735
6.491569152,0.9991601186091936,107.44063289069516
6.493855232,0.9991562447220999,107.28862548732813
6.496141824,0.9992061408460854,107.13628519998782
6.498427904,0.9993064136695697,106.98288468710298
6.500714496,0.9994510933255656,106.82767610129868
6.503001088,0.9996308025294484,106.67016941068765
6.505287168,0.9998342345882252,106.50987363328188
6.50757376,1.0000486212530215,106.34654355985593
6.50985984,1.0002602854376654,106.18013936841052
6.512146432,1.0004559237396577,106.01080685490903
6.514432512,1.000623081949994,105.83884557058217
6.516719104,1.0007514000462423,105.66476995165998
6.519005184,1.0008326962775906,105.48914924471742
6.521291776,1.000861727445305,105.3127724041023
6.523578368,1.0008367615290814,105.13636716629664
6.525864448,1.0007592519149855,104.96072890168955
6.52815104,1.000634215155898,104.78655555835245
6.53043712,1.0004693617002924,104.6144839210426
6.532723712,1.000275176012447,104.44505068995164
6.535009792,1.0000637991489694,104.27856088117628
6.537296384,0.999848656502539,104.11515758883213
6.539582976,0.9996433799687533,103.95486137853467
6.541869056,0.9994608777273041,103.79733101124737
6.544155648,0.9993126625626377,103.64227715646258
6.546441728,0.9992083461185552,103.48905047009093
6.54872832,0.9991543560032693,103.33700620202141
6.5510144,0.999154057701917,103.18535277726156
6.553300992,0.9992076319597613,103.03333862887459
6.555587072,0.9993117269581834,102.88019583856295
6.557873664,0.9994597790902376,102.72521775591453
6.560160256,0.9996422229930216,102.56787635596015
6.562446336,0.9998478011856295,102.40771004654057
6.564732928,1.00006339944957,102.244507413959
6.567019008,1.0002752675626145,102.07820735198582
6.5693056,1.0004703143311957,101.90897865499792
6.57159168,1.0006360262571585,101.7371304252879
6.573878272,1.0007619449175191,101.56319627049959
6.576164864,1.0008401635800008,101.38778406006955
6.578450944,1.0008656522815296,101.21162647432469
6.580737536,1.0008369760041456,101.03553803241927
6.583023616,1.0007556756552989,100.86022286745064
6.585310208,1.0006270183328831,100.6864410432579
6.587596288,1.0004590190899079,100.51482632278635
6.58988288,1.0002623767650427,100.34585676140323
6.59216896,1.0000493983315983,100.17988572062228
6.594455552,0.9998335427739354,100.01704207406131
6.596742144,0.9996284026547368,99.85725430177526
6.599028224,0.9994470296807162,99.70029088567853
6.601314816,0.9993008962515789,99.54572209722204
6.603600896,0.9991993291632153,99.39297875282051
6.605887488,0.99914862122683,99.24134603179645
6.608173568,0.9991520602772666,99.0900902459768
6.61046016,0.9992096061321483,98.93838194918496
6.612746752,0.9993174354415406,98.7855193498116
6.615032832,0.9994687966780343,98.63075814320348
6.617319424,0.9996540838442991,98.47356455803197
6.619605504,0.9998616986241603,98.31354404930053
6.621892096,1.0000786013869565,98.15045529126418
6.624178176,1.0002907733090427,97.98423982354585
6.626464768,1.0004850529392328,97.81510314191301
6.628750848,1.0006491353887774,97.64339025819979
6.63103744,1.0007725020546268,97.46961576654921
6.633324032,1.0008476139139844,97.29440277520568
6.635610112,1.0008695243626633,97.11848856738742
6.637896704,1.000836924377963,96.94266983166406
6.640182784,1.0007518799405657,96.76771693151895
6.642469376,1.0006195862116412,96.59434078924335
6.644755456,1.000448516385861,96.42317063707665
6.647042048,1.0002493898460598,96.25470565324262
6.649328128,1.0000347333410178,96.08925354069908
6.65161472,0.9998181707978786,95.9269404518911
6.653901312,0.9996132501388644,95.76769822535178
6.656187392,0.9994331577702951,95.61127847304482
6.658473984,0.9992892019421454,95.45721438974361
6.660760064,0.9991904394588397,95.30492758250472
6.663046656,0.9991431760961309,95.15373626177539
6.665332736,0.9991503509109759,95.00282774870062
6.667619328,0.999211789196038,94.85148840403417
6.66990592,0.9993232974745915,94.69886143941922
6.672192,0.999478103829803,94.54431061896219
6.674478592,0.9996662333014237,94.38730047495515
6.676764672,0.9998759734990317,94.22738739201743
6.679051264,1.0000938518171025,94.06440750543526
6.681337344,1.0003062347144398,93.89831880517198
6.683623936,1.0004997008523069,93.72929299630648
6.685910016,1.0006619674538408,93.55768548896256
6.688196608,1.0007829785385072,93.3840410601278
6.6904832,1.0008548441943,93.20902833653723
6.69276928,1.0008731034478149,93.03336333206394
6.695055872,1.0008366176419445,92.85784551588632
6.697341952,1.0007475703133923,92.68324391921549
6.699628544,1.0006117581251726,92.51027887625092
6.701914624,1.0004375562160914,92.33957436323156
6.704201216,1.0002359816203705,92.17162117564824
6.706487808,1.000019713125843,92.00667256166652
6.708773888,0.9998025876626536,91.84490230869984
6.71106048,0.9995980909824567,91.68620870958812
6.71334656,0.9994191812633679,91.530328694578
6.715633152,0.9992772911992175,91.37678439167647
6.717919232,0.9991814556658412,91.22497095950753
6.720205824,0.9991377594850566,91.07420722712149
6.722491904,0.9991488600318676,90.92367723822953
6.724778496,0.9992141243334998,90.77263048933018
6.727065088,0.9993295963118736,90.62028325029463
6.729351168,0.9994877257848497,90.46593695022845
6.73163776,0.999678732869299,90.3090803045532
6.73392384,0.9998903851849209,90.1493204432553
6.736210432,1.0001093429428538,89.98643619451329
6.738496512,1.000322009146738,89.82043719870083
6.740783104,1.000514536940159,89.65150574452065
6.743069696,1.0006750422856794,89.48003343999854
6.745355776,1.0007933249513388,89.30653816571683
6.747642368,1.0008620108548845,89.13171104350222
6.749928448,1.000876543823169,88.95628658971583
6.75221504,1.0008361126249274,88.78107850815522
6.75450112,1.000743217759195,88.60682826465776
6.756787712,1.0006036562635627,88.43428300140681
6.759073792,1.0004263066997718,88.26404507282737
6.761360384,1.0002223395476275,88.09656953247074
6.763646976,1.0000045942918891,87.93218083540305
6.765933056,0.9997866840197674,87.77095403351696
6.768219648,0.9995825681470895,87.61281649216012
6.770505728,0.999405050524053,87.45745420492345
6.77279232,0.9992655013660996,87.30442703316731
6.7750784,0.9991726873334446,87.15310272307076
6.777364992,0.9991324875114432,87.00275012249608
6.779651584,0.9991475638847025,86.85259084745374
6.781937664,0.9992168391916733,86.70185128091012
6.784224256,0.9993360461106553,86.54974853555535
6.786510336,0.9994975722824403,86.39563349135969
6.788796928,0.9996914116049525,86.23891579274523
6.791083008,0.9999050074959225,86.07928447922197
6.7933696,1.000125178969096,85.9164985219355
6.79565568,1.0003377681678725,85.75059945025389
6.797942272,1.0005295098934646,85.5817561912349
6.800228864,1.0006881599543986,85.4104047087375
6.802514944,1.0008036993601996,85.23706916904712
6.804801536,1.0008690281266797,85.06244055561451
6.807087616,1.0008797364692452,84.8872649424074
6.809374208,1.000835287962497,84.7123440206222
6.811660288,1.0007384589252049,84.53847086061256
6.81394688,1.0005952672922152,84.3663376811703
6.81623296,1.000414739689662,84.1965519959758
6.818519552,1.0002083774047872,84.02958527411462
6.820806144,0.999989008172219,83.86573702584698
6.823092224,0.9997706706350354,83.70506440611874
6.825378816,0.9995670499197237,83.54747729654152
6.827664896,0.9993910212665391,83.3926546263099
6.829951488,0.9992537219651176,83.24014062849203
6.832237568,0.9991639914613357,83.08928102586731
6.83452416,0.9991274105284009,82.93935228415566
6.836810752,0.9991464228855169,82.78956487698349
6.839096832,0.9992197761782413,82.63912896793346
6.841383424,0.9993428073003743,82.48728517549414
6.843669504,0.9995078959142661,82.33333769946208
6.845956096,0.9997045134957946,82.1767776285666
6.848242176,0.999920056742615,82.01726762412713
6.850528768,1.0001411430981186,81.85458781100998
6.852814848,1.0003537536973282,81.68875679823907
6.85510144,1.000544498644033,81.52003054335057
6.857388032,1.000701186635524,81.3487774619327
6.859674112,1.0008140076518321,81.17560906250102
6.861960704,1.0008758207672448,81.00116570341554
6.864246784,1.000882715514428,80.82625835047531
6.866533376,1.000834276422261,80.65163697693231
6.868819456,1.0007334050778147,80.47812199917809
6.871106048,1.0005866014901394,80.3064062932905
6.87339264,1.0004028777182747,80.13708982701304
6.87567872,1.000194092522239,79.97064162276556
6.877965312,0.9999732892094875,79.80732629296824
6.880251392,0.9997543539355738,79.64719602309368
6.882537984,0.9995512818179159,79.49016563737301
6.884824064,0.9993767058263492,79.33587937692964
6.887110656,0.9992418965139158,79.18387385693374
6.889396736,0.9991554079655799,79.03346311759087
6.891683328,0.9991225671598419,78.88397057051213
6.89396992,0.9991455842609687,78.73455384085892
6.896256,0.9992230682710695,78.58441991776827
6.898542592,0.9993500629130193,78.43279283756854
6.900828672,0.9995185562257358,78.2790560625262
6.903115264,0.9997178671080705,78.12265222335425
6.905401344,0.9999354484011066,77.96322267356655
6.907687936,1.0001575316909568,77.80064899799991
6.909974528,1.000370032034136,77.63491140382541
6.912260608,1.0005596570432083,77.4662518140477
6.9145472,1.000714282173744,77.2951385177089
6.91683328,1.000824340335072,77.12210201641507
6.919119872,1.0008825888674073,76.94784996726786
6.921405952,1.0008855905202352,76.7731795652916
6.923692544,1.000832945114873,76.59886505001272
6.925978624,1.0007279893217356,76.42571432875431
6.928265216,1.0005774651043797,76.2544188278852
