freq,mag,phase
6.0,1.000002000405283,25.9086329200268
6.041884672,1.0000008244548313,24.82989113585736
6.083769856,0.9999997207806893,23.75110320001325
6.125654528,0.9999986158300492,22.67223497788343
6.1675392,0.9999976037799031,21.5933525594141
6.209423872,0.9999966553446246,20.514379661819856
6.251309056,0.9999958878742568,19.43537015259496
6.293193728,0.9999950732614199,18.356308776890764
6.3350784,0.9999944728342017,17.277150482405077
6.376963584,0.9999940922237927,16.197948383414477
6.418848256,0.9999937375008889,15.118675580140495
6.460732928,0.999993594872641,14.039355343708666
6.5026176,0.9999935504453881,12.959975533839792
6.544502784,0.9999936543284487,11.880498049824293
6.586387456,0.9999939039390371,10.800982604016472
6.628272128,0.9999943899411118,9.721405766040995
6.670157312,0.9999948866292082,8.641728818839233
6.712041984,0.99999554189789,7.562027143985554
6.753926656,0.999996370930127,6.4822110701268665
6.795811328,0.9999972296117109,5.402352777869686
6.837696512,0.9999982948025086,4.322389912450261
6.879581184,0.9999994181222438,3.2423384397306436
6.921465856,1.000000570527475,2.1622544667266075
6.96335104,1.0000016639784166,1.0820779330068375
7.005235712,1.000002861521736,0.0018096495655447204
7.047120384,1.0000041950353273,-1.0785379293762927
7.089005056,1.0000054787264356,-2.1589288687066603
7.13089024,1.0000065683056105,-3.2394248732455226
7.172774912,1.0000077502698201,-4.319996124764393
7.214659584,1.0000089307747866,-5.400627398177585
7.256544256,1.0000098200382008,-6.481369948115804
7.29842944,1.0000107401911276,-7.562176809818564
7.340314112,1.0000115909632097,-8.64307129097819
7.382198784,1.0000123913995054,-9.724007853860625
7.424083968,1.0000128702323665,-10.8050741870211
7.46596864,1.0000132335012064,-11.886160750766617
7.507853312,1.0000136105382442,-12.967358430466803
7.549737984,1.0000136892699747,-14.048630257258369
7.591623168,1.0000136599110885,-15.129966918924453
7.63350784,1.0000134512018406,-16.21137141915345
7.675392512,1.000013067621061,-17.292872551260555
7.717277696,1.000012643344427,-18.37438556861785
7.759162368,1.0000120117966487,-19.456020707831573
7.80104704,1.0000111828468918,-20.53770888459782
7.842931712,1.000010319905023,-21.619463114223915
7.884816896,1.00000923569444,-22.701307398951908
7.926701568,1.000008104419261,-23.7832162323885
7.96858624,1.0000068646453149,-24.86517899176401
8.010471424,1.0000056152678485,-25.94721341783494
8.052356096,1.0000042418405453,-27.029317395374918
8.094240768,1.0000028609970006,-28.11146320140281
8.13612544,1.0000016441361577,-29.193729496648196
8.178010624,1.000000227435101,-30.276002036822756
8.219895296,0.9999988949757063,-31.35838042211084
8.261779968,0.9999977047511559,-32.44082794774519
8.303665152,0.9999966061298318,-33.523295407750226
8.345549824,0.9999954047999936,-34.605906636497245
8.387434496,0.9999943616059932,-35.68855065690613
8.429319168,0.9999936382126667,-36.77124923036184
8.471204352,0.9999927906694746,-37.85404200699258
8.513089024,0.9999921692945737,-38.93689121089945
8.554973696,0.9999916397257059,-40.01984863239027
8.59685888,0.9999914495453718,-41.10284527799581
8.638743552,0.9999913077688912,-42.185938878239234
8.680628224,0.9999913784459544,-43.26910989020416
8.722512896,0.9999916259154373,-44.35236026305736
8.764397568,0.9999919749674658,-45.43569733367944
8.80628224,0.9999926020729452,-46.51910690385703
8.848167936,0.9999932235897631,-47.602604309183384
8.890052608,0.9999940272647209,-48.68619472273966
8.93193728,0.9999950903135116,-49.769861107344944
8.973821952,0.9999962529847953,-50.85360893961672
9.015706624,0.9999974007894152,-51.93748259677558
9.057591296,0.9999987357903566,-53.021407204111995
9.099475968,1.0000001505148053,-54.10543065602977
9.141361664,1.0000014752031001,-55.18954766941597
9.183246336,1.0000029178490604,-56.27376557752121
9.225131008,1.000004399221612,-57.35808104352871
9.26701568,1.0000058327721761,-58.44247993288754
9.308900352,1.0000072542906802,-59.52696993971007
9.350785024,1.0000086173151375,-60.611548454508515
9.392669696,1.0000098689345611,-61.69622904488525
9.434555392,1.0000110397797477,-62.78098943939782
9.476440064,1.0000121539824498,-63.865844340143084
9.518324736,1.000012986350993,-64.95079372107408
9.560209408,1.0000137825338018,-66.0358374580727
9.60209408,1.0000144251001526,-67.12094510005474
9.643978752,1.0000148827483322,-68.2061794789364
9.685863424,1.0000151892914382,-69.2914712514435
9.72774912,1.0000153395501201,-70.37687488522516
9.769633792,1.0000151334243226,-71.46233992765684
9.811518464,1.0000148860115634,-72.54789280011819
9.853403136,1.0000142742101141,-73.63351955067868
9.895287808,1.0000136954499035,-74.71924646978462
9.93717248,1.0000128909799124,-75.80504461566642
9.979057152,1.000011928538143,-76.8909309608367
10.020942848,1.0000108727868855,-77.97686189430041
10.06282752,1.0000095124226345,-79.06291042911063
10.104712192,1.0000082491804099,-80.1490177264732
10.146596864,1.0000068326046643,-81.2351993250193
10.188481536,1.0000053356536929,-82.3214678242256
10.230366208,1.000003700459168,-83.40781518960678
10.27225088,1.0000021404169974,-84.49420335722833
10.314136576,1.0000005067593154,-85.58068463069762
10.356021248,0.9999988891264785,-86.66725405911745
10.39790592,0.9999973725336294,-87.75388935039891
10.439790592,0.9999958700558077,-88.8406058858633
10.481675264,0.9999944848977904,-89.92739041371054
10.523559936,0.999993176775895,-91.01424042092934
10.565444608,0.999992035859338,-92.10119175687568
10.607330304,0.999990997001457,-93.18820456440973
10.649214976,0.9999901477962934,-94.27531286313943
10.691099648,0.9999894714725795,-95.36250180154352
10.73298432,0.9999889855301449,-96.44978899272004
10.774868992,0.9999887862207418,-97.53711608996852
10.816753664,0.9999887304537705,-98.62454906772734
10.858638336,0.9999888111951086,-99.71207254524148
10.900524032,0.9999891270518884,-100.79969367565187
10.942408704,0.9999897089564597,-101.88738412587689
10.984293376,0.999990423031542,-102.9751772475377
11.026178048,0.9999913031289718,-104.0630527087833
11.06806272,0.9999924028659195,-105.1510408890048
11.109947392,0.9999936853028918,-106.23911103802537
11.151832064,0.999995135887198,-107.3272913875918
11.19371776,0.999996591758259,-108.41556855448682
11.235602432,0.9999982093847879,-109.50394448034564
11.277487104,0.9999999792388137,-110.59240533197058
11.319371776,1.0000017751729797,-111.68098856376476
11.361256448,1.000003534291276,-112.7696551036594
11.40314112,1.0000053127553334,-113.85842259111175
11.445025792,1.0000070887778418,-114.9473043382933
11.486911488,1.0000087747586006,-116.03627303451808
11.52879616,1.0000105094714786,-117.12533874083648
11.570680832,1.0000120416061584,-118.2145255831716
11.612565504,1.0000135180033358,-119.30379827076735
11.654450176,1.0000147164671485,-120.39316351055679
11.696334848,1.0000158867364117,-121.48263265225215
11.73821952,1.0000167549768029,-122.5721989297787
11.780105216,1.000017519594888,-123.6618667763213
11.821989888,1.0000180157060894,-124.7516206140681
11.86387456,1.0000183028890588,-125.84146424985137
11.905759232,1.0000183621436838,-126.93139964974648
11.947643904,1.0000182602431487,-128.02142841279795
11.989528576,1.0000177757578066,-129.11154653633886
12.031413248,1.0000171530649742,-130.20174467739747
12.07329792,1.0000163415906473,-131.29203413378636
12.115183616,1.0000152015779173,-132.38239310291243
12.157068288,1.000013870704548,-133.47285711977568
12.19895296,1.0000124985784984,-134.56336980669616
12.240837632,1.0000108383634851,-135.65397865478968
12.282722304,1.000009085796067,-136.744661634847
12.324606976,1.0000072121738999,-137.83542073091493
12.366491648,1.0000052790311371,-138.92626489667052
12.408377344,1.0000032828267402,-140.01718359335996
12.450262016,1.00000119594151,-141.1081636019587
12.492146688,0.9999991407003271,-142.1992314947563
12.53403136,0.9999970929066503,-143.2903604405155
12.575916032,0.9999950610937544,-144.38157861242914
12.617800704,0.9999931873586924,-145.47286547430505
12.659685376,0.999991440078888,-146.56422025716986
12.701571072,0.9999898939256177,-147.65565949681613
12.743455744,0.9999883523299676,-148.747182205068
12.785340416,0.9999871084365832,-149.83878177813597
12.827225088,0.9999859964953104,-150.93044847693122
12.86910976,0.9999852761846736,-152.02221427091916
12.910994432,0.9999846045497859,-153.11404761870617
12.952879104,0.9999843579389267,-154.20597024556295
12.9947648,0.9999843429835569,-155.2979790710996
13.036649472,0.9999845610916454,-156.39009736607287
13.078534144,0.9999850033321165,-157.48229183701815
13.120418816,0.9999857984723824,-158.57455883476226
13.162303488,0.999986820807533,-159.66695218954
13.20418816,0.9999881198781531,-160.75941562976766
13.246072832,0.9999896040488008,-161.85199153202944
13.287958528,0.9999913337217685,-162.94465741515424
13.3298432,0.9999932812599021,-164.03742603547408
13.371727872,0.9999952622091027,-165.1303065704675
13.413612544,0.9999975566387774,-166.22328782542772
13.455497216,0.999999841331741,-167.31636517102766
13.497381888,1.0000022739721741,-168.40955014445532
13.53926656,1.000004698819134,-169.50283984632554
13.581152256,1.0000071647113746,-170.5962193746666
13.623036928,1.0000095419121537,-171.68973173610732
13.6649216,1.000011885208466,-172.78333076283567
13.706806272,1.0000141738837418,-173.8770353652973
13.748690944,1.000016211342177,-174.97087066800032
13.790575616,1.0000181702238842,-176.06477172805006
13.832460288,1.0000199779601524,-177.15877170614323
13.874345984,1.0000214185822134,-178.25289542957756
13.916230656,1.0000227249561615,-179.34710826052367
13.958115328,1.0000237177813474,179.55857932756217
14.0,1.0000243894870788,178.4641714151178
