freq,mag,phase
6.0,0.9999925619738802,-156.96675758151508
6.008,0.9999924826802012,-157.42197141091484
6.016,0.9999924115498967,-157.87699136508135
6.024,0.9999923483786456,-158.33181819537404
6.032,0.9999922929643844,-158.7864526720759
6.04,0.9999922451073076,-159.24089558420633
6.048,0.9999922046098656,-159.6951477393336
6.056,0.9999921712767657,-160.14920996338734
6.064,0.9999921449149709,-160.60308310047097
6.072,0.9999921253336953,-161.05676801267438
6.08,0.9999921123444077,-161.51026557988646
6.088,0.9999921057608238,-161.9635766996078
6.096,0.9999921053989077,-162.41670228676327
6.104,0.9999921110768667,-162.86964327351518
6.112,0.999992122615149,-163.32240060907617
6.12,0.9999921398364384,-163.77497525952225
6.128,0.9999921625656534,-164.2273682076066
6.136,0.9999921906299397,-164.67958045257282
6.144,0.9999922238586677,-165.13161300996885
6.152,0.9999922620834281,-165.5834669114612
6.16,0.9999923051380234,-166.03514320464913
6.168,0.9999923528584669,-166.48664295287952
6.176,0.9999924050829722,-166.9379672350617
6.184,0.999992461651952,-167.38911714548277
6.192,0.9999925224080064,-167.84009379362328
6.2,0.9999925871959223,-168.29089830397336
6.208,0.9999926558626608,-168.74153181584902
6.216,0.9999927282573553,-169.19199548320896
6.224,0.9999928042312974,-169.6422904744719
6.232,0.9999928836379359,-170.09241797233426
6.24,0.9999929663328672,-170.5423791735881
6.248,0.9999930521738231,-170.99217528894002
6.256,0.9999931410206662,-171.44180754282996
6.264,0.999993232735383,-171.89127717325093
6.272,0.9999933271820685,-172.34058543156897
6.28,0.9999934242269247,-172.78973358234396
6.288,0.9999935237382441,-173.23872290315055
6.296,0.9999936255864086,-173.68755468439997
6.304,0.9999937296438707,-174.1362302291621
6.312,0.9999938357851482,-174.58475085298866
6.32,0.9999939438868171,-175.03311788373625
6.328,0.9999940538274953,-175.48133266139038
6.336,0.9999941654878355,-175.9293965378905
6.344,0.9999942787505137,-176.37731087695468
6.352,0.9999943935002187,-176.82507705390574
6.36,0.9999945096236417,-177.2726964554977
6.368,0.9999946270094632,-177.72017047974302
6.376,0.9999947455483436,-178.1675005357401
6.384,0.9999948651329114,-178.614688043502
6.392,0.9999949856577497,-179.06173443378555
6.4,0.999995107019387,-179.5086411479209
6.408,0.9999952291162851,-179.95540963764228
6.416,0.9999953518488242,179.59795863508103
6.424,0.9999954751192938,179.15146219821267
6.432,0.9999955988318788,178.7050995698166
6.44,0.9999957228926482,178.25886925822414
6.448,0.9999958472095409,177.81276976219942
6.456,0.9999959716923544,177.36679957110516
6.464,0.9999960962527324,176.92095716506694
6.472,0.9999962208041493,176.47524101513693
6.48,0.9999963452619007,176.02964958345729
6.4879999999999995,0.9999964695430875,175.58418132342223
6.496,0.9999965935666044,175.13883467983945
6.504,0.9999967172531247,174.6936080890916
6.5120000000000005,0.9999968405250909,174.2484999792956
6.52,0.9999969633066957,173.8035087704625
6.5280000000000005,0.9999970855238728,173.35863287465574
6.536,0.9999972071042817,172.91387069614933
6.5440000000000005,0.9999973279772936,172.4692206315843
6.552,0.9999974480739788,172.02468107012575
6.5600000000000005,0.9999975673270908,171.58025039361752
6.568,0.9999976856710551,171.1359269767378
6.5760000000000005,0.9999978030419538,170.6917091871523
6.584,0.9999979193775111,170.24759538566818
6.592,0.9999980346170804,169.80358392638587
6.6,0.9999981487016287,169.35967315685116
6.608,0.9999982615737245,168.91586141820594
6.616,0.9999983731775213,168.4721470453383
6.624,0.9999984834587448,168.02852836703192
6.632,0.9999985923646784,167.58500370611466
6.64,0.999998699844149,167.14157137960632
6.648,0.9999988058475113,166.69822969886573
6.656,0.9999989103266353,166.25497696973696
6.664,0.9999990132348904,165.81181149269497
6.672,0.9999991145271322,165.36873156299006
6.68,0.9999992141596863,164.9257354707922
6.688,0.9999993120903357,164.48282150133386
6.696,0.9999994082783049,164.0399879350528
6.704,0.9999995026842463,163.59723304773348
6.712,0.9999995952702246,163.15455511064815
6.72,0.9999996859997036,162.71195239069698
6.728,0.99999977483753,162.26942315054742
6.736,0.9999998617499205,161.826965648773
6.744,0.9999999467044459,161.38457813999108
6.752,0.9999999999999999,160.9422588750001
6.76,1.0,160.50000610091615
6.768,1.0,160.05781806130847
6.776,1.0,159.61569299633442
6.784,1.0,159.17362914287384
6.792,1.0,158.73162473466255
6.8,0.9999999999999999,158.28967800242492
6.808,1.0,157.84778717400619
6.816,0.9999999999999999,157.40595047450367
6.824,1.0,156.96416612639737
6.832,0.9999999999999999,156.52243234968
6.84,1.0,156.08074736198608
6.848,1.0,155.63910937872058
6.856,0.9999999999999999,155.1975166131866
6.864,1.0,154.75596727671257
6.872,1.0,154.31445957877892
6.88,1.0,153.87299172714336
6.888,1.0,153.43156192796638
6.896,1.0,152.99016838593556
6.904,0.9999999999999999,152.54880930438924
6.912,0.9999999999999999,152.10748288543962
6.92,1.0,151.66618733009537
6.928,1.0,151.22492083838316
6.936,1.0,150.7836816094689
6.944,0.9999999999999999,150.3424678417784
6.952,1.0,149.90127773311687
6.96,1.0,149.46010948078847
6.968,0.9999999999999999,149.01896128171472
6.976,1.0,148.57783133255268
6.984,1.0,148.13671782981206
6.992,1.0,147.6956189699721
7.0,0.9999999999999998,147.25453294959777
7.008,1.0,146.81345796545526
7.016,0.9999999999999999,146.3723922146271
7.024,0.9999999999999999,145.93133389462622
7.032,1.0,145.49028120350997
7.04,0.9999999999999999,145.0492323399934
7.048,1.0,144.60818550356166
7.056,1.0,144.16713889458234
7.064,1.0,143.7260907144169
7.072,1.0,143.28503916553154
7.08,0.9999999999999999,142.84398245160773
7.088,1.0,142.40291877765216
7.096,0.9999999999999999,141.9618463501059
7.104,1.0,141.52076337695343
7.112,0.9999999999999999,141.07966806783068
7.12,1.0,140.6385586341331
7.128,0.9999999999999999,140.1974332891226
7.136,1.0,139.75629024803462
7.144,1.0,139.3151277281841
7.152,0.9999999999999999,138.87394394907133
7.16,1.0,138.43273713248735
7.168,0.9999999999999999,137.99150550261845
7.176,1.0,137.55024728615066
7.184,1.0,137.1089607123736
7.192,1.0,136.66764401328356
7.2,1.0,136.22629542368668
7.208,1.0,135.78491318130125
7.216,0.9999999999999999,135.3434955268596
7.224,1.0,134.90204070420978
7.232,0.9999999999999999,134.46054696041654
7.24,0.9999999999999999,134.01901254586195
7.248,1.0,133.57743571434568
7.256,1.0,133.13581472318472
7.264,0.9999999999999999,132.69414783331277
7.272,1.0,132.25243330937914
7.28,0.9999999999999999,131.81066941984736
7.288,1.0,131.36885443709318
7.296,1.0,130.92698663750224
7.304,1.0,130.48506430156772
7.312,1.0,130.04308571398684
7.32,1.0,129.60104916375764
7.328,1.0,129.15895294427506
7.336,1.0,128.71679535342673
7.344,0.9999999746988442,128.27457469368827
7.352,0.9999998975678435,127.83228927221846
7.36,0.9999998189322078,127.38993740095374
7.368,0.9999997388224794,126.9475173967027
7.376,0.9999996572695072,126.50502758123973
7.384,0.9999995743044445,126.06246628139894
7.392,0.9999994899587294,125.61983182916696
7.4,0.9999994042640808,125.17712256177627
7.4079999999999995,0.9999993172524824,124.73433682179744
7.416,0.9999992289561773,124.29147295723133
7.4239999999999995,0.9999991394076534,123.84852932160129
7.432,0.9999990486396337,123.40550427404406
7.4399999999999995,0.9999989566850669,122.96239617940175
7.448,0.999998863577117,122.51920340831191
7.4559999999999995,0.9999987693491504,122.07592433729887
7.464,0.9999986740347299,121.63255734886319
7.4719999999999995,0.9999985776676008,121.18910083157233
7.48,0.9999984802816824,120.74555318014964
7.4879999999999995,0.9999983819110584,120.30191279556415
7.496,0.9999982825899659,119.858178085119
7.504,0.9999981823527855,119.41434746254089
7.5120000000000005,0.999998081234033,118.97041934806757
7.52,0.9999979792683477,118.52639216853684
7.5280000000000005,0.9999978764904834,118.0822643574734
7.536,0.9999977729352991,117.63803435517724
7.5440000000000005,0.9999976686377499,117.1937006088101
7.552,0.9999975636328755,116.74926157248302
7.5600000000000005,0.9999974579557941,116.30471570734233
7.568,0.9999973516416892,115.86006148165657
7.5760000000000005,0.9999972447258034,115.41529737090201
7.584,0.9999971372434285,114.97042185784905
7.5920000000000005,0.9999970292298943,114.52543343264693
7.6,0.999996920720563,114.08033059290975
7.6080000000000005,0.9999968117508173,113.63511184380066
7.616,0.9999967023560538,113.18977569811722
7.6240000000000006,0.9999965925716714,112.744320676375
7.632,0.9999964824330662,112.29874530689253
7.640000000000001,0.9999963719756187,111.8530481258743
7.648,0.9999962612346885,111.40722767749507
7.656000000000001,0.9999961502456048,110.96128251398247
7.664,0.9999960390436565,110.51521119570067
7.672,0.9999959276640861,110.06901229123244
7.68,0.9999958161420792,109.62268437746216
7.688,0.9999957045127587,109.17622603965779
7.696,0.999995592811174,108.72963587155277
7.704,0.9999954810722943,108.28291247542772
7.712,0.9999953693310007,107.83605446219185
7.72,0.9999952576220786,107.38906045146398
7.728,0.9999951459802077,106.94192907165345
7.736,0.9999950344399564,106.49465896004065
7.744,0.9999949230357741,106.04724876285731
7.752,0.9999948118019814,105.5996971353665
7.76,0.9999947007727649,105.15200274194244
7.768,0.9999945899821683,104.70416425614982
7.776,0.9999944794640855,104.25618036082312
7.784,0.9999943692522527,103.80804974814544
7.792,0.9999942593802427,103.35977111972711
7.8,0.9999941498814545,102.91134318668409
7.808,0.9999940407891108,102.46276466971602
7.816,0.9999939321362457,102.01403429918386
7.824,0.9999938239557025,101.56515081518758
7.832,0.9999937162801236,101.11611296764316
7.84,0.9999936091419448,100.66691951635963
7.848,0.9999935025733885,100.21756923111559
7.856,0.9999933966064575,99.76806089173552
7.864,0.9999932912729275,99.31839328816581
7.872,0.9999931866043416,98.8685652205505
7.88,0.999993082632002,98.41857549930657
7.888,0.9999929793869663,97.96842294519917
7.896,0.999992876900039,97.51810638941626
7.904,0.9999927752017669,97.06762467364314
7.912,0.9999926743224311,96.61697665013659
7.92,0.9999925742920436,96.16616118179873
7.928,0.9999924751403381,95.71517714225041
7.936,0.9999923768967672,95.26402341590446
7.944,0.9999922795904941,94.81269889803852
7.952,0.9999921832503889,94.36120249486746
7.96,0.9999920879050215,93.90953312361563
7.968,0.9999919935826569,93.45768971258859
7.976,0.9999919003112486,93.00567120124461
7.984,0.9999918081184351,92.55347654026572
7.992,0.9999917170315327,92.10110469162854
8.0,0.9999916270775309,91.64855462867452
8.008,0.9999915382830877,91.1958253361801
8.016,0.9999914506745239,90.7429158104261
8.024000000000001,0.9999913642778187,90.28982505926729
8.032,0.9999912791186037,89.83655210220114
8.04,0.9999911952221592,89.383095970436
8.048,0.9999911126134096,88.92945570695949
8.056000000000001,0.9999910313169172,88.47563036660618
8.064,0.999990951356879,88.02161901612483
8.072,0.9999908727571216,87.567420734245
8.08,0.9999907955410969,87.11303461174359
8.088000000000001,0.9999907197318785,86.6584597515111
8.096,0.9999906453521559,86.20369526861707
8.104,0.9999905724242318,85.74874029037485
8.112,0.9999905009700168,85.29359395640665
8.120000000000001,0.9999904310110267,84.8382554187078
8.128,0.9999903625683777,84.38272384171049
8.136,0.9999902956627824,83.92699840234671
8.144,0.9999902303145466,83.4710782901114
8.152000000000001,0.9999901665435659,83.01496270712491
8.16,0.9999901043693211,82.55865086819475
8.168,0.9999900438108762,82.10214200087665
8.176,0.9999899848868734,81.6454353455357
8.184000000000001,0.999989927615531,81.18853015540681
8.192,0.9999898720146395,80.73142569665448
8.2,0.9999898181015586,80.27412124843173
8.208,0.9999897658932149,79.8166161029392
8.216000000000001,0.9999897154060976,79.35890956548349
8.224,0.999989666656257,78.90100095453472
8.232,0.9999896196593008,78.44288960178335
8.24,0.9999895744303912,77.98457485219701
8.248000000000001,0.9999895309842446,77.52605606407661
8.256,0.999989489335125,77.06733260911156
8.264,0.9999894494968457,76.60840387243437
8.272,0.9999894114827644,76.149269252675
8.280000000000001,0.9999893753057819,75.6899281620147
8.288,0.9999893409783404,75.23038002623873
8.296,0.9999893085124196,74.77062428478855
8.304,0.9999892779195375,74.31066039081361
8.312,0.999989249210746,73.85048781122278
8.32,0.9999892223966308,73.39010602673407
8.328,0.9999891974873091,72.92951453192514
8.336,0.999989174492428,72.4687128352814
8.344,0.9999891534211628,72.00770045924547
8.352,0.9999891342822163,71.5464769402638
8.36,0.9999891170838163,71.08504182883459
8.368,0.9999891018337165,70.62339468955318
8.376,0.9999890885391924,70.16153510115839
8.384,0.999989077207043,69.69946265657661
8.392,0.9999890678435881,69.23717696296647
8.4,0.9999890604546695,68.77467764176166
8.408,0.999989055045647,68.31196432871391
8.416,0.9999890516214006,67.84903667393424
8.424,0.999989050186329,67.38589434193464
8.432,0.9999890507443495,66.92253701166752
8.44,0.9999890532988962,66.45896437656579
8.448,0.999989057852922,65.99517614458087
8.456,0.9999890644088961,65.53117203822097
8.464,0.9999890729688063,65.06695179458744
8.472,0.9999890835341567,64.60251516541157
8.48,0.9999890961059693,64.13786191708901
8.488,0.9999891106847842,63.67299183071492
8.496,0.9999891272706587,63.20790470211674
8.504,0.9999891458631688,62.74260034188751
8.512,0.9999891664614099,62.27707857541681
8.52,0.9999891890639965,61.81133924292238
8.528,0.9999892136690631,61.34538219947921
8.536,0.9999892402742655,60.87920731504923
8.544,0.9999892688767812,60.4128144745086
8.552,0.999989299473311,59.946203577675554
8.56,0.9999893320600781,59.47937453933574
8.568,0.9999893666328331,59.01232728926815
8.576,0.9999894031868508,58.54506177226847
8.584,0.9999894417169348,58.077577948173044
8.592,0.9999894822174173,57.6098757918803
8.6,0.9999895246821617,57.1419552933727
8.608,0.9999895691045636,56.67381645773603
8.616,0.999989615477552,56.205459305179374
8.624,0.999989663793593,55.736883871052356
8.632,0.9999897140446898,55.268090205862926
8.64,0.9999897662223848,54.7990783752926
8.648,0.999989820317764,54.32984846021203
8.656,0.9999898763214564,53.86040055669409
8.664,0.9999899342236376,53.39073477602732
8.672,0.9999899940140325,52.92085124472681
8.68,0.9999900556819169,52.45075010454538
8.688,0.9999901192161209,51.980431512482205
8.696,0.9999901846050312,51.50989564079188
8.704,0.999990251836594,51.03914267699059
8.712,0.9999903208983172,50.56817282386301
8.72,0.9999903917772751,50.09698629946614
8.728,0.9999904644601084,49.62558333713376
8.736,0.9999905389330315,49.15396418547805
8.744,0.9999906151818316,48.68212910839164
8.752,0.9999906931918747,48.21007838504677
8.76,0.9999907729481082,47.737812309895
8.768,0.9999908544350637,47.26533119266389
8.776,0.9999909376368623,46.7926353583543
8.784,0.9999910225372161,46.31972514723467
8.792,0.9999911091194341,45.84660091483566
8.8,0.9999911973664237,45.37326303194205
8.808,0.9999912872606975,44.899711884584875
8.815999999999999,0.9999913787843746,44.42594787403088
8.824,0.9999914719191866,43.951971416771535
8.832,0.9999915666464804,43.47778294451087
8.84,0.999991662947224,43.003382904151486
8.847999999999999,0.9999917608020088,42.52877175777921
8.856,0.9999918601910569,42.05394998264701
8.864,0.999991961094222,41.57891807115745
8.872,0.9999920634909972,41.1036765308435
8.879999999999999,0.9999921673605187,40.62822588434788
8.888,0.9999922726815693,40.15256666940163
8.896,0.9999923794325847,39.676699438801286
8.904,0.9999924875916579,39.2006247603842
8.911999999999999,0.9999925971365449,38.7243432170026
8.92,0.9999927080446677,38.24785540649663
8.928,0.9999928202931219,37.77116194166609
8.936,0.9999929338586813,37.29426345024026
8.943999999999999,0.9999930487178013,36.817160574846476
8.952,0.9999931648466271,36.33985397297762
8.96,0.9999932822209974,35.86234431695824
8.968,0.9999934008164496,35.38463229390895
8.975999999999999,0.9999935206082271,34.906718605709216
8.984,0.9999936415712833,34.42860396895929
8.992,0.9999937636802881,33.950289114940766
9.0,0.9999938869096335,33.47177478957511
9.008,0.9999940112334391,32.993061753381006
9.016,0.9999941366255592,32.51415078143045
9.024000000000001,0.999994263059587,32.035042663303514
9.032,0.9999943905088621,31.555738203041365
9.04,0.9999945189464756,31.076238219097615
9.048,0.9999946483452772,30.596543544288792
9.056000000000001,0.9999947786778808,30.116655025743324
9.064,0.9999949099166701,29.636573524848696
9.072,0.9999950420338072,29.156299917197007
9.08,0.999995175001236,28.67583509252973
9.088000000000001,0.9999953087906911,28.195179954680707
9.096,0.9999954433737023,27.714335421517642
9.104,0.9999955787216029,27.23330242488169
9.112,0.9999957148055354,26.752081910526414
9.120000000000001,0.9999958515964577,26.270674838055
9.128,0.9999959890651505,25.78908218085572
9.136,0.9999961271822241,25.307304926035872
9.144,0.9999962659181243,24.825344074354714
9.152000000000001,0.9999964052431402,24.3432006401549
9.16,0.9999965451274099,23.86087565129202
9.168,0.999996685540929,23.37837014906275
9.176,0.9999968264535556,22.89568518813185
9.184000000000001,0.9999969678350189,22.412821836457812
9.192,0.9999971096549252,21.929781175216494
9.2,0.9999972518827648,21.44656429872342
9.208,0.9999973944879204,20.963172314354992
9.216000000000001,0.9999975374396725,20.47960634246822
9.224,0.9999976807072067,19.99586751631863
9.232,0.9999978242596225,19.51195698197668
9.24,0.9999979680659385,19.02787589824317
9.248000000000001,0.9999981120951006,18.543625436563186
9.256,0.9999982563159893,18.059206780938243
9.264,0.9999984006974254,17.574621127836934
9.272,0.9999985452081795,17.08986968610456
9.280000000000001,0.999998689816978,16.604953676871425
9.288,0.9999988344925099,16.119874333459133
9.296,0.9999989792034343,15.634632901285665
9.304,0.9999991239183896,15.149230637769275
9.312000000000001,0.999999268605998,14.663668812231125
9.32,0.9999994132348733,14.177948705796004
9.328,0.999999557773631,13.692071611291723
9.336,0.9999997021908917,13.206038833147513
9.344,0.9999998464552908,12.719851687291166
9.352,0.9999999905354852,12.233511501043676
9.36,1.0,11.74701961301429
9.368,1.0000000000000002,11.26037737299225
9.376,0.9999999999999999,10.773586141839141
9.384,0.9999999999999999,10.286647291377994
9.392,1.0,9.799562204282891
9.4,1.0,9.312332273965502
9.408,1.0,8.824958904462017
9.416,0.9999999999999999,8.337443510317113
9.424,0.9999999999999999,7.849787516468207
9.432,1.0,7.36199235812692
9.44,1.0,6.874059480660823
9.448,1.0,6.385990339472284
9.456,1.0,5.897786399877726
9.464,1.0,5.409449136984047
9.472,1.0,4.9209800355653766
9.48,1.0,4.432380589937076
9.488,1.0,3.943652303830098
9.496,1.0,3.4547966902625444
9.504,1.0,2.9658152714117847
9.512,1.0,2.47670957848355
9.52,1.0,1.9874811515817925
9.528,1.0,1.4981315395755919
9.536,0.9999999999999999,1.0086622999666561
9.544,1.0,0.5190749987540247
9.552,0.9999999999999999,0.029371210299418003
9.56,0.9999999999999999,-0.46044748281022246
9.568,0.9999999999999998,-0.9503794898995446
9.576,1.0,-1.440423212344346
9.584,1.0,-1.930577043710385
9.592,0.9999999999999999,-2.4208393698950674
9.6,0.9999999999999999,-2.9112085692682292
9.608,1.0,-3.4016830128157456
9.616,0.9999999999999998,-3.8922610642823194
9.624,0.9999999999999998,-4.382941080316953
9.632,1.0,-4.873721410617611
9.64,0.9999999999999999,-5.364600398078517
9.648,1.0,-5.855576378936644
9.656,1.0,-6.346647682920753
9.664,0.9999999999999999,-6.8378126333996105
9.672,1.0,-7.329069547532698
9.68,1.0,-7.8204167364201185
9.688,0.9999999999999999,-8.311852505254889
9.696,0.9999999999999999,-8.803375153474432
9.704,0.9999999999999998,-9.294982974914413
9.712,1.0,-9.78667425796173
9.72,0.9999999999999999,-10.278447285709793
9.728,1.0,-10.770300336112928
9.736,0.9999999999999999,-11.262231682143103
9.744,0.9999999999999999,-11.754239591945556
9.752,1.0,-12.246322328996929
9.76,1.0,-12.738478152262111
9.768,1.0,-13.230705316353518
9.776,1.0,-13.723002071689248
9.784,0.9999999999999999,-14.2153666646534
9.792,1.0,-14.707797337755313
9.8,1.0,-15.200292329790992
9.808,1.0,-15.692849876003281
