freq,mag,phase
6.0,0.9999970118237794,46.87571916885133
6.008,0.9999968458886204,46.6600668918331
6.016,0.9999966828823916,46.44430770226819
6.024,0.9999965227373091,46.228441816064546
6.032,0.9999963653867355,46.012469451123046
6.04,0.9999962107651728,45.79639082733834
6.048,0.9999960588082575,45.58020616659954
6.056,0.9999959094527516,45.363915692790826
6.064,0.999995762636539,45.14751963179208
6.072,0.9999956182986149,44.93101821147926
6.08,0.999995476379083,44.71441166172499
6.088,0.9999953368191453,44.49770021439874
6.096,0.9999951995610973,44.28088410336726
6.104,0.9999950645483208,44.06396356449471
6.112,0.9999949317252759,43.846938835642824
6.12,0.9999948010374956,43.62981015667095
6.128,0.9999946724315774,43.41257776943618
6.136,0.9999945458551774,43.1952419177931
6.144,0.9999944212570021,42.97780284759379
6.152,0.9999942985868028,42.760260806687526
6.16,0.9999941777953666,42.54261604492054
6.168,0.9999940588345105,42.32486881413566
6.176,0.9999939416570744,42.10701936817179
6.184,0.9999938262169125,41.889067962863535
6.192,0.9999937124688877,41.67101485604051
6.2,0.9999936003688624,41.452860307526755
6.208,0.9999934898736932,41.23460457913997
6.216,0.9999933809412218,41.016247934690675
6.224,0.9999932735302692,40.79779063998141
6.232,0.9999931676006262,40.5792329628057
6.24,0.9999930631130476,40.360575172947065
6.248,0.9999929600292449,40.141817542177876
6.256,0.9999928583118763,39.92296034425822
6.264,0.9999927579245429,39.704003854934584
6.272,0.9999926588317781,39.48494835193853
6.28,0.9999925609990405,39.265794114985276
6.288,0.9999924643927074,39.04654142577219
6.296,0.9999923689800663,38.8271905679773
6.304,0.999992274729307,38.60774182725746
6.312,0.9999921816095142,38.38819549124683
6.32,0.99999208959066,38.16855184955491
6.328,0.9999919986435954,37.94881119376468
6.336,0.9999919087400425,37.72897381743072
6.344,0.999991819852588,37.50904001607707
6.352,0.9999917319546733,37.28901008719511
6.36,0.999991645020588,37.0688843302414
6.368,0.9999915590254614,36.84866304663538
6.376,0.999991473945255,36.62834653975693
6.384,0.9999913897567532,36.40793511494404
6.392,0.9999913064375574,36.18742907949017
6.4,0.9999912239660764,35.96682874264171
6.408,0.9999911423215186,35.74613441559529
6.416,0.9999910614838837,35.52534641149494
6.424,0.9999909814339561,35.304465045429254
6.432,0.9999909021532943,35.08349063442854
6.44,0.9999908236242253,34.86242349746175
6.448,0.9999907458298345,34.64126395543328
6.456,0.9999906687539579,34.42001233117989
6.464,0.9999905923811744,34.19866894946749
6.472,0.9999905166967982,33.977234136987654
6.48,0.999990441686868,33.75570822235427
6.4879999999999995,0.9999903673381422,33.534091536100014
6.496,0.9999902936380877,33.312384410672685
6.504,0.9999902205748729,33.090587180431754
6.5120000000000005,0.9999901481373588,32.868700181644186
6.52,0.9999900763150914,32.64672375248109
6.5280000000000005,0.9999900050982935,32.42465823301332
6.536,0.9999899344778546,32.202503965207825
6.5440000000000005,0.9999898644453241,31.98026129292327
6.552,0.9999897949929029,31.75793056190614
6.5600000000000005,0.9999897261134336,31.535512119786087
6.568,0.999989657800394,31.313006316072077
6.5760000000000005,0.999989590047886,31.090413502147403
6.584,0.9999895228506304,30.86773403126569
6.592,0.9999894562039556,30.644968258545816
6.6,0.9999893901037913,30.422116540967618
6.608,0.9999893245466577,30.19917923736684
6.616,0.999989259529659,29.976156708430487
6.624,0.9999891950504738,29.75304931669167
6.632,0.9999891311073468,29.529857426524725
6.64,0.9999890676990801,29.3065814041401
6.648,0.9999890048250257,29.08322161757907
6.656,0.9999889424850752,28.859778436708503
6.664,0.9999888806796519,28.636252233215536
6.672,0.999988819409703,28.412643380602034
6.68,0.9999887586766906,28.188952254179124
6.688,0.9999886984825819,27.965179231061533
6.696,0.9999886388298429,27.741324690161925
6.704,0.9999885797214275,27.517389012185053
6.712,0.9999885211607702,27.29337257962195
6.72,0.9999884631517777,27.069275776743883
6.728,0.9999884056988193,26.84509898959641
6.736,0.9999883488067188,26.620842605993158
6.744,0.9999882924807459,26.39650701550968
6.752,0.9999882367266077,26.172092609477097
6.76,0.9999881815504398,25.947599780975768
6.768,0.9999881269587981,25.723028924828768
6.776,0.9999880729586497,25.49838043759539
6.784,0.9999880195573642,25.273654717564472
6.792,0.9999879667627058,25.048852164747696
6.8,0.9999879145828242,24.823973180872773
6.808,0.999987863026246,24.599018169376556
6.816,0.9999878121018663,24.37398753539806
6.824,0.9999877618189398,24.148881685771435
6.832,0.9999877121870728,23.92370102901879
6.84,0.9999876632162139,23.698445975343
6.848,0.9999876149166453,23.473116936620382
6.856,0.9999875672989758,23.24771432639331
6.864,0.9999875203741303,23.022238559862735
6.872,0.9999874741533425,22.796690053880656
6.88,0.9999874286481457,22.57106922694245
6.888,0.9999873838703645,22.345376499179164
6.896,0.9999873398321062,22.11961229234972
6.904,0.9999872965457532,21.893777029833025
6.912,0.999987254023953,21.66787113662
6.92,0.9999872122796105,21.441895039305518
6.928,0.9999871713258796,21.215849166080332
6.936,0.9999871311761547,20.989733946722772
6.944,0.9999870918440622,20.763549812590533
6.952,0.9999870533434517,20.537297196612258
6.96,0.999987015688389,20.3109765332791
6.968,0.9999869788931457,20.08458825863618
6.976,0.9999869429721923,19.858132810273986
6.984,0.9999869079401894,19.631610627319663
6.992,0.9999868738119794,19.40502215042824
7.0,0.9999868406025779,19.178367821773794
7.008,0.9999868083271662,18.951648085040496
7.016,0.9999867770010826,18.724863385413602
7.024,0.9999867466398135,18.498014169570403
7.032,0.9999867172589865,18.271100885670986
7.04,0.9999866888743613,18.044123983349056
7.048,0.9999866615018214,17.817083913702575
7.056,0.9999866351573666,17.589981129284375
7.064,0.9999866098571051,17.362816084092685
7.072,0.9999865856172445,17.13558923356155
7.08,0.9999865624540839,16.908301034551243
7.088,0.9999865403840069,16.680951945338535
7.096,0.9999865194234724,16.453542425606923
7.104,0.9999864995890074,16.226072936436733
7.112,0.9999864808971983,15.998543940295296
7.12,0.9999864633646843,15.7709559010268
7.128,0.9999864470081478,15.543309283842342
7.136,0.9999864318443081,15.315604555309694
7.144,0.9999864178899127,15.087842183343078
7.152,0.9999864051617302,14.860022637192936
7.16,0.9999863936765415,14.632146387435487
7.168,0.9999863834511339,14.404213905962305
7.176,0.9999863745022907,14.17622566596986
7.184,0.999986366846787,13.94818214194883
7.192,0.9999863605013791,13.72008380967353
7.2,0.9999863554827985,13.49193114619116
7.208,0.9999863518077443,13.263724629811009
7.216,0.9999863494928753,13.03546474009355
7.224,0.9999863485548034,12.807151957839617
7.232,0.9999863490100849,12.578786765079284
7.24,0.9999863508752138,12.350369645060862
7.248,0.9999863541666154,12.121901082239734
7.256,0.9999863589006375,11.893381562267196
7.264,0.9999863650935447,11.664811571979113
7.272,0.9999863727615096,11.43619159938468
7.28,0.9999863819206072,11.207522133654917
7.288,0.9999863925868075,10.978803665111286
7.296,0.9999864047759676,10.750036685214138
7.304,0.9999864185038255,10.521221686551103
7.312,0.9999864337859932,10.292359162825445
7.32,0.9999864506379498,10.06344960884436
7.328,0.9999864690750337,9.834493520507168
7.336,0.9999864891124379,9.605491394793491
7.344,0.999986510765202,9.37644372975134
7.352,0.999986534048204,9.147351024485173
7.36,0.9999865589761574,8.918213779143839
7.368,0.9999865855636013,8.689032494908524
7.376,0.9999866138248958,8.459807673980595
7.384,0.9999866437742143,8.230539819569433
7.392,0.9999866754255385,8.001229435880118
7.4,0.9999867087926508,7.77187702810118
7.4079999999999995,0.9999867438891289,7.54248310239222
7.416,0.9999867807283391,7.3130481658713755
7.4239999999999995,0.9999868193234304,7.083572726603116
7.432,0.9999868596873278,6.854057293585336
7.4399999999999995,0.9999869018327278,6.6245023767371505
7.448,0.9999869457720906,6.394908486885909
7.4559999999999995,0.9999869915176354,6.165276135754829
7.464,0.9999870390813337,5.9356058359499215
7.4719999999999995,0.999987088474905,5.70589810094756
7.48,0.9999871397098091,5.476153445081259
7.4879999999999995,0.9999871927972419,5.2463723835291525
7.496,0.9999872477481292,5.016555432300684
7.504,0.9999873045731218,4.786703108223995
7.5120000000000005,0.9999873632825884,4.556815928932509
7.52,0.9999874238866128,4.326894412852215
7.5280000000000005,0.9999874863949862,4.096939079188166
7.536,0.9999875508172039,3.866950447911688
7.5440000000000005,0.9999876171624578,3.6369290397467693
7.552,0.9999876854396331,3.4068753761571857
7.5600000000000005,0.9999877556573041,3.1767899793328036
7.568,0.9999878278237263,2.9466733721766207
7.5760000000000005,0.9999879019468336,2.7165260782909773
7.584,0.9999879780342336,2.4863486219645297
7.5920000000000005,0.9999880560932012,2.256141528158357
7.6,0.999988136130676,2.0259053224928776
7.6080000000000005,0.9999882181532562,1.7956405312338641
7.616,0.9999883021671943,1.5653476812792884
7.6240000000000006,0.9999883881783932,1.3350273001452613
7.632,0.9999884761924015,1.1046799159527922
7.640000000000001,0.9999885662144091,0.8743060574136716
7.648,0.9999886582492433,0.64390625381716
7.656000000000001,0.9999887523013636,0.4134810350157808
7.664,0.9999888483748599,0.18303093141196355
7.672,0.9999889464734456,-0.04744352605620759
7.68,0.9999890466004557,-0.27794180592855483
7.688,0.9999891487588429,-0.5084633762368521
7.696,0.9999892529511725,-0.7390077045187231
7.704,0.9999893591796196,-0.9695742578315932
7.712,0.9999894674459666,-1.2001625027666865
7.72,0.9999895777515968,-1.4307719054630283
7.728,0.9999896900974942,-1.661401931621508
7.736,0.9999898044842381,-1.8920520465189221
7.744,0.9999899209120001,-2.122721715022099
7.752,0.9999900393805419,-2.353410401601993
7.76,0.9999901598892108,-2.5841175703478423
7.768,0.9999902824369378,-2.814842684981328
7.776,0.999990407022234,-3.045585208870773
7.784,0.9999905336431886,-3.276344605045337
7.792,0.999990662297465,-3.5071203362092596
7.8,0.9999907929822988,-3.737911864756118
7.808,0.9999909256944947,-3.968718652783079
7.816,0.9999910604304256,-4.199540162105196
7.824,0.9999911971860274,-4.430375854269725
7.832,0.9999913359567995,-4.6612251905704305
7.84,0.9999914767378006,-4.892087632061931
7.848,0.9999916195236475,-5.122962639574054
7.856,0.9999917643085124,-5.353849673726208
7.864,0.9999919110861223,-5.584748194941744
7.872,0.999992059849755,-5.81565766346237
7.88,0.9999922105922389,-6.046577539362545
7.888,0.9999923633059509,-6.277507282563894
7.896,0.9999925179828146,-6.50844635284963
7.904,0.9999926746142989,-6.739394209879
7.912,0.9999928331914165,-6.970350313201717
7.92,0.9999929937047227,-7.2013141222724055
7.928,0.9999931561443139,-7.4322850964650655
7.936,0.9999933204998265,-7.663262695087538
7.944,0.9999934867604363,-7.894246377395961
7.952,0.999993654914857,-8.125235602609228
7.96,0.9999938249513395,-8.356229829923501
7.968,0.9999939968576705,-8.587228518526649
7.976,0.9999941706211731,-8.818231127612735
7.984,0.9999943462287054,-9.049237116396489
7.992,0.9999945236666599,-9.280245944127802
8.0,0.9999947029209627,-9.511257070106184
8.008,0.9999948839770748,-9.74226995369521
8.016,0.9999950668199901,-9.973284054337139
8.024000000000001,0.9999952514342361,-10.20429883156712
8.032,0.9999954378038739,-10.43531374502781
8.04,0.9999956259124977,-10.666328254483918
8.048,0.9999958157432356,-10.89734181983655
8.056000000000001,0.9999960072787497,-11.128353901137556
8.064,0.9999962005012358,-11.359363958604076
8.072,0.9999963953924251,-11.590371452633054
8.08,0.9999965919335835,-11.821375843815536
8.088000000000001,0.9999967901055126,-12.05237659295102
8.096,0.9999969898885507,-12.2833731610619
8.104,0.9999971912625736,-12.514365009407998
8.112,0.9999973942069953,-12.745351599500784
8.120000000000001,0.9999975987007688,-12.976332393117668
8.128,0.9999978047223881,-13.207306852316407
8.136,0.9999980122498879,-13.43827443944956
8.144,0.9999982212608466,-13.66923461717868
8.152000000000001,0.9999984317323861,-13.900186848488495
8.16,0.9999986436411752,-14.131130596701285
8.168,0.9999988569634286,-14.362065325491262
8.176,0.999999071674911,-14.592990498898654
8.184000000000001,0.9999992877509378,-14.823905581343855
8.192,0.999999505166377,-15.054810037641682
8.2,0.9999997238956511,-15.285703333015688
8.208,0.9999999439127394,-15.516584933112165
8.216000000000001,0.9999999999999998,-15.747454304014177
8.224,1.0,-15.978310912255772
8.232,0.9999999999999999,-16.209154224836126
8.24,1.0,-16.43998370923351
8.248000000000001,0.9999999999999999,-16.670798833419173
8.256,0.9999999999999999,-16.90159906587146
8.264,1.0,-17.132383875589884
8.272,1.0,-17.363152732108905
8.280000000000001,0.9999999999999999,-17.59390510551175
8.288,1.0,-17.824640466444425
8.296,0.9999999999999999,-18.055358286129565
8.304,1.0,-18.28605803638022
8.312,1.0,-18.516739189613403
8.32,1.0,-18.747401218864237
8.328,1.0,-18.978043597799182
8.336,1.0,-19.208665800730163
8.344,0.9999999999999999,-19.43926730262778
8.352,0.9999999999999999,-19.669847579135244
8.36,0.9999999999999999,-19.90040610658159
8.368,1.0,-20.130942361995572
8.376,0.9999999999999999,-20.361455823118707
8.384,1.0,-20.591945968419118
8.392,1.0,-20.822412277104537
8.4,1.0,-21.05285422913603
8.408,0.9999999999999999,-21.283271305240884
8.416,1.0,-21.513662986926334
8.424,1.0,-21.744028756492288
8.432,0.9999999999999999,-21.974368097044948
8.44,0.9999999999999999,-22.20468049250955
8.448,1.0,-22.434965427643768
8.456,0.9999999999999999,-22.66522238805042
8.464,1.0,-22.895450860190785
8.472,1.0,-23.12565033139722
8.48,0.9999999999999999,-23.355820289886328
8.488,1.0,-23.585960224771465
8.496,1.0,-23.81606962607594
8.504,0.9999999999999999,-24.046147984745268
8.512,1.0,-24.2761947926603
8.52,1.0,-24.506209542649437
8.528,1.0,-24.736191728501606
8.536,1.0,-24.966140844978366
8.544,1.0,-25.196056387826758
8.552,1.0,-25.42593785379133
8.56,1.0,-25.655784740626892
8.568,0.9999999999999999,-25.885596547110378
8.576,0.9999999999999999,-26.115372773053497
8.584,1.0,-26.345112919314513
8.592,1.0,-26.574816487810775
8.6,0.9999999999999999,-26.80448298153032
8.608,1.0,-27.03411190454433
8.616,1.0,-27.263702762018657
8.624,1.0,-27.493255060226065
8.632,1.0,-27.722768306557644
8.64,0.9999999999999999,-27.952242009535023
8.648,0.9999999999999999,-28.181675678821605
8.656,1.0,-28.411068825234587
8.664,1.0,-28.640420960756124
8.672,1.0,-28.869731598545243
8.68,0.9999999999999998,-29.099000252948844
8.688,1.0,-29.328226439513514
8.696,0.9999999999999999,-29.557409674996304
8.704,1.0,-29.786549477376543
8.712,1.0,-30.01564536586641
8.72,1.0,-30.24469686092254
8.728,0.9999999999999999,-30.47370348425663
8.736,1.0,-30.70266475884674
8.744,1.0,-30.931580208947835
8.752,1.0,-31.16044936010302
8.76,1.0,-31.389271739153788
8.768,1.0,-31.618046874251153
8.776,1.0,-31.846774294865856
8.784,1.0000000000000002,-32.07545353179927
8.792,1.0,-32.30408411719346
8.8,1.0,-32.53266558454199
8.808,1.0,-32.76119746869978
8.815999999999999,0.9999999999999999,-32.98967930589368
8.824,1.0,-33.2181106337326
8.832,1.0,-33.44649099121732
8.84,1.0,-33.67481991875069
8.847999999999999,1.0,-33.903096958147735
8.856,1.0,-34.13132165264519
8.864,1.0,-34.35949354691142
8.872,1.0,-34.58761218705606
8.879999999999999,0.9999999999999999,-34.81567712063981
8.888,1.0,-35.04368789668384
8.896,1.0,-35.27164406567918
8.904,1.0,-35.49954517959622
8.911999999999999,1.0,-35.727390791894045
8.92,1.0,-35.95518045752965
8.928,1.0,-36.18291373296696
8.936,1.0,-36.410590176185956
8.943999999999999,0.9999999999999999,-36.638209346691816
8.952,1.0,-36.86577080552369
8.96,1.0,-37.093274115263384
8.968,0.9999999999999999,-37.320718840044336
8.975999999999999,1.0,-37.548104545560214
8.984,0.9999999999999999,-37.775430799073476
8.992,1.0000000000000002,-38.002697169423755
9.0,1.0,-38.22990322703641
9.008,0.9999999999999999,-38.45704854393083
9.016,1.0,-38.684132693728706
9.024000000000001,0.9999999999999999,-38.91115525166206
9.032,1.0,-39.13811579458136
9.04,1.0,-39.365013900963675
9.048,1.0,-39.59184915092047
9.056000000000001,0.9999999999999999,-39.818621126205294
9.064,1.0,-40.04532941022167
9.072,1.0,-40.271973588030754
9.08,1.0,-40.498553246358945
9.088000000000001,0.9999999999999999,-40.72506797360512
9.096,1.0,-40.95151735984823
9.104,1.0,-41.1779009968546
9.112,1.0,-41.404218478085156
9.120000000000001,0.9999999999999999,-41.6304693987024
9.128,1.0,-41.85665335557758
9.136,0.9999999999999999,-42.0827699472977
9.144,1.0,-42.30881877417236
9.152000000000001,1.0,-42.5347994382404
9.16,1.0,-42.760711543276685
9.168,1.0,-42.98655469479881
9.176,0.9999999999999999,-43.212328500073596
9.184000000000001,1.0,-43.43803256812332
9.192,1.0,-43.66366650973221
9.2,1.0,-43.88922993745279
9.208,0.9999999999999999,-44.11472246561194
9.216000000000001,0.9999999999999999,-44.340143710316916
9.224,1.0,-44.56549328946136
9.232,1.0,-44.790770822731325
9.24,1.0,-45.01597593161107
9.248000000000001,0.9999999999999999,-45.24110823938855
9.256,0.9999999999999999,-45.466167371161255
9.264,0.9999999999999999,-45.69115295384179
9.272,1.0,-45.91606461616325
9.280000000000001,0.9999999999999999,-46.14090198868446
9.288,0.9999999999999999,-46.36566470379542
9.296,1.0,-46.5903523957225
9.304,0.9999999999999998,-46.81496470053348
9.312000000000001,0.9999999999999999,-47.03950125614251
9.32,0.9999999999999999,-47.26396170231501
9.328,0.9999999999999999,-47.48834568067267
9.336,0.9999999999999999,-47.71265283469806
9.344,1.0,-47.9368828097392
9.352,1.0,-48.16103525301437
9.36,1.0,-48.38510981361619
9.368,1.0,-48.60910614251646
9.376,0.9999999999999999,-48.83302389257004
9.384,0.9999999999999999,-49.05686271851939
9.392,1.0,-49.280622276998315
9.4,1.0,-49.504302226536396
9.408,1.0,-49.72790222756252
9.416,1.0,-49.95142194240909
9.424,0.9999999999999999,-50.17486103531538
9.432,0.9999999999999999,-50.398219172431695
9.44,1.0,-50.62149602182239
9.448,0.9999999999999999,-50.84469125346985
9.456,1.0,-51.06780453927747
9.464,1.0,-51.290835553073364
9.472,1.0,-51.51378397061318
9.48,1.0,-51.7366494695836
9.488,0.9999999999999999,-51.95943172960499
9.496,1.0,-52.18213043223481
9.504,0.9999999999999999,-52.404745260969996
9.512,0.9999999999999999,-52.627275901250194
9.52,1.0,-52.849722040459994
9.528,1.0,-53.072083367931995
9.536,1.0,-53.29435957494882
9.544,1.0,-53.51655035474606
9.552,1.0,-53.73865540251407
9.56,1.0,-53.96067441540079
9.568,1.0,-54.182607092513294
9.576,0.9999999999999999,-54.40445313492044
9.584,0.9999999999999999,-54.6262122456544
9.592,1.0,-54.847884129712924
9.6,1.0,-55.06946849406076
9.608,1.0,-55.29096504763186
9.616,0.9999999999999999,-55.512373501330515
9.624,1.0,-55.73369356803338
9.632,0.9999999999999999,-55.95492496259051
9.64,1.0,-56.17606740182715
9.648,0.9999999999999998,-56.39712060454464
9.656,1.0,-56.618084291522045
9.664,0.9999999999999998,-56.83895818551683
9.672,0.9999999999999998,-57.059742011266366
9.68,1.0,-57.28043549548843
9.688,1.0,-57.5010383668826
9.696,0.9999999999999999,-57.72155035613046
9.704,0.9999999999999999,-57.941971195896855
9.712,1.0,-58.16230062083011
9.72,1.0,-58.38253836756283
9.728,1.0,-58.602684174712216
9.736,1.0,-58.82273778288059
9.744,1.0,-59.04269893465542
9.752,1.0,-59.2625673746099
9.76,1.0,-59.48234284930277
9.768,1.0,-59.702025107278615
9.776,1.0,-59.92161389906752
9.784,1.0,-60.14110897718538
9.792,1.0,-60.360510096133325
9.8,1.0,-60.57981701239775
9.808,1.0,-60.79902948444968
9.816,1.0,-61.0181472727447
9.824,1.0,-61.23717013972201
9.832,1.0,-61.45609784980433
9.84,1.0,-61.67493016939676
9.847999999999999,0.9999999999999999,-61.893666866886434
9.856,0.9999999999999999,-62.11230771264155
9.864,0.9999999999999999,-62.33085247901035
9.872,1.0,-62.54930094032033
9.879999999999999,1.0,-62.76765287287714
9.888,1.0,-62.9859080549636
9.896,0.9999999999999999,-63.20406626683814
9.904,1.0,-63.42212729073388
9.911999999999999,1.0,-63.64009091085717
9.92,1.0,-63.85795691338624
9.928,1.0,-64.07572508646953
