freq,mag,phase
6.0,0.9999931943190191,76.18777149674472
6.008,0.9999940369084843,76.00622071718463
6.016,0.9999948573970258,75.82450032872845
6.024,0.999995656060273,75.64261031403558
6.032,0.9999964331724814,75.4605506573947
6.04,0.9999971890065268,75.27832134473309
6.048,0.9999979238339005,75.09592236362596
6.056,0.9999986379247063,74.91335370330599
6.064,0.9999993315476551,74.7306153546726
6.072,1.0,74.54770731030139
6.08,1.0,74.36462956445358
6.088,0.9999999999999999,74.18138211308538
6.096,1.0,73.99796495385742
6.104,1.0,73.81437808614413
6.112,0.9999999999999999,73.63062151104322
6.12,1.0,73.446695231385
6.128,1.0,73.2625992517419
6.136,0.9999999999999999,73.07833357843785
6.144,0.9999999999999999,72.89389821955766
6.152,1.0,72.70929318495648
6.16,1.0,72.5245184862692
6.168,0.9999999999999999,72.3395741369199
6.176,0.9999999999999999,72.15446015213115
6.184,1.0,71.9691765489336
6.192,0.9999999999999999,71.7837233461752
6.2,0.9999999999999999,71.59810056453075
6.208,0.9999999999999999,71.4123082265112
6.216,0.9999999999999999,71.22634635647307
6.224,0.9999999999999999,71.0402149806279
6.232,0.9999999999999999,70.85391412705152
6.24,1.0,70.66744382569352
6.248,1.0,70.48080410838658
6.256,1.0,70.29399500885582
6.264,1.0,70.10701656272818
6.272,1.0,69.91986880754175
6.28,1.0,69.73255178275511
6.288,0.9999999999999999,69.54506552975666
6.296,0.9999999999999999,69.35741009187389
6.304,1.0,69.16958551438279
6.312,1.0,68.98159184451704
6.32,1.0,68.7934291314773
6.328,0.9999999999999998,68.60509742644054
6.336,1.0,68.41659678256927
6.344,1.0,68.22792725502069
6.352,0.9999999999999999,68.0390889009561
6.36,1.0,67.85008177954995
6.368,0.9999999999999999,67.66090595199907
6.376,0.9999999999999999,67.47156148153191
6.384,0.9999999999999999,67.28204843341766
6.392,1.0,67.09236687497531
6.4,0.9999999999999999,66.90251687558302
6.408,1.0,66.7124985066869
6.416,1.0,66.52231184181035
6.424,0.9999999999999999,66.33195695656303
6.432,1.0,66.14143392864992
6.44,1.0,65.95074283788031
6.448,1.0,65.75988376617688
6.456,1.0,65.56885679758457
6.464,0.9999999999999999,65.37766201827965
6.472,1.0,65.18629951657857
6.48,0.9999999999999999,64.9947693829469
6.4879999999999995,1.0,64.80307171000823
6.496,0.9999999999999999,64.61120659255292
6.504,0.9999999999999999,64.41917412754718
6.5120000000000005,1.0,64.22697441414145
6.52,1.0,64.03460755367968
6.5280000000000005,0.9999999999999999,63.84207364970762
6.536,1.0,63.64937280798185
6.5440000000000005,1.0,63.45650513647822
6.552,1.0,63.263470745400774
6.5600000000000005,1.0,63.07026974719005
6.568,1.0,62.87690225653201
6.5760000000000005,1.0,62.68336839036623
6.584,1.0,62.48966826789479
6.592,1.0,62.29580201059046
6.6,1.0,62.10176974220526
6.608,1.0,61.90757158877896
6.616,1.0,61.71320767864731
6.624,1.0,61.51867814245047
6.632,1.0,61.32398311314129
6.64,1.0,61.12912272599358
6.648,0.9999999999999999,60.93409711861023
6.656,1.0,60.738906430931586
6.664,0.9999999999999999,60.54355080524341
6.672,1.0,60.34803038618511
6.68,1.0,60.15234532075761
6.688,1.0,59.956495758331634
6.696,1.0,59.760481850655395
6.704,1.0,59.564303751862674
6.712,0.9999999999999999,59.36796161848069
6.72,0.9999999999999999,59.171455609437835
6.728,1.0,58.97478588607155
6.736,1.0,58.777952612136005
6.744,1.0,58.580955953809806
6.752,1.0,58.38379607970356
6.76,0.9999999999999999,58.186473160867585
6.768,1.0,57.9889873707993
6.776,1.0,57.79133888545079
6.784,0.9999999999999999,57.593527883236185
6.792,1.0,57.39555454503909
6.8,0.9999999999999998,57.19741905421981
6.808,1.0,56.99912159662268
6.816,1.0,56.800662360583225
6.824,1.0,56.60204153693537
6.832,1.0,56.40325931901841
6.84,1.0,56.20431590268416
6.848,1.0,56.00521148630388
6.856,1.0,55.80594627077513
6.864,1.0,55.6065204595287
6.872,1.0,55.40693425853537
6.88,1.0,55.20718787631256
6.888,1.0,55.00728152393114
6.896,1.0,54.80721541502183
6.904,0.9999999999999999,54.60698976578188
6.912,0.9999999999999999,54.40660479498155
6.92,0.9999999999999999,54.20606072397028
6.928,1.0,54.00535777668331
6.936,1.0,53.804496179647735
6.944,0.9999999999999999,53.60347616198881
6.952,1.0,53.402297955435934
6.96,1.0,53.200961794328855
6.968,1.0,52.999467915623555
6.976,0.9999999999999999,52.79781655889814
6.984,0.9999999999999999,52.59600796635874
6.992,1.0,52.39404238284517
7.0,0.9999999999999999,52.19192005583671
7.008,1.0,51.98964123545761
7.016,1.0,51.7872061744827
7.024,0.9999999267693795,51.584615128342726
7.032,0.9999996773780112,51.381868355129875
7.04,0.9999994290335579,51.17896611560292
7.048,0.9999991818183711,50.9759086731925
7.056,0.9999989358133422,50.77269629400628
7.064,0.999998691097907,50.56932924683386
7.072,0.9999984477500488,50.36580780315192
7.08,0.9999982058463036,50.162132237128915
7.088,0.9999979654617644,49.95830282563006
7.096,0.9999977266700861,49.75431984822186
7.104,0.999997489543489,49.55018358717686
7.112,0.9999972541527646,49.3458943274781
7.12,0.99999702056728,49.14145235682363
7.128,0.9999967888549819,48.936857965630786
7.136,0.9999965590824033,48.7321114470406
7.144,0.9999963313146666,48.52721309692177
7.152,0.9999961056154899,48.32216321387495
7.16,0.9999958820471925,48.116962099236645
7.168,0.9999956606706989,47.91161005708314
7.176,0.9999954415455448,47.706107394234266
7.184,0.9999952247298831,47.50045442025719
7.192,0.999995010280489,47.29465144747
7.2,0.999994798252764,47.08869879094523
7.208,0.9999945887007453,46.88259676851326
7.216,0.9999943816771076,46.67634570076568
7.224,0.9999941772331717,46.46994591105855
7.232,0.9999939754189093,46.26339772551548
7.24,0.9999937762829489,46.056701473030664
7.248,0.9999935798725824,45.84985748527184
7.256,0.9999933862337711,45.64286609668312
7.264,0.9999931954111522,45.4357276444877
7.272,0.9999930074480442,45.228442468690496
7.28,0.999992822386455,45.02101091208069
7.288,0.9999926402670872,44.813433320234054
7.296,0.9999924611293445,44.60571004151541
7.304,0.9999922850113391,44.39784142708069
7.312,0.9999921119498982,44.189827830879146
7.32,0.9999919419805717,43.98166960965525
7.328,0.9999917751376367,43.77336712295066
7.336,0.9999916114541074,43.5649207331059
7.344,0.9999914509617404,43.35633080526214
7.352,0.9999912936910422,43.14759770736266
7.36,0.9999911396712767,42.938721810154256
7.368,0.9999909889304728,42.72970348718873
7.376,0.9999908414954306,42.520543114823944
7.384,0.99999069739173,42.311241072224995
7.392,0.9999905566437379,42.10179774136516
7.4,0.9999904192746162,41.89221350702689
7.4079999999999995,0.9999902853063287,41.6824887568024
7.416,0.9999901547596494,41.472623881094385
7.4239999999999995,0.9999900276541699,41.26261927311664
7.432,0.9999899040083087,41.05247532889422
7.4399999999999995,0.9999897838393174,40.84219244726409
7.448,0.9999896671632896,40.63177102987487
7.4559999999999995,0.9999895539951694,40.42121148118731
7.464,0.999989444348759,40.21051420847381
7.4719999999999995,0.9999893382367273,39.999679621818615
7.48,0.9999892356706184,39.788708134117144
7.4879999999999995,0.9999891366608598,39.5776001610759
7.496,0.9999890412167708,39.36635612121156
7.504,0.9999889493465709,39.15497643585064
7.5120000000000005,0.9999888610573902,38.94346152912833
7.52,0.9999887763552755,38.731811827987926
7.5280000000000005,0.9999886952452005,38.52002776217944
7.536,0.9999886177310745,38.30810976425871
7.5440000000000005,0.9999885438157521,38.096058269585825
7.552,0.99998847350104,37.88387371632392
7.5600000000000005,0.9999884067877088,37.6715565454374
7.568,0.9999883436754999,37.459107200690454
7.5760000000000005,0.9999882841631366,37.24652612864497
7.584,0.9999882282483306,37.03381377865896
7.5920000000000005,0.9999881759277943,36.820970602884024
7.6,0.9999881271972492,36.60799705626357
7.6080000000000005,0.9999880820514341,36.39489359653012
7.616,0.9999880404841162,36.18166068420308
7.6240000000000006,0.9999880024880996,35.96829878258595
7.632,0.9999879680552358,35.75480835776378
7.640000000000001,0.9999879371764323,35.54118987860002
7.648,0.9999879098416641,35.327443816733904
7.656000000000001,0.9999878860399808,35.11357064657684
7.664,0.9999878657595193,34.89957084530961
7.672,0.9999878489875116,34.685444892878486
7.68,0.9999878357102963,34.4711932719921
7.688,0.999987825913327,34.256816468117506
7.696,0.9999878195811842,34.042314969476465
7.704,0.9999878166975839,33.82768926704145
7.712,0.9999878172453881,33.612939854531575
7.72,0.9999878212066167,33.398067228408316
7.728,0.9999878285624543,33.18307188787124
7.736,0.9999878392932638,32.96795433485342
7.744,0.9999878533785962,32.752715074016756
7.752,0.9999878707971989,32.537354612747336
7.76,0.9999878915270283,32.32187346115036
7.768,0.9999879155452597,32.10627213204513
7.776,0.9999879428282976,31.890551140959897
7.784,0.9999879733517871,31.67471100612644
7.792,0.9999880070906229,31.4587522484746
7.8,0.9999880440189619,31.24267539162672
7.808,0.9999880841102323,31.02648096189177
7.816,0.9999881273371454,30.810169488259543
7.824,0.9999881736717069,30.593741502394515
7.832,0.9999882230852252,30.377197538629712
7.84,0.9999882755483257,30.16053813396036
7.848,0.9999883310309587,29.943763828037433
7.856,0.9999883895024125,29.72687516316094
7.864,0.9999884509313229,29.509872684273294
7.872,0.9999885152856853,29.292756938952284
7.88,0.9999885825328645,29.075528477404163
7.888,0.9999886526396077,28.858187852456286
7.896,0.9999887255720531,28.640735619549925
7.904,0.9999888012957432,28.42317233673272
7.912,0.9999888797756348,28.205498564651048
7.92,0.9999889609761102,27.987714866542287
7.928,0.9999890448609888,27.7698218082269
7.936,0.9999891313935388,27.551819958100342
7.944,0.9999892205364863,27.333709887124925
7.952,0.9999893122520295,27.115492168821426
7.96,0.9999894065018478,26.897167379260605
7.968,0.9999895032471138,26.678736097054593
7.976,0.9999896024485051,26.460198903348097
7.984,0.9999897040662148,26.241556381809488
7.992,0.9999898080599635,26.02280911862173
8.0,0.9999899143890099,25.80395770247319
8.008,0.9999900230121632,25.58500272454828
8.016,0.9999901338877937,25.365944778517846
8.024000000000001,0.9999902469738442,25.146784460529766
8.032,0.9999903622278424,24.92752236919901
8.04,0.9999904796069105,24.708159105597648
8.048,0.9999905990677787,24.48869527324482
8.056000000000001,0.9999907205667945,24.26913147809669
8.064,0.9999908440599362,24.049468328535916
8.072,0.9999909695028228,23.829706435361103
8.08,0.9999910968507257,23.609846411776203
8.088000000000001,0.9999912260585816,23.389888873379853
8.096,0.9999913570810011,23.16983443815434
8.104,0.9999914898722827,22.94968372645443
8.112,0.9999916243864232,22.7294373609962
8.120000000000001,0.9999917605771288,22.509095966845848
8.128,0.9999918983978272,22.28866017140803
8.136,0.9999920378016784,22.068130604414154
8.144,0.9999921787415866,21.847507897910656
8.152000000000001,0.9999923211702115,21.626792686247185
8.16,0.9999924650399789,21.405985606064466
8.168,0.999992610303093,21.185087296281914
8.176,0.9999927569115475,20.964098398085472
8.184000000000001,0.999992904817137,20.74301955491514
8.192,0.9999930539714675,20.521851412452275
8.2,0.9999932043259686,20.30059461860676
8.208,0.9999933558319049,20.079249823504114
8.216000000000001,0.9999935084403863,19.85781767947262
8.224,0.9999936621023798,19.63629884102998
8.232,0.9999938167687209,19.414693964869933
8.24,0.9999939723901247,19.19300370984887
8.248000000000001,0.9999941289171964,18.97122873697234
8.256,0.9999942863004428,18.749369709381217
8.264,0.9999944444902841,18.527427292337737
8.272,0.999994603437064,18.305402153211592
8.280000000000001,0.9999947630910612,18.08329496146586
8.288,0.9999949234025001,17.86110638864268
8.296,0.999995084321562,17.638837108348685
8.304,0.9999952457983962,17.416487796240624
8.312,0.99999540778313,17.194059130010785
8.32,0.9999955702258815,16.97155178937185
8.328,0.9999957330767676,16.7489664560424
8.336,0.9999958962859171,16.526303813731374
8.344,0.9999960598034806,16.303564548123322
8.352,0.9999962235796408,16.080749346862667
8.36,0.9999963875646244,15.857858899538613
8.368,0.9999965517087106,15.634893897669237
8.376,0.9999967159622438,15.411855034686075
8.384,0.9999968802756428,15.18874300591796
8.392,0.9999970445994119,14.96555850857543
8.4,0.99999720888415,14.742302241734212
8.408,0.9999973730805632,14.518974906319459
8.416,0.9999975371394734,14.295577205088946
8.424,0.9999977010118286,14.072109842617055
8.432,0.9999978646487139,13.84857352527779
8.44,0.9999980280013603,13.624968961228412
8.448,0.9999981910211567,13.401296860392288
8.456,0.9999983536596582,13.177557934442277
8.464,0.999998515868596,12.95375289678333
8.472,0.9999986775998894,12.729882462535622
8.48,0.9999988388056525,12.505947348516933
8.488,0.9999989994382064,12.281948273225561
8.496,0.9999991594500878,12.057885956822435
8.504,0.9999993187940586,11.833761121113831
8.512,0.9999994774231156,11.609574489533253
8.52,0.9999996352905004,11.3853267871239
8.528,0.9999997923497079,11.161018740520309
8.536,0.9999999485544963,10.936651077930685
8.544,1.0,10.712224529118233
8.552,1.0,10.487739825383276
8.56,1.0,10.263197699544437
8.568,1.0,10.038598885920482
8.576,1.0,9.813944120311291
8.584,1.0,9.589234139979535
8.592,1.0,9.3644696836314
8.6,1.0,9.139651491398045
8.608,1.0,8.914780304816176
8.616,1.0,8.689856866809249
8.624,1.0,8.46488192166787
8.632,1.0,8.239856215030805
8.64,1.0,8.014780493865159
8.648,1.0,7.789655506447202
8.656,1.0,7.564482002342385
8.664,0.9999999999999999,7.33926073238595
8.672,1.0,7.113992448662747
8.68,1.0,6.8886779044877064
8.688,1.0,6.663317854385417
8.696,1.0,6.437913054070458
8.704,1.0,6.212464260426803
8.712,1.0,5.98697223148795
8.72,0.9999999999999999,5.761437726416173
8.728,1.0,5.535861505482479
8.736,0.9999999999999999,5.310244330045688
8.744,0.9999999999999999,5.084586962532231
8.752,0.9999999999999999,4.858890166415068
8.76,1.0,4.633154706193319
8.768,1.0,4.4073813473710395
8.776,1.0,4.181570856436691
8.784,1.0,3.955724000841746
8.792,1.0,3.729841548980038
8.8,1.0,3.5039242701662143
8.808,0.9999999999999999,3.277972934614931
8.815999999999999,1.0,3.0519883134192187
8.824,1.0,2.8259711785292922
8.832,0.9999999999999999,2.59992230273124
8.84,1.0,2.3738424596254317
8.847999999999999,1.0,2.147732423604889
8.856,0.9999999999999999,1.921592969833769
8.864,0.9999999999999999,1.6954248742258011
8.872,0.9999999999999999,1.4692289134224619
8.879999999999999,1.0000000000000002,1.2430058647710807
8.888,0.9999999999999999,1.0167565063031019
8.896,1.0,0.7904816167122821
8.904,1.0,0.5641819753326426
8.911999999999999,1.0,0.33785836211635206
8.92,1.0,0.11151155761177953
8.928,1.0,-0.11485765705852163
8.936,1.0,-0.341248500220066
8.943999999999999,0.9999999999999999,-0.5676601896687431
8.952,1.0,-0.7940919426929623
8.96,1.0,-1.0205429760958495
8.968,0.9999999999999999,-1.2470125062176844
8.975999999999999,1.0,-1.4734997489583708
8.984,1.0,-1.7000039197997623
8.992,0.9999999999999999,-1.9265242338280073
9.0,0.9999999999999999,-2.1530599057561517
9.008,0.9999999999999999,-2.379610149946752
9.016,0.9999999999999999,-2.606174180434351
9.024000000000001,1.0,-2.832751210947952
9.032,0.9999999999999999,-3.0593404549337557
9.04,1.0,-3.285941125577903
9.048,0.9999999999999999,-3.5125524358290643
9.056000000000001,1.0,-3.7391735984210284
9.064,0.9999999999999999,-3.9658038258955517
9.072,1.0,-4.1924423306251875
9.08,0.9999999999999999,-4.419088324835981
9.088000000000001,0.9999999999999999,-4.645741020630155
9.096,1.0,-4.872399630009008
9.104,1.0,-5.099063364895866
9.112,0.9999999999999999,-5.325731437158807
9.120000000000001,1.0,-5.552403058633425
9.128,1.0,-5.779077441145804
9.136,1.0,-6.0057537965354815
9.144,0.9999999999999999,-6.232431336678255
9.152000000000001,0.9999999999999999,-6.459109273508967
9.16,1.0,-6.685786819044503
9.168,1.0,-6.912463185406806
9.176,1.0,-7.139137584845685
9.184000000000001,0.9999999999999999,-7.365809229761602
9.192,1.0,-7.592477332728723
9.2,1.0,-7.8191411065178755
9.208,1.0,-8.04579976411939
9.216000000000001,0.9999999999999999,-8.272452518765878
9.224,1.0,-8.499098583955222
9.232,1.0,-8.72573717347357
9.24,0.9999999999999999,-8.952367501418104
9.248000000000001,1.0,-9.178988782219795
9.256,1.0,-9.405600230666353
9.264,1.0,-9.632201061925166
9.272,1.0,-9.858790491566019
9.280000000000001,1.0,-10.085367735583782
9.288,0.9999999999999998,-10.3119320104213
9.296,1.0,-10.538482532992262
9.304,1.0,-10.765018520703821
9.312000000000001,1.0,-10.99153919147921
9.32,0.9999999999999999,-11.218043763780562
9.328,1.0,-11.444531456631603
9.336,1.0,-11.671001489640279
9.344,1.0,-11.897453083021135
9.352,1.0,-12.123885457618252
9.36,1.0,-12.350297834927419
9.368,1.0,-12.576689437119006
9.376,1.0,-12.80305948706003
9.384,1.0,-13.029407208337028
9.392,1.0,-13.255731825277994
9.4,0.9999999999999999,-13.48203256297516
9.408,1.0,-13.708308647306916
9.416,0.9999999999999999,-13.934559304960457
9.424,1.0,-14.160783763453601
9.432,1.0,-14.386981251157382
9.44,1.0,-14.613150997317767
9.448,0.9999999999999999,-14.839292232078147
9.456,1.0,-15.065404186500954
9.464,1.0,-15.291486092590006
9.472,1.0,-15.517537183312088
9.48,1.0,-15.743556692619196
9.488,1.0,-15.969543855469896
9.496,1.0,-16.19549790785157
9.504,1.0,-16.42141808680163
9.512,0.9999999999999999,-16.647303630429597
9.52,0.9999999999999998,-16.873153777938224
9.528,1.0,-17.098967769645466
9.536,1.0,-17.324744847005455
9.544,1.0,-17.550484252630323
9.552,1.0,-17.776185230311107
9.56,0.9999999999999999,-18.00184702503934
9.568,1.0,-18.227468883027885
9.576,1.0,-18.453050051732387
9.584,1.0,-18.678589779871906
9.592,1.0,-18.904087317450283
9.6,1.0,-19.129541915776606
9.608,1.0,-19.354952827486375
9.616,0.9999999999999999,-19.580319306561893
9.624,1.0,-19.805640608353222
9.632,1.0000000000000002,-20.03091598959841
9.64,0.9999999285601464,-20.256144708444328
9.648,0.999999742523421,-20.48132602446668
9.656,0.9999995544313716,-20.706459198690702
9.664,0.9999993643183287,-20.931543493611
9.672,0.9999991722191035,-21.156578173212065
9.68,0.9999989781689802,-21.381562502987965
9.688,0.9999987822037109,-21.606495749962647
9.696,0.9999985843595065,-21.83137718270945
9.704,0.999998384673032,-22.056206071371246
9.712,0.9999981831813982,-22.280981687679777
9.72,0.999997979922155,-22.505703304975572
9.728,0.9999977749332842,-22.730370198227135
9.736,0.9999975682531922,-22.954981644050655
9.744,0.9999973599207025,-23.17953692072896
9.752,0.9999971499750498,-23.404035308231094
9.76,0.9999969384558691,-23.628476088231075
9.768,0.9999967254031925,-23.8528585441272
9.776,0.9999965108574379,-24.077181961060663
9.784,0.9999962948594038,-24.30144562593466
9.792,0.9999960774502598,-24.525648827432715
9.8,0.9999958586715403,-24.74979085603771
9.808,0.9999956385651347,-24.97387100404992
9.816,0.9999954171732818,-25.197888565605798
9.824,0.9999951945385597,-25.421842836695863
9.832,0.9999949707038784,-25.64573311518328
9.84,0.9999947457124725,-25.869558700821425
9.847999999999999,0.9999945196078912,-26.093318895272322
9.856,0.9999942924339918,-26.317013002124163
9.864,0.9999940642349306,-26.540640326909035
9.872,0.9999938350551536,-26.764200177120593
9.879999999999999,0.9999936049393895,-26.987691862231642
9.888,0.9999933739326411,-27.2111146937114
9.896,0.9999931420801748,-27.434467985042712
9.904,0.9999929094275148,-27.6577510517392
9.911999999999999,0.9999926760204325,-27.880963211362467
9.92,0.9999924419049382,-28.10410378353889
9.928,0.9999922071272725,-28.327172089976244
9.936,0.9999919717338972,-28.55016745448057
9.943999999999999,0.9999917357714873,-28.77308920297269
9.952,0.9999914992869205,-28.995936663504676
9.96,0.9999912623272705,-29.218709166275925
9.968,0.9999910249397957,-29.441406043649483
9.975999999999999,0.9999907871719317,-29.66402663016823
9.984,0.9999905490712817,-29.886570262570682
9.992,0.9999903106856068,-30.10903627980666
10.0,0.9999900720628192,-30.33142402305311
10.008,0.9999898332509697,-30.553732835729743
10.016,0.999989594298241,-30.775962063514353
10.024000000000001,0.9999893552529376,-30.99811105435802
10.032,0.9999891161634765,-31.22017915850033
10.04,0.9999888770783781,-31.442165728484596
10.048,0.9999886380462574,-31.664070119172592
