freq,mag,phase
6.0,0.9999690018303431,-52.46417313546894
6.005464576,0.999971156935087,-52.70743149160586
6.010929152,0.9999771806070168,-52.95079525880521
6.016393216,0.9999849291979908,-53.194369269105444
6.021857792,0.9999937875824431,-53.438081712285296
6.027322368,1.0000033626079101,-53.68203271542431
6.032786944,1.0000129066388608,-53.926213809735074
6.03825152,1.0000220746091353,-54.1705792900884
6.043716096,1.0000303612985846,-54.415136609733516
6.04918016,1.0000370202840865,-54.65988386030166
6.054644736,1.000041917090635,-54.90474021757719
6.060109312,1.0000448788367933,-55.149757626089155
6.065573888,1.000045319839968,-55.394921511925624
6.071038464,1.000043529230785,-55.640119976432
6.076502528,1.0000394898800427,-55.88530041392223
6.081967104,1.0000335731540748,-56.13056564581979
6.08743168,1.0000258118045986,-56.375766208322815
6.092896256,1.0000169937669827,-56.62099957945267
6.098360832,1.000007398852603,-56.866122163253266
6.103824896,0.9999974941295049,-57.11118978214535
6.109289472,0.999988191062311,-57.356200499673776
6.114754048,0.9999797149381273,-57.60117510355238
6.120218624,0.9999727021318674,-57.84611647624192
6.1256832,0.9999673924568778,-58.09105695818576
6.131147776,0.9999644064125845,-58.33601368128884
6.13661184,0.9999635104866343,-58.58100512062062
6.142076416,0.9999652831407786,-58.82606596455812
6.147540992,0.9999690766774716,-59.071275478211454
6.153005568,0.9999749953578722,-59.316623161078624
6.158470144,0.999982723276682,-59.562112116457946
6.163934208,0.9999917449191651,-59.80780625749109
6.169398784,1.0000013895191109,-60.053718935523406
6.17486336,1.0000112780277142,-60.29982837664329
6.180327936,1.0000207462181387,-60.54614145530685
6.185792512,1.0000295210604082,-60.79269580006707
6.191256576,1.000036691664392,-61.03941313296919
6.196721152,1.0000421962730794,-61.28628828650847
6.202185728,1.0000454417408675,-61.53328613468427
6.207650304,1.0000463836428677,-61.78039905855813
6.21311488,1.0000450576661273,-62.027581424132656
6.218579456,1.0000413603723173,-62.27480118083707
6.22404352,1.0000354541057899,-62.52204038853412
6.229508096,1.000027869277681,-62.7692766185334
6.234972672,1.0000188903944642,-63.016476129328765
6.240437248,1.0000090712218594,-63.26360341840358
6.245901824,0.9999989959551354,-63.51069421037882
6.251365888,0.9999891687572166,-63.75767828864719
6.256830464,0.9999803117465598,-64.00463600881895
6.26229504,0.9999727741784081,-64.2515526219128
6.267759616,0.9999668591928195,-64.49844973762195
6.273224192,0.9999633390090631,-64.74537249873859
6.278688768,0.9999622302431661,-64.99229008494653
6.284152832,0.9999632661979634,-65.23935247245326
6.289617408,0.9999669583073079,-65.48645316110722
6.295081984,0.999972677939746,-65.73375062427229
6.30054656,0.9999804536231335,-65.98115778673494
6.306011136,0.9999893294406879,-66.2287630396858
6.3114752,0.9999992534090387,-66.47660870119527
6.316939776,1.0000093937415109,-66.72465257069845
6.322404352,1.000019543408657,-66.97292449181018
6.327868928,1.0000285428919615,-67.2213739973341
6.333333504,1.0000364617817021,-67.47002944748976
6.338797568,1.0000425233203614,-67.7188584977482
6.344262144,1.0000463601877476,-67.96784301788591
6.34972672,1.0000478201758192,-68.21692436061326
6.355191296,1.0000468458254492,-68.4660741440216
6.360655872,1.000043367549229,-68.71524566754707
6.366120448,1.0000375427881,-68.96447996118219
6.371584512,1.0000298727564958,-69.21371005873125
6.377049088,1.0000209911437112,-69.46286450250201
6.382513664,1.0000109118604559,-69.71194410936687
6.38797824,1.0000005237481626,-69.96099159141177
6.393442816,0.9999902948876047,-70.20995635753768
6.39890688,0.9999809937508773,-70.45882820286904
6.404371456,0.9999728016004409,-70.70770203755364
6.409836032,0.9999665488433845,-70.95652769199484
6.415300608,0.9999624359104876,-71.20535763107502
6.420765184,0.9999607263902199,-71.45423601903693
6.42622976,0.9999615821411949,-71.70316141255155
6.431693824,0.9999648505719756,-71.95218741403103
6.4371584,0.9999704065057253,-72.20137695260797
6.442622976,0.999977926215335,-72.4506852706456
6.448087552,0.9999869589896722,-72.70020364388681
6.453552128,0.9999971019511324,-72.94991520841738
6.459016192,1.0000076853061142,-73.19986499601804
6.464480768,1.0000180773314755,-73.45001007769226
6.469945344,1.0000276751150357,-73.70037293751768
6.47540992,1.0000361047440263,-73.95093237979498
6.480874496,1.0000424952701064,-74.20169160690966
6.48633856,1.0000468540807252,-74.45260136322787
6.491803136,1.0000488913616938,-74.70355489649698
6.497267712,1.0000483488228398,-74.95468191999596
6.502732288,1.0000452364339851,-75.20580859036268
6.508196864,1.0000398559781702,-75.45695672959222
6.51366144,1.000032302203801,-75.70809893454953
6.519125504,1.0000231668324004,-75.95919031863755
6.52459008,1.0000128151578769,-76.21024922990968
6.530054656,1.0000022566811717,-76.46117073543813
6.535519232,0.9999915503903819,-76.71207157188462
6.540983808,0.9999816721879066,-76.96286538494796
6.546447872,0.99997294004008,-77.21363961336614
6.551912448,0.9999661350036149,-77.46435310553728
6.557377024,0.999961480793188,-77.7150750963478
6.5628416,0.9999591660298556,-77.96582414231007
6.568306176,0.999959531473367,-78.21659506966104
6.57377024,0.9999624556111105,-78.46749461972038
6.579234816,0.9999677666856657,-78.71851378252849
6.584699392,0.999975258887238,-78.96968861821559
6.590163968,0.9999844947756814,-79.22103711272106
6.595628544,0.9999946349943198,-79.47260984199761
6.60109312,1.0000056970922357,-79.72436459533427
6.606557184,1.0000163553661214,-79.97641563394376
6.61202176,1.0000266229594141,-80.22858562263463
6.617486336,1.000035516780052,-80.48101890146621
6.622950912,1.0000427468047395,-80.73361169220014
6.628415488,1.0000476123858018,-80.98639714632098
6.633879552,1.0000500077247623,-81.23928128291199
6.639344128,1.0000500270980608,-81.49224387385988
6.644808704,1.0000472722333744,-81.74528990370067
6.65027328,1.0000419457985792,-81.99830286990384
6.655737856,1.0000345890458875,-82.2513120297929
6.661202432,1.0000254362369942,-82.50427396190584
6.666666496,1.0000150660581204,-82.75720011546571
6.672131072,1.0000039141356507,-83.01005731487939
6.677595648,0.9999928301788649,-83.26280965653523
6.683060224,0.9999824261938295,-83.51547389092266
6.6885248,0.9999733636506642,-83.7680741475037
6.693988864,0.9999658322261182,-84.02063357880705
6.69945344,0.9999605230253539,-84.2731663958965
6.704918016,0.9999576665551241,-84.5257491706938
6.710382592,0.9999576021438309,-84.77832964985446
6.715847168,0.9999602799052634,-85.0310222210848
6.721311232,0.9999652564789384,-85.2838651843311
6.726775808,0.999972599453531,-85.536794192861
6.732240384,0.9999817203175143,-85.78996090228553
6.73770496,0.9999922507208373,-86.04332440489914
6.743169536,1.0000034842614556,-86.29686780059681
6.748634112,1.0000146648841834,-86.55067377874326
6.754098176,1.0000253706193571,-86.80469276405758
6.759562752,1.000034964611589,-87.0588981408902
6.765027328,1.000042620664819,-87.31333890912461
6.770491904,1.0000482635381365,-87.56787659539103
6.77595648,1.00005127016101,-87.82259344585935
6.781420544,1.0000517416025512,-88.07739687445893
6.78688512,1.0000493107013408,-88.33223629884377
6.792349696,1.0000444090667975,-88.587106976846
6.797814272,1.0000371854002923,-88.84195441296833
6.803278848,1.0000279384831647,-89.09676446075983
6.808743424,1.0000172670296734,-89.35148743081186
6.814207488,1.0000059816585767,-89.60616008809971
6.819672064,0.9999944314187239,-89.86071348069484
6.82513664,0.9999834837591967,-90.11518697055982
6.830601216,0.9999736543092765,-90.3695662474311
6.836065792,0.9999654726567502,-90.62393499575299
6.841529856,0.999959694549158,-90.87823451809655
6.846994432,0.9999562650791505,-91.13252819127773
6.852459008,0.9999556837392786,-91.38687533366473
6.857923584,0.9999578018773049,-91.64131379808491
6.86338816,0.9999625346217543,-91.89586851885934
6.868852224,0.9999697838818676,-92.15053263619428
6.8743168,0.9999788902999932,-92.40543192107029
6.879781376,0.999989584647701,-92.66046357045875
6.885245952,1.0000010599215456,-92.91576187215585
6.890710528,1.0000128498450782,-93.17127736514209
6.896175104,1.0000240207648536,-93.42704304722969
6.901639168,1.000034208957379,-93.6829533069961
6.907103744,1.0000425499646233,-93.93911059889955
6.91256832,1.0000488081706256,-94.19543129146209
6.918032896,1.0000525123381954,-94.45189825834152
6.923497472,1.000053327477475,-94.70842739243763
6.928961536,1.000051456245745,-94.965031120442
6.934426112,1.000046788348126,-95.22167360176502
6.939890688,1.0000396867710006,-95.47825127183714
6.945355264,1.0000304024820268,-95.73482024900389
6.95081984,1.000019708551646,-95.99131960351721
6.956283904,1.000007903769137,-96.24770076851343
6.96174848,0.9999960480670835,-96.50403395660841
6.967213056,0.9999845207304807,-96.76025204634814
6.972677632,0.9999741101646534,-97.01632018565292
6.978142208,0.9999653700954201,-97.27237217715636
6.983606784,0.9999588094850053,-97.52837352002152
6.989070848,0.999954766748739,-97.7843736002638
6.994535424,0.9999535549125553,-98.04040496460723
7.0,0.9999553253304947,-98.29647970123901
7.005464576,0.9999597766104772,-98.55266548367963
7.010929152,0.9999668138660563,-98.80900964011146
7.016393216,0.9999760019203777,-99.06549714054499
7.021857792,0.9999867247913509,-99.32222063153922
7.027322368,0.999998626058989,-99.57914648752588
7.032786944,1.0000107687969249,-99.83629306447038
7.03825152,1.0000225646835794,-100.09369268222633
7.043716096,1.0000332421912366,-100.35129873137676
7.04918016,1.000042447638802,-100.60910508631362
7.054644736,1.0000492269580141,-100.86705434627173
7.060109312,1.0000537148034672,-101.12514725659683
7.065573888,1.0000550579108518,-101.38339757549863
7.071038464,1.0000535842580789,-101.64167357043657
7.076502528,1.000049346668531,-101.89996204741772
7.081967104,1.0000423975550154,-102.1582671729199
7.08743168,1.0000331968511558,-102.41650837622214
7.092896256,1.000022449049274,-102.67465800603277
7.098360832,1.0000103783613956,-102.93272277771224
7.103824896,0.999998019782375,-103.1906825113905
7.109289472,0.9999859498827369,-103.44855461490836
7.114754048,0.999974856177645,-103.70630870963635
7.120218624,0.9999653244929584,-103.96397747111544
7.1256832,0.9999581947713676,-104.22156474918029
7.131147776,0.9999534908978175,-104.47917908046041
7.13661184,0.9999517139666857,-104.73677043283949
7.142076416,0.9999528721535205,-104.99443701028636
7.147540992,0.9999569417617221,-105.2521859411188
7.153005568,0.9999638707863349,-105.510069174107
7.158470144,0.9999730269358816,-105.76811820402862
7.163934208,0.9999839112268077,-106.02638980831216
7.169398784,0.999996051465666,-106.28486998559623
7.17486336,1.0000086326206359,-106.5435759448512
7.180327936,1.000021028950132,-106.80247798615613
7.185792512,1.000032375381526,-107.06169044248267
7.191256576,1.0000421639452464,-107.32102054722856
7.196721152,1.000049764571693,-107.5805817082485
7.202185728,1.000054778805817,-107.84028886328105
7.207650304,1.0000568361875695,-108.100067138383
7.21311488,1.000055935367442,-108.35994252745127
7.218579456,1.0000520186635922,-108.61981253960612
7.22404352,1.0000451997302364,-108.87969346088852
7.229508096,1.0000361923085113,-109.13952273961355
7.234972672,1.000025209681846,-109.39927210890939
7.240437248,1.000012898533041,-109.65891307088559
7.245901824,0.9999999612498872,-109.91845685971485
7.251365888,0.9999873793425078,-110.17784811719761
7.256830464,0.9999757106973262,-110.43715391864637
7.26229504,0.9999655215779211,-110.69631323324408
7.267759616,0.9999574735131794,-110.95546305518138
7.273224192,0.9999520584267101,-111.21456672149733
7.278688768,0.999949595492305,-111.47364757359205
7.284152832,0.9999502767995584,-111.73280153984302
7.289617408,0.9999540307604122,-111.99201880351453
7.295081984,0.9999606485562308,-112.25136103959782
7.30054656,0.9999696937885093,-112.51087382681408
7.306011136,0.9999807824413324,-112.77058192169258
7.3114752,0.9999931206389605,-113.03048912585594
7.316939776,1.0000061942507819,-113.29062853767891
7.322404352,1.000019048305643,-113.55105997880592
7.327868928,1.000031107113477,-113.81163733929638
7.333333504,1.000041744494551,-114.07246585050262
7.338797568,1.0000500715157126,-114.33349791232916
7.344262144,1.0000557980826659,-114.59464073094917
7.34972672,1.0000586114743666,-114.85594089835023
7.355191296,1.000058259313955,-115.11724987207901
7.360655872,1.000054652140461,-115.37868391201214
7.366120448,1.000048241904211,-115.64003297469961
7.371584512,1.0000391259855859,-115.90131852549767
7.377049088,1.0000280732634796,-116.16256982053635
7.382513664,1.0000154274204993,-116.4236732079655
7.38797824,1.0000022205226282,-116.68466578444482
7.393442816,0.9999889825940395,-116.9455257073395
7.39890688,0.9999765495938056,-117.2062654961736
7.404371456,0.9999656172517493,-117.46685872419293
7.409836032,0.9999568130052061,-117.72741120079297
7.415300608,0.9999506526377303,-117.98793965587906
7.420765184,0.9999475693157083,-118.24839319187781
7.42622976,0.9999476746011552,-118.50890291322432
7.431693824,0.999950971966694,-118.76945644577266
7.4371584,0.9999572224893971,-119.03018570980512
7.442622976,0.999966210147333,-119.2910394340189
7.448087552,0.9999774152258718,-119.55207604187656
7.453552128,0.9999901288279874,-119.81331999914252
7.459016192,1.000003527657054,-120.07483215349038
7.464480768,1.0000170901803755,-120.33655990396838
7.469945344,1.000029872324909,-120.59851258224172
7.47540992,1.0000412243788963,-120.86068856042728
7.480874496,1.0000503098389852,-121.12304947006628
7.48633856,1.00005683558836,-121.38559041716768
7.491803136,1.0000603332850888,-121.64821266464274
7.497267712,1.0000605324480865,-121.91094254014779
7.502732288,1.0000574622893315,-122.17371141713791
7.508196864,1.0000512937444728,-122.43645275664153
7.51366144,1.000042361352482,-122.69914171073046
7.519125504,1.0000312139387495,-122.96171629692147
7.52459008,1.0000183520041428,-123.2241925523575
7.530054656,1.0000046299514038,-123.48654815735564
7.535519232,0.9999907292403806,-123.74877031095502
7.540983808,0.9999776367907381,-124.01080465209147
7.546447872,0.9999659068009763,-124.27277314734945
7.551912448,0.9999562962501006,-124.53459997865276
7.557377024,0.9999493128363616,-124.79637551972415
7.5628416,0.9999455451394296,-125.05811656581389
7.568306176,0.9999449344412457,-125.31985741052425
7.57377024,0.9999477805344441,-125.58171893800537
7.579234816,0.9999537717111774,-125.84361267939329
7.584699392,0.999962591699044,-126.10570737782528
7.590163968,0.9999738226725433,-126.3679411434449
7.595628544,0.9999867766165982,-126.63041642120132
7.60109312,1.00000074982187,-126.89313598166966
7.606557184,1.0000148233302064,-127.15608703305887
7.61202176,1.00002827434337,-127.41924469435634
7.617486336,1.000040435814366,-127.68265108274709
7.622950912,1.0000503804140044,-127.94627897707858
7.628415488,1.0000577863903588,-128.2100309807365
7.633879552,1.0000619863233178,-128.47392467951815
7.639344128,1.0000628832686864,-128.73788234048547
7.644808704,1.0000603084231403,-129.0019207712787
7.65027328,1.0000544970509668,-129.26590152065273
7.655737856,1.0000456795455654,-129.52983894837442
7.661202432,1.0000344336728222,-129.7936907626418
7.666666496,1.0000213372737687,-130.05740443215666
7.672131072,1.0000071723843948,-130.3209787244573
7.677595648,0.9999927394142456,-130.5843971178248
7.683060224,0.9999788230286867,-130.84768334890222
7.6885248,0.9999663170934399,-131.11080987591072
7.693988864,0.9999558313703725,-131.37384399357188
7.69945344,0.9999480958103955,-131.63675590376482
7.704918016,0.9999434413265279,-131.89965893350106
7.710382592,0.99994225098007,-132.16255002853725
7.715847168,0.9999444478766762,-132.42547289683114
7.721311232,0.9999501877993507,-132.68852016739473
7.726775808,0.9999587988625858,-132.9516713864847
7.732240384,0.9999700346660465,-133.21504289497787
7.73770496,0.9999832633271725,-133.4785718864614
7.743169536,0.9999976800147099,-133.74237480167744
7.748634112,1.0000123998166945,-134.006399758908
7.754098176,1.0000266723365951,-134.27067324004204
7.759562752,1.0000396374962184,-134.5351621213829
7.765027328,1.0000504637677194,-134.79987528422993
7.770491904,1.000058699702376,-135.0647428106906
7.77595648,1.0000637088179805,-135.3297629638918
7.781420544,1.0000652634033114,-135.59487167588856
7.78688512,1.0000632853020572,-135.86001465834934
7.792349696,1.0000578382029979,-136.1251133886947
7.797814272,1.000049222335963,-136.3902121043529
7.803278848,1.0000379066844294,-136.65516120084288
7.808743424,1.0000245631015745,-136.92002512673716
7.814207488,1.0000100204304612,-137.18469330648392
7.819672064,0.9999949704488825,-137.4492019603471
7.82513664,0.9999803967259621,-137.71356886588373
7.830601216,0.9999669960655855,-137.97776808336548
7.836065792,0.9999557026701775,-138.24180840243218
7.841529856,0.9999470257517052,-138.50577169164126
7.846994432,0.9999415071816382,-138.76967147170075
7.852459008,0.9999395723063642,-139.03355990579666
7.857923584,0.9999412176285845,-139.29747124287715
7.86338816,0.9999465311152671,-139.56149750780338
7.868852224,0.9999549875511557,-139.82561013691722
7.8743168,0.9999662777792064,-140.0898987866333
7.879781376,0.9999796625394799,-140.35443165106255
7.885245952,0.9999945372468512,-140.61914605285116
7.890710528,1.0000098827142219,-140.884137685391
7.896175104,1.0000248870065334,-141.14934923406426
7.901639168,1.00003870251804,-141.4148021547733
7.907103744,1.000050493446373,-141.68047989649966
7.91256832,1.0000595406436605,-141.94632462335352
7.918032896,1.0000655035764263,-142.21230562273155
7.923497472,1.0000678384927735,-142.47840132491606
7.928961536,1.0000665029945355,-142.74451856017816
7.934426112,1.0000614080684769,-143.01066188800766
7.939890688,1.0000530316795495,-143.2767067990479
7.945355264,1.0000417235174193,-143.54269018792172
7.95081984,1.0000281457667022,-143.80849194100074
7.956283904,1.0000131847010596,-144.07416243915233
7.96174848,0.9999974759208654,-144.3396434780786
7.967213056,0.9999820945875265,-144.60491579453324
7.972677632,0.9999678510273156,-144.87005712855498
7.978142208,0.9999555457438936,-145.13500976168964
7.983606784,0.9999459649734167,-145.39987711215764
7.989070848,0.9999396209489263,-145.66464218474485
7.994535424,0.9999368970054957,-145.92935274656978
8.0,0.999937925223397,-146.19411579064993
8.005464576,0.9999427527404992,-146.45895576613327
8.010929152,0.9999509721045816,-146.7239001091435
8.016393216,0.9999622398546196,-146.98900317996072
8.021857792,0.9999759006100618,-147.25432380979996
8.027322368,0.999991130742883,-147.51986207799393
8.032786944,1.0000070989987007,-147.785638873044
8.03825152,1.0000228355244327,-148.0516828781834
8.043716096,1.0000375415715932,-148.31793726853448
8.04918016,1.0000502868550998,-148.5844221983484
8.054644736,1.0000603937777774,-148.85113546126965
8.060109312,1.0000671392894875,-149.11794676953477
8.065573888,1.0000703268724422,-149.38489277610662
8.071038464,1.0000696596192893,-149.65185229349174
8.076502528,1.000065076762096,-149.9188202030349
8.081967104,1.0000569373387094,-150.18574234911884
8.08743168,1.0000456621957023,-150.45254914153216
8.092896256,1.0000319581232455,-150.71921571392954
8.098360832,1.0000164471679784,-150.98567496967405
8.103824896,1.0000001474672653,-151.25197161409685
8.109289472,0.9999839446354721,-151.518057270883
8.114754048,0.9999688643581739,-151.7839959258306
8.120218624,0.9999555625037984,-152.04973226764852
8.1256832,0.9999449846328626,-152.31532366102252
8.131147776,0.9999377007840993,-152.5808031924854
8.13661184,0.9999340793420303,-152.8462719368139
8.142076416,0.9999343454192051,-153.11172205874064
8.147540992,0.9999387072997731,-153.37720046777108
8.153005568,0.9999466191274939,-153.64281204657686
8.158470144,0.9999578126174292,-153.90859493091196
8.163934208,0.9999716511454593,-154.17455423038766
8.169398784,0.9999872367635517,-154.44075100650008
8.17486336,1.0000038488400491,-154.7071722358353
8.180327936,1.0000204110673332,-154.97388109660906
