freq,mag,phase
6.0,0.9999971846872155,119.27167102441649
6.008,0.9999977328635762,119.18215010097627
6.016,0.9999982630503809,119.09259489821329
6.024,0.9999987755366895,119.00300535233686
6.032,0.9999992706096779,118.91338139950399
6.04,0.9999997485546334,118.82372297581995
6.048,0.9999999999999999,118.73403001733878
6.056,0.9999999999999999,118.64430246006374
6.064,0.9999999999999999,118.55454023994778
6.072,1.0,118.46474329289406
6.08,1.0,118.3749115547565
6.088,0.9999999999999999,118.28504496134012
6.096,1.0,118.19514344840181
6.104,1.0,118.10520695165057
6.112,1.0,118.01523540674819
6.12,0.9999999999999999,117.92522874930965
6.128,0.9999999999999999,117.8351869149038
6.136,1.0,117.74510983905368
6.144,0.9999999999999999,117.6549974572372
6.152,1.0,117.56484970488764
6.16,0.9999999999999999,117.47466651739408
6.168,0.9999999999999999,117.38444783010213
6.176,1.0,117.29419357831428
6.184,1.0,117.20390369729053
6.192,1.0,117.113578122249
6.2,1.0,117.02321678836633
6.208,0.9999999999999999,116.93281963077835
6.216,1.0000000000000002,116.84238658458067
6.224,1.0,116.75191758482909
6.232,1.0,116.66141256654033
6.24,1.0,116.57087146469259
6.248,1.0000000000000002,116.4802942142259
6.256,1.0,116.38968075004308
6.264,1.0,116.29903100701
6.272,0.9999999999999998,116.2083449199563
6.28,0.9999999999999999,116.11762242367602
6.288,1.0,116.02686345292811
6.296,0.9999999999999999,115.93606794243713
6.304,1.0,115.84523582689371
6.312,1.0,115.75436704095533
6.32,0.9999999999999999,115.66346151924688
6.328,1.0,115.57251919636113
6.336,0.9999999999999999,115.48154000685967
6.344,1.0,115.39052388527315
6.352,0.9999999999999999,115.29947076610232
6.36,1.0,115.20838058381831
6.368,1.0,115.1172532728635
6.376,1.0,115.02608876765208
6.384,1.0,114.93488700257073
6.392,1.0,114.84364791197932
6.4,1.0,114.75237143021144
6.408,1.0,114.66105749157515
6.416,1.0,114.56970603035376
6.424,1.0,114.47831698080626
6.432,0.9999999999999999,114.38689027716826
6.44,1.0,114.29542585365252
6.448,0.9999999999999999,114.20392364444965
6.456,1.0,114.1123835837289
6.464,1.0,114.02080560563878
6.472,1.0,113.92918964430781
6.48,0.9999999999999999,113.83753563384522
6.4879999999999995,1.0,113.74584350834162
6.496,1.0,113.65411320186983
6.504,1.0,113.56234464848559
6.5120000000000005,1.0,113.47053778222812
6.52,1.0,113.37869253712115
6.5280000000000005,1.0,113.28680884717342
6.536,0.9999999999999999,113.19488664637959
6.5440000000000005,0.9999999999999999,113.10292586872086
6.552,0.9999999999999999,113.01092644816588
6.5600000000000005,0.9999999999999999,112.9188883186714
6.568,1.0,112.82681141418313
6.5760000000000005,1.0,112.73469566863642
6.584,1.0,112.64254101595716
6.592,1.0,112.55034739006247
6.6,0.9999999999999999,112.45811472486157
6.608,1.0,112.36584295425655
6.616,0.9999999999999999,112.27353201214314
6.624,0.9999999999999999,112.18118183241162
6.632,1.0,112.08879234894756
6.64,0.9999999999999999,111.99636349563266
6.648,1.0,111.9038952063456
6.656,0.9999999999999999,111.81138741496282
6.664,1.0,111.7188400553595
6.672,1.0,111.62625306141022
6.68,0.9999999999999999,111.53362636698996
6.688,0.9999999999999999,111.4409599059749
6.696,1.0,111.3482536122433
6.704,1.0,111.25550741967635
6.712,1.0,111.16272126215907
6.72,0.9999999999999998,111.06989507358115
6.728,1.0,110.97702878783798
6.736,1.0,110.88412233883133
6.744,1.0,110.7911756604704
6.752,0.9999999999999999,110.6981886866727
6.76,1.0000000000000002,110.6051613513649
6.768,0.9999999999999999,110.51209358848385
6.776,0.9999999999999999,110.41898533197742
6.784,1.0,110.32583651580548
6.792,0.9999999999999999,110.23264707394078
6.8,0.9999999999999999,110.13941694036994
6.808,1.0,110.0461460490944
6.816,1.0,109.95283433413131
6.824,1.0,109.85948172951456
6.832,1.0,109.7660881692957
6.84,0.9999999999999999,109.67265358754491
6.848,1.0,109.579177918352
6.856,0.9999999999999999,109.48566109582738
6.864,0.9999999999999998,109.392103054103
6.872,1.0,109.29850372733343
6.88,1.0,109.20486304969673
6.888,1.0000000000000002,109.11118095539561
6.896,1.0,109.01745737865828
6.904,1.0,108.92369225373955
6.912,0.9999999999999999,108.82988551492183
6.92,1.0,108.73603709651616
6.928,0.9999999999999999,108.64214693286316
6.936,0.999999928853487,108.54821495833417
6.944,0.9999998208140086,108.45424110733224
6.952,0.9999997150802555,108.36022531429315
6.96,0.9999996117050575,108.2661675136864
6.968,0.9999995107392511,108.17206764001645
6.976,0.9999994122316886,108.07792562782355
6.984,0.9999993162292407,107.98374141168493
6.992,0.9999992227768042,107.88951492621584
7.0,0.9999991319173078,107.79524610607052
7.008,0.9999990436917192,107.70093488594345
7.016,0.9999989581390509,107.60658120057026
7.024,0.9999988752963677,107.51218498472886
7.032,0.9999987951987932,107.41774617324053
7.04,0.9999987178795186,107.32326470097102
7.048,0.9999986433698081,107.22874050283156
7.056,0.9999985716990095,107.13417351378001
7.064,0.9999985028945602,107.039563668822
7.072,0.9999984369819962,106.94491090301186
7.08,0.9999983739849612,106.85021515145391
7.088,0.9999983139252148,106.7554763493034
7.096,0.9999982568226423,106.66069443176768
7.104,0.9999982026952632,106.56586933410736
7.112,0.9999981515592418,106.4710009916373
7.12,0.9999981034288965,106.37608933972776
7.128,0.9999980583167105,106.28113431380554
7.136,0.9999980162333418,106.18613584935504
7.144,0.9999979771876342,106.09109388191943
7.152,0.9999979411866284,105.99600834710166
7.16,0.999997908235573,105.90087918056571
7.168,0.9999978783379366,105.80570631803754
7.176,0.9999978514954196,105.71048969530632
7.184,0.9999978277079655,105.6152292482255
7.192,0.9999978069737755,105.51992491271393
7.2,0.9999977892893182,105.42457662475692
7.208,0.9999977746493458,105.32918432040745
7.216,0.999997763046906,105.2337479357871
7.224,0.9999977544733556,105.13826740708738
7.232,0.9999977489183749,105.04274267057065
7.24,0.9999977463699817,104.94717366257132
7.248,0.9999977468145468,104.85156031949693
7.256,0.9999977502368084,104.75590257782915
7.264,0.9999977566198872,104.66020037412501
7.272,0.9999977659453021,104.56445364501798
7.28,0.999997778192987,104.46866232721888
7.288,0.999997793341306,104.37282635751718
7.296,0.9999978113670708,104.27694567278195
7.304,0.9999978322455573,104.18102020996294
7.312,0.9999978559505228,104.0850499060917
7.32,0.9999978824542248,103.98903469828258
7.328,0.9999979117274367,103.89297452373381
7.336,0.9999979437394685,103.79686931972854
7.344,0.9999979784581844,103.70071902363593
7.352,0.9999980158500216,103.60452357291207
7.36,0.9999980558800108,103.50828290510113
7.368,0.9999980985117941,103.41199695783627
7.376,0.9999981437076473,103.31566566884078
7.384,0.9999981914284984,103.21928897592895
7.392,0.99999824163395,103.12286681700712
7.4,0.9999982942822992,103.02639913007465
7.4079999999999995,0.99999834933056,102.92988585322495
7.416,0.9999984067344844,102.83332692464631
7.4239999999999995,0.9999984664485856,102.73672228262303
7.432,0.9999985284261594,102.64007186553616
7.4399999999999995,0.9999985926193089,102.54337561186458
7.448,0.9999986589789659,102.44663346018584
7.4559999999999995,0.9999987274549156,102.34984534917712
7.464,0.9999987979958203,102.253011217616
7.4719999999999995,0.9999988705492445,102.15613100438154
7.48,0.999998945061679,102.05920464845485
7.4879999999999995,0.9999990214785658,101.96223208892027
7.496,0.9999990997443243,101.86521326496587
7.504,0.9999991798023764,101.76814811588456
7.5120000000000005,0.9999992615951729,101.67103658107459
7.52,0.9999993450642211,101.57387860004067
7.5280000000000005,0.9999994301501097,101.47667411239439
7.536,0.9999995167925376,101.37942305785525
7.5440000000000005,0.9999996049303411,101.28212537625113
7.552,0.999999694501521,101.18478100751925
7.5600000000000005,0.9999997854432722,101.08738989170664
7.568,0.9999998776920116,100.98995196897096
7.5760000000000005,0.999999971183407,100.89246717958105
7.584,1.0,100.7949354639176
7.5920000000000005,1.0,100.69735676247373
7.6,1.0,100.59973101585564
7.6080000000000005,0.9999999999999999,100.50205816478301
7.616,0.9999999999999999,100.40433815008971
7.6240000000000006,0.9999999999999999,100.30657091272421
7.632,1.0,100.2087563937501
7.640000000000001,0.9999999999999999,100.11089453434646
7.648,1.0,100.01298527580849
7.656000000000001,1.0,99.91502855954768
7.664,1.0,99.81702432709241
7.672,1.0,99.71897252008812
7.68,1.0,99.62087308029773
7.688,0.9999999999999999,99.52272594960192
7.696,1.0,99.42453106999942
7.704,1.0,99.32628838360718
7.712,1.0,99.22799783266065
7.72,0.9999999999999999,99.1296593595139
7.728,1.0,99.03127290663977
7.736,1.0,98.93283841663003
7.744,0.9999999999999999,98.83435583219541
7.752,1.0,98.73582509616567
7.76,0.9999999999999998,98.63724615148959
7.768,1.0,98.53861894123496
7.776,1.0,98.43994340858853
7.784,1.0,98.34121949685594
7.792,1.0,98.24244714946153
7.8,0.9999999999999999,98.1436263099482
7.808,0.9999999999999998,98.04475692197731
7.816,1.0,97.94583892932825
7.824,1.0,97.84687227589833
7.832,1.0,97.74785690570242
7.84,0.9999999999999998,97.64879276287255
7.848,0.9999999999999999,97.54967979165758
7.856,1.0,97.45051793642277
7.864,1.0,97.35130714164924
7.872,1.0,97.25204735193358
7.88,1.0,97.15273851198721
7.888,0.9999999999999999,97.05338056663577
7.896,0.9999999999999999,96.9539734608186
7.904,0.9999999999999999,96.85451713958798
7.912,1.0,96.75501154810846
7.92,1.0,96.65545663165602
7.928,1.0,96.55585233561743
7.936,0.9999999999999999,96.45619860548926
7.944,1.0,96.35649538687707
7.952,1.0,96.25674262549445
7.96,0.9999999999999999,96.15694026716214
7.968,1.0,96.05708825780687
7.976,1.0,95.95718654346042
7.984,1.0,95.85723507025853
7.992,1.0,95.75723378443963
8.0,1.0,95.65718263234383
8.008,0.9999999999999999,95.55708156041156
8.016,0.9999999999999999,95.4569305151823
8.024000000000001,1.0,95.35672944329337
8.032,1.0,95.25647829147856
8.04,1.0,95.15617700656652
8.048,1.0,95.05582553547957
8.056000000000001,1.0,94.95542382523207
8.064,1.0,94.85497182292902
8.072,1.0,94.75446947576425
8.08,0.9999999999999999,94.653916731019
8.088000000000001,0.9999999999999998,94.55331353606023
8.096,1.0,94.4526598383389
8.104,0.9999999999999999,94.35195558538818
8.112,0.9999999999999999,94.25120072482166
8.120000000000001,0.9999999999999998,94.15039520433163
8.128,1.0,94.04953897168717
8.136,1.0,93.94863197473214
8.144,1.0,93.84767416138334
8.152000000000001,0.9999999999999999,93.74666547962848
8.16,1.0,93.64560587752423
8.168,1.0,93.54449530319403
8.176,1.0,93.44333370482602
8.184000000000001,1.0,93.34212103067101
8.192,1.0,93.24085722904023
8.2,0.9999999999999999,93.13954224830303
8.208,1.0000000000000002,93.03817603688475
8.216000000000001,1.0,92.93675854326443
8.224,1.0,92.83528971597252
8.232,1.0,92.73376950358842
8.24,0.9999999999999999,92.63219785473814
8.248000000000001,0.9999999999999999,92.53057471809203
8.256,1.0,92.42890004236216
8.264,0.9999999999999999,92.32717377629996
8.272,1.0,92.22539586869364
8.280000000000001,1.0,92.12356626836579
8.288,1.0,92.02168492417076
8.296,0.9999999999999999,91.91975178499202
8.304,1.0,91.81776679973969
8.312,1.0,91.71572991734787
8.32,0.9999999999999999,91.61364108677196
8.328,1.0,91.51150025698611
8.336,0.9999999999999999,91.40930737698035
8.344,1.0,91.30706239575814
8.352,1.0,91.20476526233342
8.36,1.0,91.10241592572808
8.368,0.9999999999999999,91.0000143349691
8.376,0.9999999999999999,90.89756043908581
8.384,0.9999999999999998,90.79505418710714
8.392,1.0,90.69249552805894
8.4,1.0,90.58988441096099
8.408,0.9999999999999999,90.48722078482446
8.416,1.0,90.38450459864886
8.424,1.0,90.2817358014195
8.432,0.9999999999999998,90.17891434210448
8.44,1.0,90.07604016965205
8.448,0.9999999999999998,89.97311323298769
8.456,0.9999999999999999,89.87013348101144
8.464,1.0,89.76710086259494
8.472,1.0,89.6640153265789
8.48,1.0,89.56087682177001
8.488,1.0,89.45768529693845
8.496,0.9999999999999998,89.35444070081499
8.504,0.9999999999999999,89.25114298208827
8.512,0.9999999999999999,89.14779208940209
8.52,1.0,89.04438797135269
8.528,0.9999999999999999,88.94093057648602
8.536,0.9999999999999999,88.83741985329519
8.544,1.0,88.73385575021757
8.552,0.9999999999999999,88.63023821563247
8.56,1.0,88.52656719785824
8.568,1.0,88.4228426451499
8.576,0.9999999999999999,88.31906450569642
8.584,1.0,88.21523272761839
8.592,1.0,88.11134725896525
8.6,1.0,88.00740804771317
8.608,0.9999999999999998,87.90341504176227
8.616,1.0,87.79936818893451
8.624,1.0,87.69526743697111
8.632,0.9999999823972268,87.59111273353045
8.64,0.9999998141296749,87.48690402618558
8.648,0.9999996446694649,87.38264126242218
8.656,0.9999994741085664,87.27832438963617
8.664,0.9999993025404059,87.17395335513177
8.672,0.9999991300598284,87.06952810611918
8.68,0.9999989567630603,86.96504858971277
8.688,0.999998782747668,86.8605147529288
8.696,0.9999986081125193,86.75592654268375
8.704,0.9999984329577406,86.6512839057922
8.712,0.999998257384676,86.5465867889651
8.72,0.9999980814958441,86.4418351388079
8.728,0.9999979053948935,86.33702890181891
8.736,0.9999977291865592,86.2321680243875
8.744,0.9999975529766179,86.1272524527926
8.752,0.9999973768718399,86.022282133201
8.76,0.9999972009799449,85.91725701166601
8.768,0.9999970254095534,85.81217703412584
8.776,0.9999968502701391,85.70704214640239
8.784,0.99999667567198,85.6018522941998
8.792,0.9999965017261094,85.49660742310333
8.8,0.9999963285442665,85.39130747857803
8.808,0.999996156238846,85.28595240596773
8.815999999999999,0.9999959849228464,85.18054215049396
8.824,0.9999958147098209,85.07507665725495
8.832,0.999995645713823,84.96955587122471
8.84,0.9999954780493574,84.86397973725231
8.847999999999999,0.9999953118313243,84.75834820006084
8.856,0.9999951471749688,84.65266120424693
8.864,0.999994984195828,84.5469186942801
8.872,0.9999948230096751,84.44112061450211
8.879999999999999,0.999994663732469,84.33526690912652
8.888,0.9999945064802972,84.22935752223817
8.896,0.9999943513693244,84.12339239779311
8.904,0.9999941985157356,84.01737147961802
8.911999999999999,0.9999940480356841,83.91129471141016
8.92,0.999993900045236,83.80516203673722
8.928,0.9999937546603145,83.6989733990373
8.936,0.9999936119966472,83.59272874161891
8.943999999999999,0.9999934721697109,83.48642800766102
8.952,0.9999933352946756,83.38007114021327
8.96,0.9999932014863525,83.27365808219625
8.968,0.9999930708591374,83.16718877640179
8.975999999999999,0.9999929435269574,83.0606631654933
8.984,0.9999928196032172,82.95408119200623
8.992,0.9999926992007437,82.84744279834874
9.0,0.9999925824317341,82.74074792680217
9.008,0.9999924694077007,82.63399651952173
9.016,0.99999236023942,82.52718851853727
9.024000000000001,0.9999922550368774,82.42032386575417
9.032,0.9999921539092161,82.31340250295412
9.04,0.9999920569646861,82.20642437179615
9.048,0.9999919643105886,82.09938941381758
9.056000000000001,0.9999918760532297,81.99229757043523
9.064,0.9999917922978665,81.88514878294654
9.072,0.9999917131486578,81.77794299253074
9.08,0.9999916387086139,81.67068014025014
9.088000000000001,0.9999915690795483,81.56336016705168
9.096,0.9999915043620285,81.45598301376815
9.104,0.9999914446553279,81.3485486211197
9.112,0.999991390057379,81.24105692971551
9.120000000000001,0.9999913406647257,81.13350788005529
9.128,0.9999912965724791,81.02590141253101
9.136,0.9999912578742705,80.91823746742863
9.144,0.9999912246622079,80.81051598492975
9.152000000000001,0.9999911970268316,80.7027369051137
9.16,0.9999911750570716,80.59490016795928
9.168,0.9999911588402056,80.4870057133467
9.176,0.9999911484618169,80.37905348105964
9.184000000000001,0.9999911440057545,80.27104341078729
9.192,0.9999911455540945,80.1629754421265
9.2,0.9999911531870979,80.05484951458382
9.208,0.9999911669831772,79.94666556757778
9.216000000000001,0.9999911870188566,79.83842354044118
9.224,0.9999912133687368,79.73012337242331
9.232,0.9999912461054594,79.62176500269229
9.24,0.9999912852996746,79.5133483703374
9.248000000000001,0.9999913310200064,79.40487341437166
9.256,0.999991383333021,79.29634007373414
9.264,0.9999914423031961,79.18774828729245
9.272,0.9999915079928906,79.07909799384531
9.280000000000001,0.9999915804623161,78.97038913212508
9.288,0.9999916597695078,78.86162164080044
9.296,0.9999917459702992,78.75279545847883
9.304,0.9999918391182949,78.64391052370927
9.312000000000001,0.9999919392648473,78.53496677498492
9.32,0.9999920464590316,78.42596415074593
9.328,0.9999921607476236,78.31690258938193
9.336,0.9999922821750793,78.20778202923496
9.344,0.9999924107835128,78.09860240860226
9.352,0.9999925466126784,77.98936366573885
9.36,0.9999926896999523,77.88006573886061
9.368,0.9999928400803147,77.77070856614682
9.376,0.9999929977863352,77.66129208574327
9.384,0.9999931628481571,77.55181623576485
9.392,0.9999933352934832,77.44228095429862
9.4,0.999993515147565,77.33268617940648
9.408,0.9999937024331895,77.22303184912826
9.416,0.9999938971706703,77.11331790148438
9.424,0.9999940993778369,77.00354427447894
9.432,0.9999943090700275,76.89371090610243
9.44,0.9999945262600825,76.78381773433475
9.448,0.9999947509583367,76.67386469714802
9.456,0.9999949831726168,76.56385173250956
9.464,0.9999952229082361,76.45377877838462
9.472,0.999995470167992,76.34364577273945
9.48,0.9999957249521653,76.23345265354403
9.488,0.9999959872585187,76.12319935877503
9.496,0.9999962570822977,76.01288582641855
9.504,0.9999965344162325,75.90251199447322
9.512,0.99999681925054,75.79207780095267
9.52,0.9999971115729285,75.6815831838887
9.528,0.999997411368601,75.57102808133389
9.536,0.9999977186202621,75.46041243136449
9.544,0.9999980333081238,75.34973617208311
9.552,0.9999983554099139,75.23899924162166
9.56,0.9999986849008842,75.1282015781438
9.568,0.9999990217538203,75.01734311984801
9.576,0.9999993659390518,74.90642380496998
9.584,0.999999717424465,74.79544357178557
9.592,1.0,74.6844023586132
9.6,0.9999999999999999,74.57330010381672
9.608,0.9999999999999999,74.46213674580777
9.616,0.9999999999999999,74.35091222304868
9.624,0.9999999999999999,74.23962647405469
9.632,1.0,74.1282794373967
9.64,0.9999999999999999,74.01687105170365
9.648,0.9999999999999999,73.90540125566505
9.656,0.9999999999999999,73.79386998803336
9.664,1.0,73.68227718762651
9.672,1.0,73.57062279333003
9.68,0.9999999999999999,73.45890674409966
9.688,0.9999999999999999,73.34712897896347
9.696,1.0,73.2352894370242
9.704,1.0,73.12338805746141
9.712,1.0,73.01142477953384
9.72,0.9999999999999999,72.89939954258139
9.728,1.0,72.78731228602737
9.736,0.9999999999999999,72.67516294938041
9.744,1.0,72.5629514722368
9.752,0.9999999999999999,72.45067779428214
9.76,1.0,72.33834185529359
9.768,1.0,72.22594359514164
9.776,1.0,72.11348295379206
9.784,0.9999999999999999,72.00095987130769
9.792,1.0,71.88837428785035
9.8,0.9999999999999999,71.77572614368242
9.808,1.0,71.6630153791688
9.816,1.0,71.55024193477833
9.824,0.9999999999999999,71.43740575108569
9.832,1.0,71.32450676877272
9.84,1.0,71.21154492863023
9.847999999999999,1.0,71.09852017155937
9.856,0.9999999999999999,70.985432438573
9.864,0.9999999999999999,70.87228167079738
9.872,0.9999999999999999,70.75906780947338
9.879999999999999,1.0,70.64579079595778
9.888,0.9999999999999999,70.53245057172461
9.896,1.0,70.41904707836649
9.904,1.0,70.30558025759576
9.911999999999999,1.0,70.19205005124557
9.92,1.0,70.07845640127114
9.928,0.9999999999999999,69.96479924975075
9.936,1.0,69.85107853888691
9.943999999999999,0.9999999999999999,69.73729421100705
9.952,0.9999999999999999,69.62344620856486
9.96,1.0,69.50953447414088
9.968,1.0,69.3955589504436
9.975999999999999,0.9999999999999999,69.28151958031012
9.984,1.0,69.16741630670695
9.992,1.0,69.05324907273088
10.0,1.0,68.93901782160957
10.008,0.9999999999999999,68.82472249670218
10.016,1.0,68.71036304150003
10.024000000000001,1.0,68.59593939962726
10.032,1.0,68.48145151484123
10.04,0.9999999999999999,68.36689933103305
10.048,1.0,68.25228279222809
10.056000000000001,1.0,68.13760184258634
10.064,0.9999999999999999,68.02285642640284
10.072,1.0,67.90804648810796
10.08,1.0,67.79317197226767
10.088000000000001,1.0000000000000002,67.67823282358394
10.096,1.0,67.56322898689487
10.104,1.0,67.44816040717483
