freq,mag,phase
6.0,0.9999981117933128,178.30273410071158
6.008,0.9999977312838946,177.8799283143791
6.016,0.9999973601566245,177.45716256002538
6.024,0.9999969982808891,177.03443310086354
6.032,0.9999966455271169,176.61173618883893
6.04,0.9999963017667783,176.18906806481397
6.048,0.9999959668723839,175.76642495875157
6.056,0.999995640717483,175.34380308989802
6.064,0.9999953231766625,174.92119866696433
6.072,0.9999950141255461,174.49860788830682
6.08,0.999994713440792,174.0760269421066
6.088,0.9999944210000904,173.65345200654826
6.096,0.9999941366821642,173.23087924999749
6.104,0.9999938603667631,172.80830483117762
6.112,0.9999935919346673,172.38572489934577
6.12,0.9999933312676792,171.96313559446776
6.128,0.9999930782486246,171.5405330473921
6.136,0.9999928327613515,171.11791338002388
6.144,0.9999925946907233,170.69527270549693
6.152,0.9999923639226203,170.2726071283461
6.16,0.9999921403439342,169.8499127446784
6.168,0.9999919238425686,169.42718564234357
6.176,0.9999917143074348,169.00442190110422
6.184,0.999991511628444,168.5816175928049
6.192,0.9999913156965144,168.15876878154117
6.2,0.999991126403559,167.7358715238279
6.208,0.9999909436424872,167.3129218687669
6.216,0.9999907673071988,166.8899158582142
6.224,0.9999905972925843,166.46684952694727
6.232,0.9999904334945198,166.04371890283127
6.24,0.9999902758098599,165.6205200069852
6.248,0.9999901241364407,165.19724885394783
6.256,0.9999899783730721,164.77390145184322
6.264,0.9999898384195347,164.35047380254585
6.272,0.9999897041765785,163.9269619018459
6.28,0.9999895755459134,163.50336173961395
6.288,0.9999894524302155,163.0796692999658
6.296,0.9999893347331098,162.65588056142695
6.304,0.9999892223591796,162.2319914970973
6.312,0.9999891152139534,161.80799807481554
6.32,0.9999890132039049,161.3838962573236
6.328,0.9999889162364487,160.95968200243126
6.336,0.9999888242199346,160.53535126318073
6.344,0.9999887370636453,160.1108999880112
6.352,0.9999886546777902,159.68632412092384
6.36,0.9999885769735064,159.26161960164677
6.368,0.9999885038628458,158.83678236580025
6.376,0.9999884352587795,158.41180834506224
6.384,0.9999883710751859,157.986693467334
6.392,0.9999883112268548,157.56143365690647
6.4,0.9999882556294741,157.13602483462668
6.408,0.9999882041996334,156.71046291806445
6.416,0.9999881568548135,156.28474382167994
6.424,0.9999881135133856,155.85886345699143
6.432,0.9999880740946058,155.43281773274364
6.44,0.9999880385186096,155.00660255507663
6.448,0.9999880067064095,154.5802138276953
6.456,0.99998797857989,154.15364745203973
6.464,0.9999879540617996,153.72689932745578
6.472,0.9999879330757522,153.29996535136672
6.48,0.9999879155462187,152.87284141944562
6.4879999999999995,0.9999879013985227,152.44552342578848
6.496,0.9999878905588367,152.01800726308792
6.504,0.9999878829541775,151.59028882280856
6.5120000000000005,0.9999878785124018,151.162363995362
6.52,0.9999878771622,150.73422867028447
6.5280000000000005,0.999987878833094,150.30587873641346
6.536,0.9999878834554311,149.87731008206765
6.5440000000000005,0.9999878909603799,149.44851859522547
6.552,0.9999879012799248,149.01950016370733
6.5600000000000005,0.9999879143468631,148.59025067535651
6.568,0.9999879300947984,148.16076601822348
6.5760000000000005,0.9999879484581374,147.73104208074963
6.584,0.9999879693720848,147.30107475195373
6.592,0.9999879927726394,146.87085992161855
6.6,0.999988018596587,146.44039348047957
6.608,0.9999880467814984,146.009671320415
6.616,0.9999880772657253,145.5786893346369
6.624,0.9999881099883916,145.14744341788398
6.632,0.9999881448893942,144.71592946661613
6.64,0.9999881819093942,144.28414337921012
6.648,0.9999882209898141,143.8520810561571
6.656,0.9999882620728329,143.41973840026176
6.664,0.9999883051013814,142.98711131684325
6.672,0.9999883500191385,142.55419571393745
6.68,0.9999883967705255,142.12098750250138
6.688,0.9999884453007013,141.68748259661936
6.696,0.9999884955555595,141.25367691371082
6.704,0.9999885474817225,140.81956637473996
6.712,0.9999886010265373,140.38514690442784
6.72,0.9999886561380712,139.95041443146556
6.728,0.9999887127651071,139.51536488873032
6.736,0.9999887708571393,139.07999421350289
6.744,0.999988830364368,138.6442983476873
6.752,0.9999888912376969,138.20827323803312
6.76,0.9999889534287261,137.77191483635883
6.768,0.9999890168897504,137.3352190997786
6.776,0.9999890815737529,136.89818199093045
6.784,0.9999891474344011,136.46079947820692
6.792,0.9999892144260432,136.02306753598813
6.8,0.9999892825037027,135.5849821448772
6.808,0.9999893516230746,135.14653929193764
6.816,0.9999894217405212,134.7077349709338
6.824,0.9999894928130675,134.2685651825732
6.832,0.9999895647983975,133.82902593475168
6.84,0.9999896376548484,133.3891132428008
6.848,0.9999897113414079,132.94882312973817
6.856,0.9999897858177095,132.5081516265199
6.864,0.9999898610440273,132.06709477229606
6.872,0.9999899369812744,131.6256486146687
6.88,0.9999900135909945,131.18380920995227
6.888,0.9999900908353618,130.74157262343718
6.896,0.9999901686771747,130.29893492965596
6.904,0.9999902470798524,129.85589221265207
6.912,0.9999903260074295,129.4124405662517
6.92,0.9999904054245539,128.9685760943383
6.928,0.9999904852964815,128.52429491113023
6.936,0.9999905655890711,128.07959314146092
6.944,0.9999906462687835,127.63446692106238
6.952,0.999990727302674,127.18891239685139
6.96,0.9999908086583899,126.74292572721886
6.968,0.9999908903041672,126.29650308232206
6.976,0.9999909722088253,125.84964064438026
6.984,0.9999910543417633,125.40233460797283
6.992,0.9999911366729575,124.9545811803411
7.0,0.9999912191729546,124.50637658169296
7.008,0.999991301812871,124.05771704551076
7.016,0.9999913845643863,123.60859881886219
7.024,0.999991467399741,123.15901816271487
7.032,0.9999915502917311,122.70897135225346
7.04,0.9999916332137068,122.25845467720055
7.048,0.9999917161395666,121.80746444214081
7.056,0.9999917990437526,121.35599696684787
7.064,0.99999188190125,120.90404858661533
7.072,0.9999919646875804,120.45161565259035
7.08,0.9999920473787988,119.99869453211112
7.088,0.9999921299514897,119.54528160904725
7.096,0.9999922123827645,119.091373284144
7.104,0.9999922946502572,118.63696597536944
7.112,0.9999923767321205,118.18205611826531
7.12,0.999992458607019,117.72664016630115
7.128,0.9999925402541326,117.27071459123194
7.136,0.9999926216531475,116.8142758834591
7.144,0.9999927027842518,116.35732055239485
7.152,0.9999927836281367,115.89984512683026
7.16,0.9999928641659876,115.4418461553066
7.168,0.9999929443794846,114.98332020649003
7.176,0.9999930242507965,114.52426386954993
7.184,0.999993103762576,114.06467375454064
7.192,0.999993182897961,113.60454649278658
7.2,0.9999932616405667,113.14387873727108
7.208,0.9999933399744821,112.68266716302824
7.216,0.9999934178842694,112.22090846753855
7.224,0.9999934953549577,111.7585993711281
7.232,0.9999935723720397,111.29573661737071
7.24,0.9999936489214696,110.83231697349393
7.248,0.9999937249896593,110.36833723078853
7.256,0.9999938005634738,109.90379420502086
7.264,0.9999938756302271,109.4386847368492
7.272,0.9999939501776819,108.9730056922432
7.28,0.9999940241940427,108.50675396290664
7.288,0.9999940976679544,108.03992646670378
7.296,0.9999941705884959,107.57252014808863
7.304,0.9999942429451814,107.10453197853815
7.312,0.9999943147279523,106.63595895698803
7.32,0.9999943859271768,106.16679811027225
7.328,0.9999944565336452,105.69704649356552
7.336,0.9999945265385642,105.22670119082922
7.344,0.9999945959335588,104.7557593152602
7.352,0.999994664710663,104.28421800974309
7.36,0.9999947328623203,103.81207444730515
7.368,0.9999948003813787,103.33932583157487
7.376,0.9999948672610877,102.86596939724286
7.384,0.9999949334950924,102.39200241052646
7.392,0.9999949990774349,101.91742216963652
7.4,0.9999950640025469,101.44222600524782
7.4079999999999995,0.999995128265246,100.96641128097163
7.416,0.9999951918607346,100.48997539383143
7.4239999999999995,0.9999952547845957,100.01291577474171
7.432,0.9999953170327881,99.53522988898821
7.4399999999999995,0.9999953786016448,99.05691523671265
7.448,0.9999954394878657,98.5779693533979
7.4559999999999995,0.99999549968852,98.09838981035765
7.464,0.9999955592010377,97.61817421522677
7.4719999999999995,0.9999956180232076,97.13732021245565
7.48,0.9999956761531751,96.655825483805
7.4879999999999995,0.9999957335894369,96.17368774884503
7.496,0.9999957903308362,95.69090476545435
7.504,0.9999958463765639,95.20747433032345
7.5120000000000005,0.99999590172615,94.72339427945772
7.52,0.9999959563794627,94.23866248868455
7.5280000000000005,0.9999960103367035,93.7532768741603
7.536,0.9999960635984042,93.2672353928808
7.5440000000000005,0.9999961161654233,92.78053604319179
7.552,0.9999961680389433,92.29317686530239
7.5600000000000005,0.9999962192204634,91.80515594179855
7.568,0.9999962697118007,91.31647139815945
7.5760000000000005,0.9999963195150832,90.82712140327342
7.584,0.9999963686327465,90.33710416995655
7.5920000000000005,0.9999964170675314,89.84641795547098
7.6,0.9999964648224787,89.3550610620453
7.6080000000000005,0.9999965119009269,88.86303183739447
7.616,0.999996558306506,88.3703286752419
7.6240000000000006,0.9999966040431367,87.87695001584038
7.632,0.9999966491150247,87.38289434649516
7.640000000000001,0.9999966935266568,86.88816020208574
7.648,0.999996737282798,86.39274616558939
7.656000000000001,0.999996780388487,85.89665086860288
7.664,0.9999968228490322,85.39987299186636
7.672,0.9999968646700081,84.90241126578461
7.68,0.9999969058572513,84.40426447094988
7.688,0.9999969464168563,83.9054314386631
7.696,0.999996986355172,83.4059110514548
7.704,0.9999970256787969,82.90570224360509
7.712,0.9999970643945748,82.40480400166285
7.72,0.9999971025095937,81.90321536496359
7.728,0.9999971400311776,81.40093542614608
7.736,0.9999971769668846,80.89796333166771
7.744,0.9999972133245023,80.39429828231793
7.752,0.9999972491120444,79.88993953373026
7.76,0.9999972843377452,79.38488639689194
7.768,0.9999973190100564,78.87913823865193
7.776,0.9999973531376423,78.37269448222622
7.784,0.999997386729376,77.86555460770089
7.792,0.9999974197943349,77.35771815253243
7.8,0.9999974523417964,76.84918471204526
7.808,0.9999974843812336,76.33995393992616
7.816,0.9999975159223102,75.83002554871555
7.824,0.9999975469748781,75.3193993102954
7.832,0.9999975775489706,74.80807505637334
7.84,0.9999976076547997,74.29605267896332
7.848,0.9999976373027509,73.78333213086188
7.856,0.9999976665033786,73.26991342612051
7.864,0.9999976952674022,72.75579664051351
7.872,0.9999977236057004,72.24098191200123
7.88,0.9999977515293086,71.72546944118851
7.888,0.9999977790494122,71.20925949177814
7.896,0.999997806177344,70.69235239101899
7.904,0.9999978329245767,70.17474853014875
7.912,0.999997859302722,69.65644836483105
7.92,0.999997885323523,69.13745241558657
7.928,0.9999979109988498,68.61776126821813
7.936,0.9999979363406971,68.09737557422947
7.944,0.9999979613611766,67.57629605123745
7.952,0.9999979860725132,67.05452348337742
7.96,0.9999980104870415,66.5320587217017
7.968,0.9999980346171988,66.0089026845708
7.976,0.999998058475522,65.48505635803708
7.984,0.9999980820746419,64.96052079622089
7.992,0.9999981054272783,64.43529712167873
8.0,0.9999981285462356,63.90938652576314
8.008,0.9999981514443974,63.38279026897455
8.016,0.999998174134722,62.85550968130384
8.024000000000001,0.999998196630237,62.32754616256717
8.032,0.9999982189440347,61.79890118273067
8.04,0.9999982410892667,61.26957628222607
8.048,0.999998263079139,60.73957307225713
8.056000000000001,0.9999982849269077,60.20889323509633
8.064,0.9999983066458733,59.677538524371116
8.072,0.9999983282493753,59.145510765339814
8.08,0.9999983497507877,58.61281185515758
8.088000000000001,0.9999983711635148,58.07944376313173
8.096,0.9999983925009838,57.54540853096534
8.104,0.999998413776642,57.01070827299019
8.112,0.9999984350039508,56.47534517638818
8.120000000000001,0.9999984561963801,55.93932150140159
8.128,0.9999984773674041,55.402639581530664
8.136,0.9999984985304963,54.865301823719406
8.144,0.999998519699123,54.327310708529176
8.152000000000001,0.9999985408867402,53.78866879030006
8.16,0.999998562106786,53.249378697298894
8.168,0.9999985833726783,52.709443131854165
8.176,0.9999986046978078,52.16886487047842
8.184000000000001,0.9999986260955336,51.62764676397708
8.192,0.9999986475791776,51.08579173754324
8.2,0.9999986691620203,50.543302790838624
8.208,0.9999986908572948,50.00018299806094
8.216000000000001,0.9999987126781823,49.45643550799696
8.224,0.9999987346378072,48.9120635440607
8.232,0.9999987567492312,48.36707040431708
8.24,0.9999987790254493,47.82145946149099
8.248000000000001,0.9999988014793841,47.275234162961446
8.256,0.9999988241238816,46.72839803074003
8.264,0.9999988469717052,46.18095466143406
8.272,0.9999988700355308,45.63290772619436
8.280000000000001,0.9999988933279438,45.08426097064765
8.288,0.9999989168614313,44.53501821481211
8.296,0.9999989406483797,43.98518335299741
8.304,0.9999989647010683,43.43476035368833
8.312,0.9999989890316651,42.88375325941272
8.32,0.9999990136522221,42.33216618659131
8.328,0.9999990385746705,41.780003325372725
8.336,0.9999990638108164,41.22726893944987
8.344,0.9999990893723347,40.67396736586119
8.352,0.9999991152707663,40.12010301477283
8.36,0.9999991415175123,39.565680369245754
8.368,0.9999991681238297,39.010703984983486
8.376,0.9999991951008275,38.45517849006428
8.384,0.9999992224594615,37.89910858465391
8.392,0.9999992502105306,37.34249904070294
8.4,0.9999992783646717,36.785354701624065
8.408,0.9999993069323555,36.22768048195384
8.416,0.9999993359238841,35.669481366994454
8.424,0.9999993653493834,35.110762412439726
8.432,0.999999395218802,34.55152874398095
8.44,0.9999994255419058,33.99178555689689
8.448,0.9999994563282742,33.431538115623525
8.456,0.9999994875872962,32.8707917533079
8.464,0.9999995193281672,32.309551871341704
8.472,0.9999995515598837,31.74782393887876
8.48,0.9999995842912408,31.185613492332365
8.488,0.9999996175308284,30.622926134856506
8.496,0.9999996512870273,30.059767535806802
8.504,0.9999996855680066,29.49614343018554
8.512,0.9999997203817184,28.932059618066365
8.52,0.9999997557358963,28.367521964003068
8.528,0.9999997916380517,27.80253639641832
8.536,0.9999998280954702,27.237108906976363
8.544,0.9999998651152087,26.671245549935783
8.552,0.9999999027040926,26.10495244148655
8.56,0.9999999408687128,25.53823575906716
8.568,0.9999999796154232,24.97110174066614
8.576,1.0,24.403556684103954
8.584,1.0,23.83560694629949
8.592,0.9999999999999999,23.26725894251705
8.6,1.0,22.698519145598215
8.608,1.0,22.129394085174532
8.616,1.0,21.559890346865274
8.624,1.0,20.99001457145633
8.632,1.0,20.419773454064437
8.64,1.0,19.84917374328306
8.648,1.0,19.27822224031372
8.656,1.0,18.706925798079364
8.664,1.0,18.135291320323855
8.672,1.0,17.563325760693576
8.68,1.0,16.991036121805646
8.688,1.0,16.418429454298828
8.696,1.0,15.845512855871373
8.704,0.9999999999999999,15.272293470302117
8.712,1.0,14.698778486458897
8.72,1.0,14.124975137290804
8.728,1.0,13.550890698808358
8.736,0.9999999999999999,12.976532489047877
8.744,0.9999999999999999,12.40190786702443
8.752,0.9999999999999999,11.82702423166958
8.76,1.0,11.251889020758306
8.768,0.9999999999999999,10.676509709821245
8.776,1.0,10.10089381104677
8.784,0.9999999999999999,9.52504887216907
8.792,0.9999999999999999,8.948982475346686
8.8,1.0,8.372702236027706
8.808,1.0,7.796215801806088
8.815999999999999,0.9999999999999999,7.219530851265491
8.824,1.0,6.642655092814179
8.832,1.0,6.065596263509933
8.84,0.9999999999999999,5.488362127874954
8.847999999999999,1.0,4.910960476701677
8.856,0.9999999999999999,4.333399125850354
8.864,1.0,3.7556859150383093
8.872,1.0,3.1778287066207334
8.879999999999999,1.0,2.599835384363905
8.888,0.9999999999999999,2.021713852211804
8.896,1.0,1.4434720330459656
8.904,0.9999999999999999,0.8651178674384964
8.911999999999999,1.0,0.2866593123991668
8.92,0.9999999999999999,-0.2918956598824715
8.928,0.9999999999999998,-0.8705390633000494
8.936,0.9999999999999999,-1.4492628990985106
8.943999999999999,1.0,-2.028059157146452
8.952,0.9999999999999999,-2.6069198172117583
8.96,1.0,-3.185836850240573
8.968,0.9999999999999999,-3.764802219639721
8.975999999999999,0.9999999999999999,-4.343807882561609
8.984,1.0,-4.922845791190643
8.992,0.9999999999999999,-5.501907894031274
9.0,1.0,-6.080986137197688
9.008,1.0,-6.660072465704261
9.016,1.0,-7.239158824755713
9.024000000000001,1.0,-7.81823716103714
9.032,1.0,-8.397299424003974
9.04,1.0,-8.97633756717081
9.048,1.0,-9.555343549398286
9.056000000000001,1.0,-10.134309336178037
9.064,1.0,-10.713226900915746
9.072,1.0,-11.292088226211403
9.08,1.0,-11.870885305135833
9.088000000000001,1.0,-12.449610142503458
9.096,0.9999999999999999,-13.02825475614157
9.104,0.9999999999999999,-13.606811178154983
9.112,1.0,-14.18527145618523
9.120000000000001,1.0,-14.763627654664363
9.128,1.0,-15.341871856063467
9.136,0.9999999999999999,-15.919996162134938
9.144,0.9999999999999999,-16.49799269514761
9.152000000000001,1.0000000000000002,-17.07585359911489
9.16,1.0,-17.65357104101584
9.168,1.0,-18.23113721200854
9.176,1.0,-18.808544328634653
9.184000000000001,1.0,-19.38578463401537
9.192,0.9999999999999999,-19.96285039903881
9.2,1.0,-20.53973392353817
9.208,1.0,-21.116427537459447
9.216000000000001,1.0,-21.69292360201915
9.224,0.9999999999999999,-22.269214510852063
9.232,1.0,-22.8452926911481
9.24,1.0,-23.42115060477752
9.248000000000001,1.0,-23.99678074940464
9.256,1.0,-24.572175659590265
9.264,1.0,-25.14732790788184
9.272,1.0,-25.72223010589072
9.280000000000001,0.9999999999999999,-26.29687490535662
9.288,0.9999999999999999,-26.871254999199483
9.296,1.0,-27.44536312255798
9.304,0.9999999999999999,-28.01919205381382
9.312000000000001,1.0,-28.592734615602172
9.32,0.9999999999999999,-29.16598367580835
9.328,0.9999999999999998,-29.738932148549992
9.336,1.0,-30.311572995144147
9.344,1.0,-30.883899225059114
9.352,1.0,-31.4559038968525
9.36,1.0,-32.027580119091894
9.368,1.0,-32.59892105126188
9.376,1.0,-33.16991990465334
9.384,1.0,-33.74056994323865
9.392,1.0,-34.3108644845285
9.4,0.9999999999999998,-34.88079690041469
9.408,1.0000000000000002,-35.45036061799389
9.416,1.0,-36.01954912037707
9.424,1.0,-36.588355947479755
9.432,0.9999999999999999,-37.15677469679748
9.44,1.0,-37.7247990241618
9.448,1.0,-38.29242264448136
9.456,1.0000000000000002,-38.85963933246325
9.464,0.9999999999999999,-39.426442923319
9.472,0.9999999999999999,-39.99282731345106
9.48,1.0,-40.558786461123326
9.488,1.0000000000000002,-41.12431438711215
9.496,1.0,-41.68940517534142
9.504,1.0000000000000002,-42.254052973497636
9.512,1.0,-42.818251993629225
9.52,0.9999999999999999,-43.381996512725685
9.528,1.0,-43.945280873280865
9.536,0.9999999999999999,-44.50809948383603
9.544,1.0,-45.070446819506955
9.552,0.9999999999999999,-45.63231742249094
9.56,1.0,-46.19370590255767
9.568,1.0,-46.75460693752017
9.576,1.0,-47.31501527368948
9.584,1.0,-47.87492572630952
9.592,1.0,-48.434333179975795
9.6,1.0,-48.99323258903433
9.608,1.0,-49.55161897796451
9.616,1.0,-50.109487441742175
9.624,1.0,-50.66683314618703
9.632,1.0,-51.2236513282901
9.64,1.0000000000000002,-51.77993729652583
9.648,1.0,-52.33568643114442
9.656,1.0,-52.890894184448854
9.664,1.0,-53.44555608105257
9.672,1.0,-53.9996677181218
9.68,1.0,-54.55322476559877
9.688,1.0,-55.10622296641012
9.696,1.0,-55.65865813665613
9.704,1.0,-56.210526165785375
9.712,0.9999999999999999,-56.76182301675079
9.72,0.9999999999999999,-57.312544726151046
9.728,1.0,-57.86268740435397
9.736,0.9999999999999999,-58.41224723560543
9.744,0.9999999999999999,-58.96122047812034
9.752,1.0,-59.509603464159994
9.76,0.9999999999999999,-60.05739260009147
9.768,0.9999999999999999,-60.604584366433656
9.776,0.9999999999999999,-61.15117531788591
9.784,1.0,-61.697162083343656
9.792,1.0,-62.242541365896955
9.8,1.0,-62.78730994281627
9.808,1.0,-63.331464665521835
9.816,1.0,-63.87500245954041
9.824,1.0,-64.41792032444609
9.832,1.0,-64.96021533378898
9.84,1.0,-65.50188463500828
9.847999999999999,1.0,-66.04292544933351
9.856,0.9999999999999999,-66.5833350716713
9.864,0.9999999999999999,-67.12311087047908
9.872,1.0,-67.66225028762655
