freq,mag,phase
6.0,0.9994938574653296,141.21575347176707
6.002287616,0.9995065759027305,141.08030819728344
6.004575232,0.99955108176621,140.94450183504887
6.006862848,0.9996242613530624,140.80790369094157
6.009150464,0.9997216148305342,140.67007048657047
6.011438592,0.9998369058259609,140.53081191764767
6.013726208,0.999962759571548,140.38983888072934
6.016013824,1.0000914070249907,140.2470546706015
6.01830144,1.0002143707864752,140.10248796158706
6.020589056,1.00032423718662,139.95630735520916
6.022876672,1.0004135336339273,139.8086842885953
6.025164288,1.0004769472969395,139.66007557262677
6.027451904,1.000510279617235,139.51075963722133
6.029740032,1.0005114377263011,139.36123514823842
6.032027648,1.0004802402188757,139.21201274510148
6.034315264,1.0004187423626127,139.06350643233282
6.03660288,1.0003307689374175,138.91615586949433
6.038890496,1.00022173851088,138.77024214724054
6.041178112,1.0000989530124078,138.6260791402046
6.043465728,0.9999698181252381,138.48381539184572
6.045753344,0.9998425387836954,138.34349953329942
6.04804096,0.9997253646048889,138.2049766882603
6.050329088,0.9996256440981699,138.06809449313
6.052616704,0.9995500527219388,137.9325807300384
6.05490432,0.9995030922346261,137.79798655551198
6.057191936,0.9994876704834635,137.66393994079775
6.059479552,0.9995051404367875,137.52988818688692
6.061767168,0.9995542254145372,137.39542370138207
6.064054784,0.9996319484262693,137.26008190197385
6.0663424,0.9997331675605639,137.12351522917834
6.068630016,0.9998517115772133,136.9853854255234
6.070918144,0.9999798844502608,136.84553283159494
6.07320576,1.0001095936060853,136.70386441413896
6.075493376,1.0002327981070338,136.5603501616073
6.077780992,1.0003413007634918,136.41525743064807
6.080068608,1.0004284814663966,136.2687909279057
6.082356224,1.0004886566320172,136.12128045814217
6.08464384,1.0005180538443172,135.97315646192746
6.086931456,1.0005147413523054,135.82493464580344
6.089219584,1.0004789449622555,135.67701210706292
6.0915072,1.0004128174851021,135.5299033804802
6.093794816,1.0003205088741376,135.3839788768256
6.096082432,1.000207956728534,135.23960166472773
6.098370048,1.0000823384791266,135.09701536074667
6.100657664,0.9999514673112196,134.95632797227108
6.10294528,0.9998236492777317,134.8175990699644
6.105232896,0.9997072042635511,134.68068036537073
6.107520512,0.9996093883801637,134.54539854919466
6.10980864,0.9995365976201045,134.4113854299581
6.112096256,0.9994931384909155,134.27828653760807
6.114383872,0.9994821753585578,134.1456687427368
6.116671488,0.999504365971337,134.0129819622734
6.118959104,0.9995580852099264,133.87983574747528
6.12124672,0.999640339185594,133.74572840119288
6.123534336,0.9997456139159385,133.61033209009267
6.125821952,0.9998672013132159,133.4732853759647
6.128109568,0.9999976356193008,133.33451198254352
6.130397696,1.0001284119186955,133.19385721033115
6.132685312,1.0002515573563266,133.05145248441434
6.134972928,1.0003588199856,132.90736840181359
6.137260544,1.0004434415440928,132.76193965850658
6.13954816,1.000500332492149,132.61555875876277
6.141835776,1.0005254797278214,132.46860573714355
6.144123392,1.000517569811989,132.32158145961895
6.146411008,1.000476894653485,132.1749762545881
6.148699136,1.000406053066673,132.02919842987743
6.150986752,1.0003095798885309,131.88471993291034
6.153274368,1.0001934396814411,131.74181026577557
6.155561984,1.000065045681348,131.60076713929814
6.1578496,0.999932608050376,131.4616175502615
6.160137216,0.9998045566308789,131.32445938776965
6.162424832,0.9996888257745914,131.18911985592078
6.164712448,0.9995930873541959,131.05535895104293
6.167000064,0.9995231662787268,130.92286261736567
6.169288192,0.9994837581045456,130.79122019157535
6.171575808,0.9994773681748743,130.65994078107332
6.173863424,0.999504323591939,130.52860942683714
6.17615104,0.9995630217714666,130.3966979490755
6.178438656,0.9996497593285268,130.26375682886703
6.180726272,0.9997589575978758,130.12945140703943
6.183013888,0.9998837089447156,129.99349312611992
6.185301504,1.0000161591797783,129.8557399654837
6.18758912,1.0001478628415004,129.71606182572734
6.189877248,1.0002705095192699,129.57461551943908
6.192164864,1.0003762141379287,129.4315627284649
6.19445248,1.0004583029015008,129.28715233842738
6.196740096,1.0005114849955454,129.1418266784525
6.199027712,1.000532381341718,128.99600269024938
6.201315328,1.0005196847665798,128.8501933627331
6.203602944,1.000473986576342,128.7048239079562
6.20589056,1.0003983873261195,128.5603853131065
6.208178688,1.0002975799731535,128.41731614377576
6.210466304,1.000177868622614,128.275877388709
6.21275392,1.0000469870758988,128.13625900491084
6.215041536,0.9999132040317669,127.99866927844396
6.217329152,0.9997847365568511,127.8630193006651
6.219616768,0.9996702396714676,127.7291887257891
6.221904384,0.9995765986030327,127.59693388127633
6.224192,0.9995099811587268,127.46590153786043
6.226479616,0.9994746602114564,127.33566788291367
6.228767744,0.999473041738347,127.2057666947191
6.23105536,0.9995049074982398,127.07565285351883
6.233342976,0.9995684967998393,126.94492415250252
6.235630592,0.9996597429715434,126.81312149512496
6.237918208,0.9997730520390217,126.67987792538567
6.240205824,0.9999008882873128,126.54495569787208
6.24249344,1.0000352833871913,126.40809935924969
6.244781056,1.0001677851518977,126.26940613862467
6.247068672,1.000289960854475,126.12887835366764
6.2493568,1.0003937675522372,125.98675891308336
6.251644416,1.0004730340485046,125.84334992709945
6.253932032,1.0005223540417854,125.69906733929886
6.256219648,1.000538694236434,125.5543494208699
6.258507264,1.000520985453907,125.40967919632547
6.26079488,1.000470435190081,125.26553533844529
6.263082496,1.0003898860209999,125.12243658953453
6.265370112,1.000284795433899,124.98067853405907
6.26765824,1.0001616597481255,124.84064988368439
6.269945856,1.0000283499318285,124.70253260490648
6.272233472,0.9998930697588896,124.5664409926407
6.274521088,0.9997648476711408,124.43226218221544
6.276808704,0.9996513216824924,124.29993920490061
6.27909632,0.9995604164269519,124.16914409533999
6.281383936,0.9994973300591172,124.03951206238207
6.283671552,0.9994663246019616,123.91062034052925
6.285959168,0.9994694302361394,123.78198016951784
6.288247296,0.9995064736560406,123.65309233008823
6.290534912,0.999575143578387,123.52350083624752
6.292822528,0.9996711502974474,123.39276896683876
6.295110144,0.9997882042896719,123.2604950832289
6.29739776,0.9999190230339996,123.1264814283444
6.299685376,1.000055304562997,122.99059022960957
6.301972992,1.000188257003925,122.85275938196779
6.304260608,1.0003096527915907,122.71312888752223
6.306548224,1.0004116357290682,122.57194515491409
6.308836352,1.0004874659875727,122.42945223247871
6.311123968,1.000532806269247,122.2861689924757
6.313411584,1.00054437378147,122.14249774494955
6.3156992,1.0005216004747854,121.99895238679545
6.317986816,1.0004657671773673,121.85603774919714
6.320274432,1.0003804561892184,121.71416295196771
6.322562048,1.000271041035824,121.57375004505316
6.324849664,1.0001444338802932,121.43512010257929
6.327137792,1.0000086246109574,121.2984551499354
6.329425408,0.9998723534318725,121.16379117763891
6.331713024,0.9997442234355921,121.03108993339289
6.33400064,0.9996324200774266,120.90021691672388
6.336288256,0.9995439800792727,120.77083528526938
6.338575872,0.9994848054804825,120.64255670277122
6.340863488,0.9994582769811453,120.51497981123549
6.343151104,0.9994665071296273,120.38754758064971
6.34543872,0.9995088987772335,120.2598292324335
6.347726848,0.9995826301217493,120.13132390958653
6.350014464,0.999683136563697,120.00157410265116
6.35230208,0.9998041143810535,119.8702548123468
6.354589696,0.9999377323880083,119.73714097206374
6.356877312,1.0000756557874717,119.60209392621672
6.359164928,1.0002091800511534,119.46511089772876
6.361452544,1.000329516105225,119.32630067585676
6.36374016,1.0004292309547833,119.18596354025091
6.366027776,1.000501812000763,119.04442492036438
6.368315904,1.0005427523212078,118.90207167222532
6.37060352,1.0005494679631546,118.75943161262838
6.372891136,1.000521451358396,118.61698066850607
6.375178752,1.000460284954713,118.47519495098388
6.377466368,1.0003700295661015,118.33457923068045
6.379753984,1.0002563396369493,118.19548086944859
6.3820416,1.0001263648589318,118.05820721638119
6.384329216,0.9999883909006374,117.9229063977215
6.386617344,0.9998511560506753,117.78968029039727
6.38890496,0.9997234374754017,117.65839104285114
6.391192576,0.9996133140532562,117.52893659636567
6.393480192,0.9995278598909155,117.40091262567084
6.395767808,0.9994725469558712,117.2739712883721
6.398055424,0.9994508373979489,117.14761873175188
6.40034304,0.9994643311103568,117.02140790522306
6.402630656,0.9995121127661368,116.89476657779782
6.404918272,0.9995910598157138,116.76727089477679
6.4072064,0.9996962110468794,116.63849122706505
6.409494016,0.9998210346615982,116.50804452523482
6.411781632,0.9999573973068243,116.37576736384484
6.414069248,1.0000967547628816,116.24150275086464
6.416356864,1.0002303615517736,116.10531050815072
6.41864448,1.0003494549207943,115.96730663046576
6.420932096,1.0004467047962264,115.82779698967165
6.423219712,1.0005157822865776,115.68709002823739
6.425507328,1.000552304620945,115.54566636221485
6.427795456,1.0005538740730597,115.40399861564075
6.430083072,1.000520352386106,115.26260221363546
6.432370688,1.0004539389167477,115.12195943064972
6.434658304,1.000358623479766,114.9825661575876
6.43694592,1.0002407348826556,114.84474940896759
6.439233536,1.000107498154676,114.70878685667311
6.441521152,0.9999675531320762,114.5748640551879
6.443808768,0.9998294754801098,114.44300171318731
6.446096896,0.9997024121982523,114.31313164869239
6.448384512,0.9995943926167409,114.1850041666572
6.450672128,0.9995120344387446,114.05832087641328
6.452959744,0.9994608738541022,113.93263206425509
6.45524736,0.9994443036309119,113.8074737347368
6.457534976,0.9994631143986407,113.68237420951034
6.459822592,0.9995162390390826,113.55681355706213
6.462110208,0.9996004478389591,113.43025832375068
6.464397824,0.9997103150729532,113.30234533182794
6.466685952,0.9998387870643554,113.17275219869984
6.468973568,0.9999777530541795,113.04123038856214
6.471261184,1.0001185900984657,112.90775023724139
6.4735488,1.0002521236200648,112.77225393699793
6.475836416,1.0003697395987903,112.63500214348552
6.478124032,1.0004642781350914,112.49625194810635
6.480411648,1.0005294544079875,112.35637477295002
6.482699264,1.0005612132410107,112.2158338793628
6.48498688,1.0005573367039775,112.07511545263728
6.487275008,1.000518379697187,111.93474515697727
6.489562624,1.0004465215439606,111.7952281655293
6.49185024,1.0003463053083128,111.65697134511676
6.494137856,1.0002242078401211,111.52039612044013
6.496425472,1.0000877776840533,111.38574829963589
6.498713088,0.9999457952990934,111.25316371310457
6.501000704,0.9998072588284583,111.12265701779033
6.50328832,0.9996810859486153,110.99413051941114
6.505576448,0.9995751809613475,110.86730699062664
6.507864064,0.999496397313195,110.74188198518537
6.51015168,0.9994497276292847,110.61744757063144
6.512439296,0.9994382081295022,110.49344436596981
6.514726912,0.9994626209959785,110.36942432228167
6.517014528,0.9995213627939378,110.24481507718683
6.519302144,0.9996108357157025,110.11917473864501
6.52158976,0.9997252657518072,109.99211582881055
6.523877376,0.9998574028494158,109.86326561581112
6.526165504,0.9999990279564487,109.73247779314642
6.52845312,1.0001407916336955,109.59965997126615
6.530740736,1.0002741052254487,109.46485551894844
6.533028352,1.0003901050526787,109.32831649473187
6.535315968,1.000481567571592,109.19029606755754
6.537603584,1.0005426945238478,109.05117114849921
6.5398912,1.0005694859695948,108.9114787861642
6.542178816,1.0005603021666758,108.77167878538997
6.544466432,1.000515501761122,108.63230511906742
6.54675456,1.0004382065347721,108.49386440339828
6.549042176,1.0003328868931867,108.35676608990167
6.551329792,1.0002066704678452,108.22139446172311
6.553617408,1.0000672390066683,108.08801522256955
6.555905024,0.9999235307048397,107.95672906520379
6.55819264,0.9997847291828273,107.82752021737558
6.560480256,0.9996595532180652,107.70029307192745
6.562767872,0.9995561543336325,107.57478241681446
6.565056,0.999481104011332,107.4505788528327
6.567343616,0.999439089517375,107.32729649082081
6.569631232,0.9994328247479014,107.20441771252355
6.571918848,0.9994630605427584,107.08137094756889
6.574206464,0.9995275091693901,106.95770042725731
6.57649408,0.9996222901546216,106.83291761951807
6.578781696,0.9997412500147005,106.70660669482407
6.581069312,0.9998769987539619,106.5784693327301
6.583356928,1.0000208267331867,106.4483479777734
6.585645056,1.0001636711707136,106.31617605996402
6.587932672,1.0002964285370508,106.18201823323481
6.590220288,1.0004104933873463,106.04610870061641
6.592507904,1.0004987546581334,105.90874749788166
6.59479552,1.0005553938833742,105.77041439216217
6.597083136,1.000577106717691,105.63150855738844
6.599370752,1.0005622260367595,105.49258776742961
6.601658368,1.0005116251694215,105.3541656134037
6.603945984,1.0004286901932564,105.21677065813384
6.606234112,1.0003185393918714,105.0807959599987
6.608521728,1.0001881229151866,104.94662115134257
6.610809344,1.0000459029243827,104.81446317174283
6.61309696,0.9999005830378208,104.68442845602806
6.615384576,0.9997617161358866,104.5565059262412
6.617672192,0.9996379446439557,104.43055388373878
6.619959808,0.9995373060656482,104.3062377803166
6.622247424,0.9994660834030362,104.18327677115819
6.624535552,0.999429029753478,104.06107463483303
6.626823168,0.9994283840073328,103.93924418175781
6.629110784,0.9994643208921223,103.81714766081122
6.6313984,0.9995345050880031,103.6943571195055
6.633686016,0.9996346176923995,103.57036484527633
6.635973632,0.9997583248477373,103.44474712001136
6.638261248,0.9998975151582291,103.31726831711748
6.640548864,1.0000435532861187,103.18776053908103
6.64283648,1.0001870200510081,103.05615264960453
6.645124608,1.0003188785024566,102.92256688251656
6.647412224,1.0004308535856437,102.78727044309407
6.64969984,1.0005155167248891,102.65058074722192
6.651987456,1.000567685825195,102.51291529072856
6.654275072,1.0005839509458772,102.37477093633285
6.656562688,1.0005632102979847,102.23671053695588
6.658850304,1.000506830506099,102.0992648581953
6.66113792,1.0004182715545575,101.96286410851286
6.663426048,1.000303173703618,101.82799045220659
6.665713664,1.0001687688293786,101.69496855142441
6.66800128,1.0000236808907423,101.56400326007105
6.670288896,0.9998769970801121,101.43520274432818
6.672576512,0.9997382357216572,101.30849379823906
6.674864128,0.999616204164532,101.1837735787449
6.677151744,0.9995185049233843,101.06067347103244
6.67943936,0.999451543806546,100.93881610413442
6.681726976,0.9994196841070981,100.81768819279127
6.684015104,0.9994248917379389,100.69683732663314
6.68630272,0.999466756508908,100.5756573937907
6.688590336,0.9995427248664668,100.45365792071303
6.690877952,0.9996482199460611,100.33037372371324
6.693165568,0.9997763734637803,100.20539510385115
6.695453184,0.9999188502246913,100.07853741352463
6.6977408,1.000066896306819,99.94954374537731
6.700028416,1.0002107939356284,99.81851978467219
6.702316032,1.000341716017462,99.68548356348407
6.70460416,1.0004511863856873,99.55071138896089
6.706891776,1.0005320461031837,99.41463123364996
6.709179392,1.00057945079404,99.27761332311341
6.711467008,1.0005901312246324,99.14022070559358
6.713754624,1.0005634246955513,99.00296575162291
6.71604224,1.000500937401097,98.86640595335408
6.718329856,1.0004066880520632,98.73102262234133
6.720617472,1.000286658958709,98.59716023456438
6.7229056,1.0001484293314327,98.46529262726914
6.725193216,1.0000007187756232,98.33550139800167
6.727480832,0.9998529144294805,98.20790270933206
6.729768448,0.9997145503301846,98.08241539568907
6.732056064,0.9995943144760273,97.95885609388199
6.73434368,0.9994999537894292,97.83691610719204
6.736631296,0.9994375166894772,97.71611069564068
6.738918912,0.9994109293482081,97.59604778654608
6.741206528,0.999422010140667,97.47607329056525
6.743494656,0.9994701361870374,97.35574138818718
6.745782272,0.9995520874235845,97.234488579566
6.748069888,0.999662808688505,97.11186155067294
6.750357504,0.9997952217466239,96.98749316891104
6.75264512,0.9999409565224734,96.86117040059922
6.754932736,1.0000907169426234,96.732675014899
6.757220352,1.000235047267797,96.60210169439908
6.759507968,1.0003645588097176,96.46954897931624
6.761795584,1.00047128860837,96.335325992029
6.764083712,1.000548168768992,96.19979181758288
6.766371328,1.0005904765136928,96.06340124436939
6.768658944,1.0005952904395425,95.9267159624007
6.77094656,1.0005624710730934,95.79026248793721
6.773234176,1.0004938815279845,95.65456447196836
6.775521792,1.0003940391674475,95.52010380509635
6.777809408,1.0002691519680018,95.38734923830356
6.780097024,1.0001270838599412,95.25654646848376
6.782385152,0.9999769935587837,95.12787886674163
6.784672768,0.999828425429096,95.00145133035421
6.786960384,0.9996905381724147,94.87712270283596
6.789248,0.9995725713526924,94.75471187394152
6.791535616,0.9994817296387652,94.63384980913288
6.793823232,0.9994239688962634,94.51409042780276
6.796110848,0.9994030082370308,94.39496609636288
6.798398464,0.9994201579670309,94.27589804603497
6.80068608,0.999474510557984,94.15633015050217
6.802974208,0.9995623953720992,94.0357732109877
6.805261824,0.9996784592722323,93.9137670181484
6.80754944,0.9998151361271062,93.78994042615179
6.809837056,0.9999639243957568,93.66404407937321
6.812124672,1.0001152015782024,93.53601925430996
6.814412288,1.0002594868595607,93.40586796593202
6.816699904,1.0003875929620787,93.27375741442881
6.81898752,1.0004912194117823,93.13998950301898
6.821275136,1.0005638059522617,93.0049874957551
6.823563264,1.0006007561680286,92.86917447829828
6.82585088,1.0005996115902385,92.73318573719446
6.828138496,1.000560525573067,92.5974710170247
6.830426112,1.0004858783654393,92.46260695496278
6.832713728,1.0003801847996197,92.32912025498574
6.835001344,1.0002505296731192,92.19731962914665
6.83728896,1.0001048877019447,92.06758714823891
6.839576576,0.9999525160904801,91.94005445891457
6.841864704,0.9998032466311074,91.81474114504661
6.84415232,0.9996663138206535,91.6915515906067
6.846439936,0.9995508342229139,91.5702335579122
6.848727552,0.9994638814548058,91.45041018533996
6.851015168,0.9994110763891254,91.33165777750759
6.853302784,0.9993960299230913,91.21342959200122
6.8555904,0.9994193905885215,91.09517427115286
6.857878016,0.9994799749402933,90.97632472583688
6.860165632,0.9995738999453346,90.85638591452503
6.86245376,0.9996951625926924,90.73491239464676
6.864741376,0.9998361199809748,90.61156402862842
6.867028992,0.9999878879544408,90.48610027406176
6.869316608,1.0001404531886857,90.35847459609552
6.871604224,1.0002845339551583,90.22869770036044
6.87389184,1.000410559570567,90.09698741996317
6.876179456,1.0005108940005498,89.96364527233065
6.878467072,1.0005789199335218,89.82911260138945
6.880754688,1.0006103278169274,89.69388079335347
6.883042816,1.0006029840234587,89.5584967379862
6.885330432,1.0005575212323652,89.42352620180756
6.887618048,1.000476515168852,89.28948623624214
6.889905664,1.0003654353785576,89.15690148434057
6.89219328,1.0002309162372005,89.02610784176478
6.894480896,1.0000817641509023,88.89739103827507
6.896768512,0.9999275004207865,88.77093113997354
6.899056128,0.9997776479558,88.64670716125804
6.901344256,0.9996420840305708,88.52459478861233
6.903631872,0.9995292372810596,88.40431224956338
6.905919488,0.9994464301126994,88.28550242970705
6.908207104,0.9993988415367072,88.16768928003972
6.91049472,0.9993897316880997,88.0503340236572
6.912782336,0.9994196277364932,87.93281728121787
6.915069952,0.9994867453517859,87.81463250282836
6.917357568,0.999586697333154,87.69526209352519
6.919645184,0.9997130761294433,87.57428039786419
6.921933312,0.9998580972711066,87.45134965099452
6.924220928,1.0000124239931725,87.32626985880744
6.926508544,1.0001662241835831,87.19896863318094
6.92879616,1.0003096874150421,87.06949595551812
