freq,mag,phase
6.0,1.0008168911537234,-22.431503944316596
6.006042112,1.000858196841436,-22.666400339285207
6.012084736,1.0008492616868385,-22.901611693052462
6.018126848,1.0007914667136846,-23.13642358060504
6.02416896,1.0006883486981222,-23.370158259389942
6.030211584,1.0005454061099854,-23.602255188293473
6.036253696,1.0003711422300652,-23.83227124549996
6.04229632,1.0001752673043323,-24.05977479096387
6.048338432,0.999968840562588,-24.28459378502179
6.054380544,0.9997640996486779,-24.50657567298004
6.060423168,0.999572451043044,-24.7258823011752
6.06646528,0.9994049251839097,-24.942799357170834
6.072507392,0.9992712727775653,-25.157670076869522
6.078550016,0.9991789319600926,-25.371001078746346
6.084592128,0.9991334710187512,-25.583495910646896
6.09063424,0.9991375373886059,-25.79568920806206
6.096676864,0.9991907132259945,-26.00839898796661
6.102718976,0.9992900635984939,-26.22219479222977
6.108761088,0.9994300336863754,-26.43766620625437
6.114803712,0.9996024162739927,-26.655375144163497
6.120845824,0.9997975043617945,-26.87571023787314
6.126888448,1.0000042540022993,-27.098838317230282
6.13293056,1.0002105427986594,-27.324877213351254
6.138972672,1.0004047449295743,-27.553740068434355
6.145015296,1.0005756889678354,-27.785182629503772
6.151057408,1.0007137031019848,-28.018827482994094
6.15709952,1.0008107452028183,-28.2541530623939
6.163142144,1.0008613156223072,-28.490529588752675
6.169184256,1.0008625569185665,-28.727351457356573
6.175226368,1.0008140929228284,-28.963896680436054
6.181268992,1.0007189899987254,-29.199510305550316
6.187311104,1.0005824124807523,-29.433620689644094
6.193353728,1.0004125373526704,-29.665639239686925
6.19939584,1.000218540113154,-29.895249445130666
6.205437952,1.0000115925072752,-30.122113542564524
6.211480576,0.9998037832061905,-30.346211262276128
6.217522688,0.9996069429573678,-30.567573435374733
6.2235648,0.9994321516876348,-30.786393619124254
6.229607424,0.999289548939646,-31.003085622588067
6.235649536,0.9991873834001529,-31.218148555685588
6.241691648,0.9991316411792122,-31.432170922721987
6.247734272,0.9991252731469746,-31.645817134587286
6.253776384,0.9991689484506958,-31.85976836455077
6.259818496,0.9992598717526179,-32.07468679498423
6.26586112,0.9993931313281225,-32.29122671575858
6.271903232,0.9995610576782148,-32.50993450478398
6.277945856,0.999754039513478,-32.73117578909183
6.283987968,0.9999609082039523,-32.955227294746344
6.29003008,1.000170037076745,-33.18225301745797
6.296072704,1.0003693056992817,-33.4120760905371
6.302114816,1.0005474935524243,-33.64461844524705
6.308156928,1.0006941540676808,-33.87945796169883
6.314199552,1.0008011082872166,-34.11608665700995
6.320241664,1.0008620694373882,-34.35394609753588
6.326283776,1.0008737236262937,-34.59234825546262
6.3323264,1.0008351822435735,-34.830657731183415
6.338368512,1.0007485719802112,-35.06811533787323
6.344410624,1.0006190467348854,-35.30421651464642
6.350453248,1.0004537174957102,-35.5383146826799
6.35649536,1.0002622499653437,-35.77000863856322
6.362537984,1.0000553617579664,-35.99903725164129
6.368580096,0.9998450075378116,-36.22521370746966
6.374622208,0.999643091904381,-36.448650048824256
6.380664832,0.9994613866067331,-36.66949741690121
6.386706944,0.9993103171982641,-36.88806345156801
6.392749056,0.9991980759785987,-37.10485056524768
6.39879168,0.999131712126257,-37.320483587114374
6.404833792,0.9991147765864762,-37.53560524124919
6.410875904,0.9991484462751552,-37.750873296118655
6.416918528,0.9992305584055935,-37.96701933714486
6.42296064,0.9993567459311647,-38.18464555249205
6.429003264,0.9995195237230197,-38.404323417184386
6.435045376,0.9997097342368596,-38.626504325803616
6.441087488,0.9999164245373646,-38.85149929714904
6.447130112,1.0001278730876981,-39.079427087645584
6.453172224,1.0003320102516453,-39.3102766344492
6.459214336,1.00051708271024,-39.543887613714375
6.46525696,1.0006724755769723,-39.77990425081756
6.471299072,1.0007893222438549,-40.017852841927244
6.477341184,1.0008609468693812,-40.2571517773728
6.483383808,1.00088317351597,-40.49719025367191
6.48942592,1.000854909114189,-40.7372234690613
6.495468032,1.0007773398123239,-40.97656863962592
6.501510656,1.0006553223532906,-41.21462392370498
6.507552768,1.000495411995653,-41.45084208733419
6.513595392,1.0003068456691944,-41.6846976199985
6.519637504,1.0001004869353762,-41.91587608768134
6.525679616,0.9998879411899287,-42.14421657478673
6.53172224,0.9996815341376851,-42.369756963123564
6.537764352,0.9994929586462028,-42.592604452228166
6.543806464,0.9993330751375064,-42.81308368021277
6.549849088,0.9992110375756029,-43.03169992326655
6.5558912,0.9991338756419783,-43.24900736376642
6.561933312,0.9991060450085397,-43.46561311155962
6.567975936,0.999129289460053,-43.68224977599494
6.574018048,0.9992022251904478,-43.899632617795966
6.580060672,0.9993205333891191,-44.11835654015176
6.586102784,0.9994776070785092,-44.339056711899
6.592144896,0.9996646761845679,-44.56222743911627
6.59818752,0.9998706844495747,-44.78813299894896
6.604229632,1.0000841097019422,-45.016967629468496
6.610271744,1.0002926421224503,-45.24882033946198
6.616314368,1.0004843868218551,-45.4835115905401
6.62235648,1.0006483723705322,-45.72067023951951
6.628398592,1.000775112334934,-45.95988666878198
6.634441216,1.0008576071307846,-46.200620569772795
6.640483328,1.0008908828880634,-46.44222745061231
6.64652544,1.0008731512890354,-46.6839973417698
6.652568064,1.0008052557816285,-46.92525775652804
6.658610176,1.0006910681783376,-47.16531126894189
6.6646528,1.0005371260532678,-47.403579651776674
6.670694912,1.0003521550232144,-47.63957769001337
6.676737024,1.0001467449718848,-47.872979279969414
6.682779648,0.999932654509115,-48.10348479017166
6.68882176,0.9997217963181004,-48.331179065022944
6.694863872,0.9995268649519545,-48.55612834476198
6.700906496,0.9993584247316851,-48.778606258080664
6.706948608,0.999226470723666,-48.99907128805213
6.71299072,0.999138472949396,-49.218045337208395
6.719033344,0.9990994814241019,-49.43621071959852
6.725075456,0.9991118891786036,-49.654268554055996
6.73111808,0.9991748484042862,-49.8728861063598
6.737160192,0.9992850215806245,-50.09275444036328
6.743202304,0.9994359989923429,-50.31446062726823
6.749244928,0.9996189894836172,-50.53861818038081
6.75528704,0.9998238195909138,-50.76544406563882
6.761329152,1.0000386930485627,-50.99523501389139
6.767371776,1.000251376483845,-51.22801995071823
6.773413888,1.0004496038282054,-51.46372800369579
6.779456,1.0006218806551854,-51.70206185156102
6.785498624,1.000758695937033,-51.9425684648896
6.791540736,1.0008520115869857,-52.18470339285257
6.797582848,1.0008964630160815,-52.42788780254837
6.803625472,1.0008896433574714,-52.67139797553106
6.809667584,1.0008318247188623,-52.91448001190151
6.815710208,1.000726246028426,-53.1565337499777
6.82175232,1.0005788578831794,-53.396921156043696
6.827794432,1.0003980449043195,-53.635087120545485
6.833837056,1.0001941122199607,-53.8707152847232
6.839879168,0.9999788438294058,-54.10345942615994
6.84592128,0.9997644015062831,-54.33330470186377
6.851963904,0.9995629741822373,-54.56036413054944
6.858006016,0.9993861849631124,-54.784865730244626
6.864048128,0.999244330112455,-55.00721319696049
6.870090752,0.9991451949365326,-55.22794653396001
6.876132864,0.9990949337997711,-55.44771153071679
6.882174976,0.999096166653268,-55.66719387021588
6.8882176,0.9991488341174367,-55.88713074630352
6.894259712,0.9992501447795225,-56.10811730849587
6.900302336,0.9993943327450561,-56.33093463310195
6.906344448,0.9995729786813095,-56.55598507383873
6.91238656,0.9997759598297435,-56.78376883491998
6.918429184,0.9999917087843041,-57.014458609033525
6.924471296,1.0002078575232876,-57.24823839182537
6.930513408,1.0004120961374459,-57.48496760595799
6.936556032,1.0005927648222024,-57.724372999706524
6.942598144,1.0007393567315805,-57.966132577700144
6.948640256,1.0008438343033916,-58.209673008483946
6.95468288,1.0008999182950693,-58.45439342814198
6.960724992,1.000904351616114,-58.69955580188722
6.966767616,1.000856950293315,-58.9445353958897
6.972809728,1.000760437695043,-59.18854327986764
6.97885184,1.000620213432024,-59.431068344038124
6.984894464,1.0004442712363646,-59.67143252325662
6.990936576,1.0002425203660876,-59.909216550936186
6.996978688,1.000026523046206,-60.144245953132966
7.003021312,0.9998087111466643,-60.37631147855145
7.009063424,0.9996014255132054,-60.60552974203912
7.015105536,0.9994165759918279,-60.83206131753355
7.02114816,0.9992647679035336,-61.05634506245297
7.027190272,0.9991545575066247,-61.27887486396864
7.033232384,0.9990927184418674,-61.50025452891654
7.039275008,0.9990821887161764,-61.72124202991191
7.04531712,0.999124290911428,-61.94244025602191
7.051359744,0.9992161984867095,-62.16464861319722
7.057401856,0.9993528418486733,-62.38849625055248
7.063443968,0.9995264165758376,-62.614537392916894
7.069486592,0.9997270366415083,-62.84320141261308
7.075528704,0.999943141616199,-63.074842997546035
7.081570816,1.000162533124367,-63.309539977270695
7.08761344,1.0003724547675652,-63.54725048914601
7.093655552,1.0005610204404853,-63.78775869953629
7.099697664,1.0007175958145005,-64.03072283999256
7.105740288,1.0008330756487118,-64.27560350275117
7.1117824,1.0009009675511429,-64.52183156063164
7.117825024,1.0009171770034564,-64.76870886407453
7.123867136,1.000880838754074,-65.0155226106635
7.129909248,1.000793901496455,-65.26152635290993
7.135951872,1.0006613283070134,-65.50608220121396
7.141993984,1.0004907310164632,-65.74862563928714
7.148036096,1.0002918807970407,-65.98867872864915
7.15407872,1.0000759325447572,-66.22592776970546
7.160120832,0.9998550825001886,-66.46025834808891
7.166162944,0.9996423688757005,-66.69165294898694
7.172205568,0.9994496495073278,-66.9202757060464
7.17824768,0.9992879900867176,-67.14653585744145
7.184289792,0.9991666713214024,-67.37088189185533
7.190332416,0.9990928513938186,-67.59395997249298
7.196374528,0.9990705740093606,-67.81638487539693
7.202417152,0.999101266461013,-68.03896332084403
7.208459264,0.9991833778977008,-68.26237038423251
7.214501376,0.9993119396935027,-68.48730346029964
7.220544,0.9994796545892575,-68.71430831836689
7.226586112,0.9996771610952484,-68.94389674954543
7.232628224,0.9998930737177576,-69.17641677096074
7.238670848,1.0001149742598738,-69.4120123019842
7.24471296,1.0003303365943574,-69.65067714294788
7.250755072,1.0005268222932522,-69.89225033510546
7.256797696,1.0006931505171195,-70.13635949216686
7.262839808,1.000819714107424,-70.38257185604952
7.26888192,1.0008995278204194,-70.63027452976036
7.274924544,1.0009276919806454,-70.8787684963373
7.280966656,1.0009028990252862,-71.12735537425814
7.28700928,1.0008261603532898,-71.37531335460518
7.293051392,1.0007020802441766,-71.6219433880637
7.299093504,1.0005375386465332,-71.86667588986951
7.305136128,1.0003420934277438,-72.10896120764512
7.31117824,1.0001266554127748,-72.3485070631849
7.317220352,0.9999035338660344,-72.58510447471188
7.323262976,0.9996855885096089,-72.81868589617973
7.329305088,0.9994852423131206,-73.04946225908007
7.3353472,0.9993139429855231,-73.27771327824433
7.341389824,0.9991814696218865,-73.50391576537811
7.347431936,0.9990955552483187,-73.72868673355526
7.35347456,0.9990609712464708,-73.95265606194333
7.359516672,0.999080026629093,-74.17659498977426
7.365558784,0.999151577774353,-74.40119970737182
7.371601408,0.9992713876469628,-74.6271825701671
7.37764352,0.9994327206184538,-74.8551641215218
7.383685632,0.9996264748800447,-75.08566778433365
7.389728256,0.9998414735975389,-75.31906580210494
7.395770368,1.0000654111876357,-75.55552450351362
7.40181248,1.0002859174079939,-75.79509670000581
7.407855104,1.000489769562516,-76.03768179634564
7.413897216,1.0006655921169367,-76.282927182663
7.419939328,1.0008034279255331,-76.53040793370232
7.425981952,1.0008953228300563,-76.77953447078164
7.432024064,1.0009358795810395,-77.02963876409906
7.438066688,1.0009228785724718,-77.27999066611858
7.4441088,1.0008570750675958,-77.52987074038931
7.450150912,1.000742103832879,-77.77854384991053
7.456193536,1.0005843321191035,-78.02544175463724
7.462235648,1.000392899948549,-78.26999880626566
7.46827776,1.0001786295326018,-78.51182030371716
7.474320384,0.9999538005852969,-78.75062507489643
7.480362496,0.9997311640188714,-78.9864587556617
7.486404608,0.9995235019221169,-79.21938779556443
7.492447232,0.9993426549108997,-79.44965272268006
7.498489344,0.9991989516661114,-79.67777340315014
7.504531968,0.9991009178183211,-79.9042468688448
7.51057408,0.9990538339559615,-80.12978232956759
7.516616192,0.999060784150037,-80.3550975723425
7.522658816,0.9991212154803031,-80.58091873739566
7.528700928,0.9992315064082267,-80.80799804853008
7.53474304,0.9993858813947356,-81.03692023881239
7.540785664,0.999575198427508,-81.26831175067099
7.546827776,0.9997886292121799,-81.5025307418106
7.552869888,1.0000142320006853,-81.73983471953672
7.558912512,1.0002389397785059,-81.98032389970206
7.564954624,1.0004498886956044,-82.22384118470784
7.570996736,1.000635231471814,-82.47015078991637
7.57703936,1.00078428491087,-82.71885613361756
7.583081472,1.0008883779185682,-82.9693647318049
7.589124096,1.000941661555052,-83.220977251408
7.595166208,1.000941128654812,-83.47309102316281
7.60120832,1.0008865869169923,-83.72482191226835
7.607250944,1.0007812478269427,-83.9755645919711
7.613293056,1.0006310131381646,-84.22457103481652
7.619335168,1.0004443743728733,-84.47133052258069
7.625377792,1.0002320573566428,-84.71543715542776
7.631419904,1.0000059867667555,-84.95655006048207
7.637462016,0.9997792059591806,-85.19462990519567
7.64350464,0.9995645575956804,-85.42972212545237
7.649546752,0.9993744785142611,-85.6620469927821
7.655589376,0.9992196820452631,-85.89205316310753
7.661631488,0.9991092172972041,-86.12028551542365
7.6676736,0.9990492914811904,-86.34740074062857
7.673716224,0.9990435539064465,-86.57410587405151
7.679758336,0.9990922516848735,-86.8011869003602
7.685800448,0.9991926830350004,-87.0293060907464
7.691843072,0.9993390230324651,-87.25923597348897
7.697885184,0.9995232664269234,-87.49146414811555
7.703927296,0.9997345056610278,-87.72649487899511
7.70996992,0.9999610059023156,-87.96459863987488
7.716012032,1.0001896603772618,-88.20589487059088
7.722054144,1.000407487860394,-88.45034863900356
7.728096768,1.0006017895904722,-88.69767686577158
7.73413888,1.000761905410098,-88.9475172428937
7.740181504,1.0008785477157298,-89.19932279135044
7.746223616,1.0009447784366658,-89.452477832494
7.752265728,1.0009570609849292,-89.70617514851969
7.758308352,1.0009143432290566,-89.9597971633019
7.764350464,1.000819414318481,-90.21250745438749
7.770392576,1.000677444487595,-90.4636262451538
7.7764352,1.0004962816136422,-90.71260280927775
7.782477312,1.0002864950875408,-90.95897875911439
7.788519424,1.0000598557293128,-91.2023574279974
7.794562048,0.9998294924532187,-91.44269370406012
7.80060416,0.9996084022741805,-91.67991806294455
7.806646272,0.9994092139678479,-91.91436016865319
7.812688896,0.9992434417510427,-92.14630102697234
7.818731008,0.9991204042687544,-92.37631874880012
7.824773632,0.9990475041381964,-92.60498742649501
7.830815744,0.9990285887880239,-92.8331270513544
7.836857856,0.9990651050506137,-93.06141855888636
7.84290048,0.9991548000234636,-93.29064732984658
7.848942592,0.9992927019129138,-93.52147265924562
7.854984704,0.9994709254211551,-93.75455807153817
7.861027328,0.999679290098465,-93.99039135194187
7.86706944,0.99990597548665,-94.22923938930953
7.873111552,1.0001379709898703,-94.47131873613867
7.879154176,1.0003620960263369,-94.71660486063242
7.885196288,1.0005654068797019,-94.96488544028175
7.891238912,1.0007365733134592,-95.21580747307367
7.897281024,1.0008655336351808,-95.46888361254398
7.903323136,1.0009450494774788,-95.72341929724695
7.90936576,1.000970508432798,-95.97874298838478
7.915407872,1.0009403504103271,-96.23414055782048
7.921449984,1.000856345041865,-96.48875838959798
7.927492608,1.0007232789485727,-96.7419963239779
7.93353472,1.000548447915194,-96.99316345021158
7.939576832,1.0003419846557038,-97.24174427370276
7.945619456,1.0001156000464944,-97.48741771944172
7.951661568,0.9998821958601619,-97.72998587684503
7.95770368,0.9996550043288679,-97.96944366638387
7.963746304,0.9994471500169704,-98.20594312602955
7.969788416,0.9992703630264113,-98.43983317333684
7.97583104,0.9991349216454583,-98.6715910888338
7.981873152,0.9990485114883455,-98.90192073845719
7.987915264,0.9990162454480205,-99.13145493971598
7.993957888,0.9990399097420364,-99.36100938816314
8.0,0.9991182945968681,-99.59126639919113
8.006042112,0.9992469510593397,-99.82305324738304
8.012084736,0.9994183037406021,-100.05695369213464
8.018126848,0.9996231050401734,-100.29349108644121
8.02416896,0.9998492377898384,-100.53308487986273
8.030211584,1.000084028416836,-100.77586633870501
8.036253696,1.0003139672347847,-101.02189671183548
8.04229632,1.0005258538490864,-101.27108667195877
8.048338432,1.00070782788798,-101.52302447110164
8.054380544,1.000849292130181,-101.77725657287053
8.060423168,1.0009422687486491,-102.03314896706578
8.06646528,1.000981359532736,-102.29000553188956
8.072507392,1.0009643151428143,-102.54710830091426
8.078550016,1.0008919729509722,-102.80360773277053
8.084592128,1.0007684489895863,-103.0588652089277
8.09063424,1.0006007992984014,-103.31215340770885
8.096676864,1.0003984972270032,-103.56298642579343
8.102718976,1.0001730274941043,-103.81092784888654
8.108761088,0.9999372393289891,-104.05573002768791
8.114803712,0.9997044048062101,-104.2973530013467
8.120845824,0.9994881292750097,-104.53594063533397
8.126888448,0.9993005466411916,-104.7718155720273
8.13293056,0.999152516225255,-105.00539097563694
8.138972672,0.9990526848441924,-105.23731942408763
8.145015296,0.9990064473385601,-105.46827578943858
8.151057408,0.9990169031094484,-105.69906628925132
8.15709952,0.999083191818856,-105.93038691158365
8.163142144,0.999201805383587,-106.16305797395954
8.169184256,0.9993657926834381,-106.39774183800095
8.175226368,0.9995659505679263,-106.63498270520435
8.181268992,0.9997908884076678,-106.87522908045563
8.187311104,1.0000276965558927,-107.11868860207501
8.193353728,1.0002629984890263,-107.36544789051591
8.19939584,1.0004831209732996,-107.6153999677583
8.205437952,1.0006757598135163,-107.8682543921726
8.211480576,1.0008297109188908,-108.12358994901828
8.217522688,1.0009363426082283,-108.38072735143005
8.2235648,1.000989366866165,-108.63904697908721
8.229607424,1.0009858452710247,-108.89777140754536
8.235649536,1.0009258946953343,-109.15612047813983
8.241691648,1.000812890130692,-109.41332976305975
8.247734272,1.0006531040225513,-109.66871860182168
8.253776384,1.0004556454659241,-109.92172072307727
8.259818496,1.0002318075022787,-110.17188985038226
8.26586112,0.9999943342161127,-110.4188937894025
8.271903232,0.999756510312485,-110.66272536530856
8.277945856,0.9995323083168876,-110.90341853533526
8.283987968,0.9993341293107348,-111.14125057143954
8.29003008,0.9991736690349248,-111.37664267880113
8.296072704,0.9990600521584267,-111.61019003122361
8.302114816,0.9989997805515718,-111.84254783902179
8.308156928,0.998996287490058,-112.07455951317877
8.314199552,0.9990499228013384,-112.30695149614623
8.320241664,0.9991577156761382,-112.54049668607661
8.326283776,0.9993134500516072,-112.77591100967932
8.3323264,0.9995082490024095,-113.01380720363224
8.338368512,0.9997311344781938,-113.25461283178511
8.344410624,0.9999693808340383,-113.49869687854887
8.350453248,1.0002092833464407,-113.74607642514819
8.35649536,1.0004372515570332,-113.99676118271917
8.362537984,1.0006402788314905,-114.25044024989616
8.368580096,1.0008067322518135,-114.50676191895006
8.374622208,1.0009270434905746,-114.76510291142955
8.380664832,1.0009944730309237,-115.02477022130974
8.386706944,1.0010050177321428,-115.28504592606939
8.392749056,1.0009580799487878,-115.54513044398375
8.39879168,1.0008561941404408,-115.80425027223711
8.404833792,1.000705178801969,-116.06169309911897
8.410875904,1.0005135487175976,-116.31683198592026
8.416918528,1.0002921538066976,-116.56919041499799
