freq,mag,phase
6.0,0.9999953163000997,61.63832622164554
6.008,0.9999957131561296,61.46985874629102
6.016,0.9999960924170747,61.30135726753983
6.024,0.9999964544133012,61.132821789698724
6.032,0.9999967994718959,60.964252317290324
6.04,0.9999971279166767,60.795648855053884
6.048,0.9999974400682085,60.62701140794613
6.056,0.9999977362438138,60.458339981141876
6.064,0.9999980167575881,60.28963458003488
6.072,0.999998281920412,60.12089521023851
6.08,0.999998532039965,59.95212187758656
6.088,0.999998767420738,59.783314588133955
6.096,0.9999989883640484,59.61447334815739
6.104,0.9999991951680524,59.44559816415619
6.112,0.999999388127758,59.27668904285284
6.12,0.9999995675350405,59.107745991193916
6.128,0.999999733678654,58.938769016350584
6.136,0.9999998868442465,58.76975812571939
6.144,1.0,58.60071332692291
6.152,0.9999999999999999,58.43163462781047
6.16,0.9999999999999999,58.26252203645873
6.168,0.9999999999999999,58.0933755611725
6.176,1.0,57.92419521048525
6.184,0.9999999999999999,57.75498099315983
6.192,1.0,57.585732918189116
6.2,0.9999999999999999,57.416450994796655
6.208,1.0,57.247135232437316
6.216,1.0,57.07778564079782
6.224,1.0,56.9084022297975
6.232,0.9999999999999998,56.73898500958882
6.24,1.0,56.56953399055801
6.248,0.9999999999999999,56.4000491833257
6.256,0.9999999999999999,56.23053059874743
6.264,1.0,56.060978247914356
6.272,1.0,55.89139214215375
6.28,1.0,55.721772293029574
6.288,0.9999999999999999,55.55211871234307
6.296,0.9999999999999999,55.38243141213338
6.304,1.0,55.212710404678006
6.312,1.0,55.042955702493394
6.32,1.0,54.87316731833547
6.328,1.0,54.703345265200255
6.336,1.0,54.533489556324255
6.344,0.9999999999999999,54.36360020518509
6.352,1.0,54.193677225501965
6.36,0.9999999711862592,54.02372063123621
6.368,0.9999998587836063,53.853730436591725
6.376,0.9999997405973204,53.68370665601558
6.384,0.9999996168237496,53.51364930419836
6.392,0.9999994876565922,53.3435583960748
6.4,0.9999993532869138,53.17343394682411
6.408,0.9999992139031623,53.00327597187062
6.416,0.99999906969118,52.83308448688406
6.424,0.9999989208342225,52.66285950778013
6.432,0.9999987675129711,52.4926010507209
6.44,0.9999986099055478,52.322309132115315
6.448,0.9999984481875317,52.15198376861954
6.456,0.999998282531973,51.98162497713745
6.464,0.9999981131094081,51.81123277482104
6.472,0.9999979400878756,51.64080717907083
6.48,0.9999977636329307,51.470348207536276
6.4879999999999995,0.9999975839076602,51.29985587811618
6.496,0.9999974010726982,51.12933020895904
6.504,0.9999972152862403,50.95877121846354
6.5120000000000005,0.9999970267040603,50.788178925278785
6.52,0.9999968354795244,50.61755334830486
6.5280000000000005,0.9999966417636067,50.44689450669296
6.536,0.999996445704904,50.276202419846
6.5440000000000005,0.9999962474496525,50.10547710741874
6.552,0.9999960471417411,49.93471858931838
6.5600000000000005,0.9999958449227283,49.76392688570454
6.568,0.9999956409318568,49.593102016990066
6.5760000000000005,0.999995435306069,49.42224400384087
6.584,0.9999952281800226,49.25135286717669
6.592,0.9999950196861053,49.080428628170964
6.6,0.9999948099544508,48.909471308251526
6.608,0.9999945991129545,48.73848092910067
6.616,0.9999943872872881,48.567457512655494
6.624,0.9999941746009149,48.39640108110826
6.632,0.9999939611751066,48.2253116569065
6.64,0.9999937471289572,48.05418926275349
6.648,0.9999935325793997,47.883033921608366
6.656,0.9999933176412202,47.7118456566864
6.664,0.9999931024270747,47.54062449145932
6.672,0.9999928870475046,47.369370449655484
6.68,0.9999926716109506,47.19808355526014
6.688,0.9999924562237699,47.026763832515655
6.696,0.9999922409902507,46.85541130592169
6.704,0.9999920260126287,46.684026000235484
6.712,0.9999918113911017,46.51260794047203
6.72,0.9999915972238449,46.341157151904255
6.728,0.9999913836070279,46.16967366006325
6.736,0.9999911706348286,45.99815749073839
6.744,0.9999909583994498,45.826608669977595
6.752,0.9999907469911345,45.65502722408743
6.76,0.9999905364981811,45.483413179633324
6.768,0.9999903270069591,45.311766563439676
6.776,0.9999901186019248,45.140087402590055
6.784,0.9999899113656376,44.96837572442729
6.792,0.9999897053787734,44.79663155655366
6.8,0.9999895007201424,44.62485492683096
6.808,0.999989297466703,44.4530458633807
6.816,0.999989095693579,44.28120439458413
6.824,0.9999888954740735,44.109330549082415
6.832,0.9999886968796856,43.93742435577671
6.84,0.999988499980125,43.765485843828266
6.848,0.9999883048433287,43.59351504265849
6.856,0.9999881115354748,43.42151198194901
6.864,0.9999879201210006,43.24947669164184
6.872,0.9999877306626151,43.07740920193932
6.88,0.9999875432213169,42.90530954330424
6.888,0.9999873578564088,42.73317774645996
6.896,0.9999871746255122,42.56101384239025
6.904,0.9999869935845854,42.38881786233952
6.912,0.9999868147879363,42.21658983781281
6.92,0.9999866382882386,42.04432980057572
6.928,0.9999864641365488,41.87203778265451
6.936,0.9999862923823196,41.699713816336086
6.944,0.999986123073416,41.52735793416799
6.952,0.9999859562561311,41.354970168958424
6.96,0.9999857919752019,41.18255055377621
6.968,0.9999856302738236,41.010099121950724
6.976,0.9999854711936653,40.837615907072
6.984,0.9999853147748858,40.66510094299054
6.992,0.999985161056149,40.49255426381738
7.0,0.9999850100746381,40.31997590392403
7.008,0.9999848618660732,40.147365897942336
7.016,0.9999847164647238,39.97472428076448
7.024,0.9999845739034259,39.802051087542964
7.032,0.9999844342135974,39.629346353690416
7.04,0.9999842974252525,39.45661011487959
7.048,0.9999841635670167,39.28384240704321
7.056,0.9999840326661436,39.111043266373976
7.064,0.9999839047485279,38.93821272932429
7.072,0.9999837798387232,38.76535083260638
7.08,0.9999836579599539,38.59245761319189
7.088,0.9999835391341341,38.41953310831203
7.096,0.999983423381879,38.24657735545727
7.104,0.9999833107225226,38.07359039237721
7.112,0.9999832011741316,37.900572257080555
7.12,0.9999830947535211,37.72752298783484
7.128,0.9999829914762689,37.554442623166274
7.136,0.9999828913567312,37.38133120185964
7.144,0.9999827944080563,37.208188762958045
7.152,0.9999827006422018,37.03501534576284
7.16,0.9999826100699468,36.861810989833266
7.168,0.999982522700909,36.68857573498644
7.176,0.9999824385435584,36.515309621297035
7.184,0.9999823576052325,36.34201268909709
7.192,0.9999822798921505,36.168684978975826
7.2,0.9999822054094291,35.995326531779384
7.208,0.9999821341610965,35.82193738861059
7.216,0.9999820661501071,35.64851759082879
7.224,0.9999820013783566,35.47506718004948
7.232,0.9999819398466967,35.3015861981442
7.24,0.9999818815549485,35.12807468724011
7.248,0.9999818265019186,34.95453268971989
7.256,0.999981774685413,34.78096024822136
7.264,0.9999817261022514,34.607357405637224
7.272,0.9999816807482818,34.43372420511483
7.28,0.9999816386183951,34.26006069005574
7.288,0.9999815997065398,34.08636690411566
7.296,0.999981564005735,33.91264289120389
7.304,0.9999815315080862,33.73888869548319
7.312,0.9999815022047994,33.565104361369336
7.32,0.9999814760861945,33.3912899335309
7.328,0.9999814531417198,33.21744545688884
7.336,0.9999814333599668,33.043570976616145
7.344,0.9999814167286836,32.86966653813759
7.352,0.9999814032347891,32.69573218712927
7.36,0.9999813928643876,32.52176796951833
7.368,0.9999813856027818,32.34777393148248
7.376,0.9999813814344878,32.17375011944976
7.384,0.9999813803432479,31.99969658009808
7.392,0.9999813823120459,31.825613360354822
7.4,0.9999813873231195,31.651500507396502
7.4079999999999995,0.9999813953579748,31.47735806864829
7.416,0.9999814063973996,31.303186091783687
7.4239999999999995,0.9999814204214782,31.128984624724104
7.432,0.9999814374096033,30.95475371563828
7.4399999999999995,0.9999814573404906,30.780493412942175
7.448,0.9999814801921935,30.60620376529816
7.4559999999999995,0.999981505942113,30.43188482161493
7.464,0.999981534567015,30.25753663104672
7.4719999999999995,0.9999815660430424,30.083159242993204
7.48,0.999981600345727,29.90875270709868
7.4879999999999995,0.999981637450005,29.734317073251937
7.496,0.9999816773302285,29.559852391585483
7.504,0.9999817199601795,29.38535871247533
7.5120000000000005,0.9999817653130832,29.21083608654024
7.52,0.999981813361621,29.036284564641573
7.5280000000000005,0.999981864077942,28.861704197882375
7.536,0.9999819174336789,28.68709503760729
7.5440000000000005,0.9999819733999582,28.512457135401693
7.552,0.9999820319474148,28.337790543091465
7.5600000000000005,0.9999820930462034,28.16309531274222
7.568,0.9999821566660128,27.988371496659003
7.5760000000000005,0.9999822227760776,27.813619147385516
7.584,0.99998229134519,27.63883831770386
7.5920000000000005,0.9999823623417152,27.464029060633646
7.6,0.9999824357336006,27.28919142943182
7.6080000000000005,0.9999825114883902,27.114325477591713
7.616,0.9999825895732368,26.93943125884286
7.6240000000000006,0.9999826699549138,26.764508827150042
7.632,0.9999827525998278,26.589558236713092
7.640000000000001,0.9999828374740307,26.41457954196595
7.648,0.9999829245432323,26.239572797576372
7.656000000000001,0.9999830137728117,26.064538058445084
7.664,0.9999831051278295,25.889475379705427
7.672,0.9999831985730399,25.714384816722493
7.68,0.9999832940729029,25.53926642509271
7.688,0.9999833915915955,25.364120260643134
7.696,0.9999834910930241,25.188946379430806
7.704,0.999983592540836,25.01374483774218
7.712,0.9999836958984301,24.838515692092436
7.72,0.9999838011289701,24.663258999224844
7.728,0.9999839081953946,24.487974816110164
7.736,0.9999840170604298,24.312663199945884
7.744,0.9999841276866002,24.13732420815567
7.752,0.9999842400362389,23.961957898388622
7.76,0.9999843540715007,23.786564328518665
7.768,0.9999844697543725,23.61114355664379
7.776,0.9999845870466835,23.435695641085456
7.784,0.9999847059101177,23.26022064038784
7.792,0.9999848263062238,23.08471861331715
7.8,0.9999849481964265,22.909189618860957
7.808,0.9999850715420371,22.733633716227466
7.816,0.9999851963042649,22.558050964844778
7.824,0.9999853224442266,22.38244142436022
7.832,0.9999854499229575,22.206805154639596
7.84,0.9999855787014231,22.03114221576647
7.848,0.9999857087405277,21.855452668041412
7.856,0.999985840001126,21.679736571981273
7.864,0.9999859724440326,21.50399398831846
7.872,0.9999861060300332,21.328224978000144
7.88,0.9999862407198934,21.15242960218754
7.888,0.9999863764743703,20.976607922255116
7.896,0.999986513254221,20.80075999978988
7.904,0.9999866510202136,20.624885896590555
7.912,0.9999867897331366,20.448985674666808
7.92,0.9999869293538083,20.273059396238516
7.928,0.9999870698430873,20.09710712373493
7.936,0.9999872111618812,19.921128919793915
7.944,0.999987353271157,19.74512484726112
7.952,0.9999874961319498,19.56909496918923
7.96,0.9999876397053722,19.39303934883711
7.968,0.9999877839526241,19.216958049669024
7.976,0.9999879288350014,19.0408511353538
7.984,0.9999880743139054,18.864718669764045
7.992,0.9999882203508516,18.68856071697525
8.0,0.9999883669074787,18.512377341265037
8.008,0.9999885139455577,18.336168607112302
8.016,0.9999886614270002,18.159934579196307
8.024000000000001,0.9999888093138672,17.98367532239595
8.032,0.9999889575683785,17.807390901788906
8.04,0.9999891061529201,17.63108138265061
8.048,0.9999892550300532,17.454746830453555
8.056000000000001,0.9999894041625226,17.278387310866446
8.064,0.9999895535132645,17.102002889753283
8.072,0.9999897030454155,16.925593633172426
8.08,0.9999898527223197,16.74915960737575
8.088000000000001,0.9999900025075376,16.572700878807904
8.096,0.9999901523648537,16.3962175141053
8.104,0.9999903022582839,16.219709580095163
8.112,0.9999904521520837,16.043177143794722
8.120000000000001,0.9999906020107558,15.866620272410396
8.128,0.9999907517990579,15.690039033336786
8.136,0.9999909014820099,15.513433494155722
8.144,0.9999910510249005,15.336803722635429
8.152000000000001,0.9999912003932964,15.160149786729654
8.16,0.9999913495530475,14.983471754576726
8.168,0.9999914984702957,14.806769694498522
8.176,0.9999916471114804,14.630043674999618
8.184000000000001,0.9999917954433473,14.453293764766457
8.192,0.9999919434329525,14.276520032666323
8.2,0.9999920910476724,14.09972254774633
8.208,0.9999922382552083,13.922901379232563
8.216000000000001,0.9999923850235934,13.746056596529193
8.224,0.9999925313211997,13.569188269217488
8.232,0.9999926771167437,13.392296467054745
8.24,0.9999928223792937,13.215381259973423
8.248000000000001,0.9999929670782745,13.038442718080287
8.256,0.9999931111834754,12.861480911655324
8.264,0.9999932546650547,12.684495911150737
8.272,0.9999933974935462,12.507487787190026
8.280000000000001,0.9999935396398651,12.330456610567111
8.288,0.9999936810753133,12.153402452245276
8.296,0.9999938217715857,11.976325383356096
8.304,0.999993961700775,11.799225475198554
8.312,0.9999941008353781,11.622102799238144
8.32,0.9999942391483004,11.444957427105642
8.328,0.9999943766128613,11.267789430596395
8.336,0.9999945132028005,11.090598881669036
8.344,0.9999946488922812,10.91338585244478
8.352,0.9999947836558968,10.736150415206119
8.36,0.9999949174686745,10.558892642396135
8.368,0.9999950503060807,10.381612606617157
8.376,0.9999951821440256,10.204310380630103
8.384,0.9999953129588678,10.026986037353108
8.392,0.9999954427274189,9.849639649860848
8.4,0.999995571426947,9.672271291383215
8.408,0.9999956990351825,9.494881035304576
8.416,0.9999958255303212,9.317468955162472
8.424,0.9999959508910287,9.140035124646886
8.432,0.999996075096444,8.962579617598875
8.44,0.9999961981261845,8.785102508009926
8.448,0.9999963199603487,8.60760387002052
8.456,0.9999964405795203,8.430083777919469
8.464,0.9999965599647717,8.252542306142542
8.472,0.9999966780976677,8.074979529271726
8.48,0.9999967949602689,7.897395522033896
8.488,0.9999969105351347,7.719790359300055
8.496,0.999997024805327,7.542164116083994
8.504,0.999997137754413,7.364516867541538
8.512,0.9999972493664678,7.186848688969193
8.52,0.9999973596260782,7.009159655803395
8.528,0.9999974685183446,6.831449843619147
8.536,0.999997576028885,6.65371932812927
8.544,0.9999976821438357,6.475968185183032
8.552,0.999997786849856,6.298196490765395
8.56,0.9999978901341287,6.120404320995641
8.568,0.999997991984363,5.942591752126625
8.576,0.9999980923887983,5.764758860543372
8.584,0.9999981913362037,5.586905722762355
8.592,0.9999982888158814,5.4090324154300795
8.6,0.999998384817669,5.231139015322348
8.608,0.9999984793319405,5.053225599342854
8.616,0.9999985723496084,4.875292244522435
8.624,0.999998663862125,4.697339028017672
8.632,0.9999987538614841,4.519366027110137
8.64,0.9999988423402232,4.341373319204978
8.648,0.9999989292914232,4.163360981830179
8.656,0.9999990147087109,3.9853290926351495
8.664,0.9999990985862595,3.8072777293899525
8.672,0.9999991809187899,3.629206969983916
8.68,0.9999992617015719,3.4511168924248534
8.688,0.9999993409304241,3.273007574837673
8.696,0.9999994186017158,3.094879095463596
8.704,0.999999494712366,2.916731532658758
8.712,0.9999995692598461,2.738564964893434
8.72,0.9999996422421782,2.560379470750637
8.728,0.9999997136579374,2.382175128925336
8.736,0.9999997835062492,2.2039520182230565
8.744,0.9999998517867934,2.0257102175591033
8.752,0.9999999184998009,1.8474498059571445
8.76,0.9999999836460547,1.6691708625484474
8.768,0.9999999999999999,1.4908734665704573
8.776,0.9999999999999999,1.3125576973660293
8.784,1.0,1.1342236343820102
8.792,1.0,0.9558713571684656
8.8,0.9999999999999999,0.7775009453772667
8.808,1.0,0.5991124787613109
8.815999999999999,0.9999999999999999,0.42070603717315225
8.824,0.9999999999999999,0.2422817005640216
8.832,0.9999999999999999,0.06383954898281365
8.84,0.9999999999999999,-0.11462033742509092
8.847999999999999,0.9999999999999999,-0.29309787841899726
8.856,0.9999999999999999,-0.47159299366391355
8.864,0.9999999999999999,-0.6501056027315677
8.872,0.9999999999999999,-0.8286356251015795
8.879999999999999,1.0,-1.0071829801626375
8.888,0.9999999999999999,-1.1857475872135117
8.896,1.0,-1.364329365464071
8.904,0.9999999999999999,-1.5429282340364507
8.911999999999999,1.0,-1.7215441119662334
8.92,0.9999999999999999,-1.900176918203454
8.928,0.9999999999999999,-2.078826571613619
8.936,0.9999999999999999,-2.257492990978876
8.943999999999999,1.0,-2.4361760949991784
8.952,0.9999999999999999,-2.6148758022933047
8.96,0.9999999999999999,-2.7935920313998674
8.968,1.0,-2.97232470077847
8.975999999999999,0.9999999999999999,-3.151073728810889
8.984,0.9999999999999999,-3.3298390338020702
8.992,0.9999999999999999,-3.5086205339811496
9.0,0.9999999999999999,-3.6874181475025942
9.008,1.0,-3.8662317924473917
9.016,0.9999999999999999,-4.045061386824029
9.024000000000001,1.0,-4.223906848569518
9.032,1.0000000000000002,-4.402768095550534
9.04,0.9999999999999999,-4.5816450455645885
9.048,1.0,-4.760537616341025
9.056000000000001,1.0,-4.939445725542003
9.064,0.9999999999999999,-5.11836929076367
9.072,1.0,-5.297308229537309
9.08,1.0,-5.476262459330322
9.088000000000001,0.9999999999999999,-5.655231897547229
9.096,1.0,-5.834216461530813
9.104,1.0,-6.013216068563271
9.112,1.0,-6.192230635867195
9.120000000000001,1.0,-6.371260080606547
9.128,1.0,-6.550304319887825
9.136,1.0,-6.729363270761166
9.144,1.0,-6.908436850221367
9.152000000000001,1.0,-7.087524975208817
9.16,1.0,-7.266627562610662
9.168,0.9999999999999998,-7.4457445292619235
9.176,0.9999999999999998,-7.624875791946465
9.184000000000001,1.0,-7.804021267397964
9.192,1.0,-7.983180872301045
9.2,0.9999999999999999,-8.162354523292363
9.208,0.9999999999999999,-8.341542136961637
9.216000000000001,0.9999999999999999,-8.52074362985252
9.224,1.0,-8.69995891846378
9.232,1.0,-8.879187919250388
9.24,0.9999999999999999,-9.058430548624463
9.248000000000001,1.0,-9.237686722956227
9.256,1.0,-9.416956358575103
9.264,1.0,-9.596239371770828
9.272,1.0,-9.77553567879439
9.280000000000001,1.0,-9.954845195858947
9.288,0.9999999999999999,-10.134167839140945
9.296,1.0,-10.313503524781188
9.304,1.0,-10.49285216888577
9.312000000000001,0.9999999999999999,-10.672213687527021
9.32,1.0,-10.851587996744554
9.328,1.0,-11.030975012546367
9.336,1.0,-11.210374650909747
9.344,1.0,-11.389786827782157
9.352,1.0,-11.569211459082466
9.36,1.0000000000000002,-11.748648460701668
9.368,1.0,-11.928097748504161
9.376,1.0,-12.107559238328376
9.384,1.0,-12.28703284598811
9.392,1.0,-12.466518487273179
9.4,0.9999999999999999,-12.64601607795066
9.408,1.0,-12.825525533765605
9.416,1.0,-13.00504677044225
9.424,1.0,-13.184579703684717
9.432,1.0,-13.364124249178237
9.44,0.9999999999999999,-13.5436803225898
9.448,1.0,-13.723247839569428
9.456,0.9999999999999999,-13.902826715750793
9.464,1.0,-14.082416866752443
9.472,1.0,-14.262018208178475
9.48,1.0,-14.441630655619733
9.488,1.0,-14.621254124654444
9.496,0.9999999999999999,-14.800888530849454
9.504,1.0,-14.980533789760797
9.512,1.0,-15.160189816934993
9.52,1.0,-15.33985652790956
9.528,0.9999999999999999,-15.519533838214294
9.536,1.0,-15.699221663371835
9.544,0.9999999999999999,-15.878919918898864
9.552,1.0,-16.05862852030671
9.56,0.9999999999999999,-16.23834738310253
9.568,0.9999999999999999,-16.418076422789866
9.576,0.9999999999999999,-16.597815554869893
9.584,0.9999999999999998,-16.777564694841917
9.592,1.0,-16.957323758204573
9.6,1.0,-17.137092660456403
9.608,0.9999999999999999,-17.316871317097
9.616,0.9999999999999999,-17.496659643627584
9.624,0.9999999999999999,-17.67645755555212
9.632,0.9999999999999999,-17.856264968377864
9.64,1.0,-18.036081797616585
9.648,1.0,-18.21590795878496
9.656,0.9999999999999999,-18.395743367405835
9.664,1.0,-18.575587939008663
9.672,1.0,-18.755441589130708
9.68,1.0,-18.935304233317467
9.688,1.0,-19.115175787123842
9.696,1.0,-19.295056166114655
9.704,0.9999999999999998,-19.4749452858657
9.712,1.0,-19.65484306196427
9.72,0.9999999999999999,-19.834749410010254
9.728,0.9999999999999999,-20.01466424561661
9.736,1.0,-20.194587484410448
9.744,1.0,-20.374519042033487
9.752,0.9999999999999999,-20.554458834143173
9.76,1.0,-20.734406776413078
9.768,1.0,-20.914362784534028
9.776,1.0,-21.094326774214487
9.784,0.9999999999999999,-21.274298661181685
9.792,1.0,-21.454278361181967
9.8,1.0,-21.634265789981896
9.808,0.9999999999999999,-21.81426086336869
9.816,1.0,-21.994263497151213
9.824,1.0,-22.17427360716038
