freq,mag,phase
6.0,1.0007869627255586,85.2922452713245
6.002286592,1.0006609537624984,85.11910844283334
6.004572672,1.0004946008129634,84.94809866126775
6.006859264,1.0002968226880289,84.77977193625809
6.009145344,1.0000802640196877,84.61443379917046
6.011431936,0.9998583422558023,84.45229888276843
6.013718016,0.9996452431627195,84.29333685342411
6.016004608,0.9994541530159198,84.13735689454565
6.018290688,0.9992974256942174,83.98390362349842
6.02057728,0.999184844260301,83.8324150004267
6.022863872,0.9991236068026197,83.68223891846856
6.025149952,0.9991175455297946,83.53255003577482
6.027436544,0.9991671498846213,83.38256249915776
6.029722624,0.9992692050411396,83.23152411631604
6.032009216,0.9994173660741403,83.07866672005918
6.034295296,0.9996023309803173,82.92343243180581
6.036581888,0.9998122115518322,82.76531027267431
6.03886848,1.0000340841545357,82.6041011861314
6.04115456,1.00025372936271,82.4397114582342
6.043441152,1.0004574538967603,82.27225975971763
6.045727232,1.0006322467671647,82.10208894013975
6.048013824,1.000767273956068,81.92969685716125
6.050299904,1.0008539229466173,81.75570256095203
6.052586496,1.0008866833483243,81.58086638893143
6.054872576,1.0008634540940455,81.40598382599929
6.057159168,1.0007858227672703,81.23182592278695
6.05944576,1.0006585919347444,81.05918617135355
6.06173184,1.0004896171668787,80.88870336722584
6.064018432,1.0002895671393717,80.72090061884717
6.066304512,1.0000710957003385,80.55613095041512
6.068591104,0.9998480160381605,80.39460821062464
6.070877184,0.9996342796462546,80.23625665934624
6.073163776,0.9994434457772644,80.08084826517495
6.075450368,0.9992875355826363,79.92799242333984
6.077736448,0.9991763692175831,79.77710630522762
6.08002304,0.9991171931664189,79.6274668640871
6.08230912,0.9991135230859474,79.47829457676922
6.084595712,0.9991658399555946,79.3288009650199
6.086881792,0.9992706862488449,79.17816720620849
6.089168384,0.9994215600738771,79.02571062884093
6.091454464,0.9996089587587099,78.87080847102085
6.093741056,0.999820983268381,78.71301577180347
6.096027648,1.000044334635535,78.55211432885768
6.098313728,1.0002648513746002,78.387980237459
6.10060032,1.0004687338073806,78.22079191827667
6.1028864,1.0006430117609997,78.05088191186877
6.105172992,1.0007768978203044,77.87873859667744
6.107459072,1.0008616998450786,77.70505095908719
6.109745664,1.0008922277478256,77.53053678270552
6.112032256,1.0008664479197247,77.35598457698366
6.114318336,1.0007858988385654,77.1822239823601
6.116604928,1.000655759968011,77.0100034834801
6.118891008,1.0004841859372875,76.83996804462011
6.1211776,1.0002819211810559,76.67267369808326
6.12346368,1.000061664728468,76.50842602363745
6.125750272,0.9998373343850913,76.34742741098303
6.128036352,0.9996230744722386,76.18964355593837
6.130322944,0.9994323637369547,76.03478147081334
6.132609536,0.999277334111307,75.88247145047819
6.134895616,0.9991677467566956,75.73209801353859
6.137182208,0.9991105697109175,75.58294529987336
6.139468288,0.9991095349696552,75.43424294308703
6.14175488,0.9991645274445214,75.28516520148995
6.14404096,0.9992722294995968,75.13493180772423
6.146327552,0.9994259822634021,74.98279416554891
6.148614144,0.9996158510898092,74.82818808043085
6.150900224,0.9998299731759894,74.67066078394832
6.153186816,1.0000548081747473,74.5099531859897
6.155472896,1.0002762102126257,74.34603537264279
6.157759488,1.000480212256304,74.17904808746374
6.160045568,1.0006540366821612,74.00933911101662
6.16233216,1.000786565965235,73.83740856970155
6.16461824,1.000869497959781,73.66394271432169
6.166904832,1.0008975992203506,73.48969705958795
6.169191424,1.0008691651770776,73.31543108465782
6.171477504,1.00078581351366,73.14199737915904
6.173764096,1.0006528680118418,72.970152335866
6.176050176,1.0004785158154887,72.80052462940174
6.178336768,1.0002739550722064,72.633666262844
6.180622848,1.0000518404966314,72.46989930873089
6.18290944,0.9998262764739889,72.30938530033363
6.18519552,0.9996115639963817,72.15210013412087
6.187482112,0.9994211351789763,71.99776435988575
6.189768704,0.9992669703817136,71.8459322910635
6.192054784,0.9991590610166732,71.69602463805697
6.194341376,0.9991040802545615,71.54732253063516
6.196627456,0.9991055224127896,71.39902138351314
6.198914048,0.9991634697277112,71.2502925513409
6.201200128,0.9992741139036887,71.10037283673036
6.20348672,0.9994306179291123,70.94852136713435
6.205773312,0.9996229641433434,70.79413569905579
6.208059392,0.9998391342078521,70.6368097932098
6.210345984,1.0000656753067334,70.47628462968035
6.212632064,1.000287896480055,70.31251106219274
6.214918656,1.0004920172719582,70.14566093807927
6.217204736,1.0006652884785383,69.97608913543415
6.219491328,1.0007963752999585,69.80431583690414
6.221777408,1.0008775165239072,69.63101073618542
6.224064,1.0009032035954908,69.45695788229216
6.226350592,1.000871956074261,69.282938467343
6.228636672,1.0007856729997366,69.10979371428229
6.230923264,1.0006497755538,68.93824347195802
6.233209344,1.0004728073891496,68.76900077077958
6.235495936,1.0002658111296918,68.60251121017306
6.237782016,1.0000418859457485,68.4391689381202
6.240068608,0.9998151371549802,68.27909328183401
6.2423552,0.9995998696137814,68.12225410205298
6.24464128,0.9994096474555284,67.96836387103237
6.246927872,0.999256666530175,67.81698218229968
6.249213952,0.9991503215556397,67.66747610858756
6.251500544,0.9990975604517347,67.5191622685796
6.253786624,0.9991016669700905,67.37120733019927
6.256073216,0.9991624868654809,67.2227934026417
6.258359296,0.9992761671983548,67.0731244812056
6.260645888,0.9994355743481584,66.92148073474056
6.26293248,0.9996305103677334,66.76727203724694
6.26521856,0.9998488961903058,66.61009896009354
6.267505152,1.000076792629503,66.44967422248953
6.269791232,1.0002998165600727,66.28598932231644
6.272077824,1.0005041103356542,66.11921278663367
6.274363904,1.0006766754232994,65.94971652496363
6.276650496,1.0008064861710106,65.77805194417994
6.278937088,1.0008855935553784,65.60486340724817
6.281223168,1.000908824952223,65.43094956221306
6.28350976,1.0008747292794387,65.25712689033946
6.28579584,1.000785414585782,65.08418790898561
6.288082432,1.0006465082354896,64.91291856758914
6.290368512,1.0004668375875139,64.74395704864412
6.292655104,1.0002574404779458,64.57781761963544
6.294941184,1.0000316118046395,64.41483581848617
6.297227776,0.9998037496326183,64.25515558150421
6.299514368,0.9995880128403003,64.09869834821839
6.301800448,0.9993981043117542,63.94521733756828
6.30408704,0.9992460467452101,63.794203849834204
6.30637312,0.9991414669633388,63.64508290521443
6.308659712,0.9990909525175937,63.497079950579234
6.310945792,0.9990978621603765,63.34942814318746
6.313232384,0.9991615441276935,63.20125758768559
6.315518464,0.9992782831755426,63.05179032504956
6.317805056,0.9994404996304467,62.9003134858067
6.320091648,0.9996380732118101,62.74622939207532
6.322377728,0.9998586122551619,62.58911026138799
6.32466432,1.000088057767045,62.42873637530044
6.3269504,1.000312028413715,62.26507435351733
6.329236992,1.0005163351123387,62.09833954879619
6.331523072,1.0006881429203065,61.92887826297323
6.333809664,1.0008165863154541,61.757221475298216
6.336096256,1.0008935933100496,61.58411541284448
6.338382336,1.0009142838038838,61.41027610738594
6.340668928,1.000877379033655,61.236584326838745
6.342955008,1.0007850689429854,61.06382325757246
6.3452416,1.0006432086076367,60.89275576420281
6.34752768,1.0004606620182013,60.724028313908434
6.349814272,1.0002488869927986,60.558184580244706
6.352100352,1.0000212724997033,60.395509372063
6.354386944,0.9997921940168946,60.23617943117319
6.356673536,0.9995759608397158,60.08004270964973
6.358959616,0.9993865055954679,59.92689480266971
6.361246208,0.9992354582951561,59.776227570068464
6.363532288,0.9991325512693926,59.62739673209178
6.36581888,0.9990844642789126,59.479681567342475
6.36810496,0.9990940549790168,59.33225813638583
6.370391552,0.9991608658277209,59.18429697768996
6.372678144,0.999280573858684,59.034973963307
6.374964224,0.9994457739169181,58.88357865241563
6.377250816,0.9996460035662986,58.72955369077985
6.379536896,0.9998687088198813,58.57245116436057
6.381823488,1.0000996443826795,58.41207376954589
6.384109568,1.0003243881037314,58.24839201680571
6.38639616,1.0005287562929321,58.08162404988801
6.38868224,1.0006997972462788,57.91209993365711
6.390968832,1.0008267806128435,57.74044448678848
6.393255424,1.000901766328652,57.56733578013299
6.395541504,1.000919899217453,57.39355565297157
6.397828096,1.0008799811138864,57.219901354926066
6.400114176,1.0007845117496943,57.04724788080297
6.402400768,1.0006396182573432,56.87635013211594
6.404686848,1.0004541806664695,56.70784484210849
6.40697344,1.0002401293255843,56.54221791109274
6.409260032,1.0000106534863376,56.37981066383793
6.411546112,0.9997802772261645,56.220743721188356
6.413832704,0.9995637106079568,56.06490384241447
6.416118784,0.9993745222673147,55.91204231772559
6.418405376,0.9992246132361716,55.76164432794398
6.420691456,0.9991236151349068,55.61307943583304
6.422978048,0.9990778114131512,55.465577083268585
6.425264128,0.9990902798933585,55.318341028630876
6.42755072,0.9991600889849174,55.17049427093249
6.429837312,0.9992830351628245,55.02126803114098
6.432123392,0.9994511405732789,54.86992591819431
6.434409984,0.9996540448428999,54.715884800965945
6.436696064,0.9998787531167159,54.558754117660655
6.438982656,1.0001113126380143,54.398307253525424
6.441268736,1.0003367843505213,54.23454366267233
6.443555328,1.000541144590616,54.067654747175055
6.44584192,1.0007114437775197,53.898053838291894
6.448128,1.0008370463936864,53.72632124293968
6.450414592,1.000909802873882,53.55316024616242
6.452700672,1.0009253196160603,53.37934448874416
6.454987264,1.0008824364236566,53.205725750618114
6.457273344,1.0007839108241017,53.03314386616976
6.459559936,1.0006358824561798,52.86233015946265
6.461846016,1.000447685926363,52.693944034560026
6.464132608,1.000231040184951,52.5285090656992
6.4664192,0.9999997740525643,52.36633190694222
6.46870528,0.9997682997561893,52.20745898516247
6.470991872,0.9995513239694253,52.05188567880952
6.473277952,0.9993624499178413,51.89924937863191
6.475564544,0.9992137678453894,51.74906244452093
6.477850624,0.9991145958945088,51.60070467507352
6.480137216,0.9990712164953633,51.45335980625738
6.482423296,0.9990865524345428,51.30624192241464
6.484709888,0.9991594944792419,51.158488068770346
6.48699648,0.9992855504455334,51.00926854801742
6.48928256,0.9994566362128858,50.85790739050571
6.491569152,0.9996622690378738,50.70380470973704
6.493855232,0.999889181522449,50.54658969010156
6.496141824,1.0001232024592792,50.38600558300991
6.498427904,1.0003495608883781,50.22208849258432
6.500714496,1.0005538709237045,50.055056500043435
6.503001088,1.0007233955467343,49.885310187345624
6.505287168,1.000847313576599,49.71344902888088
6.50757376,1.000917950971325,49.54016535098182
6.50985984,1.0009307900832383,49.366276090155424
6.512146432,1.0008848986220242,49.192627218328354
6.514432512,1.0007832040879137,49.020052726754635
6.516719104,1.000632076771233,48.84927127343067
6.519005184,1.000441000905245,48.68098028031367
6.521291776,1.0002219580176872,48.51566743771277
6.523578368,0.999988698569166,48.35362724865931
6.525864448,0.9997560814825828,48.19496666186116
6.52815104,0.9995387267382699,48.039556320786645
6.53043712,0.9993503656484088,47.887089756775666
6.532723712,0.9992028625438262,47.73707525794211
6.535009792,0.999105548463522,47.58884803125006
6.537296384,0.999064626572248,47.4416278467147
6.539582976,0.9990828991101665,47.29457567279463
6.541869056,0.9991589592524495,47.14682718515772
6.544155648,0.999288157208573,46.997611500910494
6.546441728,0.9994624404169824,46.846147783965726
6.54872832,0.9996705603173122,46.69194945871797
6.5510144,0.9998996598561445,46.534567595055194
6.553300992,1.0001351493885569,46.37380927603425
6.555587072,1.000362272885158,46.209687617813785
6.557873664,1.0005666156118673,46.04245650891774
6.560160256,1.000735230926469,45.872490901858846
6.562446336,1.0008576897615433,45.70043409411814
6.564732928,1.000926099473209,45.52699937359927
6.567019008,1.0009361747791796,45.35295756056257
6.5693056,1.0008872237635338,45.17922258465146
6.57159168,1.0007823614247606,45.00657528533485
6.573878272,1.0006281173560434,44.83581674206759
6.576164864,1.000434119766522,44.66754943535799
6.578450944,1.000212670958332,44.50229310878778
6.580737536,0.9999776200389133,44.340355649554915
6.583023616,0.9997438387849106,44.18179951535978
6.585310208,0.9995260797295598,44.026522801563154
6.587596288,0.9993381484782339,43.87420675093744
6.58988288,0.9991918612737398,43.72430336182487
6.59216896,0.9990964956392795,43.57615113361367
6.594455552,0.9990581364372756,43.42897692051763
6.596742144,0.9990792544325221,43.28193655402805
6.599028224,0.999158528013909,43.13415574587117
6.601314816,0.9992909572328568,42.984829511261175
6.603600896,0.999468187034767,42.83328575064579
6.605887488,0.9996790981235574,42.678885076235765
6.608173568,0.9999103211641238,42.52128336922728
6.61046016,1.000147388758056,42.36027790592302
6.612746752,1.000375209566203,42.19590394589511
6.615032832,1.0005794346675947,42.02839658161125
6.617319424,1.0007472946380052,41.85818624510709
6.619605504,1.0008680787218238,41.685872372876155
6.621892096,1.0009342201567333,41.51219032406795
6.624178176,1.0009416080806142,41.3380010746817
6.626464768,1.0008894906563945,41.16409373999737
6.628750848,1.000781481904831,40.99134780804098
6.63103744,1.0006239932706442,40.82052533847244
6.633324032,1.0004270632279157,40.65224810424919
6.635610112,1.0002032089290336,40.48700500388672
6.637896704,0.99996634419215,40.325109863316904
6.640182784,0.9997313919117438,40.166624801523426
6.642469376,0.9995133452955716,40.01143530368518
6.644755456,0.9993257522678889,39.85916391330507
6.647042048,0.9991807324303811,39.70932603247262
6.649328128,0.9990873284900255,39.56121260584311
6.65161472,0.9990515512002655,39.41403832330596
6.653901312,0.9990755845155944,39.26694225464648
6.656187392,0.9991580654328246,39.11907447051166
6.658473984,0.9992937514291969,38.96963558988135
6.660760064,0.9994741066062405,38.81785116180548
6.663046656,0.9996877103604633,38.66323928764029
6.665332736,0.9999210885544385,38.505370784839805
6.667619328,1.0001596532870847,38.34406801432579
6.66990592,1.0003882156096904,38.17937309923652
6.672192,1.0005924403722977,38.01153536842953
6.674478592,1.000759355351571,37.840986278890234
6.676764672,1.0008785403736773,37.668393070435165
6.679051264,1.0009424466089587,37.49443741790156
6.681337344,1.0009469576762529,37.319973497196195
6.683623936,1.000891851851756,37.1458722656575
6.685910016,1.0007803902368195,36.972983163870715
6.688196608,1.000619803456268,36.80203190360156
6.6904832,1.000420001000939,36.63367642535596
6.69276928,1.0001935942247064,36.46841160331063
6.695055872,0.9999549170146889,36.30650848245974
6.697341952,0.9997188902097587,36.148031310510596
6.699628544,0.9995004257387674,35.992855862951785
6.701914624,0.9993134975189936,35.840620566003146
6.704201216,0.9991696522636766,35.69077188671379
6.706487808,0.999078209966284,35.542639663347224
6.708773888,0.999044902276548,35.395412192407896
6.71106048,0.9990719914303994,35.24821808999656
6.71334656,0.9991576844831058,35.100194231110514
6.715633152,0.9992966496257298,34.95053752905057
6.717919232,0.9994799841070009,34.79853674715477
6.720205824,0.9996963351527766,34.64361615981001
6.722491904,0.999931924424697,34.48541012711488
6.724778496,1.00017197429911,34.32376915244173
6.727065088,1.0004012588662745,34.15869366750817
6.729351168,1.00060536773648,33.990467930572194
6.73163776,1.0007714041271292,33.81957278101557
6.73392384,1.0008890211637314,33.64659570767335
6.736210432,1.000950564802684,33.472316288787766
6.738496512,1.0009522597652813,33.29755591196275
6.740783104,1.000893960883764,33.12319853685451
6.743069696,1.000779346118779,32.95006872116018
6.745355776,1.0006155443817586,32.77897012620239
6.747642368,1.0004128809151527,32.610487821835655
6.749928448,1.0001839963048411,32.445122373523326
6.75221504,0.9999433878934494,32.28315158758601
6.75450112,0.9997062442353692,32.12463519324829
6.756787712,0.9994874518253375,31.969428020250227
6.759073792,0.9993009389032024,31.817139786714854
6.761360384,0.9991583663191337,31.667254301787874
6.763646976,0.9990690268704716,31.51904371126251
6.765933056,0.9990383309034976,31.37168927797787
6.768219648,0.9990684530721892,31.22434486833483
6.770505728,0.9991572943776084,31.07611517722082
6.77279232,0.9992995355043548,30.926212492531135
6.7750784,0.9994859325076523,30.773922201498973
6.777364992,0.9997049751189095,30.618654365880026
6.779651584,0.9999427501620672,30.46007230500025
6.781937664,1.0001843032133018,30.297999063990126
6.784224256,1.0004143356540287,30.132501977768307
6.786510336,1.0006183144265788,29.963837118491476
6.788796928,1.0007834711282055,29.792499392017262
6.791083008,1.00089933804452,29.619111724864133
6.7933696,1.000958602171921,29.44444122278251
6.79565568,1.0009575025948427,29.26932152480325
6.797942272,1.000896052896943,29.09466035950368
6.800228864,1.0007781434199376,28.92127973643115
6.802514944,1.0006111624168468,28.749934451227478
6.804801536,1.0004054617845415,28.581278350410976
6.807087616,1.0001741516101859,28.415777190312003
6.809374208,0.9999317085631562,28.253700815561253
6.811660288,0.9996934713673293,28.095071049416514
6.81394688,0.9994743632013747,27.939771971257695
6.81623296,0.9992883408028485,27.78741206642515
6.818519552,0.9991472047346454,27.63740674473245
6.820806144,0.9990597291079933,27.489053694441296
6.823092224,0.9990317278175199,27.34154284682581
6.825378816,0.99906480107103,27.193976666157745
6.827664896,0.9991570013806181,27.04550781220535
6.829951488,0.9993023779849813,26.895279006428233
6.832237568,0.9994920067986237,26.7426280249318
6.83452416,0.9997137889721928,26.58696776232536
6.836810752,0.9999537109492236,26.427938012919693
6.839096832,1.0001967923545412,26.265411265405692
6.841383424,1.0004274931452612,26.099421119204866
6.843669504,1.0006313971369922,25.93027055404487
6.845956096,1.000795563737245,25.75843327652833
6.848242176,1.0009097480796547,25.584587886362762
6.850528768,1.0009667153294362,25.409466413459974
6.852814848,1.0009627936974317,25.233958714461288
6.85510144,1.0008982247265654,25.058922827845365
6.857388032,1.000776980169354,24.885197832942396
6.859674112,1.0006067319323788,24.713602978465968
6.861960704,1.0003981637290031,24.544689307140857
6.864246784,1.0001643505084827,24.37898505916483
6.866533376,0.9999200902769881,24.21673601687911
6.868819456,0.9996806922834519,24.057984034923386
6.871106048,0.9994613275393724,23.90254341875134
6.87339264,0.9992758719730236,23.750011951868828
6.87567872,0.9991359098072508,23.599862647658924
6.877965312,0.9990505397165057,23.451335431884154
6.880251392,0.9990251264853561,23.303599469267397
6.882537984,0.9990612321592166,23.155765735577805
6.884824064,0.9991566706290044,23.00696904514273
6.887110656,0.9993054548050782,22.85638543732919
6.889396736,0.999498079420104,22.70331345440087
6.891683328,0.9997226658179942,22.54719914654233
6.89396992,0.9999647325115057,22.387695893203436
6.896256,1.0002092453162983,22.224612642604225
6.898542592,1.0004406509482682,22.058104485806787
6.900828672,1.0006444634240914,21.888397338967984
6.903115264,1.0008078007198054,21.716025356698516
6.905401344,1.0009202765139236,21.541648314207666
6.907687936,1.0009748601069628,21.366035450433902
6.909974528,1.0009681327066764,21.190054917649807
6.912260608,1.0009003762435154,21.014599937453486
6.9145472,1.0007757762706957,20.840518717313987
6.91683328,1.0006023470932155,20.668556480444977
6.919119872,1.0003908818035572,20.499378573750956
6.921405952,1.0001545914609582,20.333424518292794
6.923692544,0.9999085026820898,20.17093455310299
6.925978624,0.9996679639289912,20.01198643696234
6.928265216,0.9994482914717725,19.85634153921172
6.930551808,0.9992633018303991,19.703622671195756
6.932837888,0.999124722171262,19.553263386661577
6.93512448,0.9990413580743259,19.404487490542902
