freq,mag,phase
6.0,1.000493568021668,19.606432614568355
6.009216512,1.000569496225874,19.345716537181602
6.018433024,1.0006157956272959,19.084166617903687
6.027649536,1.0006297084399898,18.82219802477836
6.03686656,1.000610608641029,18.56013777838959
6.046083072,1.0005593791737293,18.298614059207058
6.055299584,1.0004785760143577,18.03784775377027
6.064516096,1.0003725886679402,17.778325186230727
6.073732608,1.0002469244853156,17.520258639496802
6.08294912,1.0001081866649855,17.263931597305522
6.092166144,0.9999638234367734,17.009459486187684
6.101382656,0.9998212628789156,16.756826302595048
6.110599168,0.9996882003231463,16.50601400681306
6.11981568,0.999571714956963,16.256816439563313
6.129032192,0.9994778366383974,16.008947960776034
6.138248704,0.9994117088945551,15.762157046349973
6.147465216,0.9993768238605139,15.515967589560839
6.15668224,0.9993751420759965,15.270021677175198
6.165898752,0.999406699691965,15.023831893980974
6.175115264,0.999469767194365,14.77697704965645
6.184331776,0.9995612398691358,14.529069159314277
6.193548288,0.9996762102333979,14.279796584385211
6.2027648,0.9998085943869567,14.028789987216122
6.211981312,0.9999514257867683,13.775942278773805
6.221198336,1.00009726837361,13.521149831741504
6.230414848,1.0002381264218747,13.264394472702987
6.23963136,1.0003668479339203,13.005871534728778
6.248847872,1.0004763747884522,12.745683408025409
6.258064384,1.0005611625356763,12.484182160830965
6.267280896,1.0006163695652806,12.221703412888306
6.27649792,1.0006394469134567,11.95865017792604
6.285714432,1.0006287213706089,11.695499398763037
6.294930944,1.0005849493819094,11.432666576898699
6.304147456,1.0005103724373352,11.170545383830198
6.313363968,1.0004089168811179,10.909602443271355
6.32258048,1.0002858050695373,10.650084872267046
6.331796992,1.000147623640696,10.3922426262749
6.341014016,1.0000016701046892,10.13625630902716
6.350230528,0.9998555865691625,9.88220726929536
6.35944704,0.9997171515307586,9.629952955647134
6.368663552,0.9995935954174233,9.379424999254091
6.377880064,0.9994917058823328,9.130309676920435
6.387096576,0.9994166613880929,8.8824259183955
6.3963136,0.9993725985473931,8.635227949067405
6.405530112,0.9993618642311891,8.388420254507874
6.414746624,0.9993851494863408,8.141443483368855
6.423963136,0.9994411612759398,7.8939425005313515
6.433179648,0.9995269232104421,7.645436956330406
6.44239616,0.9996380829557581,7.3955929685544906
6.451612672,0.9997686926243372,7.144145878381117
6.460829696,0.9999117519979271,6.890797852818073
6.470046208,1.000059901782353,6.635521763047363
6.47926272,1.0002053252110867,6.378256658215849
6.488479232,1.0003401108723748,6.119062402013093
6.497695744,1.0004573133107937,5.858170248430288
6.506912256,1.0005505544895688,5.595862262945707
6.51612928,1.0006150079696967,5.332428944382847
6.525345792,1.0006471798375889,5.068342863556666
6.534562304,1.0006454316231073,4.804016185921131
6.543778816,1.0006095544016465,4.539867882091064
6.552995328,1.0005417404615067,4.2763858470674
6.56221184,1.000445252179441,4.013943925227122
6.571428352,1.0003252907068574,3.752894904816152
6.580645376,1.0001881660108454,3.49351302564763
6.589861888,1.0000409396198757,3.2359622649466693
6.5990784,0.9998916920062911,2.980343991778734
6.608294912,0.9997480607661894,2.7266303694806426
6.617511424,0.9996177194289069,2.474675981796469
6.626727936,0.9995077117778894,2.2243115753210216
6.635944448,0.9994236416139916,1.9751697365685488
6.645161472,0.999370166273189,1.7269110850916882
6.654377984,0.9993501755307661,1.4791447972613687
6.663594496,0.9993647789570109,1.2313405973466516
6.672811008,0.9994130222242108,0.9830962169371155
6.68202752,0.9994927595087728,0.7339845172943624
6.691244032,0.9995995342389484,0.4835729478934579
6.700461056,0.9997277847128936,0.23156564411135666
6.709677568,0.99987073332634,-0.022251906383058587
6.71889408,1.00002095737035,-0.2780827073727154
6.728110592,1.0001703518275669,-0.5359188178024831
6.737327104,1.000311161767026,-0.7957201034768365
6.746543616,1.0004356965257033,-1.0573122160127313
6.755760128,1.0005377517762504,-1.3205033286836372
6.764977152,1.0006114211467594,-1.5848642863969018
6.774193664,1.0006532135290305,-1.850061588742068
6.783410176,1.000660652830036,-2.115569426309927
6.792626688,1.000633361903717,-2.381037930002758
6.8018432,1.0005726216007451,-2.6459524836244053
6.811059712,1.0004817957736012,-2.9099157623215617
6.820276736,1.000365421027575,-3.1725794550723037
6.829493248,1.0002298571183694,-3.4335587821381446
6.83870976,1.0000819654778437,-3.692752032734536
6.847926272,0.9999298631561747,-3.949978322453837
6.857142784,0.9997812455704412,-4.20527496668897
6.866359296,0.9996442749718911,-4.458696385722188
6.875575808,0.9995261437411678,-4.71047370688484
6.884792832,0.9994329839703815,-4.9608716578087835
6.894009344,0.999369936656223,-5.210225311223478
6.903225856,0.9993403223563789,-5.459074375580278
6.912442368,0.9993457524057101,-5.70777244490683
6.92165888,0.9993859255781,-5.956811138156009
6.930875392,0.9994589190914772,-6.206631845541665
6.940092416,0.999560820029784,-6.457632572053246
6.949308928,0.9996862156172296,-6.710182944917948
6.95852544,0.9998285414868305,-6.964596995065821
6.967741952,0.9999802401724772,-7.220971246762126
6.976958464,1.0001334411282274,-7.479388943301757
6.986174976,1.0002799121797423,-7.739852056252697
6.995391488,1.000412017780015,-8.00222015784227
7.004608512,1.0005226083418859,-8.266237052902412
7.013825024,1.000605874210837,-8.531576011362024
7.023041536,1.0006574611715633,-8.797825471737362
7.032258048,1.000674498361722,-9.064597007596728
7.04147456,1.0006559151085996,-9.331441557879081
7.050691072,1.0006030069188443,-9.59782203103124
7.059907584,1.0005183399386604,-9.86333868558787
7.069124608,1.000406193734364,-10.127637459248293
7.07834112,1.0002725692027408,-10.39034695066802
7.087557632,1.0001245373744656,-10.651211583470676
7.096774144,0.9999700303443092,-10.910121811874278
7.105990656,0.999816850562659,-11.167019750334656
7.115207168,0.9996733642965362,-11.422038120602403
7.124424192,0.9995471138647387,-11.675245878652708
7.133640704,0.9994448507496138,-11.92702849765547
7.142857216,0.9993720306791111,-12.177631116595535
7.152073728,0.9993323752510369,-12.427584107584508
7.16129024,0.9993282538811756,-12.677245494101529
7.170506752,0.9993598198697077,-12.927122535605946
7.179723264,0.9994254736884894,-13.177703991197273
7.188940288,0.9995217884402128,-13.429401715045394
7.1981568,0.9996437745841641,-13.68254976086691
7.207373312,0.9997849049685616,-13.93753237465648
7.216589824,0.9999377670197185,-14.194469477746278
7.225806336,1.000094317352321,-14.453530281278576
7.235022848,1.0002462775146765,-14.714693824266526
7.244239872,1.0003856487958063,-14.977770617561648
7.253456384,1.0005048110900947,-15.242684715950048
7.262672896,1.0005977002289268,-15.508979696771272
7.271889408,1.0006593383241158,-15.776393731970689
7.28110592,1.0006863802987689,-16.044432944292943
7.290322432,1.0006773529888386,-16.312665741762437
7.299538944,1.000632808257533,-16.58054157549665
7.308755968,1.000554804729233,-16.847676031052387
7.31797248,1.0004473743707685,-17.113655846914384
7.327188992,1.0003165286761635,-17.3780733673872
7.336405504,1.0001687513035293,-17.64073587391888
7.345622016,1.0000120257039504,-17.90139827121486
7.354838528,0.9998546245298139,-18.160045987320437
7.364055552,0.9997047800848357,-18.41668151360194
7.373272064,0.999570619344115,-18.67148293455162
7.382488576,0.9994591120129019,-18.92468006307579
7.391705088,0.9993762353800661,-19.17661107200333
7.4009216,0.9993263480965245,-19.427728299239597
7.410138112,0.9993122467146226,-19.67846030686351
7.419354624,0.9993346618233725,-19.929265890307512
7.428571648,0.9993924435710267,-20.18064385869626
7.43778816,0.9994827266547441,-20.433070138842744
7.447004672,0.9996005666737363,-20.686907180759917
7.456221184,0.9997400152995704,-20.942449835641717
7.465437696,0.9998934848012644,-21.200053889230983
7.474654208,1.000052967063532,-21.459724252752853
7.48387072,1.0002100940418392,-21.72155986049754
7.493087744,1.0003564673084617,-21.985458454506293
7.502304256,1.0004843089498314,-22.25121965814504
7.511520768,1.0005870495243572,-22.518542302561432
7.52073728,1.000659077317168,-22.787109304573903
7.529953792,1.0006964485639513,-23.056413007396525
7.539170304,1.0006973810618562,-23.3260359608057
7.548387328,1.0006614461234786,-23.595503106249506
7.55760384,1.0005908216104347,-23.864267861421197
7.566820352,1.0004890119744831,-24.13197418259413
7.576036864,1.00036134295831,-24.39820955111077
7.585253376,1.0002144849243482,-24.662690964586066
7.594469888,1.0000562632980408,-24.92519249437821
7.6036864,0.9998949480176126,-25.185614643015924
7.612903424,0.9997391345367386,-25.444018915840665
7.622119936,0.9995971243803105,-25.700443710536355
7.631336448,0.9994762262284232,-25.955182564153958
7.64055296,0.9993830163042554,-26.20853357892921
7.649769472,0.9993226041867339,-26.46089207193767
7.658985984,0.9992980041266499,-26.712760218402632
7.668203008,0.999310659812563,-26.964563003105738
7.67741952,0.9993599500859272,-27.21685983289482
7.686636032,0.9994435431510028,-27.470039541903972
7.695852544,0.9995568269511708,-27.72455394458939
7.705069056,0.9996937267690057,-27.980809532136576
7.714285568,0.9998473257232672,-28.239006389568026
7.72350208,1.0000092958720594,-28.499374342890246
7.732719104,1.000171363286284,-28.761915026683308
7.741935616,1.0003245832743102,-29.026590231850648
7.751152128,1.0004611628018616,-29.293273672933726
7.76036864,1.0005737287326812,-29.561589736408536
7.769585152,1.0006564311321806,-29.831321948776736
7.778801664,1.0007045389168858,-30.10192924513368
7.788018688,1.0007158006269916,-30.37302819642981
7.7972352,1.0006894253248093,-30.644057169898414
7.806451712,1.000626704498356,-30.91452667800888
7.815668224,1.0005309366323467,-31.184045848071673
7.824884736,1.0004071653379,-31.452134070285513
7.834101248,1.0002617722050524,-31.718508584237007
7.84331776,1.0001025296355075,-31.98291874809995
7.852534784,0.999937706270259,-32.24522157647422
7.861751296,0.99977623667409,-32.505405100343786
7.870967808,0.9996263537684635,-32.76358738142526
7.88018432,0.9994961163673591,-33.019959241774814
7.889400832,0.9993925958553117,-33.27477960050841
7.898617344,0.9993211510714699,-33.52854073368953
7.907833856,0.999285656719078,-33.78159518214336
7.91705088,0.9992881172906731,-34.03445914831388
7.926267392,0.9993283967449045,-34.287707868267724
7.935483904,0.9994043929223345,-34.54173163790538
7.944700416,0.9995123328872185,-34.79699004874308
7.953916928,0.9996463696841423,-35.05393123141811
7.96313344,0.9997993028089318,-35.31285217515218
7.972350464,0.9999633647751947,-35.573874498907486
7.981566976,1.0001298587433032,-35.83715560338864
7.990783488,1.0002898853615856,-36.10264477450343
8.0,1.0004350243795135,-36.370212602875334
8.009216512,1.0005575636257906,-36.639630838984054
8.018433024,1.0006509908364223,-36.910493089050966
8.027649536,1.0007103798583923,-37.182445874550325
8.03686656,1.0007324090710985,-37.454984288381354
8.046083072,1.0007161510416123,-37.727618874456695
8.055299584,1.0006621512242062,-37.99984854225312
8.064516096,1.00057309745041,-38.27120170041322
8.073732608,1.0004538805370815,-38.54120909884674
8.08294912,1.0003106371616655,-38.80957193618678
8.092166144,1.0001508785901876,-39.07594203729148
8.101382656,0.9999831096176547,-39.34022853142276
8.110599168,0.9998159827105959,-39.60232720417077
8.11981568,0.9996585432263787,-39.86234002239833
8.129032192,0.9995190090650459,-40.12042792431457
8.138248704,0.9994049018157286,-40.376856236747535
8.147465216,0.9993221444892726,-40.632037668567115
8.15668224,0.9992754535117946,-40.886368668878
8.165898752,0.9992670233063685,-41.14040998151434
8.175115264,0.9992975727837377,-41.39464877073496
8.184331776,0.999365545321998,-41.64955350599499
8.193548288,0.9994671888652475,-41.9056641658453
8.2027648,0.9995974714358181,-42.163350756694264
8.211981312,0.9997494848561533,-42.42295397909167
8.221198336,0.9999150851632563,-42.68470227752645
8.230414848,1.0000854981951306,-42.9487537253783
8.23963136,1.0002519674500607,-43.215038934908776
8.248847872,1.000405649513799,-43.48355846219218
8.258064384,1.000538172758009,-43.753980560090156
8.267280896,1.0006426797810455,-44.02605963963869
8.27649792,1.0007136663050618,-44.29935408230164
8.285714432,1.0007471277979647,-44.57338859213125
8.294930944,1.000741425244006,-44.847702744205144
8.304147456,1.0006966932929624,-45.12168344799754
8.313363968,1.0006153678301677,-45.39492637025861
8.32258048,1.0005014571219186,-45.66694825598427
8.331796992,1.000361012501072,-45.937316852602656
8.341014016,1.0002014022783763,-46.205786562639
8.350230528,1.0000310044038492,-46.472092005361986
8.35944704,0.9998589439283048,-46.73617672231779
8.368663552,0.9996941250323063,-46.998122081237824
8.377880064,0.9995452049156123,-47.258027155085344
8.387096576,0.9994204128166331,-47.51614758572573
8.3963136,0.9993261483407297,-47.77286173166938
8.405530112,0.9992675873937771,-48.028591604536224
8.414746624,0.999247836016207,-48.283870237904786
8.423963136,0.9992679098209682,-48.53916775384673
8.433179648,0.999326916296907,-48.79507238642379
8.44239616,0.9994218581563467,-49.05202731064704
8.451612672,0.9995477742795534,-49.310482731845205
8.460829696,0.9996978178641719,-49.57083022443486
8.470046208,0.9998643282339161,-49.83331518323746
8.47926272,1.0000383734722709,-50.0981347787558
8.488479232,1.0002110891704852,-50.36528709772863
8.497695744,1.0003729891448008,-50.63471075330117
8.506912256,1.0005156794136387,-50.90621744201919
8.51612928,1.0006314481860858,-51.17950506142796
8.525345792,1.0007143409644759,-51.45414719001221
8.534562304,1.0007598026088274,-51.72971176642812
8.543778816,1.0007653850846885,-52.00569561302949
8.552995328,1.0007307882091623,-52.2815158823388
8.56221184,1.0006576615014209,-52.55669301384882
8.571428352,1.0005497538361652,-52.83073240610797
8.580645376,1.0004129558174943,-53.10320866091551
8.589861888,1.000254085441993,-53.373841346295904
8.599077888,1.0000818032230114,-53.642300729208465
8.608294912,0.9999049155319745,-53.90851129615065
8.617511936,0.9997329422118274,-54.172451861968725
8.626727936,0.99957497579812,-54.43425412480387
8.63594496,0.9994392840656078,-54.69416392086345
8.64516096,0.9993330587695677,-54.9525013697373
8.654377984,0.9992623455650673,-55.209712554141745
8.663593984,0.999230435865181,-55.466322267063276
8.672811008,0.9992394395525023,-55.72281992521455
8.682028032,0.9992888101384535,-55.97972402959088
8.691244032,0.9993761007558856,-56.237589313432736
8.700461056,0.9994967079500434,-56.496884045171115
8.709677056,0.9996442706275706,-56.75800498332902
8.71889408,0.9998111579812543,-57.02129079056247
8.728111104,0.9999884033864884,-57.28687615937668
8.737327104,1.0001667664391074,-57.554877289936535
8.746544128,1.000336805966499,-57.825282520725004
8.755760128,1.0004895740123732,-58.097838921783946
8.764977152,1.0006169482130565,-58.37232391085139
8.774193152,1.0007121335089573,-58.64835356313586
8.783410176,1.0007701291502162,-58.92547514366341
8.7926272,1.0007876231665096,-59.20313817126703
8.8018432,1.000763774168523,-59.48082665220932
8.811060224,1.0006997007433518,-59.75799833100816
8.820276224,1.0005988519047113,-60.03412574414433
8.829493248,1.000466225821082,-60.308820179598435
8.838709248,1.0003089810302934,-60.58164141734077
8.847926272,1.000135260129819,-60.85231177060611
8.857143296,0.9999541797929313,-61.120716206385886
8.866359296,0.9997753963853611,-61.386790189372455
8.87557632,0.999608221745414,-61.650594008450916
8.88479232,0.9994616295938503,-61.912383783987835
8.894009344,0.9993432877241728,-62.17249167206312
8.903225344,0.9992597493635519,-62.43128051982349
8.912442368,0.9992152857699262,-62.68929125660133
8.921659392,0.9992124690422884,-62.947022923433835
8.930875392,0.9992513485358134,-63.20504159328151
8.940092416,0.9993301699982224,-63.463881079588354
8.949308416,0.9994447377965817,-63.72404842289133
8.95852544,0.9995889377214976,-63.98601910101322
8.96774144,0.9997553397197361,-64.25008020535947
8.976958464,0.9999352224646642,-64.51647138938638
8.986175488,1.000118894062312,-64.78536957142542
8.995391488,1.0002970172584507,-65.0566836960703
9.004608512,1.0004598270721818,-65.33032640416462
9.013824512,1.0005988091837592,-65.60605231732798
9.023041536,1.0007067266349388,-65.88346093402183
9.03225856,1.000777616135913,-66.16213839415437
9.04147456,1.0008078834590686,-66.4415361189267
9.050691584,1.000795734524491,-66.72111265533972
9.059907584,1.0007415906371517,-67.00031863768857
9.069124608,1.0006485052618967,-67.27863302078114
9.078340608,1.0005210261493185,-67.5555577212781
9.087557632,1.0003660283327778,-67.83069896160872
9.096774656,1.0001916124415655,-68.10368049349334
9.105990656,1.0000068522979177,-68.37438388798832
9.11520768,0.9998214789865192,-68.64266289664094
9.12442368,0.9996453546615968,-68.90860957104078
9.133640704,0.999487806334249,-69.17240071243478
9.142856704,0.9993571063617702,-69.43435445114896
9.152073728,0.9992602947903538,-69.69483033240337
9.161290752,0.9992026898807768,-69.95432050418933
9.170506752,0.9991871717225567,-70.21337256213693
9.179723776,0.9992147929660951,-70.47257922729014
9.188939776,0.9992841366539973,-70.73247141008176
9.1981568,0.999391648815583,-70.99358799892534
9.2073728,0.9995317853256838,-71.25636948811177
9.216589824,0.9996971234799314,-71.52127519218467
9.225806848,0.9998788424206141,-71.78850704309728
9.235022848,1.0000675363825788,-72.05828198504801
9.244239872,1.0002533009432617,-72.33057109262879
9.253455872,1.000426137509327,-72.60530485386751
9.262672896,1.0005771130185952,-72.88225866923756
9.271888896,1.0006979002695549,-73.16104313447518
9.28110592,1.0007825102549293,-73.44129430721908
9.290322944,1.0008260125344082,-73.72243554199751
9.299538944,1.0008262291475851,-74.0039749881335
9.308755968,1.0007830892146041,-74.28527419472356
9.317971968,1.0006986277696233,-74.56578826953822
9.327188992,1.0005773034076442,-74.84505624702842
9.336406016,1.0004254919800657,-75.12253553546591
9.345622016,1.0002510061731384,-75.39794159144193
9.35483904,1.0000630829292891,-75.67102569945459
9.36405504,0.9998716787285671,-75.94165430063603
9.373272064,0.9996866317467797,-76.20985821283193
9.382488064,0.9995180048109557,-76.47575345051935
9.391705088,0.9993746908307897,-76.73965092525876
9.400922112,0.9992642664326111,-77.00191677843382
9.410138112,0.9991926227183715,-77.2630270055694
9.419355136,0.9991638457263458,-77.52348538488087
9.428571136,0.9991793701143104,-77.78395589786662
9.43778816,0.9992382919447771,-78.04495114472178
9.44700416,0.9993379200405925,-78.3070371349862
9.456221184,0.9994727501954003,-78.57073619940765
9.465438208,0.9996362073765871,-78.83649661317992
9.474654208,0.9998190735284747,-79.10459364174494
9.483871232,1.000012323513377,-79.37524631880278
9.493087232,1.0002054507906764,-79.64850824171398
9.502304256,1.0003881897082576,-79.92431690418358
9.511520256,1.0005510567010754,-80.20249789006125
9.52073728,1.0006853983427233,-80.48270968446471
9.529954304,1.0007840036179187,-80.76454075430722
9.539170304,1.000841618305454,-81.04746150371072
9.548387328,1.0008551311365206,-81.33095721201
9.557603328,1.0008237915092848,-81.61437127934408
9.566820352,1.0007489868613133,-81.89718369860199
9.576037376,1.0006347945338898,-82.17880225012881
9.585253376,1.0004870363906817,-82.45877262828942
9.5944704,1.000313399811639,-82.73669537915501
9.6036864,1.000122905690892,-83.0122881212021
9.612903424,0.9999257860391565,-83.28535255208514
9.622119424,0.9997322777682192,-83.55588742435151
9.631336448,0.9995526471702738,-83.8240254133041
9.640553472,0.9993964161835731,-84.08999544791858
9.649769472,0.9992718691904612,-84.35415531842084
9.658986496,0.9991857665016228,-84.61698097880748
9.668202496,0.9991427785207859,-84.87896297754362
9.67741952,0.9991450202623806,-85.1407655285393
9.68663552,0.9991927420480516,-85.40291455443302
9.695852544,0.9992833084374866,-85.66607902960983
