freq,mag,phase
6.0,0.9999932006956544,1.9318624065986014
6.008,0.9999935985431652,1.6279733805074164
6.016,0.9999939601681777,1.3239790128248181
6.024,0.9999942864206455,1.0198804307449585
6.032,0.9999945781415337,0.7156787645669771
6.04,0.9999948361628325,0.4113751476542873
6.048,0.9999950613075694,0.10697071639352493
6.056,0.9999952543898232,-0.1975333898467922
6.064,0.9999954162147389,-0.5021360287579101
6.072,0.9999955475785435,-0.8068360551328149
6.08,0.9999956492685619,-1.1116323209084424
6.088,0.999995722063232,-1.4165236752082653
6.096,0.9999957667321241,-1.7215089643850772
6.104,0.9999957840359581,-2.026587032064183
6.112,0.999995774726621,-2.33175671918673
6.12,0.9999957395471877,-2.637016864053461
6.128,0.9999956792319395,-2.9423663023686193
6.136,0.9999955945063865,-3.2478038672842127
6.144,0.9999954860872861,-3.5533283894445327
6.152,0.9999953546826672,-3.85893869703089
6.16,0.9999952009918506,-4.164633615806686
6.168,0.999995025705474,-4.470411969162654
6.176,0.9999948295055143,-4.776272578162434
6.184,0.9999946130653118,-5.082214261588372
6.192,0.9999943770495966,-5.388235835987542
6.2,0.9999941221145124,-5.694336115718046
6.208,0.9999938489076435,-6.000513912995499
6.216,0.9999935580680418,-6.306768037939819
6.224,0.9999932502262531,-6.613097298622192
6.232,0.9999929260043466,-6.919500501112302
6.24,0.999992586015942,-7.225976449525693
6.248,0.9999922308662402,-7.5325239460715165
6.256,0.999991861152051,-7.839141791100303
6.264,0.9999914774618255,-8.145828783152092
6.272,0.9999910803756864,-8.452583719004643
6.28,0.9999906704654588,-8.759405393721972
6.288,0.999990248294703,-9.066292600702965
6.296,0.9999898144187471,-9.373244131730248
6.304,0.99998936938472,-9.680258777019256
6.312,0.9999889137315859,-9.987335325267438
6.32,0.9999884479901774,-10.294472563703632
6.328,0.9999879726832323,-10.601669278137662
6.336,0.9999874883254268,-10.908924253010117
6.344,0.9999869954234137,-11.21623627144218
6.352,0.9999864944758573,-11.523604115285735
6.36,0.9999859859734713,-11.831026565173604
6.368,0.999985470399057,-12.138502400569855
6.376,0.9999849482275399,-12.446030399820343
6.384,0.9999844199260095,-12.75360934020337
6.392,0.9999838859537585,-13.061237997980419
6.4,0.999983346762322,-13.368915148447163
6.408,0.9999828027955184,-13.676639565984374
6.416,0.9999822544894896,-13.984410024109172
6.424,0.9999817022727414,-14.292225295526272
6.432,0.9999811465661869,-14.600084152179383
6.44,0.9999805877831879,-14.907985365302613
6.448,0.9999800263295969,-15.215927705472163
6.456,0.9999794626038013,-15.523909942657967
6.464,0.9999788969967663,-15.831930846275421
6.472,0.9999783298920788,-16.13998918523731
6.48,0.9999777616659924,-16.448083728005685
6.4879999999999995,0.9999771926874713,-16.756213242643916
6.496,0.9999766233182381,-17.06437649686881
6.504,0.9999760539128162,-17.372572258102533
6.5120000000000005,0.9999754848185785,-17.680799293525236
6.52,0.9999749163757929,-17.989056370126786
6.5280000000000005,0.99997434891767,-18.297342254759634
6.536,0.9999737827704096,-18.605655714190604
6.5440000000000005,0.9999732182532498,-18.913995515153847
6.552,0.9999726556785142,-19.22236042440272
6.5600000000000005,0.9999720953516611,-19.53074920876277
6.568,0.9999715375713315,-19.839160635183706
6.5760000000000005,0.9999709826294,-20.147593470792383
6.584,0.9999704308110232,-20.456046482944792
6.592,0.9999698823946902,-20.764518439279176
6.6,0.9999693376522737,-21.073008107768
6.608,0.9999687968490795,-21.381514256770796
6.616,0.9999682602438978,-21.690035655086575
6.624,0.9999677280890561,-21.998571072006335
6.632,0.9999672006304688,-22.30711927736555
6.64,0.9999666781076908,-22.61567904159662
6.648,0.9999661607539687,-22.924249135781338
6.656,0.9999656487962949,-23.23282833170321
6.664,0.9999651424554585,-23.541415401899908
6.672,0.9999646419461002,-23.85000911971555
6.68,0.9999641474767652,-24.158608259352917
6.688,0.9999636592499568,-24.467211595925775
6.696,0.9999631774621901,-24.775817905510955
6.704,0.9999627023040469,-25.084425965200456
6.712,0.9999622339602299,-25.393034553153484
6.72,0.9999617726096168,-25.701642448648414
6.728,0.9999613184253168,-26.010248432134627
6.736,0.9999608715747232,-26.31885128528434
6.744,0.9999604322195716,-26.62744979104427
6.752,0.9999600005159938,-26.936042733687266
6.76,0.9999595766145729,-27.244628898863798
6.768,0.9999591606604011,-27.55320707365335
6.776,0.9999587527931347,-27.861776046615766
6.784,0.9999583531470502,-28.170334607842364
6.792,0.9999579618511012,-28.47888154900705
6.8,0.9999575790289749,-28.787415663417203
6.808,0.9999572047991486,-29.095935746064562
6.816,0.999956839274946,-29.404440593675826
6.824,0.9999564825645966,-29.712929004763218
6.832,0.9999561347712892,-30.021399779674915
6.84,0.9999557959932319,-30.329851720645255
6.848,0.9999554663237087,-30.638283631844846
6.856,0.9999551458511361,-30.946694319430502
6.864,0.9999548346591212,-31.255082591595038
6.872,0.9999545328265199,-31.563447258616844
6.88,0.9999542404274934,-31.87178713290937
6.888,0.9999539575315664,-32.18010102907038
6.896,0.9999536842036852,-32.488387763930994
6.904,0.9999534205042752,-32.79664615660466
6.912,0.9999531664892982,-33.1048750285358
6.92,0.9999529222103118,-33.413073203548365
6.928,0.9999526877145255,-33.72123950789416
6.936,0.9999524630448596,-34.0293727703009
6.944,0.9999522482400037,-34.33747182202023
6.952,0.9999520433344726,-34.6455354968753
6.96,0.9999518483586671,-34.953562631308344
6.968,0.999951663338929,-35.261552064427946
6.976,0.9999514882976007,-35.56950263805599
6.984,0.999951323253083,-35.87741319677457
6.992,0.9999511682198923,-36.1852825879725
7.0,0.9999510232087181,-36.49310966189175
7.008,0.9999508882264823,-36.800893271673445
7.016,0.9999507632763948,-37.10863227340382
7.024,0.9999506483580121,-37.41632552615975
7.032,0.9999505434672947,-37.723971892054195
7.04,0.9999504485966649,-38.031570236281226
7.048,0.9999503637350627,-38.33911942716098
7.056,0.9999502888680054,-38.6466183361841
7.064,0.9999502239776419,-38.95406583805614
7.072,0.9999501690428116,-39.26146081074165
7.08,0.9999501240391009,-39.56880213550787
7.088,0.9999500889388995,-39.8760886969682
7.096,0.9999500637114569,-40.18331938312558
7.104,0.9999500483229392,-40.49049308541516
7.112,0.9999500427364865,-40.79760869874715
7.12,0.9999500469122657,-41.10466512154911
7.128,0.9999500608075309,-41.41166125580796
7.136,0.9999500843766753,-41.718596007111735
7.144,0.9999501175712895,-42.02546828469113
7.152,0.9999501603402149,-42.332277001460525
7.16,0.9999502126296005,-42.63902107405891
7.168,0.9999502743829575,-42.945699422890335
7.176,0.9999503455412132,-43.252310972164246
7.184,0.9999504260427673,-43.558854649935256
7.192,0.9999505158235448,-43.865329388142754
7.2,0.9999506148170508,-44.17173412265025
7.208,0.9999507229544243,-44.47806779328417
7.216,0.9999508401644924,-44.78432934387252
7.224,0.9999509663738233,-45.09051772228324
7.232,0.9999511015067785,-45.39663188046194
7.24,0.9999512454855681,-45.70267077446966
7.248,0.9999513982303014,-46.00863336452009
7.256,0.9999515596590409,-46.31451861501648
7.264,0.9999517296878524,-46.620325494588165
7.272,0.999951908230859,-46.92605297612694
7.28,0.9999520952002915,-47.23170003682276
7.288,0.99995229050654,-47.53726565819936
7.296,0.999952494058205,-47.84274882614947
7.304,0.9999527057621477,-48.14814853096954
7.312,0.9999529255235405,-48.453463767394254
7.32,0.9999531532459173,-48.75869353463067
7.328,0.9999533888312233,-49.06383683639187
7.336,0.9999536321798641,-49.368892680930415
7.344,0.9999538831907552,-49.67386008107134
7.352,0.9999541417613701,-49.9787380542448
7.36,0.9999544077877895,-50.28352562251832
7.368,0.9999546811647491,-50.58822181262871
7.376,0.9999549617856868,-50.89282565601368
7.384,0.9999552495427911,-51.19733618884288
7.392,0.9999555443270477,-51.50175245204877
7.4,0.9999558460282852,-51.80607349135698
7.4079999999999995,0.9999561545352235,-52.110298357316346
7.416,0.9999564697355176,-52.414426105328715
7.4239999999999995,0.9999567915158047,-52.718455795677826
7.432,0.9999571197617486,-53.022386493558734
7.4399999999999995,0.9999574543580847,-53.32621726910576
7.448,0.9999577951886643,-53.62994719742116
7.4559999999999995,0.9999581421364991,-53.933575358602305
7.464,0.9999584950838046,-54.23710083776958
7.4719999999999995,0.9999588539120431,-54.54052272509283
7.48,0.9999592185019667,-54.84384011581839
7.4879999999999995,0.99995958873366,-55.14705211029482
7.496,0.9999599644865819,-55.45015781399922
7.504,0.9999603456396075,-55.75315633756206
7.5120000000000005,0.9999607320710687,-56.056046796792735
7.52,0.9999611236587962,-56.35882831270364
7.5280000000000005,0.9999615202801582,-56.66150001153499
7.536,0.9999619218121024,-56.96406102477805
7.5440000000000005,0.9999623281311939,-57.266510489199106
7.552,0.9999627391136547,-57.56884754686207
7.5600000000000005,0.9999631546354035,-57.871071345151506
7.568,0.9999635745720926,-58.17318103679453
7.5760000000000005,0.9999639987991465,-58.47517577988303
7.584,0.9999644271917986,-58.777054737894744
7.5920000000000005,0.9999648596251295,-59.07881707971476
7.6,0.9999652959741022,-59.380461979655685
7.6080000000000005,0.9999657361135986,-59.68198861747851
7.616,0.9999661799184559,-59.98339617841186
7.6240000000000006,0.9999666272635003,-60.28468385317208
7.632,0.9999670780235835,-60.58585083798179
7.640000000000001,0.999967532073616,-60.8868963345891
7.648,0.9999679892886005,-61.187819550285376
7.656000000000001,0.9999684495436668,-61.488619697923646
7.664,0.9999689127141038,-61.789295995935646
7.672,0.9999693786753915,-62.08984766834938
7.68,0.9999698473032345,-62.39027394480554
7.688,0.9999703184735924,-62.690574060573915
7.696,0.9999707920627119,-62.99074725656934
7.704,0.9999712679471564,-63.29079277936725
7.712,0.9999717460038371,-63.590709881218835
7.72,0.9999722261100426,-63.89049782006575
7.728,0.9999727081434683,-64.19015585955455
7.736,0.999973191982245,-64.48968326905064
7.744,0.9999736775049669,-64.78907932365188
7.752,0.9999741645907212,-65.08834330420173
7.76,0.9999746531191136,-65.38747449730221
7.768,0.9999751429702967,-65.68647219532616
7.776,0.9999756340249957,-65.98533569642942
7.784,0.9999761261645355,-66.28406430456238
7.792,0.9999766192708655,-66.58265732948139
7.8,0.9999771132265843,-66.88111408675955
7.808,0.999977607914967,-67.17943389779725
7.816,0.9999781032199855,-67.47761608983232
7.824,0.9999785990263367,-67.77565999594981
7.832,0.9999790952194622,-68.07356495509131
7.84,0.9999795916855727,-68.37133031206405
7.848,0.9999800883116712,-68.66895541754934
7.856,0.999980584985574,-68.96643962811113
7.864,0.9999810815959321,-69.26378230620358
7.872,0.9999815780322532,-69.5609828201788
7.88,0.9999820741849212,-69.85804054429386
7.888,0.9999825699452172,-70.15495485871763
7.896,0.9999830652053396,-70.45172514953722
7.904,0.9999835598584218,-70.74835080876396
7.912,0.9999840537985527,-71.04483123433909
7.92,0.9999845469207944,-71.34116583013916
7.928,0.9999850391211997,-71.63735400598092
7.936,0.9999855302968306,-71.93339517762597
7.944,0.9999860203457743,-72.22928876678498
7.952,0.9999865091671607,-72.5250342011216
7.96,0.9999869966611785,-72.82063091425606
7.968,0.9999874827290895,-73.11607834576829
7.976,0.9999879672732465,-73.41137594120077
7.984,0.9999884501971057,-73.70652315206112
7.992,0.9999889314052425,-74.00151943582418
8.0,0.9999894108033651,-74.29636425593378
8.008,0.9999898882983286,-74.59105708180438
8.016,0.9999903637981467,-74.88559738882213
8.024000000000001,0.9999908372120065,-75.17998465834552
8.032,0.9999913084502791,-75.47421837770597
8.04,0.9999917774245324,-75.76829804020812
8.048,0.9999922440475422,-76.06222314512947
8.056000000000001,0.9999927082333034,-76.35599319771973
8.064,0.9999931698970408,-76.64960770920011
8.072,0.9999936289552188,-76.94306619676235
8.08,0.999994085325552,-77.23636818356692
8.088000000000001,0.9999945389270138,-77.5295131987413
8.096,0.9999949896798465,-77.82250077737781
8.104,0.9999954375055683,-78.11533046053134
8.112,0.9999958823269832,-78.40800179521652
8.120000000000001,0.9999963240681883,-78.70051433440453
8.128,0.9999967626545807,-78.99286763701971
8.136,0.999997198012865,-79.28506126793629
8.144,0.9999976300710596,-79.57709479797396
8.152000000000001,0.9999980587585046,-79.86896780389372
8.16,0.9999984840058647,-80.16067986839333
8.168,0.999998905745138,-80.45223058010258
8.176,0.9999993239096584,-80.743619533578
8.184000000000001,0.9999997384341025,-81.03484632929725
8.192,1.0,-81.3259105736536
8.2,0.9999999999999999,-81.61681187894992
8.208,0.9999999999999999,-81.90754986339238
8.216000000000001,1.0,-82.19812415108358
8.224,1.0,-82.48853437201595
8.232,1.0,-82.77878016206466
8.24,1.0,-83.06886116298011
8.248000000000001,1.0,-83.3587770223802
8.256,0.9999999999999999,-83.64852739374231
8.264,1.0,-83.93811193639546
8.272,0.9999999999999999,-84.22753031551153
8.280000000000001,1.0,-84.5167822020965
8.288,1.0,-84.80586727298157
8.296,0.9999999999999999,-85.09478521081407
8.304,1.0,-85.38353570404772
8.312,0.9999999999999999,-85.6721184469329
8.32,1.0,-85.96053313950698
8.328,0.9999999999999999,-86.2487794875836
8.336,1.0,-86.53685720274274
8.344,0.9999999999999999,-86.82476600231949
8.352,0.9999999999999999,-87.11250560939368
8.36,0.9999999999999999,-87.40007575277806
8.368,1.0,-87.68747616700759
8.376,0.9999999999999999,-87.97470659232717
8.384,1.0,-88.26176677468034
8.392,0.9999999999999999,-88.54865646569677
8.4,1.0,-88.83537542268036
8.408,1.0,-89.12192340859633
8.416,1.0,-89.40830019205895
8.424,1.0,-89.69450554731816
8.432,0.9999999999999998,-89.98053925424686
8.44,1.0,-90.26640109832722
8.448,0.9999999999999999,-90.55209087063744
8.456,1.0,-90.83760836783769
8.464,1.0,-91.12295339215659
8.472,1.0,-91.4081257513766
8.48,1.0,-91.69312525882019
8.488,0.9999999999999998,-91.97795173333483
8.496,1.0,-92.26260499927889
8.504,1.0,-92.54708488650608
8.512,0.9999999999999998,-92.8313912303511
8.52,0.9999999999999999,-93.1155238716138
8.528,1.0,-93.39948265654422
8.536,1.0,-93.68326743682671
8.544,0.9999999999999999,-93.96687806956446
8.552,1.0,-94.25031441726324
8.56,0.9999999999999999,-94.53357634781575
8.568,1.0,-94.81666373448496
8.576,0.9999999999999999,-95.0995764558881
8.584,0.9999999999999999,-95.38231439597975
8.592,1.0,-95.6648774440355
8.6,0.9999999999999999,-95.9472654946347
8.608,1.0,-96.22947844764396
8.616,1.0,-96.5115162081994
8.624,1.0,-96.79337868668998
8.632,0.9999999999999999,-97.07506579873953
8.64,1.0,-97.3565774651897
8.648,0.9999999999999999,-97.63791361208173
8.656,1.0,-97.91907417063918
8.664,0.9999999999999999,-98.20005907724939
8.672,1.0,-98.480868273446
8.68,0.9999999999999999,-98.76150170589015
8.688,0.9999999999999998,-99.04195932635271
8.696,0.9999999999999998,-99.3222410916953
8.704,1.0,-99.60234696385227
8.712,1.0,-99.88227690981145
8.72,1.0,-100.16203090159595
8.728,1.0,-100.4416089162447
8.736,0.9999999999999999,-100.72101093579398
8.744,0.9999999999999999,-101.00023694725779
8.752,0.9999999999999999,-101.27928694260915
8.76,0.9999999999999999,-101.55816091876028
8.768,0.9999999999999999,-101.8368588775438
8.776,1.0,-102.11538082569258
8.784,1.0,-102.3937267748207
8.792,1.0,-102.6718967414034
8.8,0.9999999999999999,-102.94989074675763
8.808,1.0,-103.22770881702182
8.815999999999999,0.9999999999999999,-103.50535098313635
8.824,1.0,-103.7828172808234
8.832,1.0,-104.06010775056663
8.84,0.9999999999999999,-104.33722243759132
8.847999999999999,1.0,-104.61416139184406
8.856,1.0,-104.89092466797253
8.864,1.0,-105.16751232530481
8.872,0.9999999999999999,-105.44392442782922
8.879999999999999,1.0,-105.72016104417386
8.888,1.0,-105.99622224758595
8.896,0.9999999999999999,-106.27210811591111
8.904,1.0,-106.54781873157279
8.911999999999999,1.0,-106.82335418155162
8.92,0.9999999999999999,-107.0987145573646
8.928,1.0,-107.37389995504404
8.936,1.0,-107.64891047511689
8.943999999999999,0.9999999999999999,-107.9237462225839
8.952,1.0,-108.19840730689852
8.96,1.0,-108.47289384194572
8.968,1.0,-108.74720594602121
8.975999999999999,1.0,-109.0213437418103
8.984,0.9999999999999999,-109.29530735636678
8.992,1.0,-109.56909692109153
9.0,1.0,-109.84271257171157
9.008,1.0,-110.1161544482589
9.016,0.9999999999999999,-110.38942269504906
9.024000000000001,1.0,-110.66251746065996
9.032,1.0,-110.93543889791036
9.04,0.9999999999999999,-111.20818716383906
9.048,1.0,-111.48076241968313
9.056000000000001,1.0,-111.75316483085663
9.064,1.0,-112.02539456692922
9.072,1.0,-112.29745180160499
9.08,1.0,-112.56933671270095
9.088000000000001,0.9999999999999999,-112.84104948212538
9.096,1.0,-113.11259029585669
9.104,1.0,-113.383959343922
9.112,0.9999999999999999,-113.65515682037564
9.120000000000001,1.0,-113.92618292327758
9.128,1.0,-114.19703785467212
9.136,1.0,-114.4677218205666
9.144,1.0,-114.73823503090978
9.152000000000001,1.0,-115.00857769957037
9.16,0.9999999999999999,-115.27875004431563
9.168,0.9999999999999999,-115.54875228679025
9.176,1.0,-115.81858465249452
9.184000000000001,0.9999999999999999,-116.08824737076313
9.192,1.0,-116.3577406747437
9.2,1.0,-116.62706480137558
9.208,1.0,-116.89621999136833
9.216000000000001,0.9999999999999999,-117.16520648918035
9.224,1.0,-117.43402454299758
9.232,1.0,-117.70267440471237
9.24,0.9999999999999999,-117.971156329902
9.248000000000001,0.9999999999999999,-118.23947057780734
9.256,1.0,-118.50761741131173
9.264,1.0,-118.77559709691991
9.272,0.9999999999999999,-119.0434099047366
9.280000000000001,1.0,-119.31105610844534
9.288,0.9999999999999999,-119.57853598528739
9.296,0.9999999999999999,-119.8458498160408
9.304,0.9999999999999999,-120.11299788499906
9.312000000000001,0.9999999999999999,-120.37998047995029
9.32,0.9999999999999999,-120.64679789215593
9.328,1.0,-120.91345041633019
9.336,1.0,-121.17993835061883
9.344,1.0,-121.44626199657824
9.352,0.9999999999999999,-121.71242165915476
9.36,1.0,-121.97841764666373
9.368,0.9999999999999999,-122.24425027076877
9.376,1.0,-122.50991984646096
9.384,1.0000000000000002,-122.77542669203845
9.392,1.0,-123.04077112908529
9.4,1.0,-123.30595348245136
9.408,1.0,-123.57097408023151
9.416,1.0,-123.83583325374518
9.424,1.0,-124.10053133751586
9.432,1.0,-124.36506866925086
9.44,0.9999999999999999,-124.62944558982072
9.448,1.0,-124.89366244323917
9.456,1.0,-125.15771957664259
9.464,1.0,-125.42161734027026
9.472,1.0,-125.68535608744365
9.48,1.0,-125.94893617454696
9.488,1.0,-126.21235796100655
9.496,1.0,-126.47562180927149
9.504,0.9999999999999999,-126.73872808479314
9.512,1.0,-127.00167715600583
9.52,0.9999999999999999,-127.26446939430666
9.528,1.0,-127.52710517403607
9.536,0.9999999999999999,-127.78958487245798
9.544,1.0,-128.05190886974046
9.552,0.9999999999999999,-128.31407754893584
9.56,1.0,-128.5760912959617
9.568,1.0,-128.8379504995811
9.576,0.9999999999999999,-129.0996555513834
9.584,0.9999999999999999,-129.36120684576505
9.592,0.9999999999999999,-129.62260477991046
9.6,1.0000000000000002,-129.88384975377258
9.608,1.0,-130.1449421700542
9.616,1.0,-130.4058824341888
9.624,1.0,-130.6666709543218
9.632,1.0,-130.92730814129132
9.64,1.0,-131.18779440861007
9.648,1.0,-131.44813017244596
9.656,0.9999999999999999,-131.7083158516042
9.664,0.9999999999999999,-131.96835186750806
9.672,1.0,-132.22823864418103
9.68,1.0,-132.4879766082279
9.688,1.0,-132.74756618881702
9.696,0.9999999999999999,-133.00700781766142
9.704,0.9999999999999999,-133.26630192900132
9.712,0.9999999999999999,-133.52544895958545
9.72,1.0,-133.7844493486536
9.728,1.0,-134.04330353791818
9.736,1.0,-134.30201197154693
9.744,0.9999999999999999,-134.56057509614473
9.752,1.0,-134.8189933607361
9.76,0.9999999999999999,-135.07726721674752
9.768,0.9999999999999999,-135.33539711799017
9.776,1.0,-135.59338352064216
9.784,1.0,-135.85122688323148
9.792,0.9999999999999999,-136.10892766661843
9.8,1.0,-136.36648633397883
9.808,1.0,-136.62390335078655
9.816,0.9999999999999999,-136.8811791847968
9.824,0.9999999999999999,-137.13831430602883
9.832,1.0,-137.39530918674967
9.84,1.0,-137.65216430145674
9.847999999999999,0.9999998321380666,-137.90888012686162
9.856,0.9999996655031664,-138.1654571418734
