freq,mag,phase
6.0,0.999306128536224,-146.54050900229123
6.002287104,0.9993971622602434,-146.66931334950746
6.004574208,0.9995267357305868,-146.7997337356594
6.006861312,0.999686902512136,-146.932246232153
6.009147904,0.9998672845586788,-147.06725754272134
6.011435008,1.0000564456159386,-147.20497108765514
6.013722112,1.0002424449697016,-147.3453856783701
6.016009216,1.0004134782956136,-147.48840637905536
6.01829632,1.0005586623390046,-147.6337528340735
6.020583424,1.0006687709086803,-147.78092658028132
6.022870016,1.0007369425906796,-147.9294426691958
6.02515712,1.0007586483292858,-148.0785532717278
6.027444224,1.0007327523240044,-148.22766688931966
6.029731328,1.0006606611562736,-148.37612189515374
6.032018432,1.0005469869395263,-148.52316005633938
6.034305536,1.0003990119055821,-148.66833344066092
6.036592128,1.0002259770933066,-148.8111480827986
6.038879232,1.0000389348369065,-148.9513805597544
6.041166336,0.9998496822946908,-149.08887918466405
6.04345344,0.9996703159975711,-149.22369516247667
6.045740544,0.9995121996781603,-149.35606623311364
6.048027648,0.9993852926852516,-149.4863182714502
6.05031424,0.9992978678830569,-149.61503073024866
6.052601344,0.9992552851352596,-149.74281718897367
6.054888448,0.9992604117040677,-149.87031326181278
6.057175552,0.9993128358014192,-149.99825638583533
6.059462656,0.9994092213989881,-150.12724838673756
6.06174976,0.9995436011761011,-150.25793877212217
6.064036352,0.9997073205937642,-150.39081187162765
6.066323456,0.999890013845594,-150.52619779343487
6.06861056,1.000080108849182,-150.66428911852148
6.070897664,1.0002655031262706,-150.80514704371873
6.073184768,1.0004344882623446,-150.9485548316817
6.075471872,1.0005762300917647,-151.09423016466968
6.077758464,1.000681889325373,-151.24169895967273
6.080045568,1.000744660985555,-151.39041335648048
6.082332672,1.000760711529258,-151.53966337006727
6.084619776,1.0007287452696165,-151.6888394117078
6.08690688,1.0006510029881932,-151.83723160010138
6.089193984,1.0005322818732867,-151.98417348418369
6.091481088,1.0003801717246232,-152.12914707640027
6.09376768,1.0002041722836197,-152.2717781866053
6.096054784,1.0000155961529664,-152.41170218066264
6.098341888,0.9998264072488993,-152.54893615503258
6.100628992,0.999648392394977,-152.68348880909912
6.102916096,0.9994931262624589,-152.81561147511434
6.1052032,0.9993702489681681,-152.94569698418817
6.107489792,0.9992877860446538,-153.0742782238402
6.109776896,0.9992508974845116,-153.20198462121917
6.112064,0.9992618947820626,-153.32954385125876
6.114351104,0.9993202044791542,-153.4575755370116
6.116638208,0.9994219977013808,-153.58680990155437
6.118925312,0.999560960703338,-153.71778681604158
6.121211904,0.9997281408674409,-153.85097204859414
6.123499008,0.9999129825010495,-153.98672950209016
6.125786112,1.000103783243176,-154.12523518283157
6.128073216,1.0002883554776072,-154.26645039271864
6.13036032,1.0004551104984791,-154.41024823035676
6.132647424,1.0005933749235447,-154.55622996283705
6.134934016,1.0006943381424347,-154.70399367019863
6.13722112,1.000751786803728,-154.85289829681403
6.139508224,1.0007618815198105,-155.0023000900355
6.141795328,1.0007239510424488,-155.1514682483843
6.144082432,1.0006405684021142,-155.2997988517584
6.146369536,1.0005169461949441,-155.4466041731131
6.148656128,1.0003607506536847,-155.59137968577087
6.150943232,1.0001820608103824,-155.73373828995148
6.153230336,0.9999920537804372,-155.87341354951792
6.15551744,0.9998029300680032,-156.01034818643805
6.157804544,0.9996266309470414,-156.14460416589512
6.160091648,0.9994742544890417,-156.27647671888266
6.162378752,0.9993555849390812,-156.406366795123
6.164665344,0.9992782616448705,-156.5348429278037
6.166952448,0.9992470995431664,-156.66250412247115
6.169239552,0.9992641322508482,-156.79007171365043
6.171526656,0.9993282664995441,-156.91825741414198
6.17381376,0.9994353047966895,-157.04766540919306
6.176100864,0.9995787418634188,-157.17891209669926
6.178387456,0.9997493040423363,-157.31242563305963
6.18067456,0.9999361862072963,-157.4485485070673
6.182961664,1.0001274654818524,-157.5874344817289
6.185248768,1.0003111161113387,-157.7290376659459
6.187535872,1.000475499833366,-157.87320107596275
6.189822976,1.0006100669706077,-158.0195171276072
6.192109568,1.000706258963899,-158.1675110030691
6.194396672,1.0007581624801964,-158.31657007117215
6.196683776,1.0007623841806126,-158.46604797013006
6.19897088,1.0007186275211335,-158.61526092354862
6.201257984,1.0006296298022175,-158.7634930215894
6.203545088,1.0005009998140333,-158.91014014193496
6.20583168,1.000340985102726,-159.05472752103648
6.208118784,1.0001596189761721,-159.19680092049495
6.210405888,0.9999684697080548,-159.33616803859712
6.212692992,0.9997795858049784,-159.47279557210672
6.214980096,0.9996050265047575,-159.60676943719236
6.2172672,0.9994557993625862,-159.73838509128527
6.219553792,0.9993415432025726,-159.8680755904504
6.221840896,0.9992693669488834,-159.99640973921123
6.224128,0.9992440308352586,-160.12405882304182
6.226415104,0.9992669550065627,-160.25163553810356
6.228702208,0.9993368433759351,-160.3799192951135
6.230989312,0.9994492588363162,-160.50955289867008
6.233275904,0.9995969594741809,-160.6410679818169
6.235563008,0.9997708482646267,-160.77489354374958
6.237850112,0.999959509801722,-160.91136838485258
6.240137216,1.0001511971918173,-161.05065060153538
6.24242432,1.0003337113986237,-161.19262650700435
6.244711424,1.0004954682193947,-161.33711526790927
6.246998528,1.0006262111074888,-161.48371182457194
6.24928512,1.0007175929532495,-161.63194752788277
6.251572224,1.0007638565140053,-161.78115640917505
6.253859328,1.0007621265608835,-161.93073253405234
6.256146432,1.0007123694743962,-162.07991496147076
6.258433536,1.000617846056402,-162.22805581959028
6.26072064,1.0004845311089963,-162.37452412787468
6.263007232,1.0003207271333936,-162.5188432400151
6.265294336,1.000136907955566,-162.66064458507051
6.26758144,0.9999447146614081,-162.79970701178664
6.269868544,0.9997563286890139,-162.93599830907235
6.272155648,0.999583703365422,-163.06969869862854
6.274442752,0.999437812745088,-163.2010449569011
6.276729344,0.9993280357967058,-163.33053464009822
6.279016448,0.9992611457860171,-163.458723924808
6.281303552,0.9992415899629759,-163.58628547678128
6.283590656,0.9992706101070037,-163.71393057972006
6.28587776,0.9993462047479795,-163.84234610364607
6.288164864,0.9994637891065127,-163.97217524185825
6.290451456,0.9996158925587223,-164.10392890777425
6.29273856,0.9997927215009476,-164.2380823247481
6.295025664,0.9999830497035495,-164.37493144491197
6.297312768,1.000174971035101,-164.51454658760068
6.299599872,1.0003561603849664,-164.65688980123576
6.301886976,1.0005151074082346,-164.80169368543395
6.304173568,1.0006418736286087,-164.94857799296406
6.306460672,1.0007282942733022,-165.0970257125419
6.308747776,1.0007689028180535,-165.24636096151653
6.31103488,1.0007612065641,-165.39597542569396
6.313321984,1.0007055877338227,-165.5451320849796
6.315609088,1.0006055651543615,-165.69315976906998
6.317896192,1.0004674755132361,-165.83942894679882
6.320182784,1.0003000564708506,-165.98347615366802
6.322469888,1.0001139010953632,-166.12499579330577
6.324756992,0.9999208198187769,-166.2637241374347
6.327044096,0.9997331576045172,-166.39970502694837
6.3293312,0.9995625856220152,-166.53305217043933
6.331618304,0.9994201983478694,-166.6641521472498
6.333904896,0.999314940020049,-166.7934493711823
6.336192,0.9992535202979698,-166.92148582804558
6.338479104,0.9992398597083675,-167.0489992746765
6.340766208,0.9992749097910553,-167.17667138317003
6.343053312,0.9993563308726984,-167.3052085289267
6.345340416,0.9994790334891267,-167.43515878656555
6.347627008,0.9996352069568548,-167.5672318300665
6.349914112,0.9998149739274015,-167.7017209277694
6.352201216,1.0000068794816004,-167.83887168183182
6.35448832,1.0001988138423783,-167.97886246334818
6.356775424,1.0003784742952917,-168.1215598146361
6.359062528,1.000534504508404,-168.2666730250835
6.36134912,1.0006571775342643,-168.41380757268348
6.363636224,1.0007385046282238,-168.5624430479628
6.365923328,1.000773369400079,-168.71191127391762
6.368210432,1.000759618507325,-168.86153365871414
6.370497536,1.0006981020917824,-169.0106234762367
6.37278464,1.0005926612187692,-169.15846836607483
6.375071232,1.0004498823849355,-169.30456659188667
6.377358336,1.0002790435712854,-169.44833995267246
6.37964544,1.0000906384431085,-169.5895312408452
6.381932544,0.9998968676756154,-169.7279373890652
6.384219648,0.9997099549713915,-169.86356471973997
6.386506752,0.9995418984196026,-169.9966264817668
6.388793344,0.9994030392751058,-170.1274307995539
6.391080448,0.9993024710370052,-170.2564734522508
6.393367552,0.9992465912233621,-170.38440884180633
6.395654656,0.999238891600443,-170.5118639937733
6.39794176,0.9992799578667881,-170.6395640758455
6.400228864,0.999367002124168,-170.76820737117075
6.402515968,0.9994947490918182,-170.89840786947488
6.40480256,0.9996550492006782,-171.03067867649148
6.407089664,0.999837508515209,-171.1654621808726
6.409376768,1.0000306964504717,-171.30299128571423
6.411663872,1.0002224958529717,-171.44332503198828
6.413950976,1.000400439804537,-171.58632168688735
6.41623808,1.0005535277531765,-171.73173691146073
6.418524672,1.0006718608615446,-171.8791176965171
6.420811776,1.0007479233490852,-172.027921867918
6.42309888,1.0007770267715461,-172.1774717378805
6.425385984,1.0007572980481845,-172.3271215276322
6.427673088,1.0006897431189308,-172.47609958961365
6.429960192,1.0005790062162396,-172.62379561048775
6.432246784,1.000431746737334,-172.76963979439606
6.434533888,1.0002574225487546,-172.91313339362435
6.436820992,1.0000671387254993,-173.05400196135312
6.439108096,0.9998728768416599,-173.19204186353437
6.4413952,0.9996869673818752,-173.32732831926486
6.443682304,0.9995212620095058,-173.4600590288372
6.445968896,0.9993862336538631,-173.5905674294142
6.448256,0.9992904771372413,-173.71940997597804
6.450543104,0.9992402942606045,-173.84719581562285
6.452830208,0.9992386100250724,-173.9745952911212
6.455117312,0.9992856784485067,-174.10232192875782
6.457404416,0.9993784872779088,-174.23106851646492
6.459691008,0.99951117207948,-174.3614409093175
6.461978112,0.9996752045390549,-174.49401708883406
6.464265216,0.999860371250151,-174.62907932147468
6.46655232,1.0000547544274325,-174.76692839844426
6.468839424,1.0002461604648913,-174.90758596469922
6.471126528,1.0004223469821543,-175.0509226701768
6.473413632,1.000572091363777,-175.19660018438213
6.475700224,1.0006860764060068,-175.34421259970742
6.477987328,1.000756963453122,-175.49317517077918
6.480274432,1.000780071405772,-175.64280854203045
6.482561536,1.0007542183996636,-175.7924068833779
6.48484864,1.0006808415450807,-175.9413126159936
6.487135744,1.0005647713630996,-176.08882557909223
6.489422336,1.0004130341007287,-176.23440439024827
6.49170944,1.0002355723991707,-176.3775881345255
6.493996544,1.0000434332009092,-176.51809016309176
6.496283648,0.9998488332118957,-176.65577356161964
6.498570752,0.9996641321089333,-176.7906976188901
6.500857856,0.999501005546422,-176.92308947746497
6.503144448,0.9993699479657384,-177.05333768072666
6.505431552,0.9992791891029836,-177.1819699901999
6.507718656,0.9992346525165111,-177.30959060612142
6.51000576,0.9992390460416147,-177.43691679977783
6.512292864,0.9992921913475059,-177.56468632513253
6.514579968,0.999390519033005,-177.69353464896028
6.51686656,0.9995280524224692,-177.82410467126874
6.519153664,0.9996960899758974,-177.95689428553908
6.521440768,0.9998836469784655,-178.09227435059867
6.523727872,1.00007911794727,-178.2304608271184
6.526014976,1.0002699363093623,-178.37141865165034
6.52830208,1.0004441029875024,-178.51505561573987
6.530588672,1.0005903037728052,-178.66104701258547
6.532875776,1.0006997635983081,-178.80883387616635
6.53516288,1.0007651390836225,-178.95792736476685
6.537449984,1.0007824000838512,-179.1076115547535
6.539737088,1.0007504790824475,-179.25719711566626
6.542024192,1.0006714076586438,-179.40595176558682
6.544310784,1.0005499290031414,-179.5532519333295
6.546597888,1.000393882008229,-179.6985852632294
6.548884992,1.000213281129304,-179.84143258236628
6.551172096,1.0000194829073705,-179.98155962859713
6.5534592,0.9998247082361518,179.8811435937189
6.555746304,0.999641302736157,179.7465715642948
6.558033408,0.9994811087731751,179.61454971205325
6.56032,0.9993541452836339,179.48459545165085
6.562607104,0.9992684357669153,179.35618438014404
6.564894208,0.9992296077277095,179.22870266198655
6.567181312,0.9992401405636792,179.10141905360265
6.569468416,0.9992992816901493,178.9736308921162
6.57175552,0.9994033342656533,178.84467730193853
6.574042112,0.999545598478246,178.713918777004
6.576329216,0.9997171384438321,178.58088909523627
6.57861632,0.9999070380647941,178.4451896988776
6.580903424,1.0001034070935555,178.30671264057065
6.583190528,1.0002934420715535,178.1654235979636
6.585477632,1.000465465751188,178.02151291262763
6.587764224,1.0006082202121165,177.8753039777345
6.590051328,1.0007130220314557,177.72728147438858
6.592338432,1.0007728381427958,177.57807893425513
6.594625536,1.0007839975679202,177.42838037961474
6.59691264,1.0007459303009056,177.27886160674433
6.599199744,1.00066090649619,177.13021945683522
6.601486336,1.0005344257598494,176.98313639373663
6.60377344,1.0003742343348685,176.83813238117574
6.606060544,1.0001907181607235,176.69563054739322
6.608347648,0.9999952236552628,176.55587586734976
6.610634752,0.9998005005760975,176.41895059333189
6.612921856,0.9996188002184723,176.28479813399622
6.615208448,0.9994615098751335,176.15310043575272
6.617495552,0.9993387576231422,176.0234483618298
6.619782656,0.9992583382466369,175.89525673012412
6.62206976,0.9992253647745812,175.76791878865356
6.624356864,0.9992420451128724,175.64070470274146
6.626643968,0.9993071405425934,175.51291042147983
6.628931072,0.9994166730212748,175.3838175031683
6.631217664,0.9995636526102671,175.25288314341603
6.633504768,0.9997388427177465,175.11960454150488
6.635791872,0.999930970734248,174.98364998887914
6.638078976,1.0001278780240843,174.84486624001292
6.64036608,1.0003170433079895,174.7032645193733
6.642653184,1.0004865798693587,174.55904681212448
6.644939776,1.0006257336989701,174.4126393096295
6.64722688,1.0007255609988401,174.26444715330655
6.649513984,1.0007797928503324,174.115141724743
6.651801088,1.0007849660768142,173.96542754420636
6.654088192,1.0007408590819666,173.8159676537847
6.656375296,1.0006499959080617,173.6675231274999
6.658661888,1.0005183088831766,173.5206714074019
6.660948992,1.0003540415430496,173.37598697367713
6.663236096,1.000167662286065,173.23385511222818
6.6655232,0.9999709671698729,173.09449296269457
6.667810304,0.9997763940888758,172.9579797758808
6.670097408,0.999596373093354,172.82421109703841
6.672384,0.999442248357517,172.69285990808825
6.674671104,0.9993238785016216,172.56351733951882
6.676958208,0.9992488076569755,172.4355622768304
6.679245312,0.9992217940811922,172.30837660217762
6.681532416,0.9992445041819581,172.18121917583647
6.68381952,0.9993155905473228,172.05337470583288
6.686106112,0.9994306776853992,171.92418051758924
6.688393216,0.9995822894461803,171.79307433468156
6.69068032,0.9997607937334947,171.65954598626806
6.692967424,0.9999549408960088,171.52329677873
6.695254528,1.0001523199736746,171.3842094849437
6.697541632,1.0003405269875438,171.24232485159072
6.699828224,1.0005074734674546,171.0978700844587
6.702115328,1.000642677556535,170.95119129076855
6.704402432,1.0007375696973115,170.80287071625912
6.706689536,1.0007861213538196,170.65351058437253
6.70897664,1.000785089002385,170.5037938119407
6.711263744,1.0007348263043312,170.3544503692121
6.713550848,1.0006382580828972,170.20619578341464
6.71583744,1.00050148531252,170.0596164164781
6.718124544,1.0003332665065725,169.91523224628108
6.720411648,1.0001442651262331,169.77347437096327
6.722698752,0.9999464173919516,169.63453090188904
6.724985856,0.9997522481423187,169.49844462197422
6.72727296,0.9995741449983044,169.36506651976538
6.729559552,0.9994232992662809,169.23409365382471
6.731846656,0.9993095301880847,169.10503875502394
6.73413376,0.9992399098895962,168.97732219117785
6.736420864,0.9992188528784636,168.85028412625067
6.738707968,0.9992478961563473,168.72318034583267
6.740995072,0.9993251086491494,168.59533583533968
6.743281664,0.9994454570967953,168.46603654119042
6.745568768,0.9996015519556124,168.33469506274355
6.747855872,0.9997833363756832,168.2009451060902
6.750142976,0.9999792536025511,168.06442717557016
6.75243008,1.0001769698081422,167.9250510542598
6.754717184,1.0003639801726338,167.7828841047627
6.757003776,1.0005281420459993,167.63819358496085
6.75929088,1.0006593832532316,167.49132453239463
6.761577984,1.0007490330698703,167.342835254174
6.763865088,1.0007918227741608,167.19342787655802
6.766152192,1.000784654506637,167.04374624569985
6.768439296,1.0007280561233327,166.89453465917197
6.770725888,1.0006257835823689,166.746464114395
6.773012992,1.0004841558002289,166.60015201977328
6.775300096,1.0003121304518219,166.4561352626045
6.7775872,1.00012062322511,166.31479203621515
6.779874304,0.9999218273930487,166.17623875562066
6.782161408,0.9997281578395399,166.04060143782297
6.784448512,0.9995520950689607,165.90761609354033
6.786735104,0.9994048507954529,165.77701736957155
6.789022208,0.9992956884774444,165.64826206028968
6.791309312,0.9992316175855703,165.520798514716
6.793596416,0.9992167365741823,165.3939115292806
6.79588352,0.9992519100141566,165.26685143392407
6.798170624,0.999334970085063,165.1389767526101
6.800457216,0.9994608924168548,165.009538858419
6.80274432,0.9996213169251364,164.8780751913475
6.805031424,0.9998061169544258,164.7440658355737
6.807318528,1.0000038096228179,164.60728743182582
6.809605632,1.0002015895805252,164.4676395426414
6.811892736,1.0003870434938738,164.32519249551376
6.814179328,1.000548401025866,164.1802414862724
6.816466432,1.0006754170869,164.03318166701422
6.818753536,1.0007599791493174,163.88461721742436
6.82104064,1.0007966837505833,163.7351423122637
6.823327744,1.0007833694167223,163.58550533811817
6.825614848,1.0007207382972647,163.43642605063525
6.82790144,1.000612713972821,163.2886023653492
6.830188544,1.0004661510268904,163.14260448819437
6.832475648,1.0002904531743524,162.99896634081685
6.834762752,1.000096575307282,162.85799267426526
6.837049856,0.9998969400808322,162.71993444566203
6.83933696,0.9997040782456318,162.58469270203236
6.841623552,0.9995303979664703,162.45212243758257
6.843910656,0.9993867285389862,162.32189059421108
6.84619776,0.999282402076759,162.1934665243453
6.848484864,0.9992239103737989,162.06622097851846
6.850771968,0.999215311691237,161.9394550233428
6.853059072,0.999256693313315,161.8124720690404
6.855345664,0.99934581978317,161.68456194482044
6.857632768,0.9994769208900723,161.55506831811255
6.859919872,0.9996415596355747,161.42339805206572
6.862206976,0.9998293555683876,161.2891617026419
6.86449408,1.0000285475012185,161.1521132967575
6.866781184,1.000226265111053,161.01216209913724
6.869068288,1.0004101258473068,160.8694669195227
6.87135488,1.0005683899356308,160.72427736753906
6.873641984,1.000690887425505,160.57706713673232
6.875929088,1.0007701813416465,160.42836952297964
6.878216192,1.0008008943237126,160.2789146552046
6.880503296,1.0007813412176672,160.1293249402052
6.8827904,1.0007125049290426,159.98041232402923
6.885076992,1.0005989206916288,159.8328184477409
6.887364096,1.0004477192212742,159.68716201239732
6.8896512,1.0002683516418411,159.54388903534792
6.891938304,1.000072193904653,159.403379893176
6.894225408,0.9998719370008283,159.26575606559186
6.896512512,0.999680092203304,159.13095078333126
6.898799104,0.9995087816467195,158.9988218415207
6.901086208,0.9993690397206976,158.86896294814127
6.903373312,0.9992696568165377,158.74083337487775
6.905660416,0.9992170351260994,158.61382787209106
6.90794752,0.9992144975543887,158.48722816364258
6.910234624,0.9992623265180787,158.3603468904682
6.912521216,0.9993572028343022,158.23235688842396
6.91480832,0.9994935610457809,158.10273226758977
