freq,mag,phase
6.0,0.9999975984141067,104.1204092497136
6.008,0.9999977182070912,104.00051947667988
6.016,0.9999978343697465,103.88055250839525
6.024,0.9999979469794839,103.76050822128566
6.032,0.9999980561126682,103.64038649190356
6.04,0.999998161844628,103.5201871969288
6.048,0.9999982642496607,103.3999102131698
6.056,0.9999983634010409,103.27955541756451
6.064,0.9999984593710286,103.15912268718148
6.072,0.999998552230876,103.03861189922092
6.08,0.9999986420508354,102.91802293101574
6.088,0.9999987289001657,102.7973556600326
6.096,0.999998812847141,102.67660996387298
6.104,0.9999988939590577,102.55578572027424
6.112,0.9999989723022417,102.4348828071107
6.12,0.9999990479420559,102.31390110239464
6.128,0.9999991209429081,102.19284048427747
6.136,0.9999991913682575,102.07170083105073
6.144,0.9999992592806234,101.95048202114724
6.152,0.9999993247415907,101.82918393314205
6.16,0.9999993878118199,101.70780644575368
6.168,0.9999994485510514,101.58634943784513
6.176,0.9999995070181158,101.46481278842494
6.184,0.999999563270939,101.34319637664835
6.192,0.9999996173665507,101.2215000818184
6.2,0.9999996693610916,101.09972378338692
6.208,0.9999997193098205,100.9778673609558
6.216,0.9999997672671214,100.85593069427796
6.224,0.999999813286511,100.73391366325853
6.232,0.9999998574206466,100.61181614795596
6.24,0.9999998997213321,100.4896380285831
6.248,0.9999999402395265,100.3673791855084
6.256,0.9999999790253501,100.24503949925689
6.264,0.9999999999999999,100.1226188505115
6.272,0.9999999999999999,100.00011712011404
6.28,1.0,99.8775341890664
6.288,0.9999999999999999,99.75486993853166
6.296,1.0,99.63212424983527
6.304,1.0,99.50929700446615
6.312,1.0,99.38638808407788
6.32,0.9999999999999998,99.26339737048983
6.328,1.0,99.14032474568829
6.336,0.9999999999999999,99.01717009182775
6.344,1.0,98.89393329123183
6.352,0.9999999999999999,98.77061422639471
6.36,1.0,98.64721277998214
6.368,0.9999999999999999,98.5237288348326
6.376,1.0,98.40016227395861
6.384,0.9999999999999999,98.27651298054779
6.392,0.9999999999999999,98.15278083796406
6.4,1.0,98.0289657297489
6.408,1.0,97.90506753962248
6.416,1.0,97.78108615148483
6.424,0.9999999999999999,97.65702144941709
6.432,1.0,97.53287331768274
6.44,1.0000000000000002,97.40864164072873
6.448,0.9999999999999999,97.2843263031867
6.456,0.9999999999999999,97.15992718987427
6.464,0.9999999999999999,97.03544418579615
6.472,1.0,96.91087717614546
6.48,0.9999999999999999,96.78622604630488
6.4879999999999995,1.0,96.6614906818479
6.496,0.9999999999999999,96.53667096854005
6.504,0.9999999999999999,96.4117667923402
6.5120000000000005,0.9999999999999999,96.28677803940163
6.52,0.9999999999999999,96.16170459607352
6.5280000000000005,1.0,96.03654634890194
6.536,0.9999999999999999,95.9113031846313
6.5440000000000005,1.0,95.78597499020542
6.552,1.0,95.66056165276903
6.5600000000000005,1.0,95.53506305966877
6.568,0.9999999999999999,95.40947909845467
6.5760000000000005,1.0,95.28380965688117
6.584,1.0,95.15805462290876
6.592,1.0,95.0322138847049
6.6,0.9999999999999999,94.90628733064543
6.608,1.0,94.78027484931594
6.616,0.9999999999999999,94.65417632951295
6.624,0.9999999999999999,94.5279916602452
6.632,1.0,94.40172073073505
6.64,1.0,94.27536343041965
6.648,1.0,94.1489196489523
6.656,0.9999999999999999,94.02238927620381
6.664,0.9999999999999999,93.8957722022637
6.672,1.0,93.76906831744157
6.68,1.0,93.64227751226844
6.688,1.0,93.51539967749807
6.696,0.9999999999999998,93.38843470410822
6.704,0.9999999999999999,93.26138248330203
6.712,0.9999999999999999,93.1342429065094
6.72,1.0,93.00701586538817
6.728,1.0,92.87970125182568
6.736,0.9999999999999999,92.75229895793994
6.744,1.0,92.62480887608102
6.752,1.0,92.49723089883244
6.76,1.0,92.36956491901255
6.768,0.9999999999999999,92.24181082967577
6.776,0.9999999999999999,92.11396852411407
6.784,1.0,91.98603789585829
6.792,1.0,91.85801883867954
6.8,1.0,91.72991124659053
6.808,0.9999999999999999,91.60171501384697
6.816,1.0,91.47343003494898
6.824,1.0,91.34505620464242
6.832,0.9999999999999999,91.21659341792036
6.84,1.0,91.08804157002443
6.848,0.9999999999999999,90.95940055644616
6.856,0.9999999999999999,90.8306702729285
6.864,1.0,90.70185061546715
6.872,0.9999999999999999,90.572941480312
6.88,1.0,90.4439427639685
6.888,0.9999999999999999,90.31485436319916
6.896,0.9999999999999999,90.18567617502487
6.904,1.0,90.05640809672644
6.912,1.0,89.92705002584594
6.92,1.0,89.79760186018817
6.928,1.0,89.66806349782206
6.936,0.9999999999999999,89.5384348370822
6.944,1.0,89.40871577657019
6.952,0.9999999999999999,89.27890621515616
6.96,0.9999999999999999,89.14900605198014
6.968,1.0000000000000002,89.01901518645364
6.976,1.0,88.88893351826097
6.984,0.9999999999999999,88.75876094736086
6.992,0.9999999999999999,88.62849737398774
7.0,1.0,88.49814269865342
7.008,0.9999999999999998,88.3676968221484
7.016,1.0,88.23715964554346
7.024,1.0,88.10653107019104
7.032,1.0,87.97581099772685
7.04,1.0,87.84499933007129
7.048,0.9999999999999999,87.71409596943091
7.056,1.0,87.58310081830004
7.064,0.9999999999999999,87.45201377946212
7.072,1.0,87.32083475599137
7.08,1.0,87.1895636512542
7.088,1.0,87.05820036891078
7.096,0.9999999999999999,86.92674481291651
7.104,0.9999999999999999,86.79519688752357
7.112,1.0,86.66355649728249
7.12,1.0,86.53182354704359
7.128,1.0,86.39999794195857
7.136,0.9999999999999999,86.26807958748209
7.144,1.0,86.13606838937321
7.152,0.9999999999999999,86.00396425369702
7.16,1.0,85.87176708682613
7.168,1.0,85.73947679544234
7.176,0.9999999999999999,85.607093286538
7.184,0.9999999999999999,85.47461646741777
7.192,0.9999999999999999,85.34204624570009
7.2,1.0,85.20938252931872
7.208,0.9999999999999999,85.07662522652438
7.216,0.9999999999999999,84.94377424588635
7.224,1.0,84.81082949629392
7.232,1.0,84.6777908869581
7.24,0.9999999999999999,84.54465832741319
7.248,1.0,84.41143172751828
7.256,0.9999999999999999,84.27811099745898
7.264,1.0,84.14469604774892
7.272,0.9999999999999999,84.01118678923142
7.28,1.0,83.877583133081
7.288,0.9999999999999999,83.74388499080513
7.296,0.9999999999999999,83.61009227424574
7.304,1.0,83.47620489558085
7.312,0.9999999999999999,83.34222276732623
7.32,1.0,83.20814580233703
7.328,0.9999999999999998,83.07397391380931
7.336,1.0,82.93970701528184
7.344,1.0,82.8053450206376
7.352,0.9999999999999999,82.67088784410547
7.36,1.0,82.53633540026188
7.368,1.0,82.4016876040324
7.376,1.0000000000000002,82.26694437069354
7.384,1.0,82.1321056158742
7.392,1.0,81.9971712555575
7.4,1.0,81.86214120608236
7.4079999999999995,0.9999999999999998,81.72701538414516
7.416,1.0,81.59179370680144
7.4239999999999995,1.0,81.45647609146761
7.432,1.0,81.32106245592246
7.4399999999999995,0.9999999999999999,81.18555271830913
7.448,1.0,81.04994679713644
7.4559999999999995,0.9999999999999999,80.91424461128092
7.464,1.0,80.77844607998823
7.4719999999999995,1.0,80.64255112287503
7.48,1.0,80.50655965993057
7.4879999999999995,0.9999999999999999,80.37047161151845
7.496,1.0,80.23428689837829
7.504,0.9999999999999999,80.09800544162752
7.5120000000000005,1.0,79.96162716276287
7.52,1.0,79.82515198366245
7.5280000000000005,1.0,79.68857982658706
7.536,0.9999999999999999,79.55191061418228
7.5440000000000005,1.0,79.41514426947985
7.552,1.0,79.27828071589973
7.5600000000000005,1.0,79.14131987725155
7.568,1.0,79.00426167773655
7.5760000000000005,0.9999999999999999,78.86710604194914
7.584,0.9999999999999999,78.72985289487889
7.5920000000000005,1.0,78.59250216191191
7.6,0.9999999999999998,78.45505376883298
7.6080000000000005,0.9999999999999999,78.317507641827
7.616,1.0,78.179863707481
7.6240000000000006,0.9999999999999999,78.04212189278564
7.632,0.9999999999999999,77.90428212513719
7.640000000000001,0.9999999999999999,77.76634433233907
7.648,0.9999999999999999,77.62830844260395
7.656000000000001,1.0,77.49017438455506
7.664,1.0,77.35194208722848
7.672,1.0,77.21361148007443
7.68,1.0,77.0751824929594
7.688,1.0,76.93665505616772
7.696,1.0,76.79802910040351
7.704,1.0,76.65930455679228
7.712,1.0,76.52048135688293
7.72,0.9999999999999999,76.38155943264933
7.728,0.9999999999999999,76.24253871649229
7.736,0.9999999999999998,76.10341914124128
7.744,1.0,75.96420064015619
7.752,1.0,75.82488314692925
7.76,1.0,75.68546659568675
7.768,1.0,75.54595092099082
7.776,0.9999999999999999,75.40633605784136
7.784,0.9999999999999999,75.26662194167776
7.792,1.0,75.12680850838072
7.8,0.9999999999999999,74.98689569427417
7.808,1.0,74.84688343612693
7.816,0.9999999999999999,74.7067716711547
7.824,1.0,74.56656033702173
7.832,0.9999999999999999,74.42624937184283
7.84,1.0,74.28583871418503
7.848,0.9999999999999998,74.14532830306953
7.856,1.0,74.0047180779735
7.864,1.0,73.86400797883188
7.872,1.0,73.72319794603932
7.88,1.0,73.58228792045193
7.888,1.0,73.44127784338916
7.896,1.0,73.30016765663571
7.904,0.9999999999999999,73.15895730244328
7.912,0.9999999999999999,73.01764672353247
7.92,0.9999999999999999,72.87623586309466
7.928,1.0,72.73472466479384
7.936,0.9999999999999999,72.59311307276849
7.944,1.0,72.45140103163341
7.952,0.9999999999999999,72.30958848648159
7.96,1.0,72.16767538288615
7.968,0.9999999999999999,72.02566166690211
7.976,1.0,71.8835472850683
7.984,0.9999999999999999,71.74133218440927
7.992,0.9999999999999999,71.59901631243709
8.0,0.9999999999999999,71.45659961715329
8.008,1.0,71.31408204705072
8.016,0.9999999999999999,71.17146355111537
8.024000000000001,0.9999999999999999,71.0287440788284
8.032,0.9999999999999999,70.8859235801679
8.04,1.0,70.74300200561075
8.048,0.9999999999999999,70.59997930613459
8.056000000000001,0.9999999999999998,70.45685543321972
8.064,0.9999999999999999,70.31363033885096
8.072,0.9999999999999999,70.17030397551946
8.08,1.0,70.02687629622469
8.088000000000001,1.0,69.88334725447633
8.096,1.0,69.73971680429622
8.104,0.9999999999999999,69.59598490022006
8.112,0.9999999999999999,69.45215149729943
8.120000000000001,1.0,69.30821655110378
8.128,0.9999999999999999,69.16418001772227
8.136,0.9999999999999999,69.02004185376552
8.144,0.9999999999999999,68.87580201636767
8.152000000000001,1.0,68.73146046318834
8.16,0.9999999999999999,68.58701715241442
8.168,1.0,68.44247204276192
8.176,1.0,68.29782509347801
8.184000000000001,0.9999999999999998,68.15307626434294
8.192,0.9999999999999999,68.00822551567187
8.2,1.0,67.86327280831672
8.208,1.0,67.71821810366822
8.216000000000001,1.0,67.57306136365776
8.224,0.9999999999999999,67.42780255075935
8.232,0.9999999999999999,67.28244162799142
8.24,1.0,67.1369785589188
8.248000000000001,1.0,66.99141330765465
8.256,1.0,66.84574583886247
8.264,1.0,66.69997611775771
8.272,1.0,66.55410411010999
8.280000000000001,0.9999999999999999,66.40812978224491
8.288,0.9999999999999999,66.26205310104598
8.296,1.0,66.11587403395647
8.304,1.0,65.96959254898132
8.312,1.0,65.82320861468929
8.32,1.0,65.6767222002145
8.328,1.0,65.5301332752587
8.336,0.9999999999999999,65.3834418100929
8.344,0.9999999999999999,65.23664777555956
8.352,1.0,65.08975114307421
8.36,1.0,64.9427518846277
8.368,1.0,64.79564997278771
8.376,0.9999999999999999,64.64844538070113
8.384,1.0,64.50113808209554
8.392,1.0,64.35372805128148
8.4,1.0,64.20621526315405
8.408,1.0,64.05859969319515
8.416,1.0,63.910881317475074
8.424,0.9999999999999999,63.76306011265469
8.432,1.0,63.6151360559871
8.44,0.9999999999999999,63.46710912531984
8.448,0.9999999999999999,63.318979299096526
8.456,1.0,63.17074655635892
8.464,1.0,63.02241087674875
8.472,1.0000000000000002,62.87397224050973
8.48,0.9999999999999999,62.725430628489306
8.488,1.0,62.576786022140745
8.496,1.0,62.42803840352484
8.504,1.0,62.27918775531203
8.512,1.0,62.13023406078406
8.52,0.9999999999999999,61.98117730383616
8.528,0.9999999999999999,61.832017468978634
8.536,0.9999999999999999,61.68275454133905
8.544,1.0,61.53338850666389
8.552,0.9999999999999999,61.383919351320685
8.56,0.9999999999999999,61.234347062299605
8.568,1.0,61.084671627215705
8.576,1.0,60.93489303431046
8.584,1.0,60.78501127245398
8.592,0.9999999999999999,60.63502633114658
8.6,1.0,60.48493820052094
8.608,1.0,60.33474687134378
8.616,1.0,60.184452335017895
8.624,0.9999999999999999,60.03405458358384
8.632,0.9999999999999999,59.8835536097221
8.64,1.0000000000000002,59.732949406754564
8.648,0.9999999999999999,59.582241968646784
8.656,1.0,59.431431290009556
8.664,1.0,59.28051736610099
8.672,1.0,59.12950019282813
8.68,1.0,58.97837976674913
8.688,1.0,58.82715608507478
8.696,0.9999999999999999,58.67582914567061
8.704,1.0,58.52439894705855
8.712,1.0,58.372865488419016
8.72,1.0,58.22122876959239
8.728,1.0,58.06948879108126
8.736,1.0,57.91764555405192
8.744,1.0,57.76569906033648
8.752,0.9999999999999999,57.61364931243444
8.76,0.9999999999999999,57.46149631351476
8.768,1.0,57.309240067417385
8.776,1.0,57.15688057865543
8.784,0.9999999999999999,57.00441785241667
8.792,1.0,56.851851894565556
8.8,1.0,56.69918271164486
8.808,0.9999999999999999,56.54641031087768
8.815999999999999,1.0,56.39353470016899
8.824,1.0,56.240555888107636
8.832,0.9999999999999999,56.08747388396803
8.84,1.0,55.934288697712006
8.847999999999999,1.0,55.78100033999049
8.856,0.9999999999999998,55.627608822145305
8.864,1.0,55.474114156211066
8.872,0.9999999999999999,55.32051635491681
8.879999999999999,0.9999999999999999,55.16681543168782
8.888,1.0,55.01301140064722
8.896,0.9999999999999999,54.859104276618105
8.904,0.9999999999999998,54.705094075124876
8.911999999999999,1.0,54.55098081239524
8.92,1.0,54.396764505361716
8.928,0.9999999999999999,54.24244517166369
8.936,1.0,54.088022829648885
8.943999999999999,0.9999999999999999,53.93349749837513
8.952,0.9999999999999999,53.77886919761207
8.96,1.0,53.62413794784294
8.968,0.9999999999999999,53.46930377026627
8.975999999999999,0.9999999999999998,53.31436668679745
8.984,1.0,53.15932672007049
8.992,1.0,53.0041838934398
9.0,1.0,52.84893823098177
9.008,1.0,52.6935897574964
9.016,1.0,52.53813849850902
9.024000000000001,1.0,52.382584480271966
9.032,1.0,52.226927729766295
9.04,0.9999999999999999,52.071168274703204
9.048,0.9999999999999999,51.91530614352582
9.056000000000001,1.0,51.759341365410904
9.064,1.0,51.60327397027039
9.072,1.0,51.447103988752914
9.08,0.9999999999999999,51.290831452245484
9.088000000000001,1.0,51.13445639287522
9.096,1.0,50.977978843510805
9.104,1.0,50.82139883776402
9.112,1.0,50.66471640999141
9.120000000000001,0.9999999999999999,50.5079315952959
9.128,0.9999999999999999,50.351044429528315
9.136,0.9999999999999999,50.19405494928887
9.144,0.9999999999999999,50.036963191928706
9.152000000000001,1.0,49.87976919555162
9.16,1.0,49.72247299901543
9.168,1.0,49.56507464193348
9.176,1.0,49.407574164676156
9.184000000000001,1.0,49.24997160837256
9.192,1.0,49.092267014911876
9.2,1.0,48.93446042694477
9.208,1.0,48.77655188788495
9.216000000000001,1.0,48.61854144191073
9.224,0.9999999999999998,48.460429133966414
9.232,1.0,48.30221500976365
9.24,1.0,48.14389911578293
9.248000000000001,1.0,47.98548149927517
9.256,0.9999999999999999,47.826962208262934
9.264,0.9999999999999998,47.6683412915419
9.272,1.0,47.509618798682254
9.280000000000001,1.0,47.35079478003017
9.288,0.9999999999999999,47.19186928670914
9.296,0.9999999999999998,47.032842370621225
9.304,1.0,46.873714084448565
9.312000000000001,1.0,46.71448448165471
9.32,1.0,46.55515361648591
9.328,1.0,46.395721543972456
9.336,1.0,46.23618831992997
9.344,0.9999999999999999,46.07655400096084
9.352,1.0,45.91681864445528
9.36,1.0,45.75698230859291
9.368,1.0,45.59704505234371
9.376,1.0,45.43700693546958
9.384,1.0,45.27686801852531
9.392,1.0,45.11662836286013
9.4,1.0,44.95628803061854
9.408,0.9999999999999999,44.795847084741986
9.416,1.0,44.63530558896961
9.424,0.9999999999999999,44.47466360783978
9.432,1.0,44.31392120669102
9.44,0.9999999999999999,44.15307845166344
9.448,0.9999999999999999,43.99213540969956
9.456,1.0,43.83109214854578
9.464,1.0,43.669948736753184
9.472,1.0,43.508705243679
9.48,1.0,43.347361739487326
9.488,1.0,43.18591829515053
9.496,1.0,43.02437498245013
9.504,0.9999999999999999,42.86273187397797
9.512,0.9999999999999999,42.70098904313711
9.52,0.9999999999999999,42.53914656414311
9.528,0.9999999999999999,42.377204512024704
9.536,0.9999999999999999,42.2151629626252
9.544,1.0,42.05302199260303
9.552,0.9999999999999999,41.89078167943318
9.56,1.0,41.72844210140774
9.568,1.0,41.566003337637156
9.576,1.0,41.403465468050904
9.584,1.0,41.240828573398694
9.592,0.9999999999999999,41.07809273525104
9.6,0.9999999999999999,40.91525803600046
9.608,1.0,40.752324558862064
9.616,0.9999999999999999,40.589292387874664
9.624,1.0,40.42616160790135
9.632,1.0,40.26293230463059
9.64,1.0,40.09960456457673
9.648,1.0,39.936178475081135
9.656,1.0,39.772654124312574
9.664,1.0,39.60903160126837
9.672,1.0,39.44531099577473
9.68,1.0,39.281492398487885
9.688,0.9999999999999998,39.1175759008944
9.696,0.9999999999999999,38.953561595312244
9.704,0.9999999999999999,38.78944957489108
9.712,1.0,38.625239933613294
9.72,0.9999999999999999,38.46093276629429
9.728,0.9999999999999999,38.296528168583386
9.736,1.0,38.13202623696419
9.744,0.9999999999999999,37.9674270687554
9.752,1.0,37.80273076211113
9.76,1.0,37.63793741602173
9.768,1.0,37.47304713031402
9.776,0.9999999999999999,37.308060005652095
9.784,1.0,37.142976143537524
9.792,1.0,36.97779564631009
9.8,1.0,36.81251861714802
9.808,1.0000000000000002,36.64714516006863
9.816,1.0,36.481675379928504
9.824,1.0,36.316109382424116
9.832,0.9999999999999999,36.15044727409204
9.84,0.9999999999999999,35.984689162309394
9.847999999999999,1.0,35.818835155294146
9.856,0.9999999999999998,35.65288536210539
9.864,1.0,35.486839892643715
9.872,1.0,35.32069885765153
9.879999999999999,0.9999999999999999,35.1544623687131
9.888,0.9999999999999999,34.98813053825491
9.896,1.0,34.82170347954599
9.904,0.9999999999999999,34.655181306697955
9.911999999999999,0.9999999999999999,34.48856413466517
9.92,1.0,34.321852079244906
9.928,0.9999999999999999,34.155045257077624
9.936,1.0,33.98814378564689
9.943999999999999,1.0,33.82114778327951
9.952,1.0,33.65405736914556
9.96,0.9999999999999999,33.48687266325855
9.968,1.0,33.319593786475366
9.975999999999999,0.9999999999999999,33.152220860496165
9.984,1.0,32.98475400786441
9.992,1.0,32.81719335196695
10.0,1.0,32.6495390170338
10.008,0.9999999999999999,32.48179112813801
10.016,1.0,32.3139498111956
10.024000000000001,1.0,32.146015192965464
10.032,0.9999999999999999,31.977987401049155
10.04,1.0000000000000002,31.809866563890633
10.048,0.9999999999999999,31.64165281077608
10.056000000000001,1.0,31.4733462718337
10.064,1.0,31.304947078033496
10.072,1.0,31.136455361186766
10.08,0.9999999999999999,30.967871253945937
10.088000000000001,1.0,30.799194889804248
10.096,1.0,30.6304264030954
10.104,0.9999999999999999,30.46156592899293
10.112,1.0,30.29261360351005
10.120000000000001,0.9999999999999999,30.123569563499103
10.128,1.0,29.9544339466511
10.136,1.0,29.78520689149519
10.144,0.9999999999999999,29.61588853739811
10.152000000000001,0.9999999999999999,29.446479024563775
10.16,1.0,29.276978494032598
10.168,0.9999999999999998,29.10738708768082
10.176,1.0,28.937704948219938
10.184000000000001,1.0,28.76793221919615
10.192,1.0,28.598069044989547
10.2,0.9999999999999999,28.428115570813368
10.208,1.0,28.25807194271329
10.216000000000001,0.9999999999999999,28.087938307566752
10.224,1.0,27.917714813082103
10.232,1.0,27.747401607797638
10.24,1.0,27.57699884108087
10.248000000000001,1.0000000000000002,27.406506663127697
10.256,1.0,27.235925224961417
10.264,1.0,27.065254678431693
10.272,1.0,26.894495176213674
10.280000000000001,1.0,26.72364687180705
10.288,1.0000000000000002,26.552709919534944
10.296,1.0,26.3816844745428
10.304,1.0000000000000002,26.210570692797315
10.312000000000001,1.0,26.039368731085435
10.32,1.0,25.86807874701309
10.328,1.0,25.696700899003947
10.336,0.9999999999999999,25.52523534629828
10.344000000000001,1.0,25.35368224895177
10.352,1.0,25.18204176783418
10.36,1.0,25.010314064627913
10.368,0.9999999999999999,24.838499301826825
10.376000000000001,1.0,24.666597642734818
10.384,1.0,24.49460925146449
10.392,1.0,24.32253429293548
10.4,1.0,24.15037293287317
10.408000000000001,1.0,23.978125337807192
10.416,1.0,23.805791675069866
10.424,1.0,23.633372112794497
