freq,mag,phase
6.0,1.0,134.31799086726312
6.008,1.0,134.2543844620037
6.016,0.9999999731939291,134.19076757367114
6.024,0.9999999252782343,134.12714018744757
6.032,0.999999880925232,134.06350228852267
6.04,0.9999998400826928,133.99985386209377
6.048,0.9999998026986524,133.9361948933656
6.056,0.999999768721411,133.87252536755054
6.064,0.9999997380995325,133.80884526986836
6.072,0.9999997107818454,133.74515458554646
6.08,0.9999996867174406,133.6814532998197
6.088,0.9999996658556712,133.61774139793047
6.096,0.9999996481461534,133.55401886512863
6.104,0.9999996335387636,133.49028568667154
6.112,0.9999996219836402,133.42654184782413
6.12,0.9999996134311813,133.3627873338587
6.128,0.9999996078320448,133.29902213005514
6.136,0.9999996051371484,133.23524622170066
6.144,0.9999996052976682,133.17145959409007
6.152,0.9999996082650385,133.10766223252566
6.16,0.9999996139909517,133.04385412231701
6.168,0.999999622427357,132.9800352487814
6.176,0.99999963352646,132.91620559724336
6.184,0.9999996472407231,132.8523651530349
6.192,0.9999996635228636,132.78851390149552
6.2,0.9999996823258538,132.72465182797205
6.208,0.9999997036029212,132.66077891781887
6.216,0.9999997273075468,132.59689515639766
6.224,0.9999997533934645,132.53300052907755
6.232,0.9999997818146614,132.46909502123512
6.24,0.9999998125253778,132.4051786182543
6.248,0.9999998454801039,132.34125130552638
6.256,0.9999998806335834,132.2773130684501
6.264,0.999999917940809,132.21336389243154
6.272,0.9999999573570241,132.14940376288413
6.28,0.9999999988377216,132.08543266522872
6.288,0.9999999999999999,132.0214505848935
6.296,1.0,131.95745750731393
6.304,0.9999999999999999,131.89345341793296
6.312,0.9999999999999999,131.8294383022007
6.32,1.0000000000000002,131.7654121455748
6.328,0.9999999999999999,131.70137493352004
6.336,0.9999999999999999,131.6373266515086
6.344,0.9999999999999999,131.57326728502
6.352,1.0,131.50919681954093
6.36,1.0,131.44511524056557
6.368,1.0,131.3810225335952
6.376,1.0,131.31691868413844
6.384,1.0,131.2528036777112
6.392,1.0,131.18867749983664
6.4,1.0,131.12454013604523
6.408,1.0,131.0603915718745
6.416,1.0,130.99623179286942
6.424,1.0,130.93206078458203
6.432,1.0,130.86787853257172
6.44,1.0,130.80368502240503
6.448,1.0,130.7394802396556
6.456,1.0,130.67526416990447
6.464,1.0,130.6110367987397
6.472,0.9999999999999999,130.54679811175652
6.48,1.0,130.48254809455742
6.4879999999999995,1.0,130.41828673275197
6.496,1.0000000000000002,130.35401401195688
6.504,0.9999999999999999,130.289729917796
6.5120000000000005,1.0,130.22543443590035
6.52,1.0,130.16112755190798
6.5280000000000005,1.0,130.09680925146407
6.536,0.9999999999999999,130.03247952022096
6.5440000000000005,1.0,129.9681383438379
6.552,1.0,129.90378570798134
6.5600000000000005,1.0,129.83942159832475
6.568,0.9999999999999999,129.77504600054866
6.5760000000000005,1.0,129.71065890034055
6.584,1.0,129.64626028339507
6.592,1.0,129.58185013541365
6.6,1.0,129.5174284421049
6.608,1.0,129.45299518918435
6.616,0.9999999999999998,129.38855036237447
6.624,1.0,129.32409394740475
6.632,1.0,129.2596259300115
6.64,0.9999999999999999,129.19514629593806
6.648,1.0,129.13065503093463
6.656,1.0,129.06615212075832
6.664,1.0,129.0016375511731
6.672,1.0,128.93711130794983
6.68,1.0,128.87257337686617
6.688,1.0,128.8080237437067
6.696,0.9999999999999998,128.74346239426274
6.704,1.0,128.6788893143324
6.712,0.9999999999999999,128.6143044897206
6.72,1.0,128.5497079062391
6.728,0.9999999999999999,128.48509954970623
6.736,0.9999999999999999,128.42047940594725
6.744,1.0,128.35584746079394
6.752,0.9999999999999999,128.29120370008494
6.76,1.0,128.22654810966546
6.768,1.0,128.16188067538738
6.776,1.0000000000000002,128.09720138310922
6.784,1.0,128.03251021869613
6.792,1.0,127.96780716801986
6.8,0.9999999999999999,127.90309221695868
6.808,1.0,127.83836535139744
6.816,0.9999999999999999,127.77362655722749
6.824,0.9999999999999999,127.70887582034675
6.832,1.0,127.64411312665953
6.84,0.9999999999999999,127.57933846207672
6.848,1.0,127.51455181251548
6.856,1.0,127.44975316389953
6.864,1.0,127.38494250215886
6.872,0.9999999999999999,127.3201198132299
6.88,0.9999999999999999,127.25528508305538
6.888,1.0,127.19043829758432
6.896,1.0,127.12557944277202
6.904,1.0,127.06070850458002
6.912,1.0,126.99582546897614
6.92,0.9999999999999999,126.93093032193433
6.928,0.9999999999999999,126.86602304943472
6.936,0.9999999999999998,126.80110363746354
6.944,1.0,126.73617207201316
6.952,0.9999999999999999,126.67122833908205
6.96,1.0,126.60627242467459
6.968,1.0,126.54130431480128
6.976,1.0,126.47632399547857
6.984,1.0,126.41133145272877
6.992,1.0,126.34632667258018
7.0,0.9999999999999999,126.28130964106687
7.008,1.0,126.21628034422882
7.016,0.9999999999999999,126.15123876811174
7.024,1.0,126.08618489876712
7.032,0.9999999999999999,126.0211187222521
7.04,0.9999999999999999,125.95604022462956
7.048,0.9999999999999999,125.89094939196796
7.056,1.0,125.82584621034138
7.064,1.0,125.7607306658294
7.072,1.0,125.6956027445171
7.08,1.0,125.63046243249502
7.088,0.9999999999999999,125.56530971585913
7.096,1.0,125.50014458071072
7.104,0.9999999999999999,125.43496701315641
7.112,0.9999999999999998,125.36977699930812
7.12,1.0,125.30457452528285
7.128,1.0,125.23935957720289
7.136,1.0,125.17413214119561
7.144,0.9999999999999999,125.1088922033934
7.152,1.0,125.04363974993365
7.16,1.0,124.9783747669587
7.168,1.0,124.91309724061583
7.176,0.9999999999999999,124.84780715705703
7.184,1.0,124.78250450243917
7.192,0.9999999999999999,124.71718926292374
7.2,0.9999999999999999,124.65186142467698
7.208,1.0,124.58652097386958
7.216,1.0,124.52116789667679
7.224,1.0,124.4558021792784
7.232,1.0,124.39042380785838
7.24,0.9999999999999999,124.32503276860527
7.248,1.0,124.25962904771161
7.256,1.0,124.19421263137424
7.264,0.9999999999999999,124.12878350579408
7.272,1.0,124.063341657176
7.28,1.0,123.99788707172887
7.288,1.0,123.9324197356654
7.296,0.9999999999999999,123.86693963520207
7.304,0.9999999999999999,123.8014467565591
7.312,0.9999999999999999,123.73594108596023
7.32,1.0,123.6704226096328
7.328,1.0,123.6048913138076
7.336,1.0,123.53934718471866
7.344,1.0,123.47379020860338
7.352,1.0000000000000002,123.40822037170228
7.36,0.9999999999999999,123.34263766025892
7.368,1.0,123.27704206051985
7.376,1.0,123.21143355873444
7.384,1.0,123.1458121411549
7.392,1.0,123.08017779403608
7.4,0.9999999999999999,123.0145305036353
7.4079999999999995,1.0,122.94887025621237
7.416,1.0,122.8831970380295
7.4239999999999995,0.9999999999999999,122.817510835351
7.432,0.9999999999999998,122.75181163444334
7.4399999999999995,0.9999999999999999,122.686099421575
7.448,0.9999999999999999,122.62037418301617
7.4559999999999995,0.9999999999999999,122.55463590503899
7.464,1.0,122.48888457391705
7.4719999999999995,0.9999999999999999,122.42312017592548
7.48,0.9999999999999999,122.35734269734071
7.4879999999999995,1.0000000000000002,122.29155212444043
7.496,0.9999999999999999,122.22574844350335
7.504,1.0000000000000002,122.15993164080922
7.5120000000000005,1.0,122.0941017026384
7.52,1.0,122.02825861527204
7.5280000000000005,1.0,121.9624023649917
7.536,1.0,121.89653293807936
7.5440000000000005,1.0,121.83065032081706
7.552,1.0,121.76475449948698
7.5600000000000005,1.0,121.69884546037106
7.568,1.0,121.63292318975103
7.5760000000000005,0.9999999999999998,121.56698767390806
7.584,0.9999999999999998,121.50103889912269
7.5920000000000005,1.0,121.43507685167468
7.6,1.0,121.36910151784276
7.6080000000000005,1.0,121.30311288390442
7.616,1.0,121.23711093613585
7.6240000000000006,1.0,121.17109566081163
7.632,1.0,121.10506704420457
7.640000000000001,1.0,121.03902507258555
7.648,1.0,120.97296973222328
7.656000000000001,0.9999999999999998,120.90690100938403
7.664,1.0,120.84081889033159
7.672,0.9999999999999999,120.7747233613269
7.68,1.0,120.70861440862791
7.688,0.9999999999999999,120.6424920184893
7.696,1.0,120.5763561771623
7.704,1.0000000000000002,120.51020687089445
7.712,1.0000000000000002,120.44404408592938
7.72,1.0,120.3778678085065
7.728,1.0000000000000002,120.31167802486081
7.736,0.9999999999999999,120.2454747212227
7.744,1.0,120.1792578838176
7.752,0.9999999999999999,120.11302749886572
7.76,1.0,120.04678355258193
7.768,1.0,119.98052603117533
7.776,1.0,119.9142549208491
7.784,0.9999999999999999,119.84797020780006
7.792,1.0000000000000002,119.78167187821862
7.8,0.9999999999999999,119.71535991828833
7.808,0.9999999999999999,119.64903431418558
7.816,0.9999999999999999,119.58269505207949
7.824,1.0,119.51634211813133
7.832,1.0,119.44997549849447
7.84,1.0,119.38359517931397
7.848,1.0,119.31720114672625
7.856,1.0,119.25079338685875
7.864,0.9999999999999999,119.18437188582976
7.872,0.9999999999999998,119.11793662974789
7.88,0.9999999999999998,119.05148760471192
7.888,0.9999999999999999,118.98502479681034
7.896,1.0,118.9185481921211
7.904,0.9999999999999999,118.8520577767112
7.912,0.9999999999999999,118.7855535366364
7.92,1.0,118.71903545794089
7.928,0.9999999999999999,118.65250352665686
7.936,1.0,118.58595772880417
7.944,1.0,118.51939805039011
7.952,1.0,118.45282447740883
7.96,1.0,118.38623699584117
7.968,0.9999999999999999,118.31963559165426
7.976,1.0,118.25302025080101
7.984,1.0,118.18639095921995
7.992,1.0,118.11974770283473
8.0,1.0,118.05309046755379
8.008,0.9999999999999999,117.98641923927002
8.016,1.0,117.91973400386034
8.024000000000001,1.0,117.85303474718538
8.032,1.0,117.7863214550891
8.04,1.0,117.71959411339843
8.048,0.9999999999999999,117.65285270792292
8.056000000000001,1.0,117.58609722445433
8.064,1.0,117.51932764876642
8.072,0.9999999999999999,117.45254396661444
8.08,0.9999999999999999,117.38574616373485
8.088000000000001,1.0,117.31893422584507
8.096,1.0,117.25210813864305
8.104,1.0,117.18526788780699
8.112,1.0,117.11841345899504
8.120000000000001,0.9999999999999999,117.05154483784501
8.128,0.9999999095916546,116.98466200997419
8.136,0.9999997007203951,116.91776496097887
8.144,0.9999994897729826,116.85085367643421
8.152000000000001,0.9999992767708925,116.78392814189408
8.16,0.9999990617365652,116.71698834289083
8.168,0.9999988446934354,116.65003426493492
8.176,0.9999986256659652,116.58306589351497
8.184000000000001,0.9999984046796743,116.5160832140976
8.192,0.9999981817611752,116.44908621212713
8.2,0.9999979569382067,116.38207487302579
8.208,0.9999977302396711,116.3150491821934
8.216000000000001,0.9999975016956705,116.24800912500754
8.224,0.9999972713375455,116.18095468682351
8.232,0.9999970391979143,116.1138858529744
8.24,0.9999968053107156,116.04680260877123
8.248000000000001,0.9999965697112485,115.97970493950307
8.256,0.9999963324362192,115.91259283043735
8.264,0.9999960935237838,115.84546626682
8.272,0.9999958530135973,115.77832523387585
8.280000000000001,0.9999956109468606,115.71116971680914
8.288,0.9999953673663707,115.64399970080379
8.296,0.9999951223165735,115.57681517102411
8.304,0.9999948758436147,115.50961611261525
8.312,0.9999946279953967,115.44240251070418
8.32,0.999994378821635,115.37517435040016
8.328,0.9999941283739141,115.30793161679593
8.336,0.9999938767057512,115.24067429496851
8.344,0.9999936238726552,115.1734023699805
8.352,0.9999933699321917,115.10611582688111
8.36,0.9999931149440474,115.03881465070774
8.368,0.9999928589700989,114.97149882648718
8.376,0.9999926020744805,114.90416833923766
8.384,0.9999923443236555,114.83682317397017
8.392,0.9999920857864902,114.76946331569084
8.4,0.9999918265343273,114.70208874940278
8.408,0.9999915666410626,114.63469946010842
8.416,0.9999913061832245,114.56729543281222
8.424,0.9999910452400541,114.49987665252301
8.432,0.9999907838935864,114.4324431042572
8.44,0.9999905222287362,114.36499477304184
8.448,0.9999902603333817,114.2975316439179
8.456,0.9999899982984529,114.23005370194409
8.464,0.9999897362180211,114.16256093220052
8.472,0.9999894741893893,114.0950533197932
8.48,0.9999892123131837,114.02753084985818
8.488,0.9999889506934475,113.95999350756668
8.496,0.999988689437736,113.89244127812997
8.504,0.9999884286572125,113.82487414680499
8.512,0.9999881684667439,113.7572920989001
8.52,0.9999879089850003,113.68969511978145
8.528,0.9999876503345516,113.62208319487941
8.536,0.9999873926419668,113.55445630969581
8.544,0.9999871360379129,113.4868144498113
8.552,0.9999868806572535,113.41915760089343
8.56,0.9999866266391468,113.35148574870487
8.568,0.9999863741271433,113.28379887911268
8.576,0.9999861232692827,113.21609697809743
8.584,0.9999858742181882,113.14838003176341
8.592,0.9999856271311602,113.08064802634921
8.6,0.9999853821702667,113.01290094823878
8.608,0.999985139502431,112.94513878397329
8.616,0.9999848992995167,112.87736152026352
8.624,0.9999846617384078,112.80956914400292
8.632,0.999984427001084,112.74176164228135
8.64,0.9999841952746925,112.6739390023995
8.648,0.9999839667516105,112.60610121188414
8.656,0.9999837416295031,112.53824825850377
8.664,0.9999835201113745,112.47038013028558
8.672,0.9999833024056062,112.40249681553249
8.68,0.9999830887259903,112.33459830284167
8.688,0.9999828792917492,112.26668458112322
8.696,0.9999826743275438,112.19875563962015
8.704,0.9999824740634702,112.1308114679288
8.712,0.9999822787350392,112.06285205602032
8.72,0.9999820885831435,111.99487739426282
8.728,0.9999819038540061,111.9268874734444
8.736,0.9999817247991092,111.85888228479686
8.744,0.9999815516751066,111.7908618200204
8.752,0.9999813847437099,111.72282607130877
8.76,0.9999812242715553,111.65477503137555
8.768,0.9999810705300437,111.5867086934807
8.776,0.9999809237951539,111.51862705145815
8.784,0.9999807843472276,111.4505300997437
8.792,0.9999806524707239,111.38241783340376
8.8,0.9999805284539423,111.31429024816421
8.808,0.9999804125887093,111.24614734044006
8.815999999999999,0.9999803051700304,111.17798910736516
8.824,0.9999802064957043,111.10981554682219
8.832,0.9999801168658943,111.04162665747283
8.84,0.9999800365826602,110.97342243878788
8.847999999999999,0.9999799659494466,110.90520289107702
8.856,0.9999799052705214,110.83696801551861
8.864,0.999979854850372,110.7687178141888
8.872,0.9999798149930488,110.70045229008986
8.879999999999999,0.999979786001459,110.6321714471779
8.888,0.9999797681766097,110.56387529038928
8.896,0.9999797618167957,110.49556382566594
8.904,0.9999797672167368,110.42723705997885
8.911999999999999,0.9999797846666559,110.35889500134992
8.92,0.9999798144513081,110.29053765887163
8.928,0.9999798568489505,110.22216504272437
8.936,0.99997991213026,110.15377716419096
8.943999999999999,0.9999799805571982,110.08537403566814
8.952,0.9999800623818229,110.0169556706749
8.96,0.9999801578450512,109.94852208385682
8.968,0.9999802671753737,109.88007329098657
8.975999999999999,0.9999803905875259,109.81160930895987
8.984,0.9999805282811159,109.74313015578676
8.992,0.9999806804392213,109.67463585057783
9.0,0.9999808472269467,109.60612641352479
9.008,0.9999810287899629,109.53760186587544
9.016,0.999981225253023,109.4690622299024
9.024000000000001,0.9999814367184688,109.40050752886545
9.032,0.999981663264731,109.33193778696719
9.04,0.9999819049448382,109.26335302930165
9.048,0.9999821617849364,109.19475328179574
9.056000000000001,0.9999824337828375,109.12613857114339
9.064,0.9999827209066006,109.05750892473216
9.072,0.9999830230931626,108.98886437056217
9.08,0.9999833402470271,108.92020493715752
9.088000000000001,0.9999836722390268,108.85153065347022
9.096,0.9999840189051707,108.78284154877645
9.104,0.9999843800455891,108.71413765256561
9.112,0.9999847554235903,108.64541899442251
9.120000000000001,0.9999851447648443,108.57668560390266
9.128,0.9999855477567021,108.50793751040143
9.136,0.9999859640476693,108.43917474301739
9.144,0.9999863932470389,108.37039733041057
9.152000000000001,0.9999868349247047,108.30160530065618
9.16,0.999987288611158,108.23279868109475
9.168,0.9999877537976779,108.16397749817926
9.176,0.9999882299367311,108.09514177732049
9.184000000000001,0.9999887164425778,108.02629154273137
9.192,0.9999892126921001,107.95742681727147
9.2,0.9999897180258435,107.8885476222927
9.208,0.9999902317492886,107.81965397748759
9.216000000000001,0.999990753134338,107.75074590074087
9.224,0.9999912814210277,107.68182340798606
9.232,0.9999918158194498,107.61288651306793
9.24,0.9999923555118854,107.54393522761222
9.248000000000001,0.9999928996551334,107.47496956090377
9.256,0.9999934473830311,107.40598951977397
9.264,0.9999939978091428,107.33699510849893
9.272,0.9999945500296115,107.26798632870904
9.280000000000001,0.999995103126146,107.19896317931132
9.288,0.999995656169133,107.12992565642456
9.296,0.9999962082208462,107.06087375332885
9.304,0.9999967583387334,106.9918074604293
9.312000000000001,0.9999973055787584,106.92272676523507
9.32,0.9999978489987716,106.85363165235334
9.328,0.9999983876618858,106.7845221034987
9.336,0.9999989206398322,106.71539809751812
9.344,0.9999994470162716,106.64625961043096
9.352,0.9999999658900353,106.57710661548386
9.36,1.0,106.50793908322024
9.368,1.0,106.4387569815634
9.376,1.0,106.36956027591299
9.384,0.9999999999999999,106.30034892925362
9.392,1.0,106.23112290227475
9.4,1.0,106.16188215350094
9.408,0.9999999999999999,106.09262663943132
9.416,1.0,106.02335631468668
9.424,1.0,105.95407113216375
9.432,0.9999999999999998,105.88477104319443
9.44,1.0,105.81545599770972
9.448,0.9999999999999999,105.74612594440593
9.456,1.0,105.6767808309131
9.464,1.0,105.60742060396328
9.472,1.0,105.5380452095585
9.48,0.9999999999999999,105.46865459313645
9.488,0.9999999999999999,105.39924869973332
9.496,1.0,105.32982747414265
9.504,0.9999999999999999,105.26039086106938
9.512,0.9999999999999999,105.19093880527802
9.52,0.9999999999999998,105.1214712517347
9.528,1.0,105.05198814574189
9.536,1.0,104.98248943306584
9.544,1.0,104.91297506005589
9.552,1.0,104.84344497375554
9.56,0.9999999999999999,104.7738991220049
9.568,1.0,104.70433745353454
9.576,1.0,104.63475991805045
9.584,1.0,104.56516646631043
9.592,1.0,104.49555705019144
9.6,1.0,104.42593162274888
9.608,1.0,104.35629013826701
9.616,1.0,104.28663255230184
9.624,1.0,104.21695882171561
9.632,0.9999999999999999,104.14726890470439
9.64,1.0,104.07756276081817
9.648,0.9999999999999998,104.00784035097448
9.656,1.0,103.93810163746562
9.664,1.0,103.86834658396002
9.672,0.9999999999999999,103.79857515549818
9.68,1.0,103.72878731848367
9.688,1.0,103.6589830406693
9.696,1.0,103.5891622911395
9.704,1.0,103.51932504028865
9.712,1.0,103.44947125979628
9.72,0.9999999999999999,103.37960092259922
9.728,0.9999999999999999,103.3097140028613
9.736,0.9999999999999999,103.23981047594067
9.744,0.9999999999999999,103.16989031835551
9.752,0.9999999999999998,103.09995350774797
9.76,1.0,103.03000002284703
9.768,1.0,102.96002984343033
9.776,1.0,102.89004295028539
9.784,0.9999999999999999,102.82003932517016
9.792,0.9999999999999999,102.75001895077366
9.8,0.9999999999999999,102.6799818106763
9.808,1.0,102.60992788931046
9.816,0.9999999999999999,102.5398571719214
9.824,0.9999999999999999,102.46976964452861
9.832,1.0,102.39966529388758
9.84,1.0,102.32954410745258
9.847999999999999,1.0,102.25940607333985
9.856,1.0,102.18925118029198
9.864,1.0,102.11907941764308
9.872,0.9999999999999999,102.04889077528487
9.879999999999999,0.9999999999999999,101.978685243634
9.888,0.9999999999999999,101.9084628136003
9.896,0.9999996728421244,101.83822347655618
9.904,0.9999992480778858,101.76796722430727
9.911999999999999,0.9999988183406522,101.69769404906395
9.92,0.9999983838986423,101.62740394341425
9.928,0.9999979450125949,101.55709690029781
9.936,0.9999975019358267,101.486772912981
9.943999999999999,0.9999970549143061,101.41643197503303
9.952,0.9999966041867389,101.3460740803034
9.96,0.9999961499846646,101.27569922290026
9.968,0.999995692532565,101.20530739716988
9.975999999999999,0.9999952320479794,101.13489859767718
9.984,0.9999947687416284,101.06447281918727
9.992,0.9999943028175443,100.99403005664803
10.0,0.9999938344732068,100.9235703051735
10.008,0.9999933638996841,100.8530935600283
10.016,0.9999928912817758,100.78259981661294
10.024000000000001,0.9999924167981616,100.71208907045008
10.032,0.9999919406215492,100.6415613171713
10.04,0.9999914629188266,100.57101655250507
10.048,0.9999909838512137,100.50045477226517
