freq,mag,phase
6.0,0.9999995899274721,127.39154094260694
6.008,0.9999995673465178,127.31943829423699
6.016,0.9999995451649564,127.24732815043015
6.024,0.9999995233889238,127.1752104995231
6.032,0.999999502024454,127.10308532985906
6.04,0.999999481077477,127.03095262978769
6.048,0.999999460553821,126.95881238766529
6.056,0.9999994404592125,126.88666459185457
6.064,0.9999994207992758,126.81450923072485
6.072,0.9999994015795349,126.74234629265202
6.08,0.9999993828054135,126.67017576601842
6.088,0.9999993644822354,126.59799763921302
6.096,0.999999346615225,126.52581190063133
6.104,0.9999993292095082,126.45361853867533
6.112,0.9999993122701121,126.38141754175365
6.12,0.9999992958019669,126.30920889828144
6.128,0.9999992798099044,126.23699259668042
6.136,0.9999992642986612,126.1647686253789
6.144,0.9999992492728763,126.09253697281173
6.152,0.9999992347370937,126.02029762742032
6.16,0.9999992206957621,125.94805057765265
6.168,0.9999992071532356,125.87579581196334
6.176,0.9999991941137742,125.80353331881358
6.184,0.9999991815815439,125.73126308667105
6.192,0.9999991695606181,125.65898510401014
6.2,0.9999991580549774,125.58669935931174
6.208,0.99999914706851,125.51440584106341
6.216,0.9999991366050127,125.4421045377592
6.224,0.9999991266681915,125.36979543789985
6.232,0.9999991172616615,125.29747852999266
6.24,0.9999991083889476,125.22515380255155
6.248,0.9999991000534856,125.152821244097
6.256,0.9999990922586217,125.08048084315617
6.264,0.9999990850076145,125.0081325882627
6.272,0.9999990783036333,124.93577646795703
6.28,0.9999990721497606,124.86341247078606
6.288,0.9999990665489918,124.79104058530336
6.296,0.9999990615042356,124.71866080006912
6.304,0.9999990570183154,124.64627310365009
6.312,0.9999990530939671,124.57387748461971
6.32,0.9999990497338443,124.50147393155804
6.328,0.9999990469405144,124.42906243305173
6.336,0.9999990447164606,124.35664297769407
6.344,0.9999990430640835,124.28421555408494
6.352,0.9999990419857001,124.2117801508309
6.36,0.999999041483545,124.13933675654515
6.368,0.999999041559771,124.06688535984743
6.376,0.9999990422164494,123.99442594936421
6.384,0.9999990434555694,123.92195851372854
6.392,0.9999990452790415,123.84948304158016
6.4,0.9999990476886947,123.77699952156534
6.408,0.9999990506862788,123.7045079423371
6.416,0.9999990542734656,123.63200829255503
6.424,0.9999990584518466,123.55950056088538
6.432,0.9999990632229361,123.486984736001
6.44,0.9999990685881714,123.4144608065815
6.448,0.9999990745489118,123.34192876131297
6.456,0.9999990811064403,123.26938858888826
6.464,0.9999990882619642,123.1968402780068
6.472,0.9999990960166146,123.1242838173747
6.48,0.9999991043714481,123.0517191957047
6.4879999999999995,0.9999991133274463,122.97914640171618
6.496,0.9999991228855162,122.90656542413515
6.504,0.9999991330464922,122.83397625169428
6.5120000000000005,0.999999143811135,122.76137887313293
6.52,0.9999991551801324,122.688773277197
6.5280000000000005,0.9999991671541002,122.61615945263912
6.536,0.999999179733583,122.54353738821855
6.5440000000000005,0.9999991929190531,122.47090707270121
6.552,0.9999992067109134,122.39826849485956
6.5600000000000005,0.9999992211094951,122.32562164347289
6.568,0.9999992361150608,122.252966507327
6.5760000000000005,0.9999992517278032,122.1803030752143
6.584,0.9999992679478463,122.10763133593402
6.592,0.999999284775246,122.03495127829181
6.6,0.99999930220999,121.96226289110018
6.608,0.9999993202519987,121.88956616317819
6.616,0.999999338901126,121.81686108335145
6.624,0.9999993581571586,121.74414764045237
6.632,0.9999993780198183,121.67142582331994
6.64,0.9999993984887607,121.59869562079975
6.648,0.9999994195635762,121.52595702174406
6.656,0.9999994412437915,121.4532100150118
6.664,0.9999994635288683,121.38045458946856
6.672,0.9999994864182058,121.30769073398643
6.68,0.9999995099111388,121.2349184374443
6.688,0.9999995340069411,121.16213768872761
6.696,0.9999995587048229,121.08934847672845
6.704,0.9999995840039334,121.01655079034555
6.712,0.9999996099033601,120.94374461848427
6.72,0.9999996364021307,120.87092995005662
6.728,0.9999996634992112,120.7981067739812
6.736,0.9999996911935093,120.72527507918328
6.744,0.999999719483872,120.65243485459474
6.752,0.9999997483690887,120.57958608915408
6.76,0.9999997778478891,120.50672877180645
6.768,0.999999807918946,120.43386289150357
6.776,0.9999998385808738,120.36098843720386
6.784,0.9999998698322308,120.28810539787231
6.792,0.9999999016715179,120.21521376248053
6.8,0.9999999340971802,120.14231352000677
6.808,0.9999999671076075,120.06940465943582
6.816,1.0000000000000002,119.99648716975925
6.824,1.0,119.92356103997503
6.832,1.0,119.85062625908789
6.84,1.0,119.77768281610913
6.848,1.0,119.70473070005661
6.856,1.0,119.63176989995485
6.864,1.0,119.55880040483495
6.872,1.0,119.4858222037346
6.88,0.9999999999999999,119.41283528569808
6.888,1.0,119.33983963977629
6.896,0.9999999999999999,119.2668352550267
6.904,1.0,119.19382212051339
6.912,1.0,119.12080022530698
6.92,1.0,119.04776955848472
6.928,0.9999999999999998,118.97473010913043
6.936,1.0,118.90168186633451
6.944,1.0,118.82862481919393
6.952,1.0,118.75555895681221
6.96,0.9999999999999999,118.68248426829945
6.968,0.9999999999999999,118.60940074277237
6.976,1.0,118.53630836935419
6.984,1.0,118.46320713717469
6.992,0.9999999999999999,118.39009703537025
7.0,1.0,118.31697805308379
7.008,1.0,118.24385017946476
7.016,0.9999999999999999,118.17071340366918
7.024,1.0,118.0975677148596
7.032,0.9999999999999999,118.02441310220512
7.04,1.0,117.95124955488137
7.048,1.0,117.87807706207053
7.056,0.9999999999999999,117.8048956129613
7.064,1.0,117.73170519674892
7.072,0.9999999999999999,117.6585058026351
7.08,0.9999999999999999,117.58529741982815
7.088,0.9999999999999999,117.51208003754283
7.096,1.0,117.43885364500048
7.104,1.0,117.3656182314289
7.112,1.0000000000000002,117.29237378606234
7.12,1.0,117.2191202981417
7.128,1.0,117.14585775691422
7.136,1.0,117.07258615163377
7.144,0.9999999999999999,116.99930547156062
7.152,0.9999999999999999,116.92601570596149
7.16,0.9999999999999999,116.85271684410974
7.168,0.9999999999999999,116.77940887528503
7.176,1.0,116.70609178877355
7.184,0.9999999999999999,116.63276557386803
7.192,0.9999999999999999,116.55943021986758
7.2,1.0,116.48608571607778
7.208,1.0,116.41273205181072
7.216,1.0,116.33936921638485
7.224,0.9999999999999999,116.26599719912514
7.232,0.9999999999999999,116.19261598936296
7.24,0.9999999999999999,116.11922557643614
7.248,0.9999999999999999,116.0458259496889
7.256,0.9999999999999999,115.97241709847196
7.264,0.9999999999999999,115.8989990121424
7.272,1.0,115.8255716800637
7.28,1.0,115.7521350916058
7.288,0.9999999999999999,115.67868923614505
7.296,0.9999999999999999,115.60523410306416
7.304,1.0000000000000002,115.53176968175227
7.312,1.0,115.4582959616049
7.32,1.0,115.38481293202393
7.328,0.9999999999999999,115.31132058241766
7.336,1.0,115.23781890220076
7.344,0.9999999999999999,115.16430788079424
7.352,0.9999999999999999,115.09078750762545
7.36,1.0,115.01725777212823
7.368,1.0,114.94371866374264
7.376,1.0,114.87017017191515
7.384,1.0,114.79661228609855
7.392,0.9999999999999999,114.72304499575195
7.4,0.9999999999999999,114.64946829034083
7.4079999999999995,0.9999999999999999,114.57588215933697
7.416,0.9999999999999999,114.50228659221848
7.4239999999999995,0.9999999999999999,114.42868157846982
7.432,0.9999999999999999,114.35506710758165
7.4399999999999995,1.0,114.28144316905104
7.448,0.9999999999999999,114.20780975238132
7.4559999999999995,1.0,114.13416684708213
7.464,1.0,114.0605144426693
7.4719999999999995,0.9999999999999999,113.98685252866507
7.48,1.0,113.91318109459785
7.4879999999999995,1.0,113.8395001300024
7.496,0.9999999999999999,113.76580962441965
7.504,1.0,113.69210956739686
7.5120000000000005,1.0000000000000002,113.61839994848748
7.52,1.0000000000000002,113.54468075725123
7.5280000000000005,0.9999999999999999,113.47095198325405
7.536,1.0000000000000002,113.39721361606814
7.5440000000000005,0.9999999999999999,113.32346564527187
7.552,1.0,113.24970806044986
7.5600000000000005,0.9999999999999999,113.1759408511929
7.568,1.0,113.10216400709805
7.5760000000000005,1.0,113.02837751776848
7.584,0.9999999999999999,112.95458137281362
7.5920000000000005,0.9999999999999999,112.88077556184903
7.6,0.9999999999999999,112.80696007449647
7.6080000000000005,1.0,112.73313490038383
7.616,1.0,112.65930002914524
7.6240000000000006,1.0,112.58545545042091
7.632,1.0,112.5116011538572
7.640000000000001,1.0,112.43773712910662
7.648,1.0,112.36386336582787
7.656000000000001,1.0,112.28997985368568
7.664,1.0,112.21608658235094
7.672,1.0,112.14218354150066
7.68,1.0,112.06827072081794
7.688,0.9999999999999999,111.99434810999198
7.696,1.0,111.92041569871806
7.704,1.0,111.84647347669754
7.712,1.0,111.77252143363788
7.72,1.0,111.69855955925259
7.728,1.0,111.62458784326121
7.736,1.0,111.55060627538938
7.744,1.0,111.47661484536874
7.752,0.9999999999999998,111.40261354293699
7.76,1.0,111.32860235783785
7.768,1.0,111.25458127982108
7.776,0.9999999999999999,111.1805502986424
7.784,1.0,111.10650940406359
7.792,1.0,111.03245858585241
7.8,0.9999999999999999,110.9583978337826
7.808,1.0,110.88432713763387
7.816,1.0,110.81024648719193
7.824,0.9999999999999999,110.73615587224845
7.832,1.0,110.66205528260103
7.84,1.0,110.58794470805327
7.848,1.0,110.51382413841466
7.856,0.9999999999999999,110.43969356350063
7.864,0.9999999999999999,110.36555297313255
7.872,0.9999999999999998,110.29140235713771
7.88,0.9999999999999999,110.21724170534932
7.888,1.0,110.14307100760642
7.896,1.0,110.06889025375402
7.904,1.0,109.99469943364299
7.912,1.0,109.92049853713004
7.92,0.9999999999999999,109.8462875540778
7.928,1.0,109.77206647435472
7.936,0.9999999999999999,109.69783528783508
7.944,1.0,109.62359398439908
7.952,1.0,109.54934255393265
7.96,1.0,109.47508098632763
7.968,1.0,109.4008092714816
7.976,0.9999999999999999,109.32652739929804
7.984,0.9999999999999999,109.25223535968613
7.992,0.9999999999999999,109.17793314256086
8.0,1.0,109.10362073784304
8.008,1.0,109.02929813545924
8.016,0.9999999999999999,108.95496532534175
8.024000000000001,1.0,108.88062229742864
8.032,0.9999999999999999,108.80626904166377
8.04,0.9999999999999999,108.73190554799665
8.048,1.0,108.65753180638254
8.056000000000001,1.0,108.58314780678243
8.064,1.0,108.50875353916308
8.072,0.9999999999999999,108.43434899349683
8.08,1.0,108.35993415976175
8.088000000000001,1.0,108.28550902794166
8.096,1.0,108.21107358802595
8.104,1.0,108.13662783000974
8.112,1.0,108.06217174389377
8.120000000000001,1.0,107.98770531968444
8.128,1.0,107.91322854739374
8.136,0.9999999999999999,107.83874141703939
8.144,1.0,107.76424391864458
8.152000000000001,1.0,107.68973604223821
8.16,0.9999999999999999,107.61521777785475
8.168,0.9999999999999999,107.54068911553425
8.176,0.9999999999999999,107.46615004532232
8.184000000000001,0.9999999999999999,107.39160055727017
8.192,1.0,107.31704064143456
8.2,1.0,107.24247028787777
8.208,1.0,107.16788948666763
8.216000000000001,1.0,107.09329822787755
8.224,0.9999999999999998,107.01869650158639
8.232,1.0,106.94408429787856
8.24,1.0,106.86946160684393
8.248000000000001,0.9999999999999999,106.7948284185779
8.256,1.0,106.72018472318135
8.264,1.0,106.6455305107606
8.272,0.9999999999999999,106.57086577142744
8.280000000000001,0.9999999999999999,106.4961904952991
8.288,1.0,106.42150467249832
8.296,1.0,106.34680829315319
8.304,1.0,106.27210134739722
8.312,1.0,106.19738382536941
8.32,0.9999999999999999,106.12265571721407
8.328,1.0,106.04791701308099
8.336,1.0,105.97316770312521
8.344,0.9999999999999999,105.89840777750732
8.352,0.9999999999999999,105.82363722639309
8.36,0.9999999999999999,105.74885603995378
8.368,1.0,105.67406420836589
8.376,0.9999999999999999,105.59926172181135
8.384,1.0,105.52444857047728
8.392,0.9999999999999999,105.44962474455625
8.4,1.0,105.37479023424602
8.408,0.9999999999999999,105.29994502974971
8.416,0.9999999999999999,105.22508912127567
8.424,1.0,105.15022249903758
8.432,0.9999999999999999,105.07534515325429
8.44,0.9999999999999999,105.00045707414999
8.448,1.0,104.92555825195406
8.456,0.9999999999999998,104.8506486769011
8.464,1.0,104.77572833923092
8.472,1.0,104.70079722918864
8.48,0.9999999999999999,104.62585533702442
8.488,0.9999999999999999,104.5509026529937
8.496,0.9999999999999999,104.4759391673571
8.504,1.0000000000000002,104.40096487038036
8.512,1.0,104.3259797523344
8.52,0.9999999999999999,104.25098380349532
8.528,1.0,104.17597701414428
8.536,1.0,104.10095937456762
8.544,0.9999999999999999,104.02593087505674
8.552,1.0,103.95089150590825
8.56,1.0,103.8758412574237
8.568,1.0,103.80078011990986
8.576,1.0,103.72570808367848
8.584,1.0,103.65062513904644
8.592,1.0,103.5755312763356
8.6,0.9999999999999999,103.50042648587291
8.608,1.0,103.42531075799033
8.616,1.0,103.35018408302486
8.624,1.0,103.27504645131845
8.632,1.0000000000000002,103.19989785321812
8.64,1.0,103.12473827907583
8.648,1.0,103.04956771924856
8.656,1.0,102.97438616409816
8.664,0.9999999999999999,102.89919360399159
8.672,1.0,102.8239900293006
8.68,1.0,102.74877543040198
8.688,0.9999999999999999,102.67354979767737
8.696,0.9999999999999999,102.59831312151339
8.704,1.0,102.52306539230149
8.712,1.0,102.4478066004381
8.72,0.9999999999999999,102.37253673632442
8.728,1.0,102.29725579036665
8.736,0.9999999999999999,102.22196375297573
8.744,1.0,102.14666061456754
8.752,1.0,102.07134636556272
8.76,1.0,101.99602099638682
8.768,0.9999999999999999,101.92068449747012
8.776,0.9999999999999999,101.84533685924781
8.784,0.9999999999999999,101.76997807215976
8.792,1.0,101.69460812665072
8.8,0.9999999999999999,101.61922701317016
8.808,0.9999999999999999,101.54383472217238
8.815999999999999,1.0,101.46843124411635
8.824,1.0,101.39301656946579
8.832,0.9999999999999998,101.31759068868925
8.84,1.0,101.24215359225994
8.847999999999999,1.0,101.16670527065575
8.856,1.0000000000000002,101.09124571435929
8.864,0.9999999999999998,101.01577491385792
8.872,1.0,100.94029285964362
8.879999999999999,1.0,100.86479954221304
8.888,0.9999999999999999,100.78929495206752
8.896,1.0,100.71377907971302
8.904,0.9999999999999999,100.63825191566019
8.911999999999999,1.0,100.56271345042427
8.92,1.0,100.48716367452509
8.928,0.9999999999999999,100.41160257848715
8.936,1.0,100.33603015283953
8.943999999999999,1.0,100.26044638811587
8.952,1.0,100.18485127485438
8.96,1.0,100.1092448035979
8.968,1.0,100.03362696489383
8.975999999999999,0.9999999999999999,99.95799774929401
8.984,1.0,99.88235714735491
8.992,1.0,99.8067051496375
9.0,0.9999999999999999,99.73104174670726
9.008,1.0,99.65536692913423
9.016,1.0,99.57968068749287
9.024000000000001,0.9999999999999998,99.50398301236214
9.032,1.0,99.42827389432556
9.04,1.0,99.352553323971
9.048,0.9999999999999999,99.27682129189084
9.056000000000001,0.9999999999999999,99.20107778868194
9.064,0.9999999999999999,99.12532280494555
9.072,0.9999999999999999,99.0495563312874
9.08,0.9999999999999999,98.97377835831756
9.088000000000001,0.9999999999999999,98.89798887665054
9.096,0.9999999999999998,98.82218787690535
9.104,1.0,98.74637534970522
9.112,0.9999999999999998,98.67055128567785
9.120000000000001,1.0,98.59471567545532
9.128,1.0,98.51886850967405
9.136,1.0,98.44300977897483
9.144,1.0,98.36713947400274
9.152000000000001,1.0,98.29125758540727
9.16,1.0,98.21536410384218
9.168,1.0,98.13945901996556
9.176,1.0,98.0635423244398
9.184000000000001,0.9999999999999999,97.9876140079316
9.192,0.9999999999999999,97.91167406111197
9.2,1.0,97.83572247465612
9.208,1.0,97.75975923924362
9.216000000000001,0.9999999999999999,97.68378434555822
9.224,1.0,97.60779778428804
9.232,1.0,97.53179954612533
9.24,0.9999999999999998,97.45578962176661
9.248000000000001,1.0,97.37976800191262
9.256,1.0,97.3037346772684
9.264,1.0,97.22768963854307
9.272,0.9999999999999999,97.15163287645004
9.280000000000001,1.0,97.07556438170688
9.288,1.0,96.99948414503541
9.296,0.9999999999999999,96.92339215716154
9.304,1.0,96.84728840881537
9.312000000000001,1.0,96.77117289073121
9.32,0.9999999999999998,96.69504559364752
9.328,1.0,96.61890650830685
9.336,1.0,96.54275562545592
9.344,0.9999999999999999,96.46659293584564
9.352,1.0,96.39041843023092
9.36,1.0,96.31423209937094
9.368,1.0,96.23803393402886
9.376,1.0,96.16182392497205
9.384,1.0,96.0856020629719
9.392,1.0,96.00936833880394
9.4,0.9999999999999999,95.93312274324772
9.408,0.9999999999999998,95.85686526708696
9.416,1.0,95.78059590110938
9.424,1.0,95.70431463610683
9.432,1.0,95.62802146287513
9.44,0.9999999999999999,95.55171637221423
9.448,1.0,95.4753993549281
9.456,1.0,95.39907040182477
9.464,0.9999999999999998,95.32272950371626
9.472,0.9999999999999999,95.24637665141869
9.48,1.0,95.17001183575213
9.488,0.9999999999999999,95.09363504754076
9.496,1.0,95.01724627761267
9.504,0.9999999999999999,94.94084551680008
9.512,1.0,94.86443275593909
9.52,0.9999999999999999,94.78800798586992
9.528,0.9999999999999998,94.71157119743671
9.536,1.0,94.63512238148763
9.544,0.9999999999999999,94.55866152887482
9.552,1.0,94.48218863045444
9.56,0.9999999999999999,94.40570367708658
9.568,1.0,94.32920665963537
9.576,1.0,94.25269756896884
9.584,0.9999999999999999,94.1761763959591
9.592,1.0,94.09964313148213
9.6,1.0,94.02309776641793
9.608,1.0,93.94654029165044
9.616,1.0,93.86997069806758
9.624,1.0,93.79338897656125
9.632,1.0,93.71679511802726
9.64,1.0,93.64018911336542
9.648,0.9999999999999999,93.56357095347953
9.656,0.9999999999999999,93.48694062927721
9.664,0.9999999999999999,93.41029813167022
9.672,1.0,93.3336434515741
9.68,1.0,93.25697657990851
9.688,1.0,93.18029750759692
9.696,1.0,93.10360622556685
9.704,1.0,93.02690272474972
9.712,1.0,92.95018699608096
9.72,0.9999999999999999,92.8734590304999
9.728,0.9999999999999998,92.79671881894988
9.736,0.9999999999999999,92.71996635237817
9.744,0.9999999999999999,92.643201621736
9.752,0.9999999999999999,92.56642461797858
9.76,0.9999999999999999,92.48963533206512
9.768,0.9999999999999999,92.41283375495871
9.776,0.9999999999999999,92.33601987762651
9.784,0.9999999999999999,92.2591936910396
9.792,0.9999999999999998,92.18235518617308
9.8,0.9999999999999999,92.10550435400599
9.808,0.9999999999999999,92.02864118552141
9.816,1.0,91.95176567170635
9.824,1.0000000000000002,91.87487780355193
9.832,0.9999999999999998,91.79797757205317
9.84,0.9999999999999999,91.72106496820915
9.847999999999999,0.9999999999999999,91.64413998302297
9.856,1.0,91.56720260750174
9.864,1.0,91.49025283265661
9.872,0.9999999999999999,91.41329064950283
9.879999999999999,1.0,91.33631604905958
9.888,0.9999999999999999,91.2593290223502
9.896,0.9999999999999999,91.18232956040207
9.904,1.0,91.10531765424665
9.911999999999999,1.0,91.02829329491946
9.92,1.0,90.95125647346016
9.928,0.9999999999999999,90.87420718091249
9.936,0.9999999999999998,90.79714540832437
9.943999999999999,0.9999999999999999,90.72007114674774
9.952,1.0,90.6429843872388
9.96,1.0000000000000002,90.56588512085783
9.968,1.0,90.48877333866935
9.975999999999999,1.0,90.41164903174202
9.984,0.9999999999999999,90.3345121911487
9.992,1.0,90.25736280796652
10.0,1.0,90.18020087327682
10.008,1.0,90.10302637816514
10.016,1.0,90.02583931372135
10.024000000000001,1.0,89.94863967103957
10.032,1.0,89.8714274412183
10.04,1.0,89.79420261536026
10.048,1.0,89.71696518457254
10.056000000000001,1.0,89.63971513996665
10.064,0.9999999999999999,89.56245247265849
10.072,0.9999999999999999,89.48517717376828
10.08,1.0,89.40788923442072
10.088000000000001,1.0,89.330588645745
10.096,1.0,89.25327539887475
10.104,1.0,89.17594948494813
10.112,1.0,89.09861089510778
10.120000000000001,1.0,89.02125962050097
10.128,1.0,88.94389565227954
10.136,1.0,88.86651898159988
10.144,0.9999999999999999,88.78912959962311
10.152000000000001,1.0,88.71172749751497
10.16,1.0,88.63431266644596
10.168,1.0,88.55688509759125
10.176,1.0,88.47944478213083
10.184000000000001,0.9999999999999999,88.40199171124948
10.192,1.0,88.32452587613686
10.2,1.0,88.24704726798745
10.208,0.9999999999999999,88.1695558780007
10.216000000000001,0.9999999999999999,88.09205169738095
10.224,0.9999999999999999,88.01453471733763
10.232,1.0,87.93700492908513
