freq,mag,phase
6.0,0.9999966831389935,161.38869368795778
6.008,0.999996320877577,160.9523163224062
6.016,0.9999959641110576,160.51571855534942
6.024,0.9999956127989927,160.0788961736037
6.032,0.9999952669010818,159.64184494868513
6.04,0.9999949263771672,159.2045606370228
6.048,0.999994591187237,158.76703898017266
6.056,0.9999942612914262,158.3292757050333
6.064,0.9999939366500189,157.8912665240627
6.072,0.9999936172234476,157.4530071354967
6.08,0.9999933029722966,157.01449322356868
6.088,0.9999929938573027,156.5757204587311
6.096,0.9999926898393566,156.13668449787838
6.104,0.999992390879503,155.69738098457148
6.112,0.9999920969389452,155.25780554926425
6.12,0.9999918079790401,154.81795380953133
6.128,0.9999915239613053,154.37782137029797
6.136,0.9999912448474187,153.93740382407168
6.144,0.9999909705992152,153.49669675117576
6.152,0.9999907011786937,153.05569571998464
6.16,0.9999904365480129,152.61439628716144
6.168,0.999990176669498,152.17279399789734
6.176,0.9999899215056343,151.73088438615326
6.184,0.9999896710190728,151.28866297490347
6.192,0.9999894251726293,150.84612527638168
6.2,0.9999891839292869,150.4032667923292
6.208,0.9999889472521922,149.96008301424536
6.216,0.9999887151046626,149.51656942364073
6.224,0.9999884874501782,149.0727214922921
6.232,0.9999882642523915,148.62853468250057
6.24,0.9999880454751208,148.18400444735192
6.248,0.9999878310823523,147.73912623097965
6.256,0.9999876210382442,147.29389546883047
6.264,0.9999874153071218,146.84830758793322
6.272,0.9999872138534813,146.40235800716945
6.28,0.9999870166419873,145.9560421375481
6.288,0.9999868236374754,145.5093553824821
6.296,0.9999866348049515,145.06229313806855
6.304,0.9999864501095915,144.61485079337166
6.312,0.9999862695167431,144.167023730709
6.32,0.9999860929919211,143.71880732594067
6.328,0.9999859205008139,143.27019694876188
6.336,0.9999857520092794,142.82118796299883
6.344,0.9999855874833458,142.37177572690783
6.352,0.9999854268892112,141.92195559347797
6.36,0.9999852701932441,141.47172291073716
6.368,0.9999851173619828,141.0210730220619
6.376,0.9999849683621361,140.5700012664905
6.384,0.9999848231605811,140.11850297903996
6.392,0.9999846817243658,139.66657349102692
6.4,0.9999845440207062,139.214208130392
6.408,0.9999844100169856,138.7614022220282
6.416,0.999984279680759,138.3081510881135
6.424,0.999984152979746,137.85445004844703
6.432,0.9999840298818361,137.40029442078963
6.44,0.9999839103550843,136.94567952120852
6.448,0.9999837943677137,136.49060066442595
6.456,0.9999836818881113,136.03505316417267
6.464,0.9999835728848315,135.57903233354503
6.472,0.9999834673265937,135.12253348536714
6.48,0.9999833651822816,134.66555193255707
6.4879999999999995,0.9999832664209427,134.20808298849798
6.496,0.9999831710117857,133.75012196741326
6.504,0.9999830789241864,133.29166418474745
6.5120000000000005,0.9999829901276782,132.83270495755036
6.52,0.999982904591958,132.37323960486768
6.5280000000000005,0.9999828222868828,131.91326344813484
6.536,0.9999827431824687,131.45277181157755
6.5440000000000005,0.9999826672488915,130.99176002261538
6.552,0.9999825944564851,130.5302234122725
6.5600000000000005,0.9999825247757402,130.0681573155916
6.568,0.9999824581773047,129.60555707205464
6.5760000000000005,0.999982394631982,129.14241802600765
6.584,0.99998233411073,128.67873552709187
6.592,0.999982276584661,128.21450493067923
6.6,0.9999822220250407,127.74972159831425
6.608,0.9999821704032845,127.28438089816082
6.616,0.9999821216909625,126.81847820545497
6.624,0.9999820758597916,126.35200890296281
6.632,0.9999820328816403,125.88496838144475
6.64,0.9999819927285242,125.41735204012485
6.648,0.9999819553726056,124.94915528716653
6.656,0.9999819207861937,124.48037354015378
6.664,0.9999818889417426,124.01100222657833
6.672,0.9999818598118502,123.54103678433307
6.68,0.9999818333692564,123.07047266221122
6.688,0.9999818095868451,122.59930532041157
6.696,0.9999817884376384,122.12753023105009
6.704,0.9999817698947997,121.65514287867748
6.712,0.9999817539316299,121.18213876080311
6.72,0.9999817405215675,120.70851338842503
6.728,0.9999817296381868,120.23426228656666
6.736,0.999981721255197,119.7593809948195
6.744,0.9999817153464415,119.2838650678923
6.752,0.9999817118858956,118.80771007616693
6.76,0.999981710847666,118.33091160626041
6.768,0.99998171220599,117.85346526159374
6.776,0.9999817159352329,117.37536666296708
6.784,0.9999817220098886,116.89661144914159
6.792,0.999981730404576,116.41719527742806
6.8,0.9999817410940404,115.93711382428191
6.808,0.9999817540531499,115.45636278590513
6.816,0.999981769256896,114.97493787885469
6.824,0.999981786680391,114.49283484065796
6.832,0.9999818062988668,114.01004943043468
6.84,0.9999818280876749,113.52657742952569
6.848,0.9999818520222833,113.04241464212865
6.856,0.9999818780782765,112.55755689594028
6.864,0.9999819062313539,112.07200004280574
6.872,0.9999819364573277,111.58573995937451
6.88,0.9999819687321228,111.0987725477633
6.888,0.9999820030317752,110.6110937362257
6.896,0.999982039332429,110.12269947982877
6.904,0.9999820776103381,109.63358576113626
6.912,0.999982117841862,109.14374859089888
6.92,0.9999821600034664,108.65318400875118
6.928,0.9999822040717208,108.16188808391531
6.936,0.9999822500232979,107.66985691591164
6.944,0.9999822978349711,107.17708663527591
6.952,0.9999823474836145,106.68357340428348
6.96,0.9999823989462012,106.18931341767977
6.968,0.9999824521998018,105.694302903418
6.976,0.9999825072215822,105.198538123403
6.984,0.9999825639888048,104.70201537424202
6.992,0.9999826224788233,104.20473098800186
7.0,0.9999826826690854,103.70668133297265
7.008,0.9999827445371291,103.2078628144381
7.016,0.999982808060582,102.708271875452
7.024,0.99998287321716,102.20790499762123
7.032,0.9999829399846656,101.70675870189501
7.04,0.9999830083409881,101.20482954936034
7.048,0.9999830782640995,100.70211414204358
7.056,0.9999831497320562,100.19860912371809
7.064,0.9999832227229962,99.69431118071789
7.072,0.9999832972151382,99.18921704275718
7.08,0.9999833731867801,98.6833234837557
7.088,0.9999834506162973,98.17662732266959
7.096,0.9999835294821436,97.6691254243282
7.104,0.9999836097628463,97.16081470027606
7.112,0.9999836914370097,96.65169210962046
7.12,0.999983774483309,96.14175465988403
7.128,0.9999838588804928,95.63099940786277
7.136,0.9999839446073802,95.11942346048875
7.144,0.9999840316428605,94.60702397569781
7.152,0.999984119965892,94.09379816330222
7.16,0.9999842095554979,93.57974328586732
7.168,0.9999843003907711,93.0648566595932
7.176,0.9999843924508675,92.54913565520029
7.184,0.9999844857150088,92.03257769881898
7.192,0.9999845801624782,91.51518027288351
7.2,0.9999846757726231,90.99694091702911
7.208,0.9999847725248491,90.47785722899313
7.216,0.9999848703986246,89.95792686551934
7.224,0.9999849693734755,89.4371475432652
7.232,0.9999850694289873,88.91551703971248
7.24,0.9999851705448002,88.39303319408036
7.248,0.999985272700614,87.86969390824102
7.256,0.9999853758761811,87.34549714763767
7.264,0.9999854800513098,86.82044094220467
7.272,0.9999855852058616,86.29452338728927
7.28,0.9999856913197518,85.7677426445752
7.288,0.9999857983729458,85.24009694300732
7.296,0.9999859063454617,84.71158457971758
7.304,0.9999860152173681,84.1822039209517
7.312,0.9999861249687841,83.65195340299623
7.32,0.9999862355798756,83.12083153310617
7.328,0.9999863470308594,82.58883689043233
7.336,0.9999864593019993,82.05596812694837
7.344,0.999986572373605,81.52222396837729
7.352,0.9999866862260354,80.98760321511706
7.36,0.9999868008396946,80.45210474316474
7.368,0.9999869161950299,79.91572750503927
7.376,0.9999870322725384,79.3784705307023
7.384,0.9999871490527582,78.84033292847674
7.392,0.9999872665162727,78.30131388596264
7.4,0.9999873846437092,77.7614126709504
7.4079999999999995,0.9999875034157395,77.22062863233059
7.416,0.999987622813078,76.67896120099971
7.4239999999999995,0.9999877428164815,76.13640989076293
7.432,0.9999878634067502,75.5929742992311
7.4399999999999995,0.9999879845647277,75.04865410871439
7.448,0.999988106271298,74.5034490871093
7.4559999999999995,0.99998822850739,73.95735908878183
7.464,0.999988351253972,73.41038405544256
7.4719999999999995,0.9999884744920577,72.86252401701786
7.48,0.9999885982026993,72.31377909251168
7.4879999999999995,0.9999887223669938,71.76414949086262
7.496,0.9999888469660798,71.21363551179108
7.504,0.9999889719811385,70.66223754664063
7.5120000000000005,0.9999890973933934,70.1099560792085
7.52,0.9999892231841108,69.55679168656957
7.5280000000000005,0.9999893493345998,69.00274503988855
7.536,0.9999894758262139,68.44781690522463
7.5440000000000005,0.9999896026403483,67.89200814432363
7.552,0.9999897297584438,67.33531971540162
7.5600000000000005,0.999989857161985,66.77775267391497
7.568,0.999989984832501,66.21930817332105
7.5760000000000005,0.9999901127515676,65.6599874658246
7.584,0.9999902409008048,65.09979190311334
7.5920000000000005,0.9999903692618797,64.53872293707872
7.6,0.9999904978165075,63.97678212052475
7.6080000000000005,0.9999906265464498,63.41397110786101
7.616,0.9999907554335185,62.8502916557828
7.6240000000000006,0.9999908844595726,62.285745623934346
7.632,0.9999910136065223,61.72033497555849
7.640000000000001,0.9999911428563293,61.154061778128046
7.648,0.9999912721910069,60.58692820396283
7.656000000000001,0.9999914015926205,60.01893653082744
7.664,0.9999915310432897,59.450089142513534
7.672,0.9999916605251906,58.880388529401976
7.68,0.9999917900205522,58.3098372890082
7.688,0.9999919195116631,57.738438126507305
7.696,0.9999920489808689,57.166193855239904
7.704,0.9999921784105756,56.59310739719804
7.712,0.9999923077832494,56.01918178349027
7.72,0.9999924370814186,55.4444201547857
7.728,0.9999925662876751,54.868825761736524
7.736,0.9999926953846752,54.2924019653783
7.744,0.999992824355142,53.715152237507894
7.752,0.9999929531818665,53.13708016103801
7.76,0.9999930818477087,52.558189430328476
7.768,0.9999932103355986,51.978483851493316
7.776,0.9999933386285407,51.39796734268336
7.784,0.9999934667096113,50.81664393434376
7.792,0.9999935945619645,50.23451776944624
7.8,0.9999937221688303,49.65159310369527
7.808,0.9999938495135194,49.06787430570788
7.816,0.999993976579423,48.48336585716674
7.824,0.9999941033500154,47.8980723529458
7.832,0.9999942298088541,47.31199850120846
7.84,0.9999943559395873,46.72514912347733
7.848,0.9999944817259482,46.13752915467576
7.856,0.9999946071517624,45.54914364314008
7.864,0.9999947322009475,44.959997750602724
7.872,0.9999948568575172,44.37009675214554
7.88,0.9999949811055807,43.77944603612288
7.888,0.9999951049293471,43.18805110405431
7.896,0.9999952283131259,42.59591757048639
7.904,0.9999953512413309,42.00305116282328
7.912,0.9999954736984803,41.40945772112585
7.92,0.9999955956692016,40.81514319787873
7.928,0.9999957171382308,40.220113657725506
7.936,0.9999958380904167,39.624375277171154
7.944,0.9999959585107235,39.027934344251925
7.952,0.9999960783842312,38.43079725817209
7.96,0.9999961976961397,37.83297052890752
7.968,0.9999963164317703,37.23446077677566
7.976,0.9999964345765686,36.63527473197187
7.984,0.9999965521161063,36.03541923407173
7.992,0.9999966690360834,35.43490123149937
8.0,0.9999967853223327,34.83372778096135
8.008,0.9999969009608188,34.231906046846255
8.016,0.9999970159376437,33.629443300589294
8.024000000000001,0.9999971302390469,33.026346920003114
8.032,0.9999972438514094,32.42262438857286
8.04,0.9999973567612562,31.81828329471644
8.048,0.9999974689552565,31.213331331010377
8.056000000000001,0.9999975804202296,30.60777629338065
8.064,0.9999976911431443,30.001626080257992
8.072,0.9999978011111231,29.39488869169814
8.08,0.9999979103114441,28.78757222846771
8.088000000000001,0.9999980187315438,28.179684891094922
8.096,0.9999981263590187,27.571234978885123
8.104,0.9999982331816285,26.9622308889012
8.112,0.9999983391872981,26.352681114910027
8.120000000000001,0.9999984443641203,25.742594246294196
8.128,0.9999985487003579,25.131978966928727
8.136,0.9999986521844457,24.520844054023527
8.144,0.9999987548049943,23.909198376932174
8.152000000000001,0.9999988565507903,23.297050895926905
8.16,0.999998957410801,22.68441066093929
8.168,0.9999990573741739,22.071286810267527
8.176,0.9999991564302415,21.457688569251022
8.184000000000001,0.9999992545685216,20.843625248912254
8.192,0.9999993517787211,20.22910624456542
8.2,0.9999994480507367,19.614141034392894
8.208,0.9999995433746579,18.998739177990494
8.216000000000001,0.999999637740769,18.38291031488108
8.224,0.9999997311395507,17.766664162996783
8.232,0.999999823561682,17.150010517130376
8.24,0.999999914998043,16.532959247357184
8.248000000000001,1.0,15.915520297427214
8.256,1.0,15.297703683127441
8.264,1.0,14.679519490615574
8.272,1.0,14.060977874725936
8.280000000000001,1.0,13.442089057248
8.288,1.0,12.822863325177046
8.296,1.0,12.203311028938632
8.304,1.0,11.583442580587525
8.312,1.0,10.963268451981724
8.32,1.0,10.342799172930507
8.328,0.9999999999999999,9.722045329320617
8.336,0.9999999999999999,9.101017561217033
8.344,0.9999999999999999,8.479726560943543
8.352,0.9999999999999999,7.858183071139213
8.36,1.0,7.23639788279614
8.368,0.9999999999999999,6.614381833274626
8.376,1.0,5.992145804301077
8.384,0.9999999999999999,5.369700719945046
8.392,1.0,4.747057544580412
8.4,0.9999999999999999,4.124227280827419
8.408,1.0,3.5012209674804837
8.416,0.9999999999999999,2.8780496774184643
8.424,1.0,2.254724515502526
8.432,1.0,1.6312566164580204
8.44,0.9999999999999999,1.0076571427458383
8.448,0.9999999999999999,0.38393728241945524
8.456,1.0,-0.23989175302669385
8.464,0.9999999999999999,-0.8638187308214403
8.472,1.0,-1.487832399087957
8.48,1.0,-2.1119214890254447
8.488,1.0,-2.7360747170960327
8.496,0.9999999999999999,-3.3602807872203493
8.504,1.0,-3.984528392976359
8.512,1.0,-4.6088062198050945
8.52,0.9999999999999999,-5.233102947217808
8.528,0.9999999999999999,-5.857407251007948
8.536,1.0,-6.481707805462821
8.544,1.0,-7.1059932855780925
8.552,1.0,-7.730252369270139
8.56,1.0,-8.35447373958931
8.568,1.0,-8.978646086929022
8.576,1.0,-9.602758111234044
8.584,1.0,-10.22679852420263
8.592,0.9999999999999999,-10.85075605148599
8.6,1.0,-11.474619434879676
8.608,1.0,-12.09837743451042
8.616,1.0,-12.722018831013115
8.624,0.9999999999999999,-13.345532427701334
8.632,0.9999999999999999,-13.96890705272615
8.64,1.0,-14.592131561226713
8.648,0.9999999999999999,-15.215194837467253
8.656,0.9999999999999999,-15.838085796964098
8.664,1.0,-16.460793388597406
8.672,1.0,-17.083306596711015
8.68,1.0,-17.70561444319538
8.688,1.0,-18.327705989556968
8.696,1.0,-18.949570338968893
8.704,1.0,-19.571196638306525
8.712,1.0,-20.192574080162643
8.72,1.0,-20.813691904845907
8.728,1.0,-21.43453940235744
8.736,0.9999999999999999,-22.05510591434903
8.744,1.0,-22.675380836058007
8.752,1.0,-23.295353618222325
8.76,0.9999999999999999,-23.915013768970777
8.768,1.0,-24.534350855692022
8.776,1.0,-25.153354506877427
8.784,0.9999999999999998,-25.772014413941292
8.792,1.0,-26.390320333013694
8.8,1.0,-27.008262086709426
8.808,1.0,-27.62582956586822
8.815999999999999,1.0,-28.243012731269864
8.824,1.0,-28.859801615320247
8.832,1.0,-29.476186323709317
8.84,1.0,-30.0921570370407
8.847999999999999,0.9999999999999998,-30.707704012432142
8.856,1.0,-31.32281758508564
8.864,0.9999999999999999,-31.93748816982724
8.872,0.9999999999999999,-32.551706262616904
8.879999999999999,0.9999999999999999,-33.165462442027156
8.888,1.0,-33.77874737068982
8.896,1.0,-34.391551796710864
8.904,1.0,-35.00386655505358
8.911999999999999,0.9999999999999999,-35.61568256888938
8.92,1.0,-36.22699085091513
8.928,1.0,-36.837782504637325
8.936,1.0,-37.44804872562365
8.943999999999999,0.9999999999999999,-38.057780802720714
8.952,1.0,-38.66697011923759
8.96,1.0,-39.27560815409524
8.968,0.9999999999999999,-39.88368648294242
8.975999999999999,0.9999999999999999,-40.49119677923705
8.984,0.9999999999999999,-41.09813081529278
8.992,1.0,-41.704480463290885
9.0,1.0,-42.310237696258
9.008,1.0,-42.91539458900924
9.016,1.0000000000000002,-43.51994331905588
9.024000000000001,1.0,-44.1238761674784
9.032,1.0,-44.72718551976495
9.04,0.9999999999999999,-45.329863866615526
9.048,1.0,-45.931903804710316
9.056000000000001,1.0,-46.533298037443764
9.064,1.0,-47.134039375624305
9.072,0.9999999999999999,-47.73412073813965
9.08,0.9999999999999999,-48.33353515258719
9.088000000000001,1.0,-48.93227575586993
9.096,0.9999999999999999,-49.530335794759
9.104,1.0,-50.12770862642211
9.112,1.0,-50.72438771891766
9.120000000000001,1.0,-51.320366651655256
9.128,0.9999999999999999,-51.91563911582349
9.136,1.0,-52.51019891478438
9.144,1.0,-53.10403996443453
9.152000000000001,1.0,-53.69715629353367
9.16,0.9999999999999999,-54.28954204400117
9.168,1.0,-54.88119147118067
9.176,1.0,-55.47209894407241
9.184000000000001,1.0,-56.06225894553392
9.192,1.0,-56.651666072450375
9.2,1.0,-57.240315035874026
9.208,1.0,-57.82820066113263
9.216000000000001,1.0,-58.41531788790793
9.224,1.0,-59.00166177028505
9.232,1.0,-59.587227476772355
9.24,0.9999999999999999,-60.17201029029208
9.248000000000001,1.0,-60.75600560814255
9.256,1.0,-61.339208941932505
9.264,0.9999999999999999,-61.921615917488225
9.272,0.9999999999999999,-62.50322227473256
9.280000000000001,1.0,-63.08402386753742
9.288,1.0,-63.66401666355032
9.296,0.9999999999999999,-64.24319674399516
9.304,1.0,-64.82156030344703
9.312000000000001,1.0,-65.39910364958205
9.32,1.0,-65.97582320290324
9.328,0.9999999999999999,-66.55171549644265
9.336,0.9999999999999999,-67.12677717543905
9.344,1.0,-67.7010049969928
9.352,1.0,-68.27439582969936
9.36,1.0,-68.8469466532589
9.368,1.0,-69.41865455806624
9.376,1.0,-69.98951674477799
9.384,1.0,-70.55953052386087
9.392,1.0,-71.12869331511828
9.4,0.9999999999999999,-71.69700264719911
9.408,0.9999999999999999,-72.26445615708566
9.416,0.9999999999999999,-72.83105158956498
9.424,0.9999999999999999,-73.39678679668008
9.432,0.9999999999999999,-73.96165973716596
9.44,0.9999999999999999,-74.52566847586634
9.448,0.9999999999999999,-75.0888111831359
9.456,1.0,-75.65108613422467
9.464,1.0,-76.21249170864888
9.472,0.9999999999999999,-76.77302638954473
9.48,1.0000000000000002,-77.33268876300968
9.488,0.9999999999999999,-77.89147751742794
9.496,1.0,-78.4493914427841
9.504,1.0,-79.00642942996204
9.512,1.0,-79.56259047003319
9.52,0.9999999999999999,-80.11787365353068
9.528,1.0,-80.67227816971408
9.536,0.9999999999999999,-81.2258033058209
9.544,1.0,-81.77844844630957
9.552,1.0,-82.33021307209017
9.56,1.0,-82.88109675974759
9.568,0.9999999999999998,-83.43109918075335
9.576,1.0,-83.98022010067073
9.584,1.0,-84.52845937834951
9.592,0.9999999999999999,-85.07581696511477
9.6,1.0,-85.62229290394653
9.608,1.0,-86.16788732865388
9.616,0.9999999999999999,-86.71260046304106
9.624,0.9999999999999999,-87.2564326200689
9.632,0.9999999999999999,-87.79938420100892
9.64,1.0,-88.34145569459372
9.648,1.0,-88.88264767616066
9.656,1.0,-89.42296080679296
9.664,1.0,-89.96239583245458
9.672,0.9999999999999999,-90.5009535831233
9.68,0.9999999999999999,-91.03863497191861
9.688,1.0,-91.57544099422825
9.696,1.0,-92.1113727268304
9.704,0.9999999999999999,-92.64643132701529
9.712,1.0,-93.18061803170322
9.72,1.0,-93.71393415656243
9.728,0.9999999999999999,-94.24638109512422
9.736,1.0,-94.77796031789889
9.744,1.0,-95.30867337148898
9.752,0.9999999659170604,-95.83852187770424
9.76,0.9999999161588591,-96.36750753267488
9.768,0.9999998664352648,-96.89563210596665
9.776,0.9999998167533836,-97.42289743969486
9.784,0.999999767120248,-97.94930544764118
9.792,0.9999997175428141,-98.47485811436957
9.8,0.9999996680279652,-98.9995574943456
9.808,0.9999996185825084,-99.52340571105576
9.816,0.9999995692131773,-100.04640495613029
9.824,0.99999951992663,-100.56855748846661
9.832,0.9999994707294501,-101.08986563335704
9.84,0.9999994216281493,-101.61033178161715
9.847999999999999,0.9999993726291625,-102.12995838871919
9.856,0.999999323738852,-102.64874797392703
9.864,0.9999992749635073,-103.16670311943511
9.872,0.9999992263093433,-103.68382646951102
9.879999999999999,0.9999991777825032,-104.20012072964202
9.888,0.9999991293890559,-104.71558866568533
9.896,0.999999081134999,-105.2302331030222
