freq,mag,phase
6.0,1.0013174646324847,57.61721224098494
6.002286592,1.0010258296505739,57.42782203686256
6.004572672,1.0006694698303373,57.24312044286687
6.006859264,1.0002711294059778,57.06387495519201
6.009145344,0.9998558242389175,56.890522372114255
6.011431936,0.9994498647006717,56.72314478273865
6.013718016,0.9990787995836244,56.5614073791995
6.016004608,0.9987661325705154,56.40463823722322
6.018290688,0.9985317589216876,56.25187336782154
6.02057728,0.9983904218923414,56.10182434403948
6.022863872,0.9983512384333963,55.95310960129207
6.025149952,0.9984165787981251,55.804206964512275
6.027436544,0.9985825409987859,55.653624846215294
6.029722624,0.9988384051671053,55.499956315823994
6.032009216,0.9991681606736014,55.3420479219854
6.034295296,0.9995509357814123,55.178956268983086
6.036581888,0.9999624690405593,55.01009973958648
6.03886848,1.0003769238792029,54.83523015563804
6.04115456,1.0007680387137285,54.65454206063752
6.043441152,1.0011111718920511,54.468519585825646
6.045727232,1.0013847986622288,54.27804349326971
6.048013824,1.001571543363022,54.084243106849705
6.050299904,1.0016598319510264,53.888450456496166
6.052586496,1.001643912905662,53.69213028248128
6.054872576,1.0015249179615382,53.49677288809772
6.057159168,1.0013100870701594,53.30381878158269
6.05944576,1.0010130773773673,53.1145589297275
6.06173184,1.0006524518687414,52.93005669851798
6.064018432,1.0002508764388622,52.75106658854437
6.066304512,0.9998336530472098,52.57800247531241
6.068591104,0.9994271363655571,52.410906765905224
6.070877184,0.9990569695350802,52.24946995422087
6.073163776,0.9987466602398581,52.09297778532918
6.075450368,0.9985157723491983,51.94041371090054
6.077736448,0.9983789196659044,51.79055495744079
6.08002304,0.9983450158256529,51.64191579861467
6.08230912,0.9984161195427098,51.49301262083042
6.084595712,0.998587702369347,51.3423463153156
6.086881792,0.9988489580664851,51.18853545945201
6.089168384,0.9991834128600986,51.03037663583298
6.091454464,0.9995699565991855,50.86698197775168
6.093741056,0.9999841420583171,50.69775449467999
6.096027648,1.0003997154364246,50.52252512938581
6.098313728,1.0007906244286617,50.34144536017174
6.10060032,1.0011320869341787,50.155049424843426
6.1028864,1.0014026517536223,49.96421126548001
6.105172992,1.0015853636557446,49.770123536840444
6.107459072,1.001668741130377,49.57408159711785
6.109745664,1.0016473207076202,49.37758144775824
6.112032256,1.0015225270426802,49.18213460730094
6.114318336,1.0013021700579128,48.98917943318432
6.116604928,1.00100008268172,48.79996934078929
6.118891008,1.0006351552881145,48.61559989204728
6.1211776,1.0002303683111011,48.43679688737163
6.12346368,0.9998113302160846,48.2639432894343
6.125750272,0.999404275973716,48.09708613002541
6.128036352,0.9990350796554007,47.93586056211998
6.130322944,0.9987271389358187,47.77956129429764
6.132609536,0.9984997003245025,47.62716787355375
6.134895616,0.9983675740715342,47.477382787056996
6.137182208,0.9983389648837014,47.32876666313292
6.139468288,0.998415663310746,47.1797945119015
6.14175488,0.9985930541898632,47.028973387989424
6.14404096,0.9988596995437969,46.874924378368654
6.146327552,0.9991988775542222,46.716448087946674
6.148614144,0.9995891783372098,46.55268148244037
6.150900224,1.0000057175810475,46.38303566849694
6.153186816,1.000422534860316,46.20734041848696
6.155472896,1.0008131429800455,46.025782236537935
6.157759488,1.0011529702823971,45.838957358196396
6.160045568,1.0014205924156265,45.647704296560306
6.16233216,1.001599224941987,45.45323295976717
6.16461824,1.0016775061651075,45.25688284695937
6.166904832,1.0016505842527907,45.06016536375198
6.169191424,1.0015200680447651,44.86454990955645
6.171477504,1.0012941212309754,44.6715056689868
6.173764096,1.0009869114104883,44.48231615870651
6.176050176,1.0006177313537536,44.29798118614434
6.178336768,1.00020985769555,44.11928055207612
6.180622848,0.999788918290964,43.94658636158679
6.18290944,0.9993814399048515,43.7798973407732
6.18519552,0.9990132224641688,43.61883249087065
6.187482112,0.9987076501848593,43.46264977882493
6.189768704,0.998483871839664,43.31032654667658
6.192054784,0.9983563853008778,43.16056683961566
6.194341376,0.9983329974956328,43.01191015739248
6.196627456,0.9984154908511627,42.862786968762144
6.198914048,0.9985985522987645,42.71175521854183
6.201200128,0.998870564294898,42.55736515388674
6.20348672,0.9992144701606522,42.398518170881154
6.205773312,0.9996083876010756,42.234302080275356
6.208059392,1.0000275743684786,42.06415904006579
6.210345984,1.0004455112838109,41.88794531087819
6.212632064,1.0008358040719112,41.70586138550763
6.214918656,1.001173884874559,41.518504422986794
6.217204736,1.0014384598297026,41.32674814792111
6.219491328,1.00161286484366,41.13184003030884
6.221777408,1.0016861836044617,40.93511830291368
6.224064,1.0016536431811018,40.73807362083369
6.226350592,1.0015174104006639,40.54226126286359
6.228636672,1.0012858551439063,40.34907165238464
6.230923264,1.0009736976032648,40.15979138484604
6.233209344,1.0006002222879737,39.97547966302886
6.235495936,1.00018916963171,39.79682583642904
6.237782016,0.9997663930358155,39.624206688345616
6.240068608,0.9993585571448896,39.4576106050952
6.2423552,0.9989913676762725,39.29661788658212
6.24464128,0.9986881679152054,39.140503163092205
6.246927872,0.9984680450150386,38.98819103679358
6.249213952,0.9983451897204104,38.838359636162465
6.251500544,0.9983272583581058,38.689562853429784
6.253786624,0.9984153839847963,38.54025326520686
6.256073216,0.9986041879023609,38.388910132101365
6.258359296,0.9988815882303856,38.234148987488695
6.260645888,0.9992301220379486,38.07486537530409
6.26293248,0.9996278265437202,37.91009339912448
6.26521856,1.000049457804494,37.73939978613308
6.267505152,1.0004684571617477,37.562575565933194
6.269791232,1.000858355106275,37.37989963753192
6.272077824,1.001194687127388,37.19193573753866
6.274363904,1.001456218156192,36.99965519963387
6.276650496,1.0016264701378281,36.804218806098255
6.278937088,1.0016946823058221,36.60704384757817
6.281223168,1.001656637368926,36.4096576681016
6.28350976,1.001514656257583,36.213535244720525
6.28579584,1.0012775101114337,36.020145409782806
6.288082432,1.0009602252747696,35.83074406745031
6.290368512,1.0005825989630648,35.64631463879156
6.292655104,1.0001685021233098,35.46763792394024
6.294941184,0.9997439203392396,35.29502971031039
6.297227776,0.9993356623610633,35.128443856669044
6.299514368,0.9989695086122441,34.96747790476591
6.301800448,0.9986687586588849,34.81136900841523
6.30408704,0.9984523227819887,34.65898193484738
6.30637312,0.9983340790744832,34.50904095634281
6.308659712,0.9983215077846632,34.360052454788054
6.310945792,0.9984152806214157,34.21046372335137
6.313232384,0.9986098281125638,34.05873694905727
6.315518464,0.9988926282680726,33.90354233238837
6.317805056,0.9992458217768295,33.74368597556621
6.320091648,0.9996470618995096,33.57835967111547
6.322377728,1.000071194880744,33.40701610402089
6.32466432,1.0004912030750395,33.22953935033057
6.3269504,1.0008807961134942,33.046197019331935
6.329236992,1.001215375364205,32.857570387707966
6.331523072,1.001473736324589,32.66465824483707
6.333809664,1.0016397690337273,32.46865053997517
6.336096256,1.001703058965115,32.270981769926955
6.338382336,1.0016595170652238,32.0731268473317
6.340668928,1.0015117707556844,31.876646600436057
6.342955008,1.0012690415709464,31.682979219025857
6.3452416,1.0009467375711865,31.493359902429287
6.34752768,1.0005650643566935,31.30881433542179
6.349814272,1.0001478184792036,31.13004766738546
6.352100352,0.9997214595168202,30.9573743140625
6.354386944,0.9993129031826756,30.79074175019126
6.356673536,0.9989478608286013,30.629732648043774
6.358959616,0.9986494943080739,30.473503005172354
6.361246208,0.9984367762777253,30.321015028396015
6.363532288,0.9983231941941834,30.170868127527484
6.36581888,0.9983159241716496,30.021595579062847
6.36810496,0.998415499265802,29.871654457820817
6.370391552,0.9986156562809833,29.719494693443647
6.372678144,0.9989037758022139,29.563779100751105
6.374964224,0.9992615728514643,29.40334181094503
6.377250816,0.9996664804713659,29.237341996825812
6.379536896,1.0000928796419066,29.065315462632952
6.381823488,1.000514012123743,28.887095040823613
6.384109568,1.0009030893107995,28.703009400792897
6.38639616,1.0012359147106902,28.51366442107314
6.38868224,1.0014912113838472,28.32005309495716
6.390968832,1.0016531412033878,28.123406800691576
6.393255424,1.0017113630399754,27.925165525122495
6.395541504,1.0016622195346039,27.726821248581945
6.397828096,1.0015087938516667,27.5299200293727
6.400114176,1.0012606940450288,27.33589210568691
6.402400768,1.0009333932560267,27.145995904887656
6.404686848,1.000547513559676,26.961251249913712
6.40697344,1.0001272778505519,26.782326503747832
6.409260032,0.9996991293707334,26.60950678244087
6.411546112,0.9992902159180688,26.442751594174904
6.413832704,0.9989263257980829,26.28160538835257
6.416118784,0.9986305001540631,26.125253228599593
6.418405376,0.9984213865691559,25.972540610975006
6.420691456,0.998312391193251,25.822127997033405
6.422978048,0.9983105268053493,25.67252760433536
6.425264128,0.9984157958199774,25.522157270551087
6.42755072,0.9986215708559089,25.369523796100026
6.429837312,0.998914882704514,25.21319972604881
6.432123392,0.999277315844638,25.052098866245792
6.434409984,0.9996857994217041,24.88538274200631
6.436696064,1.0001146094221913,24.712555642963913
6.438982656,1.0005366899736743,24.533545630981546
6.441268736,1.0009254264188552,24.348674433300808
6.443555328,1.001256332478761,24.15854377787527
6.44584192,1.0015086406802576,23.964168353421712
6.448128,1.0016663536103791,23.766836713860997
6.450414592,1.0017195127994003,23.567920271808894
6.452700672,1.001664880952338,23.369018633775575
6.454987264,1.0015058233907403,23.17162411799971
6.457273344,1.0012522067017502,22.977181463860596
6.459559936,1.0009199369129602,22.786949972720798
6.461846016,1.0005299343575376,22.601921304466806
6.464132608,1.0001067532936052,22.422753207087794
6.4664192,0.9996768943603138,22.24975433246791
6.46870528,0.9992677077168047,22.082823211102173
6.470991872,0.9989049457962883,21.92146680654362
6.473277952,0.9986115273265661,21.76488274171318
6.475564544,0.9984061435614096,21.61192079593164
6.477850624,0.998301800969184,21.461183431100675
6.480137216,0.9983050276634532,21.311161992336363
6.482423296,0.9984159018633207,21.160300749009036
6.484709888,0.9986273801493674,21.007072733444076
6.48699648,0.9989259906869082,20.85010870618338
6.48928256,0.9992928626720143,20.68828504427231
6.491569152,0.9997048881312761,20.520777090891613
6.493855232,1.0001360729327682,20.347115375523906
6.496141824,1.000559143102708,20.167256377893374
6.498427904,1.0009474069464965,19.981490473305914
6.500714496,1.0012765409352553,19.790508309729052
6.503001088,1.001525741839796,19.595342583741697
6.505287168,1.001679287614319,19.39721212868041
6.50757376,1.0017275405521113,19.197610499336907
6.50985984,1.0016674698753179,18.99807021625421
6.512146432,1.0015027884817735,18.800112255256153
6.514432512,1.0012437773499125,18.60519141999943
6.516719104,1.0009066386764445,18.414566009745467
6.519005184,1.0005125509800143,18.229170456810934
6.521291776,1.0000864297347563,18.049712722554897
6.523578368,0.9996549513569308,17.876455875500817
6.525864448,0.9992454013787068,17.709256864441347
6.52815104,0.998883732982924,17.547646545276628
6.53043712,0.9985927409962477,17.390763989513502
6.532723712,0.9983909943940988,17.237462583336473
6.535009792,0.9982911517495904,17.08631915863509
6.537296384,0.9982997238439293,16.935833609876024
6.539582976,0.9984162115029511,16.784401373229144
6.541869056,0.9986331060077818,16.630543926026842
6.544155648,0.9989368756516778,16.472859036451823
6.546441728,0.9993081995501029,16.31024601686238
6.54872832,0.9997237995506797,16.14188167297043
6.5510144,1.000157301908724,15.967349814401235
6.553300992,1.0005813291594883,15.786552966483168
6.555587072,1.0009692580349405,15.599858508294925
6.557873664,1.0012965686696607,15.407969031074394
6.560160256,1.0015427340268332,15.211914523543289
6.562446336,1.0016921173692166,15.012955260107905
6.564732928,1.0017355959466017,14.812569917148513
6.567019008,1.0016701493519886,14.612336118616078
6.5693056,1.0014998740305003,14.413760935329037
6.57159168,1.0012354019977412,14.21830552280448
6.573878272,1.0008934605039426,14.02717359964458
6.576164864,1.0004954023690815,13.841382727344474
6.578450944,1.000066318765867,13.661556621980028
6.580737536,0.9996331993202375,13.487940668481015
6.583023616,0.9992234328514896,13.320426681297352
6.585310208,0.9988628210770772,13.158490975184856
6.587596288,0.9985742437032019,13.001244978275878
6.58988288,0.9983760206201095,12.847538195873227
6.59216896,0.9982807226189815,12.695934415395117
6.594455552,0.9982944394174071,12.544898466353569
6.596742144,0.9984164118131071,12.392883307793843
6.599028224,0.998638815088705,12.238300247554307
6.601314816,0.9989477503603634,12.07982464665072
6.603600896,0.9993234926262768,11.916356536713641
6.605887488,0.9997425141669698,11.747080751297451
6.608173568,1.000178283247469,11.571583012367267
6.61046016,1.0006032906222628,11.389809207109908
6.612746752,1.000990782184645,11.202134292721846
6.615032832,1.0013163666075056,11.00926390480609
6.617319424,1.0015594534167216,10.81226231184337
6.619605504,1.0017049465971417,10.612406676240255
6.621892096,1.0017434549136621,10.41120804156974
6.624178176,1.001672670091825,10.210209252346555
6.626464768,1.0014968907603392,10.010942240265935
6.628750848,1.0012272479351945,9.814868463142625
6.63103744,1.0008805237545504,9.623201486896095
6.633324032,1.0004785037567334,9.43692928417086
6.635610112,1.0000464940074345,9.256671221462646
6.637896704,0.9996117771986752,9.082667962612625
6.640182784,0.9992016307229091,8.91474349878172
6.642469376,0.998842149719925,8.752407395705035
6.644755456,0.9985559420837118,8.594749655135042
6.647042048,0.9983611395609328,8.440554634474355
6.649328128,0.9982703931624677,8.28842369747115
6.65161472,0.9982892280504391,8.136799286053911
6.653901312,0.9984165699783328,7.984064816194298
6.656187392,0.9986444073442396,7.828720107767035
6.658473984,0.9989582544182392,7.669428732661553
6.660760064,0.9993385173654634,7.505043408603052
6.663046656,0.9997609261393571,7.33478061878074
6.665332736,1.000198919859239,7.158270473770864
6.667619328,1.0006249184386151,6.975464484871274
6.66990592,1.0010119585674042,6.786739424917503
6.672192,1.0013358382428237,6.5928323475850386
6.674478592,1.0015760330431802,6.394819050278402
6.676764672,1.0017174572231187,6.1940333021914995
6.679051264,1.001751348381068,5.9919206991426615
6.681337344,1.0016753064848471,5.7900942543378315
6.683623936,1.0014941050751507,5.5900791144806705
6.685910016,1.0012192401328797,5.393319392775087
6.688196608,1.0008677523121645,5.201062232566727
6.6904832,1.000461934263354,5.014240321506738
6.69276928,1.0000269872465195,4.833476349622515
6.695055872,0.9995905766085095,4.658994026711946
6.697341952,0.9991802030690554,4.490621229895883
6.699628544,0.9988216899083215,4.32782995964804
6.701914624,0.9985378148233738,4.169671670310282
6.704201216,0.9983465687373714,4.014935992862992
6.706487808,0.9982600738337456,3.862200441460353
6.708773888,0.9982839892046436,3.709900106321465
6.71106048,0.9984165915844335,3.556441873710871
6.71334656,0.9986498203180415,3.4002784135139925
6.715633152,0.9989687191251683,3.240066252505269
6.717919232,0.9993532395863706,3.0747115459494503
6.720205824,0.9997789727516816,2.903434945660549
6.722491904,1.000219238561573,2.7258480717993825
6.724778496,1.0006462347272733,2.5419391585037525
6.727065088,1.0010329295987626,2.352108501594423
6.729351168,1.0013551092071276,2.157114711404017
6.73163776,1.0015923733735193,1.9580467319819383
6.73392384,1.0017301224408708,1.756246311659959
6.736210432,1.0017592293882778,1.5531978499213017
6.738496512,1.0016779873745978,1.350476640904251
6.740783104,1.0014915604647718,1.1496430651776246
6.743069696,1.0012114845358435,0.952142093711943
6.745355776,1.0008554527913527,0.7592084755817227
6.747642368,1.000445591052207,0.571778789257105
6.749928448,1.0000079599648783,0.3904417014473002
6.75221504,0.9995699248335825,0.21542522197636674
6.75450112,0.9991591291488868,0.04653164626167932
6.756787712,0.9988015778402471,-0.11679013743960474
6.759073792,0.9985199972798078,-0.2755092242080501
6.761360384,0.9983320559437169,-0.43084452966772496
6.763646976,0.9982499273712616,-0.5842283038152646
6.765933056,0.9982786484730369,-0.7372535243295568
6.768219648,0.9984165884771551,-0.8915275167904397
6.770505728,0.9986549443957988,-1.0485702415932205
6.77279232,0.998978714491358,-1.2097399565430553
6.7750784,0.9993675193464594,-1.3761214776399857
6.777364992,0.999796658117943,-1.548479473446532
6.779651584,1.0002391504510806,-1.7271958491393582
6.781937664,1.0006670610433184,-1.9122538294893576
6.784224256,1.0010534803351336,-2.1032479750162163
6.786510336,1.0013740645745772,-2.299371009287972
6.788796928,1.0016086366628547,-2.4995751741808063
6.791083008,1.0017424257881764,-2.7024446033620513
6.7933696,1.0017669420777569,-2.9065142167294185
6.79565568,1.0016806938632727,-3.110165261935084
6.797942272,1.0014892074955883,-3.3118634974445778
6.800228864,1.0012040582487896,-3.5101641079470447
6.802514944,1.0008433622144157,-3.7038397279393727
6.804801536,1.000429815117413,-3.8919638835347796
6.807087616,0.9999893289613112,-4.073927417665096
6.809374208,0.9995496591854763,-4.249542285011663
6.811660288,0.9991384563264277,-4.419013457533654
6.81394688,0.9987819369268189,-4.582942976926737
6.81623296,0.9985024566566008,-4.742285635832966
6.818519552,0.9983178236088769,-4.898283688496181
6.820806144,0.998239847260213,-5.0523855290330015
6.823092224,0.9982733252005936,-5.20619021009482
6.825378816,0.9984163510595259,-5.361327925265986
6.827664896,0.9986598989084673,-5.519317315431062
6.829951488,0.9989885168363936,-5.681495792956861
6.832237568,0.9993813223589397,-5.84896074131972
6.83452416,0.9998137744681308,-6.02245415337315
6.836810752,1.0002585408731086,-6.202328971299884
6.839096832,1.0006874561647614,-6.388593198275946
6.841383424,1.0010735605488668,-6.5807819530011775
6.843669504,1.0013926264642528,-6.778128233127266
6.845956096,1.0016244299295367,-6.979475265087826
6.848242176,1.0017544743052902,-7.183490383081828
6.850528768,1.0017745996577092,-7.3886140301869325
6.852814848,1.0016835260250623,-7.593268496639826
6.85510144,1.0014868366391851,-7.795895950973694
6.857388032,1.0011968367214064,-7.995058967141794
6.859674112,1.0008316279002312,-8.189547497895699
6.861960704,1.0004142984518745,-8.378399525345392
6.864246784,0.9999710230067517,-8.561056748783173
6.866533376,0.9995296828071816,-8.73734070487441
6.868819456,0.999118145451469,-8.90746756950929
6.871106048,0.9987624060205803,-9.072060902072657
6.87339264,0.9984850558964072,-9.232070890927051
6.87567872,0.9983034997758872,-9.388785472274456
6.877965312,0.9982295448732652,-9.543670980875504
6.880251392,0.9982677534370077,-9.698319243198405
6.882537984,0.9984157875846704,-9.854377349180536
6.884824064,0.9986643097960907,-10.013356317171267
6.887110656,0.9989977194933006,-10.176587692998947
6.889396736,0.9993947018079549,-10.345181370523283
6.891683328,0.9998304159972844,-10.519857868088078
6.89396992,1.00027747724603,-10.700965083862965
6.896256,1.0007073066879222,-10.888479269722383
6.898542592,1.0010932571087756,-11.081941294510077
6.900828672,1.0014108155451866,-11.280502087899569
6.903115264,1.001640112345456,-11.483083688782862
6.905401344,1.0017666665077252,-11.688252001707676
6.907687936,1.0017825143627448,-11.894518766099573
6.909974528,1.0016865195796287,-12.100244647509038
6.912260608,1.0014849177259006,-12.303866287793753
6.9145472,1.001190133232931,-12.503967893962363
6.91683328,1.0008205582511775,-12.699295843682096
6.919119872,1.0003994055751722,-12.888938278422252
6.921405952,0.9999533475873204,-13.07236398771497
6.923692544,0.9995103828566426,-13.249378801334053
6.925978624,0.9990983343404136,-13.420212859127238
