freq,mag,phase
6.0,0.9999936327881948,-166.3820335957154
6.008,0.9999926327361219,-166.81401678437956
6.016,0.9999916770742148,-167.24584239246747
6.024,0.9999907648530378,-167.67751262056274
6.032,0.9999898951343897,-168.1090296811763
6.04,0.9999890669912613,-168.54039579855552
6.048,0.9999882795077919,-168.97161320849398
6.056,0.9999875317792217,-169.40268415814296
6.064,0.9999868229118464,-169.83361090582352
6.072,0.99998615202297,-170.2643957208398
6.08,0.9999855182408558,-170.69504088329353
6.088,0.9999849207046783,-171.1255486838994
6.096,0.999984358564469,-171.55592142380183
6.104,0.9999838309810715,-171.9861614143924
6.112,0.9999833371260834,-172.41627097712873
6.12,0.9999828761818067,-172.84625244335408
6.128,0.9999824473411937,-173.2761081541186
6.136,0.9999820498077929,-173.70584046000062
6.144,0.9999816827956904,-174.13545172093032
6.152,0.9999813455294608,-174.5649443060131
6.16,0.9999810372441034,-174.99432059335524
6.168,0.9999807571849895,-175.42358296988942
6.176,0.999980504607802,-175.8527338312023
6.184,0.9999802787784791,-176.2817755813625
6.192,0.9999800789731531,-176.7107106327496
6.2,0.99997990447809,-177.13954140588478
6.208,0.999979754589633,-177.5682703292615
6.216,0.9999796286141367,-177.99689983917798
6.224,0.9999795258679087,-178.42543237957034
6.232,0.9999794456771479,-178.85387040184673
6.24,0.999979387377879,-179.28221636472236
6.248,0.9999793503158944,-179.71047273405563
6.256,0.9999793338466857,179.86135801731456
6.264,0.9999793373353849,179.4332734097314
6.272,0.9999793601566961,179.00527095688068
6.28,0.9999794016948332,178.57734816595118
6.288,0.9999794613434546,178.14950253779395
6.296,0.9999795385055984,177.7217315670806
6.304,0.9999796325936161,177.29403274246081
6.312,0.9999797430291055,176.8664035467186
6.32,0.9999798692428491,176.43884145692843
6.328,0.9999800106747417,176.01134394460956
6.336,0.9999801667737274,175.58390847588038
6.344,0.9999803369977324,175.15653251161137
6.352,0.9999805208135967,174.72921350757744
6.36,0.9999807176970071,174.3019489146092
6.368,0.9999809271324296,173.87473617874392
6.376,0.999981148613042,173.44757274137524
6.384,0.999981381640666,173.02045603940218
6.392,0.9999816257256973,172.59338350537763
6.4,0.9999818803870394,172.16635256765576
6.408,0.9999821451520344,171.73936065053886
6.416,0.999982419556397,171.31240517442353
6.424,0.999982703144139,170.88548355594565
6.432,0.9999829954675091,170.45859320812562
6.44,0.9999832960869188,170.03173154051177
6.448,0.9999836045708741,169.60489595932387
6.456,0.9999839204959095,169.17808386759563
6.464,0.9999842434465142,168.75129266531678
6.472,0.9999845730150693,168.3245197495742
6.48,0.9999849088017725,167.89776251469254
6.4879999999999995,0.9999852504145736,167.47101835237459
6.496,0.9999855974691045,167.04428465184017
6.504,0.9999859495886088,166.61755879996562
6.5120000000000005,0.9999863064038741,166.1908381814215
6.52,0.9999866675531621,165.76412017881077
6.5280000000000005,0.9999870326821431,165.3374021728055
6.536,0.9999874014438203,164.91068154228398
6.5440000000000005,0.9999877734984693,164.48395566446635
6.552,0.9999881485135635,164.05722191505072
6.5600000000000005,0.9999885261637064,163.6304776683476
6.568,0.9999889061305666,163.20372029741534
6.5760000000000005,0.9999892881028042,162.77694717419354
6.584,0.9999896717760071,162.35015566963736
6.592,0.9999900568526191,161.92334315385028
6.6,0.999990443041875,161.49650699621745
6.608,0.9999908300597296,161.06964456553771
6.616,0.9999912176287928,160.642753230156
6.624,0.9999916054782589,160.21583035809468
6.632,0.9999919933438418,159.78887331718525
6.64,0.9999923809677057,159.36187947519886
6.648,0.9999927680983988,158.9348461999773
6.656,0.9999931544907853,158.50777085956304
6.664,0.9999935399059796,158.08065082232943
6.672,0.999993924111279,157.6534834571102
6.68,0.9999943068800968,157.22626613332898
6.688,0.9999946879918967,156.79899622112848
6.696,0.9999950672321257,156.3716710914993
6.704,0.9999954443921486,155.9442881164086
6.712,0.9999958192691828,155.51684466892854
6.72,0.9999961916662308,155.0893381233646
6.728,0.9999965613920175,154.6617658553835
6.736,0.9999969282609223,154.23412524214103
6.744,0.9999972920929164,153.80641366240985
6.752,0.9999976527134968,153.37862849670685
6.76,0.9999980099536216,152.95076712742073
6.768,0.9999983636496467,152.52282693893915
6.776,0.9999987136432614,152.09480531777578
6.784,0.9999990597814239,151.66669965269762
6.792,0.9999994019162983,151.23850733485168
6.8,0.9999997399051915,150.81022575789208
6.808,1.0,150.38185231810678
6.816,0.9999999999999999,149.95338441454433
6.824,0.9999999999999999,149.52481944914086
6.832,1.0,149.0961548268465
6.84,0.9999999999999999,148.6673879557523
6.848,1.0,148.23851624721706
6.856,0.9999999999999999,147.80953711599392
6.864,1.0,147.38044798035725
6.872,1.0,146.95124626222952
6.88,0.9999999999999998,146.52192938730806
6.888,0.9999999999999999,146.0924947851923
6.896,0.9999999999999999,145.66293988951057
6.904,1.0,145.23326213804756
6.912,1.0000000000000002,144.8034589728713
6.92,1.0,144.37352784046067
6.928,1.0,143.943466191833
6.936,1.0,143.51327148267166
6.944,1.0,143.08294117345397
6.952,0.9999999999999999,142.65247272957907
6.96,0.9999999999999999,142.2218636214963
6.968,1.0,141.79111132483337
6.976,0.9999999999999999,141.36021332052505
6.984,1.0,140.929167094942
6.992,0.9999999999999998,140.49797014001967
7.0,0.9999999999999999,140.06661995338771
7.008,0.9999999999999999,139.63511403849927
7.016,1.0,139.20344990476102
7.024,1.0,138.77162506766285
7.032,0.9999999999999999,138.33963704890846
7.04,0.9999999999999999,137.9074833765459
7.048,1.0,137.47516158509833
7.056,1.0,137.04266921569524
7.064,0.9999999999999999,136.61000381620414
7.072,1.0,136.17716294136213
7.08,0.9999999999999999,135.74414415290838
7.088,1.0,135.3109450197164
7.096,1.0,134.8775631179269
7.104,1.0,134.44399603108133
7.112,0.9999999999999999,134.0102413502551
7.12,1.0,133.5762966741917
7.128,1.0,133.1421596094372
7.136,1.0,132.70782777047478
7.144,0.9999999999999999,132.27329877986008
7.152,1.0,131.8385702683566
7.16,1.0,131.4036398750717
7.168,0.9999999999999999,130.96850524759313
7.176,1.0,130.53316404212566
7.184,1.0,130.09761392362861
7.192,0.9999999999999999,129.66185256595313
7.2,1.0,129.2258776519808
7.208,1.0,128.78968687376178
7.216,0.9999999999999999,128.3532779326543
7.224,0.9999999999999999,127.91664853946381
7.232,1.0,127.4797964145831
7.24,0.9999999999999999,127.04271928813279
7.248,1.0,126.60541490010219
7.256,1.0,126.16788100049055
7.264,1.0,125.7301153494493
7.272,1.0000000000000002,125.29211571742411
7.28,0.9999999999999999,124.8538798852979
7.288,0.9999999999999999,124.41540564453383
7.296,0.9999999999999999,123.9766907973198
7.304,0.9999999999999999,123.53773315671224
7.312,0.9999999999999999,123.09853054678105
7.32,1.0,122.65908080275506
7.328,0.9999999999999999,122.21938177116778
7.336,1.0,121.7794313100037
7.344,0.9999999999999999,121.33922728884515
7.352,0.9999999999999999,120.89876758901968
7.36,0.9999999999999999,120.45805010374788
7.368,1.0,120.01707273829159
7.376,0.9999999999999999,119.57583341010292
7.384,1.0000000000000002,119.13433004897351
7.392,1.0,118.69256059718437
7.4,1.0,118.25052300965622
7.4079999999999995,1.0,117.80821525410033
7.416,1.0,117.36563531116971
7.4239999999999995,0.9999999999999999,116.92278117461132
7.432,1.0,116.47965085141769
7.4399999999999995,1.0,116.03624236198057
7.448,1.0,115.59255374024326
7.4559999999999995,1.0,115.14858303385529
7.464,1.0,114.70432830432557
7.4719999999999995,1.0,114.25978762717826
7.48,0.9999999999999999,113.81495909210665
7.4879999999999995,0.9999999999999999,113.36984080312988
7.496,0.9999999999999999,112.92443087874805
7.504,1.0,112.47872745209943
7.5120000000000005,0.9999999999999999,112.03272867111667
7.52,0.9999999999999998,111.58643269868486
7.5280000000000005,1.0,111.13983771279847
7.536,1.0,110.69294190672042
7.5440000000000005,1.0,110.24574348913968
7.552,0.9999999999999999,109.79824068433106
7.5600000000000005,0.9999999999999999,109.35043173231385
7.568,1.0,108.90231488901223
7.5760000000000005,1.0,108.45388842641451
7.584,1.0,108.00515063273444
7.5920000000000005,1.0,107.55609981257109
7.6,1.0,107.10673428707081
7.6080000000000005,1.0,106.65705239408774
7.616,1.0,106.20705248834633
7.6240000000000006,0.9999999999999999,105.75673294160268
7.632,1.0,105.3060921428074
7.640000000000001,1.0,104.85512849826746
7.648,1.0,104.40384043180974
7.656000000000001,1.0,103.95222638494333
7.664,1.0,103.50028481702337
7.672,0.9999999999999999,103.04801420541392
7.68,0.9999999999999999,102.59541304565207
7.688,1.0,102.14247985161143
7.696,1.0,101.68921315566618
7.704,1.0,101.23561150885513
7.712,1.0,100.78167348104581
7.72,1.0,100.32739766109901
7.728,1.0,99.8727826570328
7.736,1.0,99.4178270961872
7.744,1.0,98.96252962538856
7.752,0.9999999999999999,98.50688891111402
7.76,1.0,98.05090363965598
7.768,0.9999999999999999,97.59457251728657
7.776,0.9999999999999999,97.13789427042201
7.784,0.9999999999999999,96.68086764578695
7.792,1.0,96.22349141057867
7.8,1.0,95.76576435263131
7.808,0.9999999999999999,95.30768528057963
7.816,1.0,94.84925302402301
7.824,1.0,94.39046643368897
7.832,0.9999999999999999,93.93132438159653
7.84,0.9999998544516989,93.47182576121949
7.848,0.9999996674128604,93.01196948764917
7.856,0.9999994813089617,92.55175449775707
7.864,0.9999992962269693,92.09117975035713
7.872,0.9999991122530115,91.6302442263676
7.88,0.9999989294723546,91.16894692897262
7.888,0.9999987479693768,90.70728688378328
7.896,0.9999985678275456,90.24526313899838
7.904,0.9999983891293931,89.78287476556454
7.912,0.9999982119564923,89.32012085733595
7.92,0.9999980363894334,88.85700053123358
7.928,0.9999978625078035,88.39351292740378
7.936,0.9999976903901611,87.92965720937624
7.944,0.9999975201140153,87.46543256422153
7.952,0.9999973517558051,87.00083820270764
7.96,0.9999971853908758,86.53587335945623
7.968,0.9999970210934603,86.07053729309779
7.976,0.9999968589366565,85.60482928642625
7.984,0.9999966989924083,85.13874864655283
7.992,0.9999965413314854,84.67229470505883
8.0,0.9999963860234641,84.2054668181478
8.008,0.9999962331367067,83.7382643667967
8.016,0.999996082738345,83.27068675690595
8.024000000000001,0.9999959348942604,82.80273341944908
8.032,0.9999957896690658,82.3344038106207
8.04,0.9999956471260893,81.86569741198363
8.048,0.9999955073273561,81.39661373061504
8.056000000000001,0.9999953703335716,80.92715229925174
8.064,0.9999952362041057,80.4573126764338
8.072,0.9999951049969761,79.98709444664689
8.08,0.9999949767688328,79.51649722046399
8.088000000000001,0.9999948515749439,79.04552063468554
8.096,0.99999472946918,78.57416435247812
8.104,0.9999946105039991,78.10242806351157
8.112,0.9999944947304343,77.63031148409529
8.120000000000001,0.9999943821980797,77.15781435731292
8.128,0.9999942729550764,76.68493645315526
8.136,0.9999941670481013,76.21167756865157
8.144,0.9999940645223535,75.73803752799981
8.152000000000001,0.9999939654215441,75.26401618269513
8.16,0.9999938697878826,74.78961341165646
8.168,0.9999937776620684,74.31482912135117
8.176,0.9999936890832788,73.83966324591873
8.184000000000001,0.9999936040891588,73.36411574729222
8.192,0.9999935227158131,72.88818661531789
8.2,0.9999934449977946,72.41187586787268
8.208,0.9999933709680979,71.93518355098031
8.216000000000001,0.9999933006581495,71.45810973892539
8.224,0.9999932340978008,70.98065453436502
8.232,0.9999931713153205,70.50281806843859
8.24,0.9999931123373874,70.0246005008756
8.248000000000001,0.9999930571890852,69.54600202010151
8.256,0.9999930058938942,69.06702284334104
8.264,0.9999929584736889,68.58766321671898
8.272,0.9999929149487297,68.10792341535948
8.280000000000001,0.9999928753376607,67.6278037434828
8.288,0.9999928396575053,67.14730453449936
8.296,0.9999928079236607,66.66642615110118
8.304,0.9999927801498975,66.18516898535174
8.312,0.9999927563483549,65.70353345877292
8.32,0.99999273652954,65.22152002242873
8.328,0.999992720702324,64.7391291570077
8.336,0.999992708873944,64.25636137290131
8.344,0.9999927010499999,63.77321721028106
8.352,0.9999926972344546,63.28969723917146
8.36,0.9999926974296346,62.80580205952159
8.368,0.9999927016362308,62.32153230127243
8.376,0.9999927098532991,61.836888624422926
8.384,0.999992722078263,61.35187171909136
8.392,0.9999927383069145,60.86648230557563
8.4,0.9999927585334183,60.380721134408674
8.408,0.9999927827503136,59.894588986412685
8.416,0.999992810948519,59.408086672748404
8.424,0.9999928431173348,58.92121503496313
8.432,0.99999287924445,58.433974945033675
8.44,0.9999929193159457,57.94636730540809
8.448,0.9999929633163008,57.45839304904204
8.456,0.9999930112284,56.97005313943392
8.464,0.9999930630335374,56.48134857065475
8.472,0.9999931187114259,55.99228036737641
8.48,0.9999931782402046,55.5028495848948
8.488,0.9999932415964451,55.01305730915112
8.496,0.9999933087551626,54.52290465674808
8.504,0.9999933796898233,54.0323927749642
8.512,0.9999934543723535,53.541522841762735
8.52,0.9999935327731518,53.050296065798804
8.528,0.9999936148610981,52.55871368642109
8.536,0.999993700603564,52.06677697367149
8.544,0.9999937899664263,51.57448722827945
8.552,0.9999938829140769,51.08184578165409
8.56,0.9999939794094368,50.588853995870835
8.568,0.9999940794139685,50.09551326365603
8.576,0.9999941828876887,49.601825008365665
8.584,0.9999942897891834,49.107790683962264
8.592,0.9999944000756219,48.61341177498585
8.6,0.9999945137027709,48.11868979652264
8.608,0.9999946306250108,47.62362629416814
8.616,0.9999947507953513,47.12822284398784
8.624,0.999994874165446,46.632481052472
8.632,0.9999950006856118,46.13640255648828
8.64,0.999995130304844,45.63998902322819
8.648,0.999995262970835,45.14324215015148
8.656,0.9999953986299905,44.64616366492417
8.664,0.9999955372274517,44.1487553253545
8.672,0.9999956787071091,43.65101891932255
8.68,0.9999958230116268,43.152956264707626
8.688,0.9999959700824586,42.654569209309315
8.696,0.9999961198598696,42.15585963076616
8.704,0.9999962722829582,41.65682943646825
8.712,0.9999964272896738,41.15748056346704
8.72,0.9999965848168414,40.65781497837918
8.728,0.9999967448001819,40.15783467728765
8.736,0.9999969071743346,39.657541685636666
8.744,0.9999970718728798,39.15693805812402
8.752,0.9999972388283612,38.65602587858709
8.76,0.9999974079723113,38.15480725988623
8.768,0.9999975792352721,37.65328434378191
8.776,0.9999977525468223,37.151459300809016
8.784,0.9999979278355995,36.649334330145074
8.792,0.9999981050293263,36.146911659475585
8.8,0.9999982840548349,35.644193544853096
8.808,0.9999984648380928,35.14118227055355
8.815999999999999,0.9999986473042292,34.63788014892644
8.824,0.9999988313775597,34.1342895202415
8.832,0.9999990169816144,33.63041275253077
8.84,0.9999992040391639,33.126252241425604
8.847999999999999,0.9999993924722465,32.62181040998932
8.856,0.9999995822021959,32.11708970854553
8.864,0.9999997731496679,31.61209261450202
8.872,0.99999996523467,31.106821632169694
8.879999999999999,1.0,30.601279292576955
8.888,1.0,30.095468153279928
8.896,1.0,29.589390798168246
8.904,0.9999999999999999,29.083049837265904
8.911999999999999,1.0,28.57644790652747
8.92,1.0,28.06958766763042
8.928,1.0,27.5624718077629
8.936,0.9999999999999999,27.055103039406553
8.943999999999999,0.9999999999999999,26.547484100115
8.952,0.9999999999999999,26.039617752288233
8.96,0.9999999999999999,25.531506782942664
8.968,1.0,25.023154003476318
8.975999999999999,0.9999999999999999,24.514562249429588
8.984,0.9999999999999999,24.005734380242224
8.992,1.0,23.49667327900588
9.0,0.9999999999999999,22.987381852211954
9.008,0.9999999999999999,22.477863029495154
9.016,1.0,21.968119763373306
9.024000000000001,1.0,21.458155028982883
9.032,1.0,20.947971823809958
9.04,1.0,20.437573167416968
9.048,1.0,19.92696210116585
9.056000000000001,1.0,19.41614168793707
9.064,1.0,18.905115011844213
9.072,1.0,18.393885177944423
9.08,1.0,17.88245531194558
9.088000000000001,0.9999999999999999,17.37082855990934
9.096,0.9999999999999999,16.859008087949896
9.104,1.0,16.346997081928954
9.112,0.9999999999999999,15.834798747147387
9.120000000000001,1.0,15.32241630803305
9.128,1.0,14.809853007824548
9.136,1.0,14.297112108251277
9.144,1.0,13.784196889210431
9.152000000000001,1.0,13.27111064844036
9.16,0.9999999999999999,12.757856701190034
9.168,1.0,12.244438379885139
9.176,0.9999999999999999,11.7308590337911
9.184000000000001,1.0,11.217122028672994
9.192,1.0,10.703230746451496
9.2,1.0,10.189188584855899
9.208,0.9999999999999999,9.674998957074235
9.216000000000001,1.0,9.160665291400466
9.224,1.0,8.64619103087808
9.232,1.0,8.131579632940856
9.24,0.9999999999999999,7.6168345690511865
9.248000000000001,1.0,7.1019593243354855
9.256,1.0,6.586957397216535
9.264,1.0,6.071832299043051
9.272,1.0,5.5565875537171605
9.280000000000001,0.9999999999999999,5.041226697319327
9.288,1.0,4.525753277730342
9.296,0.9999999999999999,4.010170854250952
9.304,0.9999999999999999,3.4944829972196176
9.312000000000001,1.0,2.9786932876280012
9.32,1.0,2.46280531673393
9.328,1.0,1.946822685672173
9.336,1.0000000000000002,1.430749005063648
9.344,0.9999999999999999,0.9145878946230015
9.352,0.9999999999999999,0.3983429827629121
9.36,1.0,-0.1179820938014148
9.368,0.9999999999999999,-0.6343836904514141
9.376,1.0,-1.150858155064031
9.384,0.9999999999999999,-1.6674018284140504
9.392,0.9999999999999999,-2.1840110445759082
9.4,1.0,-2.700682131328776
9.408,0.9999999999999999,-3.217411410561061
9.416,1.0,-3.734195198678013
9.424,0.9999999999999999,-4.251029807008465
9.432,0.9999999999999999,-4.767911542214505
9.44,1.0,-5.2848367067002915
9.448,1.0,-5.801801599023529
9.456,1.0,-6.318802514305811
9.464,1.0,-6.835835744645518
9.472,0.9999999999999998,-7.352897579529552
9.48,0.9999999999999999,-7.86998430624728
9.488,0.9999999999999999,-8.387092210303146
9.496,0.9999999999999999,-8.9042175758314
9.504,0.9999999999999999,-9.42135668600926
9.512,0.9999999999999999,-9.938505823472084
9.52,0.9999999999999999,-10.45566127072676
9.528,0.9999999999999999,-10.97281931056683
9.536,0.9999999999999999,-11.489976226485783
9.544,1.0,-12.007128303092001
9.552,0.9999999999999999,-12.524271826521408
9.56,1.0,-13.041403084851803
9.568,0.9999999999999999,-13.558518368514722
9.576,0.9999999999999999,-14.075613970708762
9.584,0.9999999999999999,-14.592686187810246
9.592,0.9999999999999999,-15.10973131978515
9.6,1.0,-15.626745670598295
9.608,1.0,-16.14372554862359
9.616,1.0,-16.660667267051306
9.624,0.9999999999999999,-17.177567144296294
9.632,1.0,-17.69442150440307
9.64,1.0,-18.211226677451613
9.648,1.0,-18.72797899995995
9.656,1.0,-19.244674815287187
9.664,1.0,-19.76131047403322
9.672,1.0,-20.277882334438775
9.68,1.0,-20.79438676278184
9.688,1.0,-21.310820133774353
9.696,1.0,-21.8271788309551
9.704,1.0,-22.34345924708275
9.712,1.0,-22.85965778452484
9.72,1.0,-23.37577085564677
9.728,0.9999999999999999,-23.89179488319676
9.736,1.0,-24.407726300690438
9.744,0.9999999999999999,-24.923561552791305
9.752,1.0,-25.43929709569073
9.76,0.9999999999999999,-25.954929397483692
9.768,1.0,-26.47045493854381
9.776,0.9999999999999999,-26.985870211894046
9.784,0.9999999999999999,-27.501171723576547
9.792,1.0,-28.016355993017974
9.8,1.0,-28.531419553393917
9.808,1.0,-29.046358951988598
9.816,1.0,-29.561170750553497
9.824,1.0,-30.07585152566125
9.832,1.0,-30.59039786905822
9.84,1.0,-31.10480638801223
9.847999999999999,0.9999999999999999,-31.619073705658852
9.856,0.9999999999999999,-32.133196461343324
9.864,1.0,-32.64717131095922
9.872,1.0,-33.160994927284364
9.879999999999999,1.0,-33.67466400031325
9.888,0.9999999999999999,-34.188175237585725
9.896,1.0,-34.70152536451186
9.904,1.0,-35.214711124694034
9.911999999999999,1.0,-35.72772928024531
9.92,0.9999999999999999,-36.240576612103546
9.928,1.0,-36.753249920342064
9.936,0.9999999999999999,-37.26574602447676
9.943999999999999,0.9999999999999999,-37.77806176376971
9.952,1.0,-38.29019399752809
9.96,1.0,-38.80213960539965
9.968,0.9999999999999999,-39.31389548766431
9.975999999999999,1.0,-39.82545856552209
9.984,1.0,-40.33682578137636
9.992,1.0,-40.84799409911328
10.0,1.0,-41.35896050437729
