freq,mag,phase
6.0,1.0004780495460763,174.34821893212526
6.002285568,1.0004935333388785,174.19013615067306
6.004571648,1.0004780730717742,174.03210618441977
6.006857216,1.000432349261754,173.87454611640447
6.009142784,1.0003592085416844,173.71785856874965
6.011428352,1.000263255975971,173.5623990857084
6.013714432,1.0001505194261961,173.4085014679611
6.016,1.000028306666363,173.25631881539633
6.018285568,0.9999041657828048,173.10596778070848
6.020571648,0.9997858842599238,172.95736634460292
6.022857216,0.9996812463002022,172.81041932485172
6.025142784,0.9995966581681335,172.6648556448919
6.027428352,0.9995375536036422,172.5204082659845
6.029714432,0.9995076520053553,172.3765638808885
6.032,0.9995087635112716,172.232994686436
6.034285568,0.9995411022537621,172.08921237260117
6.036571648,0.9996025311303965,171.94474098287805
6.038857216,0.9996889175603292,171.79923648581396
6.041142784,0.9997951871737194,171.65234509925128
6.043428352,0.9999142713438334,171.50385327983085
6.045714432,1.0000387230588506,171.35358817191664
6.048,1.0001609120144095,171.2015649666369
6.050285568,1.0002726881216786,171.04785165699295
6.052571648,1.0003673831051398,170.89266822228143
6.054857216,1.0004387838116309,170.73631092258148
6.057142784,1.0004823835983154,170.57913095035613
6.059428352,1.0004953817888707,170.42155152136942
6.061714432,1.0004770479706266,170.26406269805395
6.064,1.0004284439231892,170.1070507870918
6.066285568,1.0003527503392449,169.95097630856966
6.068571648,1.0002547216296178,169.7961778243355
6.070857216,1.0001403314124333,169.64293684574199
6.073142784,1.0000171415525216,169.49144430027096
6.075428352,0.9998926680351045,169.3417889656958
6.077714432,0.9997748938847901,169.19390174376767
6.08,0.9996712973195921,169.04763855147294
6.082285568,0.9995884934208578,168.90276512753144
6.084571648,0.9995316421522559,168.75892232361238
6.086857216,0.9995044407185608,168.6157213281593
6.089142784,0.9995084791806281,168.47272023524582
6.091428352,0.9995436704808273,168.32944154069753
6.093714432,0.9996077725439759,168.1854708195931
6.096,0.9996966434236648,168.04039914375844
6.098285568,0.9998046768858777,167.89391706676156
6.100571648,0.9999251327178432,167.74580125802154
6.102857216,1.0000502870770454,167.59593314718447
6.105142784,1.0001722721682385,167.44429589056452
6.107428352,1.0002832982989596,167.29097372706457
6.109714432,1.0003764747358754,167.13620054371862
6.112,1.0004456656904177,166.9802354869615
6.114285568,1.0004867862129414,166.8235238572713
6.116571648,1.0004970970661458,166.66647317091505
6.118857216,1.0004758607218402,166.5095045070637
6.121142784,1.0004244814813688,166.35307818945674
6.123428352,1.0003460578220114,166.19762618492788
6.125714432,1.0002458477028315,166.04349058220149
6.128,1.0001299868150628,165.89091442887965
6.130285568,1.000005723936865,165.7401335016338
6.132571648,0.9998810579084362,165.591198002618
6.134857216,0.9997638101054542,165.4440104978615
6.137142784,0.9996614167990598,165.29844555431978
6.139428352,0.9995805260976137,165.15426446120512
6.141714432,0.9995260595342355,165.0110696924177
6.144,0.9995013583348711,164.86847614349628
6.146285568,0.9995085672933824,164.726041737723
6.148571648,0.999546602154426,164.58328042177558
6.150857216,0.9996134025375395,164.43979685631197
6.153142784,0.9997046610859117,164.29518753633943
6.155428352,0.9998145664635191,164.14915245806
6.157714432,0.9999361018397419,164.0014299278498
6.16,1.0000618718419056,163.85193739894913
6.162285568,1.00018363771491,163.70068379195922
6.164571648,1.000293885452778,163.5477617231794
6.166857216,1.000385409124815,163.3933642652757
6.169142784,1.0004526598622812,163.23789074351487
6.171428352,1.0004910697000369,163.08165519023527
6.173714432,1.0004984393922816,162.9250969664567
6.176,1.0004742456404065,162.76867447311224
6.178285568,1.0004200274854282,162.6128521878061
6.180571648,1.0003391163480506,162.45804923921554
6.182857216,1.0002368036800964,162.30457925243533
6.185142784,1.0001192460007449,162.15270652092548
6.187428352,0.9999942043241062,162.00265116842257
6.189714432,0.9998693648538064,161.85443628701177
6.192,0.9997526153162859,161.7079891496037
6.194285568,0.9996515672378692,161.5631298205739
6.196571648,0.9995724846180136,161.41960735782493
6.198857216,0.9995205457954847,161.27707828634036
6.201142784,0.9994987209189756,161.13511772562944
6.203428352,0.9995087238205179,160.99326162432135
6.205714432,0.9995497697132146,160.85103533428767
6.208,0.9996193063072307,160.70804981978898
6.210285568,0.9997129097883771,160.5638809778061
6.212571648,0.9998246987488656,160.41825787817194
6.214857216,0.999947640357287,160.27096696701406
6.217142784,1.0000738185977973,160.12185690430272
6.219428352,1.0001953911522856,159.97099428225243
6.221714432,1.0003045774306278,159.81844959845446
6.224,1.000394372206183,159.66451077753453
6.226285568,1.0004594340565443,159.50946139031043
6.228571648,1.0004952197861525,159.35370372042212
6.230857216,1.0004995766786382,159.19766874092528
6.233142784,1.0004724906624707,159.04181641797328
6.235428352,1.0004152539063245,158.88660832117625
6.237714432,1.0003318480018266,158.7324370650443
6.24,1.000227269384929,158.5796418096328
6.242285568,1.0001082182742849,158.42850415831646
6.244571648,0.9999822482607578,158.27916163777434
6.246857216,0.9998573453729734,158.1316823445932
6.249142784,0.9997413981514615,157.9859603100188
6.251428352,0.9996417229134283,157.84185997217583
6.253714432,0.9995647460080015,157.69901782889582
6.256,0.9995150838994569,157.55715512218242
6.258285568,0.9994961494829766,157.41582133346125
6.260571648,0.9995092444408581,157.27452258865634
6.262857216,0.9995532056715628,157.13284870956846
6.265142784,0.9996254675631147,156.9903345317064
6.267428352,0.9997215688534704,156.84666581999244
6.269714432,0.9998351505906311,156.70146662941522
6.272,0.9999593105948898,156.55454155160112
6.274285568,1.0000858848035772,156.40586183774099
6.276571648,1.0002071999945041,156.25536500510393
6.278857216,1.0003151432510546,156.1032617461032
6.281142784,1.0004033573025914,155.94972858632747
6.283428352,1.0004659046323388,155.7951384727358
6.285714432,1.000498968334061,155.63986469322816
6.288,1.0005005280801318,155.48436422449225
6.290285568,1.0004702740778275,155.32908927226742
6.292571648,1.0004102571542808,155.17450597306808
6.294857216,1.0003241053535288,155.0209983495266
6.297142784,1.0002175400986415,154.86890556121435
6.299428352,1.0000970790277748,154.7184824356556
6.301714432,0.9999702671990325,154.5698905941444
6.304,0.999845407974776,154.42311533577762
6.306285568,0.9997301904104224,154.2781734083742
6.308571648,0.9996318777746123,154.13477614482514
6.310857216,0.9995569633936174,153.99265766265927
6.313142784,0.9995099207745258,153.8514326712831
6.315428352,0.9994940523888517,153.71072315480825
6.317714432,0.9995100164309386,153.57003556474268
6.32,0.9995571440277621,153.42889354361978
6.322285568,0.9996321409033255,153.28688580411688
6.324571648,0.999730553061713,153.14367086723988
6.326857216,0.9998459911644145,152.9988888237924
6.329142784,0.9999711913286565,152.85237131181108
6.331428352,1.000098268871209,152.70407061636774
6.333714432,1.0002189603937353,152.5539996721441
6.336,1.0003259204686306,152.40230166342965
6.338285568,1.0004123100997806,152.24919662905663
6.340571648,1.000472475954794,152.0950666672759
6.342857216,1.0005027199326473,151.94029004315038
6.345142784,1.000501129573099,151.78534025262368
6.347428352,1.000467868363639,151.63065371165897
6.349714432,1.0004048342474385,151.47670416995123
6.352,1.0003160733435181,151.32384621725672
6.354285568,1.0002074033821975,151.17247958966846
6.356571648,1.0000853684941429,151.02279128935655
6.358857216,0.9999579225231312,150.8749364819725
6.361142784,0.9998330175181426,150.72893311432333
6.363428352,0.9997187314102642,150.5847353902778
6.365714432,0.9996220743729866,150.44205105751763
6.368,0.9995492754091229,150.300641089554
6.370285568,0.9995049332587532,150.16011431819766
6.372571648,0.9994919103382647,150.0199946770615
6.374857216,0.9995110653521525,149.879884389937
6.377142784,0.9995612131043977,149.73928190164312
6.379428352,0.9996391085710395,149.59777337347953
6.381714432,0.9997398042389506,149.45500827143871
6.384,0.9998570898283607,149.3106678519953
6.386285568,0.9999833682029907,149.16457549232172
6.388571648,1.0001107185536575,149.01667734944786
6.390857216,1.0002309634167044,148.86699331249113
6.393142784,1.000336635365747,148.71569480192372
6.395428352,1.0004210457611447,148.5630167482155
6.397714432,1.0004787805320907,148.40936028641678
6.4,1.0005062186010096,148.25509274934248
6.402285568,1.0005014671792207,148.10069135699942
6.404571648,1.0004649753390575,147.94660252836417
6.406857216,1.0003990197799557,147.7932976721427
6.409142784,1.0003078043734126,147.64112497080083
6.411428352,1.0001969218012356,147.49043187110004
6.413714432,1.000073679633676,147.341492893694
6.416,0.9999454344978106,147.19439580237022
6.418285568,0.9998206579638538,147.04917710094065
6.420571648,0.9997070770329713,146.9057119798164
6.422857216,0.9996121291327377,146.76375789721712
6.425142784,0.9995414763863745,146.6230608222315
6.427428352,0.9994999580260652,146.48319739843805
6.429714432,0.9994900401170097,146.34371087211233
6.432,0.9995123326463764,146.20417022121643
6.434285568,0.9995655534739069,146.0641348452524
6.436571648,0.9996462549198545,145.92310965812064
6.438857216,0.9997494237738349,145.78079790167104
6.441142784,0.9998683037085322,145.63687533011517
6.443428352,0.9999955413325974,145.49119541707842
6.445714432,1.0001231614526618,145.34368546426458
6.448,1.000242997672669,145.19439285947195
6.450285568,1.000347304458386,145.0434978311396
6.452571648,1.0004296442129998,144.89129214970993
6.454857216,1.000484895142234,144.7381062107966
6.457142784,1.0005092902857535,144.5843414006667
6.459428352,1.0005014526844809,144.43048077764536
6.461714432,1.0004618405107848,144.27699335291354
6.464,1.0003928603681655,144.12434444944626
6.466285568,1.0002990574563944,143.97284900770242
6.468571648,1.0001861414651332,143.8229143364747
6.470857216,1.000061426214533,143.6747170695285
6.473142784,0.9999326309670992,143.52839321147678
6.475428352,0.9998081059084846,143.3838899967957
6.477714432,0.9996955943632313,143.24118418525978
6.48,0.9996022176335411,143.09996923210306
6.482285568,0.9995341256128205,142.95997504165217
6.484571648,0.9994953629291743,142.82076394135152
6.486857216,0.9994884131613843,142.68192762466353
6.489142784,0.9995140131476078,142.54295346741216
6.491428352,0.9995703046719985,142.40343944283396
6.493714432,0.9996538661607761,142.2629361361856
6.496,0.9997592479205796,142.12105868920568
6.498285568,0.9998799600966248,141.9775561912348
6.500571648,1.0000081233003026,141.83227895234518
6.502857216,1.000135916929773,141.68516987244004
6.505142784,1.0002549640058995,141.5362851878242
6.507428352,1.000357990068513,141.38580975593382
6.509714432,1.000438253092909,141.23404165188208
6.512,1.0004907335205029,141.08129524221178
6.514285568,1.0005121847572456,140.92805021291107
6.516571648,1.0005011818334284,140.7747632775812
6.518857216,1.0004582973193832,140.6218954603681
6.521142784,1.0003863718011798,140.46987351463238
6.523428352,1.0002898971200058,140.3190975506644
6.525714432,1.0001750246288157,140.1698623648283
6.528,1.0000489459067248,140.0224346156294
6.530285568,0.9999196455680537,139.87685359470012
6.532571648,0.9997954259722577,139.7331521778223
6.534857216,0.999683890005523,139.59117256625692
6.537142784,0.9995924504934882,139.4507233905837
6.539428352,0.9995267187415342,139.31140958407354
6.541714432,0.9994908392764424,139.172893860398
6.544,0.99948724660646,139.03463992577758
6.546285568,0.9995160984491142,138.8962527913201
6.548571648,0.9995755413824512,138.75725586150773
6.550857216,0.9996619670362893,138.617229193638
6.553142784,0.9997696989240381,138.47580211259003
6.555428352,0.9998919774275883,138.33271615249703
6.557714432,1.000021097933914,138.1878599128876
6.56,1.0001490601461853,138.04113793642622
6.562285568,1.000267271316257,137.89261621789143
6.564571648,1.0003687869077393,137.74257084386068
6.566857216,1.0004468323954812,137.59122935101962
6.569142784,1.0004965636128966,137.43896950380736
6.571428352,1.0005148889578914,137.28623894761
6.573714432,1.0005005515236063,137.1335153862725
6.576,1.0004544351558835,136.9812688925237
6.578285568,1.0003795641521813,136.82988402432449
6.580571648,1.0002805140738165,136.67978817685704
6.582857216,1.0001636342564173,136.53131483258443
6.585142784,1.0000362308020811,136.3846118148015
6.587428352,0.9999065408123402,136.23979408670166
6.589714432,0.9997825781092926,136.09687066550222
6.592,0.9996723018694808,135.95566197033244
6.594285568,0.9995827980373956,135.8159041416336
6.596571648,0.9995195113747087,135.67732373447467
6.598857216,0.999486636502752,135.53944303523176
6.601142784,0.9994863490633187,135.40184048191878
6.603428352,0.9995184462282383,135.26402382748685
6.605714432,0.9995810406212686,135.1255493406228
6.608,0.9996702558311577,134.98598932799422
6.610285568,0.9997803059032713,134.84498396054917
6.612571648,0.9999042748085392,134.70232948879968
6.614857216,1.0000341860797812,134.55784208225455
6.617142784,1.000161985455174,134.41149755095594
6.619428352,1.0002795524237504,134.26340933266573
6.621714432,1.0003794076448869,134.11374437414617
6.624,1.0004552098915278,133.96284230112053
6.626285568,1.0005020647748413,133.81106450002696
6.628571648,1.0005173272200718,133.65887843417448
6.630857216,1.000499548300023,133.50670823909329
6.633142784,1.0004502418811374,133.35504735428887
6.635428352,1.0003722906371462,133.2043397845809
6.637714432,1.0002706061210693,133.05495595979707
6.64,1.0001518851844136,132.9072082538045
6.642285568,1.0000232556132498,132.76125737892497
6.644571648,0.9998930293130116,132.61722785965483
6.646857216,0.9997696111570249,132.4750488024296
6.649142784,0.9996605941441802,132.33458175293202
6.651428352,0.9995730193409998,132.19557952317834
6.653714432,0.9995123882178691,132.0576826948291
6.656,0.9994826754470529,131.92047412098898
6.658285568,0.9994856858384094,131.78345645016697
6.660571648,0.9995211454683923,131.6461841061016
6.662857216,0.9995870085944423,131.50824130115546
6.665142784,0.9996789592393838,131.36915197700515
6.667428352,0.9997912801953412,131.22858972357312
6.669714432,0.9999167785700959,131.08634264596975
6.672,1.0000475479926936,130.9422233691826
6.674285568,1.000175260110802,130.79626571911223
6.676571648,1.0002920052476867,130.64856335336194
6.678857216,1.0003900891496276,130.499315048587
6.681142784,1.0004635313403043,130.34885360089055
6.683428352,1.0005075159740016,130.1975379793254
6.685714432,1.0005192847210131,130.04585805733655
6.688,1.0004983146635424,129.8942750064587
6.690285568,1.000445614835961,129.74321700813326
6.692571648,1.000364628268378,129.5931799877974
6.694857216,1.000260526863876,129.44448805687762
6.697142784,1.000139761749929,129.29745457166212
6.699428352,1.0000099758736403,129.1522684360207
6.701714432,0.9998795039321026,129.0090062044183
6.704,0.9997565302748709,128.86759787824806
6.706285568,0.999648880232026,128.7278857997367
6.708571648,0.9995634428666363,128.58962524634902
6.710857216,0.9995055147554803,128.4523965396001
6.713142784,0.9994790368094942,128.3158168852814
6.715428352,0.9994852795020078,128.17943321553054
6.717714432,0.9995242224626621,128.04273732006502
6.72,0.9995932758738483,127.90527031963153
6.722285568,0.9996881437201675,127.76662977812512
6.724571648,0.9998025229320046,127.62650293112716
6.726857216,0.9999295801850493,127.4846253567772
6.729142784,1.0000611379810849,127.3409058564719
6.731428352,1.0001887586474845,127.19531219424937
6.733714432,1.0003042618268214,127.0479846434225
6.736,1.0004006615336916,126.89913416922684
6.738285568,1.0004715386318355,126.74909910125844
6.740571648,1.0005125536775963,126.59827559907136
6.742857216,1.0005211339823428,126.44711915019809
6.745142784,1.0004966276653837,126.29606694178824
6.747428352,1.0004405477021432,126.14563934150104
6.749714432,1.0003565855898355,125.99627582227265
6.752,1.0002498631250154,125.8482758267479
6.754285568,1.0001272315287046,125.70199071181732
6.756571648,0.999996407843671,125.55754516567292
6.758857216,0.9998657619742005,125.41505794395195
6.761142784,0.9997434502581098,125.27441799462564
6.763428352,0.9996373064515076,125.13544917348193
6.765714432,0.9995540201849937,124.99788914762817
6.768,0.9994988774887018,124.8613537469414
6.770285568,0.9994755825812371,124.72542716821191
6.772571648,0.9994854278926902,124.58962758764204
6.774857216,0.9995277206801206,124.4534763992366
6.777142784,0.9996001116002364,124.31648825556407
6.779428352,0.9996975408120984,124.1782937380442
6.781714432,0.9998144387906519,124.03856375329258
6.784,0.9999427732435218,123.89708815867219
6.786285568,1.0000749334602197,123.75374051816092
6.788571648,1.0002022901792837,123.60850365864225
6.790857216,1.0003167683257732,123.46156375150795
6.793142784,1.0004112699817107,123.31310896437977
6.795428352,1.0004795815311578,123.1634843779488
6.797714432,1.0005175383725924,123.01313563712982
6.8,1.0005226192349608,122.86248242310656
6.802285568,1.0004946487254205,122.71201994069276
6.804571648,1.0004351955801996,122.56219237131864
6.806857216,1.000348132003959,122.41347554661822
6.809142784,1.0002389307998847,122.26619405625418
6.811428352,1.0001144779215079,122.12064333882796
6.813714432,0.9999826648997455,121.97696866513627
6.816,0.9998517634304708,121.83522131980965
6.818285568,0.9997301962299521,121.6953354169081
6.820571648,0.99962560985634,121.55711721432755
6.822857216,0.9995446300851356,121.42027790741106
6.825142784,0.9994925025314898,121.28443001232625
6.827428352,0.9994725107279748,121.14911522944787
6.829714432,0.9994858176188323,121.01389284557555
6.832,0.9995316478208975,120.87825639144872
6.834285568,0.9996071190185488,120.7417619189421
6.836571648,0.9997074560534369,120.60401500779206
6.838857216,0.999826450206688,120.46468143288794
6.841142784,0.9999562992746437,120.32356625807486
6.843428352,1.0000889183469643,120.180567886485
6.845714432,1.0002158924815776,120.03570221870918
6.848,1.0003292126588559,119.88911646327979
6.850285568,1.0004215708043178,119.74105301867614
6.852571648,1.000487282534526,119.5918622893671
6.854857216,1.0005220478288412,119.44198918873806
6.857142784,1.000523731092966,119.29183299184855
6.859428352,1.000492161024448,119.1419238482041
6.861714432,1.0004292922988243,118.99273298603033
6.864,1.0003391871177492,118.84468524165922
6.866285568,1.0002275261950135,118.69810832162428
6.868571648,1.0001012746275073,118.55328207276143
6.870857216,0.9999684671104155,118.41034350445452
6.873142784,0.9998376424342825,118.26936785132354
6.875428352,0.9997168946282077,118.13022200519822
6.877714432,0.9996139585411491,117.99275033197482
6.88,0.9995354819181702,117.85660711029415
6.882285568,0.9994863376363041,117.72142614539776
6.884571648,0.9994696032583579,117.58674317933661
6.886857216,0.9994864445146528,117.45208350996046
6.889142784,0.9995359138430182,117.3169456970055
6.891428352,0.9996146052307184,117.18091814199661
6.893714432,0.9997178486541151,117.04358064610089
6.896,0.9998387825209709,116.90465513212608
6.898285568,0.9999701441228676,116.7638921427584
6.900571648,1.000103147883415,116.62124001026845
6.902857216,1.0002297119111014,116.47672152827346
6.905142784,1.000341637654657,116.33048749726471
6.907428352,1.0004319657669358,116.1828230666194
6.909714432,1.0004948258050215,116.03405685753934
6.912,1.000526385500225,115.88462043299916
6.914285568,1.0005244692871371,115.73498394941159
6.916571648,1.0004893095325373,115.5856537202277
6.918857216,1.0004230829327743,115.43706375925638
6.921142784,1.0003299293422843,115.28964152236759
6.923428352,1.0002157300383305,115.14377402347029
6.925714432,1.0000877719537047,114.99966957363203
6.928,0.9999541930045773,114.85750432407406
6.930285568,0.9998232605659981,114.71727466743003
6.932571648,0.9997034592657068,114.57889346914612
6.934857216,0.9996023372909434,114.4421248374502
