freq,mag,phase
6.0,0.9999929723970128,-134.71145551890697
6.008,0.9999918243767859,-135.07352617206286
6.016,0.9999907159832158,-135.4352525136923
6.024,0.999989646398081,-135.79663687507647
6.032,0.9999886148142494,-136.15768159612483
6.04,0.999987620435593,-136.51838902522636
6.048,0.9999866624769042,-136.87876151910262
6.056,0.9999857401638074,-137.23880144266272
6.064,0.9999848527326761,-137.59851116885957
6.072,0.9999839994305443,-137.9578930785491
6.08,0.9999831795150212,-138.3169495603499
6.088,0.9999823922542059,-138.6756830105059
6.096,0.9999816369265989,-139.0340958327498
6.104,0.9999809128210171,-139.39219043816914
6.112,0.9999802192365039,-139.74996924507357
6.12,0.9999795554822505,-140.10743467886417
6.128,0.9999789208774964,-140.46458917190438
6.136,0.9999783147514545,-140.82143516339255
6.144,0.9999777364432185,-141.17797509923673
6.152,0.9999771853016758,-141.5342114319305
6.16,0.9999766606854227,-141.89014662043073
6.168,0.9999761619626754,-142.2457831300376
6.176,0.9999756885111853,-142.60112343227524
6.184,0.999975239718153,-142.95617000477483
6.192,0.9999748149801376,-143.31092533115932
6.2,0.9999744137029756,-143.66539190092917
6.208,0.9999740353016903,-144.01957220935049
6.216,0.9999736792004063,-144.37346875734428
6.224,0.9999733448322685,-144.72708405137735
6.232,0.9999730316393479,-145.08042060335524
6.24,0.9999727390725631,-145.43348093051588
6.248,0.9999724665915906,-145.78626755532576
6.256,0.9999722136647807,-146.138783005377
6.264,0.9999719797690739,-146.49102981328613
6.272,0.9999717643899136,-146.84301051659457
6.28,0.9999715670211629,-147.19472765767026
6.288,0.9999713871650199,-147.5461837836112
6.296,0.9999712243319352,-147.89738144615015
6.304,0.9999710780405263,-148.24832320156088
6.312,0.9999709478174919,-148.59901161056604
6.32,0.9999708331975342,-148.94944923824625
6.328,0.9999707337232729,-149.29963865395067
6.336,0.9999706489451612,-149.64958243120898
6.344,0.9999705784214064,-149.99928314764503
6.352,0.9999705217178874,-150.3487433848914
6.36,0.9999704784080719,-150.69796572850555
6.368,0.9999704480729343,-151.04695276788757
6.376,0.9999704303008775,-151.39570709619883
6.384,0.9999704246876518,-151.74423131028232
6.392,0.9999704308362731,-152.09252801058403
6.4,0.9999704483569445,-152.44059980107582
6.408,0.9999704768669777,-152.7884492891795
6.416,0.9999705159907113,-153.1360790856923
6.424,0.9999705653594334,-153.48349180471325
6.432,0.9999706246113064,-153.8306900635713
6.44,0.9999706933912857,-154.17767648275432
6.448,0.999970771351042,-154.52445368583923
6.456,0.9999708581488874,-154.87102429942385
6.464,0.9999709534496977,-155.21739095305932
6.472,0.9999710569248343,-155.5635562791841
6.48,0.9999711682520717,-155.90952291305877
6.4879999999999995,0.99997128711552,-156.25529349270258
6.496,0.9999714132055526,-156.60087065883047
6.504,0.9999715462187293,-156.9462570547914
6.5120000000000005,0.9999716858577226,-157.29145532650827
6.52,0.9999718318312468,-157.6364681224179
6.5280000000000005,0.9999719838539836,-157.98129809341333
6.536,0.9999721416465095,-158.32594789278596
6.5440000000000005,0.9999723049352239,-158.6704201761699
6.552,0.999972473452277,-159.01471760148615
6.5600000000000005,0.9999726469355021,-159.35884282888898
6.568,0.9999728251283391,-159.70279852071226
6.5760000000000005,0.9999730077797698,-160.04658734141773
6.584,0.9999731946442467,-160.39021195754324
6.592,0.9999733854816215,-160.73367503765294
6.6,0.9999735800570807,-161.07697925228769
6.608,0.9999737781410742,-161.42012727391682
6.616,0.9999739795092485,-161.76312177689044
6.624,0.9999741839423794,-162.1059654373931
6.632,0.999974391226307,-162.44866093339795
6.64,0.9999746011518669,-162.7912109446219
6.648,0.999974813514826,-163.13361815248183
6.656,0.9999750281158174,-163.47588524005138
6.664,0.9999752447602752,-163.81801489201854
6.672,0.9999754632583703,-164.1600097946445
6.68,0.9999756834249465,-164.50187263572278
6.688,0.9999759050794581,-164.84360610453936
6.696,0.9999761280459056,-165.18521289183374
6.704,0.9999763521527761,-165.5266956897605
6.712,0.999976577232979,-165.8680571918518
6.72,0.9999768031237845,-166.2093000929805
6.728,0.9999770296667659,-166.5504270893242
6.736,0.9999772567077362,-166.89144087832955
6.744,0.9999774840966897,-167.23234415867788
6.752,0.999977711687743,-167.57313963025103
6.76,0.9999779393390754,-167.91382999409797
6.768,0.9999781669128706,-168.25441795240218
6.776,0.9999783942752594,-168.59490620844954
6.784,0.9999786212962622,-168.935297466597
6.792,0.9999788478497325,-169.27559443224175
6.8,0.9999790738132992,-169.61579981179094
6.808,0.9999792990683127,-169.95591631263213
6.816,0.9999795234997878,-170.29594664310437
6.824,0.9999797469963494,-170.63589351246952
6.832,0.9999799694501784,-170.9757596308845
6.84,0.9999801907569577,-171.3155477093738
6.848,0.9999804108158183,-171.65526045980272
6.856,0.9999806295292861,-171.9949005948509
6.864,0.9999808468032303,-172.33447082798662
6.872,0.999981062546811,-172.67397387344133
6.88,0.9999812766724265,-173.01341244618482
6.888,0.9999814890956644,-173.3527892619007
6.896,0.9999816997352488,-173.69210703696257
6.904,0.9999819085129912,-174.0313684884103
6.912,0.9999821153537412,-174.37057633392692
6.92,0.999982320185336,-174.70973329181615
6.928,0.9999825229385516,-175.04884208097968
6.936,0.9999827235470573,-175.38790542089546
6.944,0.9999829219473635,-175.72692603159612
6.952,0.9999831180787767,-176.06590663364773
6.96,0.9999833118833538,-176.4048499481288
6.968,0.9999835033058518,-176.74375869660997
6.976,0.9999836922936852,-177.08263560113352
6.984,0.9999838787968791,-177.42148338419375
6.992,0.9999840627680231,-177.76030476871705
7.0,0.9999842441622278,-178.09910247804282
7.008,0.9999844229370803,-178.43787923590418
7.016,0.9999845990525995,-178.77663776640935
7.024,0.9999847724711932,-179.1153807940229
7.032,0.9999849431576153,-179.45411104354758
7.04,0.9999851110789229,-179.79283124010595
7.048,0.9999852762044326,179.8684558908772
7.056,0.9999854385056824,179.52974762369283
7.064,0.9999855979563875,179.1910412323651
7.072,0.9999857545323981,178.8523339906688
7.08,0.9999859082116643,178.51362317214648
7.088,0.9999860589741888,178.17490605012546
7.096,0.999986206801993,177.83617989773504
7.104,0.9999863516790741,177.497441987923
7.112,0.9999864935913696,177.15868959347245
7.12,0.999986632526714,176.81991998701852
7.128,0.9999867684748057,176.48113044106475
7.136,0.9999869014271662,176.14231822799957
7.144,0.9999870313771025,175.80348062011277
7.152,0.9999871583196738,175.46461488961185
7.16,0.9999872822516495,175.12571830863823
7.168,0.9999874031714772,174.78678814928364
7.176,0.9999875210792465,174.4478216836065
7.184,0.9999876359766503,174.1088161836479
7.192,0.9999877478669541,173.76976892144822
7.2,0.9999878567549582,173.43067716906336
7.208,0.9999879626469645,173.09153819858102
7.216,0.9999880655507434,172.75234928213732
7.224,0.9999881654754983,172.41310769193305
7.232,0.9999882624318335,172.07381070025028
7.24,0.9999883564317217,171.73445557946926
7.248,0.9999884474884708,171.39503960208486
7.256,0.9999885356166915,171.05556004072355
7.264,0.9999886208322665,170.71601416816043
7.272,0.9999887031523176,170.37639925733632
7.28,0.9999887825951764,170.03671258137499
7.288,0.9999888591803514,169.69695141360063
7.296,0.9999889329284992,169.35711302755556
7.304,0.9999890038613942,169.0171946970178
7.312,0.9999890720018975,168.6771936960192
7.32,0.9999891373739289,168.33710729886377
7.328,0.9999892000024366,167.99693278014584
7.336,0.9999892599133705,167.65666741476886
7.344,0.99998931713365,167.31630847796438
7.352,0.9999893716911392,166.97585324531107
7.36,0.9999894236146185,166.6352989927543
7.368,0.9999894729337554,166.29464299662575
7.376,0.9999895196790787,165.95388253366352
7.384,0.9999895638819501,165.61301488103243
7.392,0.9999896055745406,165.27203731634467
7.4,0.9999896447898012,164.9309471176808
7.4079999999999995,0.9999896815614375,164.58974156361108
7.416,0.9999897159238852,164.24841793321715
7.4239999999999995,0.9999897479122828,163.90697350611424
7.432,0.9999897775624486,163.56540556247327
7.4399999999999995,0.9999898049108543,163.22371138304425
7.448,0.9999898299946011,162.88188824917884
7.4559999999999995,0.9999898528513947,162.53993344285482
7.464,0.9999898735195227,162.19784424669942
7.4719999999999995,0.9999898920378293,161.8556179440146
7.48,0.999989908445693,161.51325181880136
7.4879999999999995,0.9999899227830034,161.17074315578608
7.496,0.9999899350901377,160.82808924044554
7.504,0.9999899454079372,160.48528735903426
7.5120000000000005,0.9999899537776887,160.14233479861085
7.52,0.9999899602410979,159.79922884706608
7.5280000000000005,0.9999899648402698,159.45596679315025
7.536,0.9999899676176879,159.11254592650258
7.5440000000000005,0.9999899686161907,158.76896353767964
7.552,0.9999899678789529,158.4252169181857
7.5600000000000005,0.9999899654494622,158.08130336050237
7.568,0.9999899613715024,157.7372201581204
7.5760000000000005,0.9999899556891294,157.3929646055703
7.584,0.9999899484466525,157.0485339984552
7.5920000000000005,0.9999899396886153,156.70392563348327
7.6,0.9999899294597762,156.35913680850135
7.6080000000000005,0.9999899178050881,156.01416482252887
7.616,0.9999899047696791,155.66900697579302
7.6240000000000006,0.9999898903988358,155.32366056976372
7.632,0.9999898747379826,154.97812290719042
7.640000000000001,0.9999898578326644,154.6323912921384
7.648,0.9999898397285277,154.28646303002694
7.656000000000001,0.9999898204713039,153.94033542766724
7.664,0.9999898001067905,153.5940057933021
7.672,0.9999897786808345,153.2474714366452
7.68,0.9999897562393149,152.90072966892242
7.688,0.999989732828125,152.55377780291292
7.696,0.9999897084931573,152.2066131529916
7.704,0.9999896832802857,151.85923303517222
7.712,0.9999896572353486,151.5116347671514
7.72,0.9999896304041359,151.1638156683534
7.728,0.9999896028323684,150.81577305997578
7.736,0.9999895745656863,150.46750426503598
7.744,0.9999895456496313,150.11900660841886
7.752,0.9999895161296329,149.77027741692493
7.76,0.9999894860509917,149.42131401931968
7.768,0.9999894554588664,149.07211374638385
7.776,0.9999894243982578,148.72267393096442
7.784,0.9999893929139946,148.37299190802693
7.792,0.99998936105072,148.02306501470838
7.8,0.9999893288528766,147.67289059037137
7.808,0.9999892963646936,147.32246597665917
7.816,0.9999892636301719,146.97178851755191
7.824,0.9999892306930718,146.6208555594234
7.832,0.9999891975969001,146.26966445109952
7.84,0.9999891643848952,145.91821254391743
7.848,0.9999891311000163,145.56649719178566
7.856,0.9999890977849296,145.21451575124553
7.864,0.9999890644819962,144.8622655815337
7.872,0.9999890312332592,144.50974404464563
7.88,0.9999889980804327,144.15694850540012
7.888,0.9999889650648897,143.80387633150542
7.896,0.9999889322276494,143.45052489362592
7.904,0.9999888996093662,143.09689156545033
7.912,0.9999888672503194,142.74297372376108
7.92,0.9999888351904005,142.38876874850467
7.928,0.9999888034691031,142.03427402286343
7.936,0.9999887721255112,141.67948693332832
7.944,0.9999887411982903,141.3244048697732
7.952,0.9999887107256753,140.9690252255301
7.96,0.9999886807454605,140.61334539746596
7.968,0.9999886512949907,140.25736278606033
7.976,0.9999886224111503,139.90107479548473
7.984,0.9999885941303526,139.54447883368314
7.992,0.9999885664885333,139.1875723124536
8.0,0.9999885395211373,138.83035264753153
8.008,0.9999885132631123,138.4728172586741
8.016,0.9999884877488993,138.11496356974587
8.024000000000001,0.999988463012422,137.75678900880632
8.032,0.9999884390870806,137.39829100819816
8.04,0.9999884160057411,137.0394670046371
8.048,0.9999883938007282,136.68031443930334
8.056000000000001,0.9999883725038174,136.32083075793454
8.064,0.9999883521462256,135.9610134109197
8.072,0.9999883327586044,135.6008598533947
8.08,0.9999883143710316,135.24036754533955
8.088000000000001,0.9999882970130051,134.87953395167696
8.096,0.9999882807134335,134.51835654237235
8.104,0.9999882655006306,134.156832792535
8.112,0.9999882514023081,133.79496018252144
8.120000000000001,0.9999882384455672,133.43273619803986
8.128,0.9999882266568944,133.07015833025622
8.136,0.9999882160621535,132.70722407590156
8.144,0.9999882066865791,132.34393093738132
8.152000000000001,0.9999881985547704,131.98027642288616
8.16,0.9999881916906869,131.6162580465042
8.168,0.9999881861176395,131.25187332833448
8.176,0.9999881818582879,130.88711979460288
8.184000000000001,0.999988178934633,130.521994977779
8.192,0.9999881773680119,130.156496416695
8.2,0.9999881771790934,129.79062165666556
8.208,0.9999881783878725,129.42436824961004
8.216000000000001,0.999988181013665,129.0577337541763
8.224,0.9999881850751038,128.69071573586572
8.232,0.9999881905901334,128.32331176716008
8.24,0.9999881975760065,127.95551942765023
8.248000000000001,0.9999882060492787,127.5873363041667
8.256,0.9999882160258048,127.21875999091154
8.264,0.999988227520735,126.84978808959174
8.272,0.9999882405485118,126.48041820955508
8.280000000000001,0.9999882551228649,126.11064796792728
8.288,0.999988271256809,125.74047498975087
8.296,0.9999882889626402,125.36989690812575
8.304,0.9999883082519325,124.99891136435163
8.312,0.9999883291355357,124.62751600807263
8.32,0.999988351623572,124.2557084974226
8.328,0.999988375725433,123.88348649917356
8.336,0.9999884014497783,123.51084768888447
8.344,0.999988428804533,123.13778975105348
8.352,0.9999884577968844,122.76431037927014
8.36,0.9999884884332816,122.39040727637119
8.368,0.9999885207194328,122.01607815459654
8.376,0.9999885546603039,121.64132073574862
8.384,0.9999885902601165,121.26613275135209
8.392,0.9999886275223493,120.89051194281666
8.4,0.9999886664497314,120.5144560616007
8.408,0.9999887070442472,120.13796286937765
8.416,0.9999887493071329,119.7610301382032
8.424,0.9999887932388754,119.3836556506856
8.432,0.9999888388392131,119.00583720015638
8.44,0.9999888861071348,118.62757259084451
8.448,0.9999889350408794,118.24885963805073
8.456,0.9999889856379376,117.86969616832543
8.464,0.9999890378950499,117.49008001964683
8.472,0.999989091808208,117.1100090416024
8.48,0.9999891473726562,116.72948109557093
8.488,0.9999892045828898,116.3484940549077
8.496,0.9999892634326586,115.9670458051302
8.504,0.9999893239149665,115.58513424410694
8.512,0.9999893860220723,115.20275728224718
8.52,0.9999894497454928,114.81991284269327
8.528,0.9999895150760032,114.4365988615141
8.536,0.9999895820036385,114.05281328790137
8.544,0.9999896505176958,113.66855408436656
8.552,0.999989720606738,113.28381922694095
8.56,0.9999897922585929,112.89860670537637
8.568,0.9999898654603582,112.51291452334893
8.576,0.9999899401984031,112.12674069866341
8.584,0.9999900164583714,111.74008326346069
8.592,0.9999900942251843,111.35294026442581
8.6,0.9999901734830435,110.96530976299911
8.608,0.9999902542154345,110.57718983558787
8.616,0.9999903364051305,110.18857857378117
8.624,0.9999904200341954,109.79947408456505
8.632,0.9999905050839883,109.40987449054101
8.64,0.9999905915351676,109.01977793014484
8.648,0.9999906793676939,108.62918255786855
8.656,0.9999907685608368,108.23808654448277
8.664,0.9999908590931763,107.84648807726234
8.672,0.9999909509426113,107.45438536021202
8.68,0.9999910440863606,107.06177661429565
8.688,0.9999911385009712,106.66866007766532
8.696,0.9999912341623219,106.27503400589386
8.704,0.9999913310456297,105.88089667220751
8.712,0.9999914291254545,105.48624636772176
8.72,0.9999915283757049,105.09108140167722
8.728,0.9999916287696464,104.6954001016788
8.736,0.9999917302799044,104.29920081393502
8.744,0.9999918328784726,103.9024819035002
8.752,0.9999919365367197,103.50524175451699
8.76,0.999992041225395,103.10747877046174
8.768,0.9999921469146358,102.70919137439014
8.776,0.9999922535739753,102.31037800918565
8.784,0.9999923611723486,101.91103713780811
8.792,0.9999924696781012,101.51116724354513
8.8,0.9999925790589959,101.11076683026367
8.808,0.9999926892822222,100.70983442266433
8.815999999999999,0.9999928003144019,100.30836856653572
8.824,0.9999929121215991,99.90636782901113
8.832,0.9999930246693282,99.5038307988264
8.84,0.9999931379225628,99.10075608657883
8.847999999999999,0.999993251845744,98.69714232498724
8.856,0.9999933664027887,98.29298816915377
8.864,0.9999934815571008,97.88829229682679
8.872,0.9999935972715782,97.48305340866473
8.879999999999999,0.9999937135086241,97.07727022850094
8.888,0.9999938302301554,96.67094150361015
8.896,0.9999939473976133,96.264066004976
8.904,0.9999940649719734,95.85664252755912
8.911999999999999,0.9999941829137557,95.44866989056634
8.92,0.9999943011830347,95.0401469377212
8.928,0.9999944197394507,94.63107253753543
8.936,0.9999945385422198,94.22144558358082
8.943999999999999,0.9999946575501454,93.81126499476208
8.952,0.9999947767216292,93.40052971559078
8.96,0.9999948960146828,92.9892387164601
8.968,0.9999950153869378,92.57739099391983
8.975999999999999,0.9999951347956597,92.16498557095225
8.984,0.9999952541977579,91.75202149724873
8.992,0.9999953735497978,91.338497849487
9.0,0.999995492808015,90.92441373160874
9.008,0.9999956119283242,90.5097682750974
9.016,0.9999957308663349,90.09456063925694
9.024000000000001,0.9999958495773622,89.6787900114909
9.032,0.9999959680164406,89.26245560758143
9.04,0.9999960861383363,88.84555667196861
9.048,0.9999962038975608,88.4280924780302
9.056000000000001,0.999996321248384,88.01006232836183
9.064,0.9999964381448474,87.59146555505653
9.072,0.9999965545407794,87.1723015199846
9.08,0.9999966703898059,86.75256961507374
9.088000000000001,0.9999967856453682,86.3322692625889
9.096,0.9999969002607333,85.91139991541196
9.104,0.999997014189011,85.48996105732084
9.112,0.9999971273831665,85.06795220326894
9.120000000000001,0.9999972397960362,84.64537289966415
9.128,0.9999973513803412,84.22222272464701
9.136,0.9999974620887033,83.79850128836848
9.144,0.9999975718736595,83.37420823326761
9.152000000000001,0.9999976806876757,82.94934323434833
9.16,0.9999977884831647,82.52390599945545
9.168,0.9999978952124993,82.09789626954971
9.176,0.9999980008280288,81.67131381898244
9.184000000000001,0.9999981052820944,81.24415845576942
9.192,0.999998208527044,80.81643002186314
9.2,0.9999983105152506,80.38812839342414
9.208,0.999998411199125,79.9592534810917
9.216000000000001,0.9999985105311338,79.52980523025302
9.224,0.999998608463815,79.09978362131103
9.232,0.9999987049497956,78.66918866995066
9.24,0.9999987999418052,78.23802042740395
9.248000000000001,0.9999988933926957,77.80627898071398
9.256,0.999998985255454,77.37396445299628
9.264,0.999999075483224,76.94107700369898
9.272,0.9999991640293165,76.50761682886129
9.280000000000001,0.9999992508472334,76.07358416137029
9.288,0.9999993358906782,75.63897927121515
9.296,0.9999994191135771,75.2038024657395
9.304,0.9999995004700939,74.7680540898919
9.312000000000001,0.9999995799146483,74.3317345264743
9.32,0.9999996574019315,73.89484419638745
9.328,0.9999997328869257,73.45738355887418
9.336,0.9999998063249195,73.01935311176057
9.344,0.999999877671525,72.58075339169433
9.352,0.9999999468826971,72.14158497437992
9.36,0.9999999999999999,71.70184847481212
9.368,0.9999999999999999,71.26154454750512
9.376,1.0,70.82067388672034
9.384,0.9999999999999998,70.3792372266896
9.392,1.0,69.93723534183661
9.4,1.0,69.49466904699375
9.408,0.9999999999999999,69.05153919761696
9.416,1.0,68.60784668999571
9.424,1.0,68.16359246146082
9.432,1.0,67.71877749058744
9.44,1.0,67.27340279739525
9.448,0.9999999999999999,66.82746944354385
9.456,0.9999999999999999,66.38097853252536
9.464,1.0,65.93393120985178
9.472,1.0,65.48632866323925
9.48,1.0,65.03817212278707
9.488,1.0,64.58946286115354
9.496,1.0,64.14020219372595
9.504,1.0,63.69039147878764
9.512,1.0,63.240032117678716
9.52,1.0,62.789125554953614
9.528,1.0,62.33767327853241
9.536,0.9999999999999999,61.885676819848534
9.544,1.0,61.433137753990046
9.552,1.0,60.980057699837175
9.56,0.9999999999999999,60.52643832019321
9.568,1.0000000000000002,60.07228132191151
9.576,1.0,59.61758845601554
9.584,0.9999999999999999,59.16236151781491
9.592,0.9999999999999998,58.706602347014254
9.6,1.0,58.25031282781793
9.608,1.0,57.79349488902727
9.616,1.0,57.33615050413354
