freq,mag,phase
6.0,0.9999924454572497,-57.8545632838595
6.008,0.9999936383466157,-58.2089460475959
6.016,0.999994770863422,-58.56291599618075
6.024,0.9999958445350762,-58.91647199290087
6.032,0.9999968608661514,-59.269612924423
6.04,0.999997821338533,-59.622337700718205
6.048,0.999998727411562,-59.97464525498468
6.056,0.9999995805221867,-60.32653454356856
6.064,1.0,-60.67800454588287
6.072,1.0,-61.02905426432484
6.08,1.0,-61.379682724191284
6.088,1.0,-61.72988897359242
6.096,1.0,-62.079672083363846
6.104,1.0,-62.42903114697705
6.112,0.9999999999999999,-62.7779652804481
6.12,1.0,-63.12647362224489
6.128,0.9999999999999999,-63.474555333192825
6.136,0.9999999999999999,-63.82220959637887
6.144,1.0,-64.16943561705425
6.152,0.9999999999999999,-64.51623262253565
6.16,0.9999999999999999,-64.86259986210499
6.168,1.0,-65.20853660690777
6.176,1.0,-65.55404214985022
6.184,0.9999999999999999,-65.8991158054949
6.192,1.0,-66.2437569099552
6.2,1.0,-66.5879648207886
6.208,1.0,-66.93173891688848
6.216,1.0,-67.275078598375
6.224,1.0,-67.61798328648479
6.232,1.0,-67.9604524234592
6.24,1.0,-68.30248547243204
6.248,1.0,-68.64408191731567
6.256,0.9999999999999999,-68.98524126268647
6.264,1.0,-69.32596303366903
6.272,1.0,-69.66624677581969
6.28,1.0,-70.00609205500872
6.288,0.9999999999999999,-70.34549845730213
6.296,0.9999999999999999,-70.68446558884203
6.304,0.9999999999999999,-71.02299307572663
6.312,1.0,-71.36108056388912
6.32,0.9999999999999998,-71.6987277189759
6.328,0.9999999999999999,-72.03593422622406
6.336,1.0,-72.37269979033803
6.344,1.0,-72.7090241353657
6.352,0.9999999999999999,-73.04490700457363
6.36,1.0,-73.38034816032193
6.368,1.0000000000000002,-73.71534738393828
6.376,1.0,-74.04990447559146
6.384,0.9999999999999998,-74.3840192541643
6.392,1.0,-74.71769155712613
6.4,0.9999999999999999,-75.05092124040472
6.408,1.0,-75.38370817825778
6.416,1.0,-75.7160522631439
6.424,1.0,-76.04795340559313
6.432,1.0,-76.3794115340773
6.44,1.0,-76.71042659487972
6.448,1.0,-77.04099855196463
6.456,1.0,-77.37112738684655
6.464,1.0,-77.7008130984589
6.472,0.9999995882125472,-78.03005570302273
6.48,0.9999991637924759,-78.35885523391507
6.4879999999999995,0.9999987354045567,-78.68721174153694
6.496,0.9999983035179096,-79.0151252931815
6.504,0.9999978685890883,-79.34259597290138
6.5120000000000005,0.9999974310622548,-79.66962388137681
6.52,0.9999969913693563,-79.99620913578246
6.5280000000000005,0.9999965499302972,-80.32235186965546
6.536,0.9999961071531147,-80.648052232762
6.5440000000000005,0.9999956634341506,-80.97331039096508
6.552,0.9999952191582218,-81.29812652609118
6.5600000000000005,0.9999947746987943,-81.62250083579788
6.568,0.9999943304181506,-81.94643353344041
6.5760000000000005,0.9999938866675611,-82.26992484793941
6.584,0.9999934437874497,-82.59297502364745
6.592,0.999993002107564,-82.91558432021692
6.6,0.9999925619471407,-83.23775301246684
6.608,0.9999921236150698,-83.55948139025044
6.616,0.9999916874100607,-83.8807697583227
6.624,0.9999912536208045,-84.20161843620801
6.632,0.9999908225261368,-84.52202775806789
6.64,0.9999903943951993,-84.84199807256897
6.648,0.9999899694875991,-85.16152974275126
6.656,0.9999895480535684,-85.48062314589632
6.664,0.9999891303341224,-85.79927867339597
6.672,0.9999887165612161,-86.11749673062107
6.68,0.9999883069578999,-86.43527773679058
6.688,0.9999879017384744,-86.75262212484084
6.696,0.9999875011086439,-87.06953034129523
6.704,0.9999871052656679,-87.38600284613413
6.712,0.9999867143985129,-87.70204011266506
6.72,0.9999863286880015,-88.01764262739324
6.728,0.9999859483069625,-88.33281088989258
6.736,0.9999855734203754,-88.64754541267683
6.744,0.9999852041855196,-88.96184672107131
6.752,0.9999848407521176,-89.27571535308478
6.76,0.9999844832624778,-89.58915185928197
6.768,0.9999841318516397,-89.90215680265639
6.776,0.9999837866475122,-90.21473075850352
6.784,0.999983447771014,-90.52687431429449
6.792,0.9999831153362134,-90.83858806955023
6.8,0.9999827894504636,-91.1498726357161
6.808,0.9999824702145406,-91.46072863603682
6.816,0.9999821577227751,-91.77115670543213
6.824,0.9999818520631895,-92.08115749037277
6.832,0.9999815533176254,-92.390731648757
6.84,0.9999812615618779,-92.69987984978762
6.848,0.9999809768658234,-93.00860277384967
6.856,0.9999806992935469,-93.31690111238841
6.864,0.9999804289034702,-93.62477556778796
6.872,0.9999801657484751,-93.93222685325064
6.88,0.9999799098760302,-94.23925569267654
6.888,0.9999796613283108,-94.54586282054404
6.896,0.9999794201423211,-94.85204898179059
6.904,0.9999791863500148,-95.15781493169428
6.912,0.9999789599784122,-95.46316143575588
6.92,0.9999787410497193,-95.76808926958164
6.928,0.9999785295814423,-96.07259921876647
6.936,0.999978325586502,-96.37669207877796
6.944,0.9999781290733478,-96.68036865484092
6.952,0.9999779400460691,-96.98362976182254
6.96,0.9999777585045059,-97.28647622411822
6.968,0.9999775844443577,-97.58890887553807
6.976,0.9999774178572919,-97.890928559194
6.984,0.9999772587310491,-98.19253612738753
6.992,0.9999771070495505,-98.49373244149815
7.0,0.9999769627929981,-98.79451837187261
7.008,0.9999768259379805,-99.09489479771449
7.016,0.9999766964575731,-99.39486260697477
7.024,0.9999765743214368,-99.69442269624304
7.032,0.9999764594959172,-99.99357597063918
7.04,0.9999763519441427,-100.29232334370606
7.048,0.999976251626119,-100.59066573730263
7.056,0.9999761584988243,-100.8886040814979
7.064,0.9999760725163026,-101.18613931446562
7.072,0.9999759936297554,-101.4832723823795
7.08,0.9999759217876327,-101.78000423930942
7.088,0.9999758569357214,-102.07633584711809
7.096,0.999975799017236,-102.37226817535854
7.104,0.9999757479729021,-102.6678022011724
7.112,0.9999757037410435,-102.9629389091888
7.12,0.9999756662576673,-103.25767929142397
7.128,0.9999756354565462,-103.55202434718176
7.136,0.9999756112693,-103.84597508295464
7.144,0.9999755936254763,-104.13953251232564
7.152,0.9999755824526297,-104.43269765587092
7.16,0.9999755776764016,-104.72547154106307
7.168,0.9999755792205934,-105.01785520217526
7.176,0.9999755870072464,-105.30984968018588
7.184,0.9999756009567133,-105.60145602268435
7.192,0.9999756209877327,-105.89267528377715
7.2,0.9999756470175005,-106.18350852399512
7.208,0.9999756789617417,-106.47395681020095
7.216,0.9999757167347796,-106.76402121549803
7.224,0.9999757602496036,-107.05370281913946
7.232,0.9999758094179381,-107.34300270643821
7.24,0.999975864150307,-107.63192196867786
7.248,0.9999759243561018,-107.92046170302415
7.256,0.9999759899436412,-108.20862301243714
7.264,0.9999760608202373,-108.49640700558439
7.272,0.9999761368922565,-108.78381479675457
7.28,0.9999762180651792,-109.07084750577201
7.288,0.9999763042436605,-109.35750625791198
7.296,0.999976395331588,-109.64379218381671
7.304,0.9999764912321397,-109.92970641941203
7.312,0.9999765918478395,-110.21525010582492
7.32,0.9999766970806125,-110.50042438930181
7.328,0.9999768068318405,-110.78523042112737
7.336,0.9999769210024132,-111.06966935754444
7.344,0.9999770394927815,-111.35374235967436
7.352,0.9999771622030084,-111.63745059343809
7.36,0.9999772890328187,-111.92079522947832
7.368,0.9999774198816487,-112.20377744308205
7.376,0.9999775546486935,-112.4863984141039
7.384,0.9999776932329542,-112.76865932689041
7.392,0.9999778355332852,-113.05056137020478
7.4,0.9999779814484373,-113.33210573715252
7.4079999999999995,0.9999781308771033,-113.61329362510769
7.416,0.9999782837179607,-113.89412623564017
7.4239999999999995,0.9999784398697147,-114.17460477444297
7.432,0.9999785992311382,-114.45473045126137
7.4399999999999995,0.9999787617011139,-114.7345044798214
7.448,0.9999789271786718,-115.01392807776044
7.4559999999999995,0.9999790955630299,-115.29300246655731
7.464,0.9999792667536309,-115.57172887146402
7.4719999999999995,0.9999794406501791,-115.85010852143748
7.48,0.9999796171526758,-116.12814264907264
7.4879999999999995,0.9999797961614566,-116.40583249053559
7.496,0.9999799775772227,-116.68317928549801
7.504,0.9999801613010766,-116.96018427707178
7.5120000000000005,0.9999803472345536,-117.23684871174484
7.52,0.9999805352796545,-117.5131738393171
7.5280000000000005,0.9999807253388755,-117.78916091283779
7.536,0.9999809173152384,-118.06481118854256
7.5440000000000005,0.9999811111123216,-118.34012592579242
7.552,0.9999813066342863,-118.61510638701212
7.5600000000000005,0.9999815037859064,-118.88975383763032
7.568,0.9999817024725948,-119.16406954601949
7.5760000000000005,0.9999819026004283,-119.4380547834374
7.584,0.9999821040761762,-119.71171082396829
7.5920000000000005,0.9999823068073218,-119.98503894446576
7.6,0.999982510702089,-120.25804042449516
7.6080000000000005,0.9999827156694646,-120.53071654627789
7.616,0.9999829216192205,-120.80306859463516
7.6240000000000006,0.9999831284619366,-121.07509785693344
7.632,0.9999833361090217,-121.34680562302957
7.640000000000001,0.9999835444727342,-121.61819318521754
7.648,0.9999837534662015,-121.88926183817493
7.656000000000001,0.99998396300344,-122.16001287891085
7.664,0.999984172999373,-122.43044760671361
7.672,0.9999843833698492,-122.70056732310012
7.68,0.9999845940316597,-122.97037333176476
7.688,0.9999848049025549,-123.23986693852976
7.696,0.9999850159012607,-123.50904945129572
7.704,0.9999852269474928,-123.7779221799929
7.712,0.9999854379619733,-124.04648643653313
7.72,0.9999856488664437,-124.31474353476231
7.728,0.9999858595836792,-124.58269479041336
7.736,0.9999860700375018,-124.85034152106014
7.744,0.999986280152792,-125.11768504607157
7.752,0.9999864898555022,-125.38472668656651
7.76,0.9999866990726665,-125.65146776536933
7.768,0.9999869077324128,-125.9179096069658
7.776,0.9999871157639735,-126.18405353745986
7.784,0.9999873230976931,-126.4499008845307
7.792,0.9999875296650405,-126.7154529773907
7.8,0.999987735398615,-126.98071114674347
7.808,0.9999879402321566,-127.24567672474308
7.816,0.9999881441005531,-127.5103510449533
7.824,0.9999883469398473,-127.77473544230774
7.832,0.9999885486872436,-128.0388312530703
7.84,0.999988749281115,-128.30263981479638
7.848,0.9999889486610086,-128.56616246629454
7.856,0.9999891467676514,-128.8294005475886
7.864,0.9999893435429548,-129.09235539988046
7.872,0.9999895389300192,-129.35502836551336
7.88,0.9999897328731383,-129.6174207879356
7.888,0.9999899253178034,-129.879534011665
7.896,0.9999901162107053,-130.1413693822535
7.904,0.9999903054997389,-130.40292824625274
7.912,0.9999904931340036,-130.66421195117985
7.92,0.9999906790638076,-130.92522184548372
7.928,0.9999908632406674,-131.185959278512
7.936,0.9999910456173114,-131.44642560047842
7.944,0.999991226147678,-131.70662216243062
7.952,0.9999914047869193,-131.96655031621862
7.96,0.9999915814913988,-132.2262114144635
7.968,0.9999917562186923,-132.48560681052686
7.976,0.9999919289275874,-132.74473785848065
7.984,0.9999920995780819,-133.0036059130773
7.992,0.9999922681313843,-133.2622123297206
8.0,0.99999243454991,-133.52055846443693
8.008,0.9999925987972813,-133.77864567384682
8.016,0.9999927608383239,-134.0364753151374
8.024000000000001,0.9999929206390655,-134.29404874603455
8.032,0.9999930781667326,-134.55136732477624
8.04,0.9999932333897471,-134.8084324100861
8.048,0.9999933862777226,-135.0652453611473
8.056000000000001,0.9999935368014627,-135.32180753757672
8.064,0.9999936849329552,-135.57812029939998
8.072,0.9999938306453672,-135.83418500702683
8.08,0.9999939739130428,-136.09000302122655
8.088000000000001,0.9999941147114977,-136.34557570310426
8.096,0.9999942530174123,-136.60090441407723
8.104,0.9999943888086298,-136.8559905158522
8.112,0.9999945220641472,-137.11083537040236
8.120000000000001,0.9999946527641116,-137.3654403399454
8.128,0.9999947808898146,-137.6198067869214
8.136,0.9999949064236838,-137.87393607397186
8.144,0.999995029349279,-138.12782956391823
8.152000000000001,0.9999951496512837,-138.3814886197415
8.16,0.999995267315499,-138.6349146045619
8.168,0.9999953823288361,-138.8881088816192
8.176,0.9999954946793091,-139.14107281425305
8.184000000000001,0.9999956043560285,-139.39380776588408
8.192,0.9999957113491916,-139.64631509999492
8.2,0.9999958156500763,-139.89859618011218
8.208,0.999995917251032,-140.1506523697885
8.216000000000001,0.9999960161454717,-140.4024850325846
8.224,0.9999961123278639,-140.65409553205225
8.232,0.999996205793723,-140.9054852317176
8.24,0.9999962965396015,-141.15665549506434
8.248000000000001,0.9999963845630812,-141.4076076855177
8.256,0.9999964698627627,-141.6583431664285
8.264,0.999996552438258,-141.90886330105792
8.272,0.9999966322901794,-142.15916945256225
8.280000000000001,0.9999967094201313,-142.40926298397787
8.288,0.9999967838306997,-142.65914525820702
8.296,0.9999968555254424,-142.90881763800374
8.304,0.9999969245088794,-143.15828148595998
8.312,0.999996990786483,-143.40753816449194
8.32,0.9999970543646666,-143.65658903582732
8.328,0.9999971152507752,-143.90543546199197
8.336,0.999997173453075,-144.15407880479793
8.344,0.9999972289807422,-144.40252042583066
8.352,0.9999972818438525,-144.65076168643762
8.36,0.9999973320533714,-144.8988039477163
8.368,0.9999973796211411,-145.14664857050323
8.376,0.9999974245598715,-145.3942969153627
8.384,0.9999974668831284,-145.6417503425763
8.392,0.999997506605322,-145.8890102121323
8.4,0.9999975437416965,-146.13607788371579
8.408,0.9999975783083169,-146.38295471669835
8.416,0.9999976103220607,-146.6296420701293
8.424,0.9999976398006025,-146.87614130272547
8.432,0.999997666762406,-147.1224537728631
8.44,0.9999976912267099,-147.3685808385684
8.448,0.9999977132135175,-147.61452385750954
8.456,0.9999977327435835,-147.86028418698825
8.464,0.999997749838404,-148.10586318393217
8.472,0.9999977645202036,-148.35126220488667
8.48,0.9999977768119221,-148.59648260600807
8.488,0.9999977867372057,-148.84152574305594
8.496,0.999997794320391,-149.08639297138674
8.504,0.9999977995864967,-149.33108564594662
8.512,0.9999978025612085,-149.5756051212656
8.52,0.9999978032708676,-149.81995275145084
8.528,0.9999978017424599,-150.06412989018128
8.536,0.9999977980036011,-150.30813789070143
8.544,0.9999977920825274,-150.55197810581654
8.552,0.99999778400808,-150.79565188788678
8.56,0.9999977738096956,-151.03916058882282
8.568,0.9999977615173915,-151.28250556008058
8.576,0.9999977471617547,-151.5256881526572
8.584,0.999997730773929,-151.76870971708632
8.592,0.9999977123856023,-152.01157160343433
8.6,0.9999976920289945,-152.2542751612963
8.608,0.9999976697368442,-152.4968217397925
8.616,0.9999976455423972,-152.73921268756467
8.624,0.9999976194793931,-152.98144935277335
8.632,0.9999975915820534,-153.22353308309414
8.64,0.9999975618850677,-153.46546522571566
8.648,0.9999975304235831,-153.70724712733616
8.656,0.99999749723319,-153.9488801341619
8.664,0.9999974623499099,-154.1903655919041
8.672,0.9999974258101835,-154.43170484577783
8.68,0.9999973876508567,-154.6728992404993
8.688,0.9999973479091699,-154.9139501202849
8.696,0.9999973066227442,-155.1548588288493
8.704,0.999997263829569,-155.39562670940455
8.712,0.9999972195679896,-155.63625510465857
8.72,0.9999971738766945,-155.87674535681472
8.728,0.999997126794704,-156.11709880757064
8.736,0.9999970783613557,-156.35731679811806
8.744,0.9999970286162937,-156.59740066914202
8.752,0.9999969775994559,-156.8373517608212
8.76,0.9999969253510606,-157.07717141282725
8.768,0.9999968719115951,-157.3168609643255
8.776,0.9999968173218032,-157.5564217539748
8.784,0.9999967616226727,-157.79585511992823
8.792,0.9999967048554227,-158.0351623998336
8.8,0.9999966470614918,-158.27434493083433
8.808,0.999996588282526,-158.5134040495701
8.815999999999999,0.9999965285603659,-158.75234109217828
8.824,0.999996467937035,-158.99115739429504
8.832,0.9999964064547279,-159.22985429105645
8.84,0.9999963441557966,-159.4684331171003
8.847999999999999,0.9999962810827404,-159.70689520656774
8.856,0.9999962172781931,-159.94524189310505
8.864,0.9999961527849106,-160.1834745098655
8.872,0.999996087645759,-160.42159438951137
8.879999999999999,0.9999960219037036,-160.6596028642165
8.888,0.9999959556017965,-160.89750126566847
8.896,0.9999958887831648,-161.13529092507085
8.904,0.9999958214909984,-161.37297317314602
8.911999999999999,0.9999957537685392,-161.61054934013814
8.92,0.9999956856590688,-161.84802075581567
8.928,0.9999956172058975,-162.08538874947442
8.936,0.9999955484523522,-162.32265464994072
8.943999999999999,0.999995479441765,-162.55981978557483
8.952,0.9999954102174623,-162.79688548427407
8.96,0.9999953408227531,-163.03385307347628
8.968,0.9999952713009173,-163.2707238801635
8.975999999999999,0.999995201695195,-163.50749923086568
8.984,0.9999951320487752,-163.74418045166448
8.992,0.9999950624047851,-163.98076886819712
9.0,0.9999949928062778,-164.2172658056604
9.008,0.9999949232962225,-164.45367258881495
9.016,0.9999948539174938,-164.6899905419895
9.024000000000001,0.9999947847128593,-164.9262209890849
9.032,0.9999947157249701,-165.1623652535788
9.04,0.99999464699635,-165.39842465853025
9.048,0.9999945785693846,-165.63440052658424
9.056000000000001,0.9999945104863102,-165.87029417997633
9.064,0.9999944427892047,-166.10610694053747
9.072,0.9999943755199754,-166.34184012969914
9.08,0.9999943087203501,-166.5774950684982
9.088000000000001,0.9999942424318662,-166.81307307758186
9.096,0.9999941766958607,-167.048575477213
9.104,0.9999941115534593,-167.28400358727544
9.112,0.9999940470455674,-167.51935872727918
9.120000000000001,0.9999939832128599,-167.75464221636594
9.128,0.9999939200957704,-167.9898553733144
9.136,0.999993857734483,-168.2249995165462
9.144,0.9999937961689205,-168.46007596413125
9.152000000000001,0.9999937354387372,-168.69508603379356
9.16,0.9999936755833069,-168.930031042917
9.168,0.9999936166417146,-169.1649123085513
9.176,0.9999935586527481,-169.39973114741792
9.184000000000001,0.9999935016548855,-169.63448887591596
9.192,0.9999934456862907,-169.86918681012835
9.2,0.9999933907847983,-170.103826265828
9.208,0.9999933369879109,-170.338408558484
9.216000000000001,0.9999932843327849,-170.57293500326773
9.224,0.9999932328562253,-170.80740691505935
9.232,0.9999931825946734,-171.04182560845422
9.24,0.9999931335842015,-171.27619239776928
9.248000000000001,0.999993085860502,-171.51050859704938
9.256,0.9999930394588802,-171.74477552007409
9.264,0.9999929944142442,-171.97899448036412
9.272,0.9999929507610986,-172.21316679118823
9.280000000000001,0.9999929085335351,-172.44729376556955
9.288,0.9999928677652236,-172.68137671629262
9.296,0.9999928284894055,-172.91541695591008
9.304,0.9999927907388857,-173.14941579674968
9.312000000000001,0.9999927545460233,-173.38337455092085
9.32,0.9999927199427251,-173.6172945303218
9.328,0.999992686960437,-173.85117704664665
9.336,0.9999926556301376,-174.08502341139223
9.344,0.9999926259823297,-174.3188349358651
9.352,0.9999925980470328,-174.55261293118886
9.36,0.9999925718537758,-174.78635870831098
9.368,0.999992547431591,-175.0200735780102
9.376,0.9999925248090058,-175.25375885090358
9.384,0.9999925040140355,-175.48741583745377
9.392,0.9999924850741772,-175.72104584797617
9.4,0.9999924680164022,-175.9546501926464
9.408,0.9999924528671508,-176.18823018150718
9.416,0.9999924396523228,-176.42178712447634
9.424,0.9999924283972743,-176.65532233135335
9.432,0.9999924191268087,-176.88883711182737
9.44,0.9999924118651722,-177.12233277548424
9.448,0.9999924066360459,-177.35581063181405
9.456,0.9999924034625417,-177.58927199021846
9.464,0.9999924023671943,-177.8227181600184
9.472,0.999992403371956,-178.05615045046105
9.48,0.9999924064981925,-178.28957017072784
9.488,0.9999924117666744,-178.52297862994152
9.496,0.9999924191975732,-178.75637713717396
9.504,0.9999924288104565,-178.98976700145337
9.512,0.9999924406242807,-179.2231495317721
9.52,0.999992454657388,-179.45652603709382
9.528,0.9999924709274985,-179.68989782636152
9.536,0.9999924894517085,-179.9232662085044
9.544,0.9999925102464826,179.8433675075539
9.552,0.99999253332765,179.61000201288843
9.56,0.9999925587104004,179.37663599856484
9.568,0.9999925864092786,179.14326815563228
9.576,0.9999926164381799,178.90989717511562
9.584,0.999992648810347,178.676521748008
9.592,0.9999926835383629,178.4431405652633
9.6,0.9999927206341508,178.20975231778877
