freq,mag,phase
6.0,0.9999995056410639,126.20898354828387
6.008,0.9999995139383014,126.13602007687821
6.016,0.9999995212409417,126.063051896457
6.024,0.9999995275754494,125.99007900237021
6.032,0.9999995329681168,125.91710138996254
6.04,0.9999995374450644,125.84411905457327
6.048,0.9999995410322402,125.77113199153638
6.056,0.9999995437554208,125.69814019618065
6.064,0.9999995456402109,125.62514366382948
6.072,0.999999546712044,125.55214238980112
6.08,0.9999995469961823,125.47913636940865
6.088,0.9999995465177174,125.40612559795996
6.096,0.9999995453015699,125.33311007075783
6.104,0.99999954337249,125.26008978309986
6.112,0.9999995407550578,125.1870647302787
6.12,0.9999995374736833,125.11403490758191
6.128,0.9999995335526061,125.04100031029198
6.136,0.9999995290158968,124.9679609336865
6.144,0.9999995238874568,124.89491677303803
6.152,0.9999995181910182,124.8218678236143
6.16,0.9999995119501436,124.74881408067812
6.168,0.9999995051882278,124.67575553948735
6.176,0.9999994979284964,124.60269219529516
6.184,0.9999994901940074,124.52962404334977
6.192,0.9999994820076504,124.45655107889475
6.2,0.9999994733921473,124.38347329716886
6.208,0.9999994643700526,124.3103906934062
6.216,0.9999994549637533,124.23730326283614
6.224,0.9999994451954695,124.16421100068335
6.232,0.9999994350872545,124.09111390216805
6.24,0.9999994246609948,124.01801196250565
6.248,0.999999413938411,123.94490517690721
6.256,0.9999994029410567,123.87179354057908
6.264,0.9999993916903204,123.79867704872319
6.272,0.9999993802074252,123.72555569653699
6.28,0.9999993685134276,123.65242947921352
6.288,0.9999993566292203,123.57929839194135
6.296,0.99999934457553,123.50616242990468
6.304,0.9999993323729197,123.43302158828338
6.312,0.9999993200417868,123.35987586225295
6.32,0.9999993076023658,123.28672524698474
6.328,0.9999992950747263,123.21356973764563
6.336,0.9999992824787747,123.14040932939844
6.344,0.9999992698342534,123.06724401740165
6.352,0.9999992571607426,122.99407379680969
6.36,0.9999992444776586,122.92089866277281
6.368,0.9999992318042555,122.84771861043711
6.376,0.9999992191596246,122.77453363494465
6.384,0.9999992065626956,122.70134373143343
6.392,0.9999991940322354,122.62814889503741
6.4,0.9999991815868499,122.55494912088659
6.408,0.9999991692449834,122.48174440410699
6.416,0.9999991570249188,122.40853473982071
6.424,0.999999144944778,122.33532012314593
6.432,0.9999991330225231,122.262100549197
6.44,0.9999991212759543,122.18887601308438
6.448,0.999999109722713,122.11564650991482
6.456,0.9999990983802801,122.04241203479113
6.464,0.9999990872659769,121.9691725828125
6.472,0.9999990763969653,121.89592814907438
6.48,0.9999990657902478,121.82267872866849
6.4879999999999995,0.9999990554626688,121.74942431668295
6.496,0.9999990454309136,121.67616490820218
6.504,0.9999990357115087,121.60290049830708
6.5120000000000005,0.9999990263208238,121.52963108207491
6.52,0.9999990172750698,121.4563566545795
6.5280000000000005,0.9999990085902999,121.38307721089105
6.536,0.9999990002824108,121.30979274607633
6.5440000000000005,0.9999989923671418,121.2365032551987
6.552,0.9999989848600753,121.16320873331809
6.5600000000000005,0.9999989777766378,121.08990917549102
6.568,0.9999989711320987,121.01660457677065
6.5760000000000005,0.9999989649415718,120.94329493220687
6.584,0.9999989592200159,120.86998023684625
6.592,0.9999989539822342,120.79666048573206
6.6,0.9999989492428736,120.72333567390437
6.608,0.9999989450164276,120.65000579640008
6.616,0.9999989413172341,120.57667084825283
6.624,0.9999989381594776,120.5033308244932
6.632,0.9999989355571879,120.42998572014862
6.64,0.9999989335242413,120.35663553024345
6.648,0.9999989320743609,120.28328024979902
6.656,0.9999989312211158,120.2099198738336
6.664,0.9999989309779227,120.13655439736247
6.672,0.9999989313580459,120.06318381539799
6.68,0.999998932374597,119.98980812294955
6.688,0.9999989340405353,119.9164273150237
6.696,0.9999989363686689,119.84304138662404
6.704,0.9999989393716536,119.76965033275141
6.712,0.9999989430619948,119.6962541484038
6.72,0.9999989474520464,119.62285282857643
6.728,0.9999989525540114,119.54944636826174
6.736,0.9999989583799432,119.47603476244956
6.744,0.9999989649417441,119.40261800612689
6.752,0.9999989722511677,119.32919609427822
6.76,0.9999989803198169,119.2557690218853
6.768,0.9999989891591463,119.18233678392734
6.776,0.9999989987804606,119.10889937538099
6.784,0.9999990091949165,119.03545679122033
6.792,0.9999990204135222,118.96200902641698
6.8,0.9999990324471378,118.88855607594007
6.808,0.9999990453064749,118.81509793475631
6.816,0.9999990590020988,118.74163459782993
6.824,0.9999990735444265,118.66816606012284
6.832,0.9999990889437284,118.5946923165946
6.84,0.9999991052101282,118.52121336220245
6.848,0.9999991223536034,118.4477291919013
6.856,0.9999991403839852,118.37423980064386
6.864,0.9999991593109593,118.30074518338054
6.872,0.9999991791440652,118.22724533505962
6.88,0.9999991998926978,118.15374025062718
6.888,0.9999992215661073,118.08022992502715
6.896,0.9999992441733987,118.0067143532014
6.904,0.9999992677235329,117.93319353008968
6.912,0.9999992922253268,117.85966745062971
6.92,0.9999993176874532,117.78613610975724
6.928,0.9999993441184424,117.71259950240594
6.936,0.9999993715266803,117.63905762350757
6.944,0.999999399920411,117.56551046799203
6.952,0.9999994293077357,117.49195803078722
6.96,0.9999994596966132,117.41840030681924
6.968,0.9999994910948603,117.34483729101235
6.976,0.9999995235101522,117.27126897828904
6.984,0.9999995569500232,117.19769536356995
6.992,0.9999995914218659,117.12411644177404
7.0,0.9999996269329322,117.05053220781855
7.008,0.999999663490334,116.97694265661904
7.016,0.999999701101043,116.90334778308942
7.024,0.9999997397718905,116.82974758214193
7.032,0.9999997795095685,116.75614204868735
7.04,0.99999982032063,116.68253117763474
7.048,0.9999998622114887,116.60891496389176
7.056,0.9999999051884202,116.53529340236453
7.064,0.9999999492575607,116.4616664879577
7.072,0.9999999944249097,116.38803421557446
7.08,1.0,116.31439658011665
7.088,0.9999999999999999,116.24075357648469
7.096,1.0000000000000002,116.1671051995777
7.104,1.0000000000000002,116.09345144429342
7.112,0.9999999999999999,116.01979230552838
7.12,0.9999999999999999,115.94612777817778
7.128,1.0,115.87245785713569
7.136,1.0,115.79878253729491
7.144,1.0,115.72510181354708
7.152,1.0,115.65141568078278
7.16,1.0,115.57772413389142
7.168,1.0,115.50402716776136
7.176,1.0,115.43032477727994
7.184,1.0,115.35661695733347
7.192,1.0,115.28290370280727
7.2,0.9999999999999999,115.20918500858573
7.208,1.0,115.13546086955233
7.216,0.9999999999999999,115.06173128058964
7.224,0.9999999999999999,114.98799623657939
7.232,1.0,114.91425573240247
7.24,1.0,114.84050976293895
7.248,1.0,114.76675832306819
7.256,1.0,114.69300140766879
7.264,1.0,114.61923901161863
7.272,1.0,114.54547112979493
7.28,1.0,114.47169775707424
7.288,1.0,114.39791888833253
7.296,0.9999999999999998,114.32413451844516
7.304,1.0,114.25034464228696
7.312,1.0,114.17654925473221
7.32,1.0,114.10274835065471
7.328,1.0,114.02894192492779
7.336,0.9999999999999999,113.95512997242436
7.344,0.9999999999999999,113.8813124880169
7.352,0.9999999999999999,113.80748946657755
7.36,1.0,113.73366090297812
7.368,1.0,113.65982679209003
7.376,1.0,113.58598712878451
7.384,0.9999999999999999,113.51214190793249
7.392,0.9999999999999999,113.43829112440467
7.4,0.9999999999999999,113.36443477307161
7.4079999999999995,0.9999999999999998,113.29057284880365
7.416,1.0,113.21670534647103
7.4239999999999995,1.0,113.14283226094389
7.432,1.0,113.0689535870923
7.4399999999999995,1.0000000000000002,112.99506931978625
7.448,0.9999999999999999,112.92117945389579
7.4559999999999995,0.9999999999999999,112.84728398429097
7.464,1.0,112.77338290584181
7.4719999999999995,0.9999999999999999,112.69947621341855
7.48,1.0,112.62556390189141
7.4879999999999995,1.0,112.55164596613083
7.496,1.0,112.4777224010074
7.504,0.9999999999999999,112.4037932013919
7.5120000000000005,0.9999999999999999,112.32985836215535
7.52,0.9999999999999999,112.25591787816904
7.5280000000000005,0.9999999999999999,112.1819717443045
7.536,0.9999999999999999,112.10801995543368
7.5440000000000005,1.0,112.03406250642877
7.552,0.9999999999999999,111.96009939216243
7.5600000000000005,0.9999999999999999,111.88613060750768
7.568,1.0,111.81215614733799
7.5760000000000005,1.0,111.7381760065273
7.584,1.0,111.66419017995007
7.5920000000000005,0.9999999999999999,111.59019866248127
7.6,1.0,111.51620144899644
7.6080000000000005,1.0,111.44219853437171
7.616,1.0,111.36818991348383
7.6240000000000006,1.0,111.29417558121018
7.632,0.9999999999999998,111.22015553242886
7.640000000000001,1.0,111.14612976201866
7.648,1.0,111.0720982648591
7.656000000000001,1.0,110.99806103583046
7.664,0.9999999999999998,110.92401806981388
7.672,1.0,110.84996936169127
7.68,1.0,110.77591490634538
7.688,1.0,110.70185469865991
7.696,1.0,110.62778873351948
7.704,0.9999999999999999,110.55371700580962
7.712,1.0,110.47963951041682
7.72,0.9999999999999999,110.40555624222863
7.728,1.0,110.3314671961336
7.736,1.0,110.25737236702139
7.744,1.0,110.18327174978272
7.752,1.0,110.10916533930943
7.76,1.0,110.03505313049453
7.768,1.0,109.96093511823223
7.776,0.9999999999999999,109.88681129741795
7.784,0.9999999999999999,109.81268166294832
7.792,0.9999999999999999,109.73854620972129
7.8,0.9999999999999999,109.6644049326361
7.808,0.9999999999999999,109.59025782659332
7.816,1.0,109.51610488649486
7.824,0.9999999999999999,109.44194610724405
7.832,0.9999999999999999,109.36778148374566
7.84,0.9999999999999999,109.29361101090585
7.848,1.0,109.21943468363234
7.856,1.0,109.14525249683429
7.864,0.9999999999999999,109.07106444542245
7.872,0.9999999999999999,108.99687052430913
7.88,0.9999999999999998,108.92267072840818
7.888,1.0,108.84846505263516
7.896,0.9999999999999999,108.77425349190726
7.904,1.0,108.7000360411433
7.912,1.0,108.62581269526395
7.92,1.0,108.55158344919147
7.928,1.0,108.47734829785001
7.936,0.9999999999999999,108.40310723616545
7.944,1.0,108.32886025906556
7.952,1.0,108.25460736147994
7.96,1.0,108.18034853834008
7.968,1.0,108.10608378457943
7.976,0.9999999999999999,108.03181309513332
7.984,0.9999999999999999,107.95753646493914
7.992,1.0,107.88325388893622
8.0,1.0,107.808965362066
8.008,0.9999999999999999,107.73467087927192
8.016,1.0,107.66037043549953
8.024000000000001,1.0,107.58606402569654
8.032,1.0,107.51175164481282
8.04,1.0,107.43743328780036
8.048,1.0,107.36310894961342
8.056000000000001,1.0,107.28877862520848
8.064,1.0,107.21444230954431
8.072,0.9999999999999999,107.14009999758196
8.08,0.9999999999999999,107.0657516842848
8.088000000000001,1.0,106.9913973646186
8.096,1.0,106.91703703355154
8.104,1.0,106.84267068605409
8.112,0.9999999999999999,106.76829831709932
8.120000000000001,1.0,106.69391992166265
8.128,1.0,106.61953549472211
8.136,1.0,106.54514503125823
8.144,1.0,106.47074852625401
8.152000000000001,0.9999999999999999,106.39634597469521
8.16,1.0,106.32193737157007
8.168,0.9999999999999999,106.24752271186958
8.176,1.0,106.17310199058728
8.184000000000001,1.0,106.0986752027196
8.192,0.9999999999999999,106.02424234326557
8.2,1.0,105.94980340722705
8.208,0.9999999999999999,105.87535838960864
8.216000000000001,0.9999999999999999,105.80090728541781
8.224,1.0,105.7264500896649
8.232,1.0,105.6519867973631
8.24,1.0,105.57751740352852
8.248000000000001,0.9999999999999999,105.50304190318019
8.256,1.0,105.4285602913402
8.264,1.0,105.35407256303357
8.272,1.0,105.27957871328829
8.280000000000001,1.0,105.20507873713554
8.288,1.0,105.13057262960955
8.296,0.9999999999999999,105.0560603857476
8.304,1.0,104.98154200059018
8.312,1.0,104.90701746918097
8.32,1.0,104.8324867865668
8.328,1.0000000000000002,104.75794994779778
8.336,0.9999999999999999,104.68340694792727
8.344,0.9999999999999999,104.60885778201195
8.352,1.0,104.53430244511178
8.36,1.0,104.45974093229013
8.368,1.0,104.3851732386137
8.376,1.0,104.31059935915263
8.384,0.9999999999999999,104.23601928898054
8.392,0.9999999999999999,104.16143302317447
8.4,0.9999999999999998,104.08684055681496
8.408,1.0,104.01224188498615
8.416,0.9999999999999999,103.93763700277567
8.424,1.0,103.86302590527482
8.432,1.0,103.78840858757843
8.44,1.0,103.71378504478511
8.448,0.9999999999999999,103.63915527199703
8.456,1.0,103.56451926432017
8.464,0.9999999999999999,103.48987701686417
8.472,0.9999999999999999,103.41522852474259
8.48,1.0,103.34057378307261
8.488,1.0,103.26591278697542
8.496,1.0,103.19124553157596
8.504,1.0,103.11657201200315
8.512,1.0,103.04189222338981
8.52,1.0,102.96720616087275
8.528,1.0,102.89251381959271
8.536,0.9999999999999999,102.81781519469455
8.544,1.0,102.7431102813271
8.552,0.9999999999999999,102.66839907464338
8.56,0.9999999999999999,102.59368156980044
8.568,1.0,102.51895776195956
8.576,1.0,102.44422764628612
8.584,1.0,102.36949121794987
8.592,1.0,102.29474847212465
8.6,1.0,102.2199994039887
8.608,0.9999999999999999,102.1452440087245
8.616,1.0,102.070482281519
8.624,0.9999999999999999,101.99571421756342
8.632,0.9999999999999999,101.92093981205345
8.64,0.9999999999999999,101.84615906018924
8.648,1.0,101.77137195717545
8.656,1.0,101.6965784982212
8.664,0.9999999999999999,101.62177867854025
8.672,1.0,101.54697249335094
8.68,0.9999999999999998,101.47215993787617
8.688,0.9999999999999999,101.3973410073436
8.696,1.0,101.32251569698555
8.704,1.0,101.24768400203907
8.712,1.0,101.17284591774602
8.72,1.0,101.09800143935307
8.728,1.0,101.02315056211171
8.736,1.0,100.94829328127832
8.744,1.0,100.87342959211432
8.752,0.9999999999999999,100.79855948988592
8.76,1.0,100.72368296986447
8.768,0.9999999999999998,100.64880002732632
8.776,1.0,100.5739106575529
8.784,1.0,100.4990148558308
8.792,0.9999999999999999,100.42411261745174
8.8,0.9999999999999998,100.34920393771266
8.808,0.9999999999999999,100.27428881191582
8.815999999999999,0.9999999999999999,100.19936723536867
8.824,1.0,100.12443920338404
8.832,1.0,100.04950471128019
8.84,1.0,99.97456375438077
8.847999999999999,0.9999999999999998,99.8996163280149
8.856,1.0,99.82466242751718
8.864,0.9999999999999999,99.74970204822787
8.872,1.0,99.67473518549282
8.879999999999999,1.0,99.59976183466348
8.888,0.9999999999999999,99.52478199109704
8.896,1.0,99.44979565015647
8.904,1.0,99.37480280721057
8.911999999999999,0.9999999999999999,99.29980345763394
8.92,1.0,99.22479759680716
8.928,1.0,99.14978522011673
8.936,0.9999999999999999,99.07476632295521
8.943999999999999,1.0,98.99974090072122
8.952,1.0,98.92470894881949
8.96,1.0,98.84967046266101
8.968,1.0,98.77462543766296
8.975999999999999,0.9999999999999998,98.69957386924888
8.984,0.9999999999999999,98.62451575284864
8.992,1.0,98.54945108389855
9.0,1.0,98.47437985784146
9.008,1.0,98.39930207012672
9.016,1.0,98.32421771621038
9.024000000000001,0.9999999999999999,98.24912679155511
9.032,0.9999999999999999,98.17402929163043
9.04,1.0,98.09892521191263
9.048,1.0,98.02381454788492
9.056000000000001,1.0,97.94869729503755
9.064,1.0,97.87357344886776
9.072,0.9999999999999999,97.79844300487999
9.08,1.0,97.72330595858581
9.088000000000001,1.0,97.64816230550419
9.096,1.0,97.57301204116143
9.104,1.0,97.4978551610913
9.112,0.9999999999999999,97.4226916608351
9.120000000000001,0.9999999999999999,97.34752153594185
9.128,1.0,97.27234478196826
9.136,1.0,97.19716139447885
9.144,0.9999999999999999,97.12197136904611
9.152000000000001,1.0,97.04677470125051
9.16,1.0,96.97157138668075
9.168,1.0,96.89636142093366
9.176,1.0,96.82114479961444
9.184000000000001,0.9999999999999999,96.74592151833677
9.192,1.0,96.67069157272293
9.2,1.0,96.5954549584038
9.208,0.9999999999999999,96.52021167101913
9.216000000000001,0.9999999999999999,96.44496170621755
9.224,1.0,96.36970505965684
9.232,0.9999999999999999,96.29444172700386
9.24,0.9999999999999999,96.21917170393483
9.248000000000001,0.9999999999999999,96.14389498613549
9.256,1.0,96.06861156930111
9.264,0.9999999999999999,95.99332144913676
9.272,0.9999999999999999,95.91802462135735
9.280000000000001,1.0,95.8427210816879
9.288,0.9999999999999999,95.76741082586369
9.296,1.0,95.69209384963028
9.304,1.0,95.61677014874385
9.312000000000001,0.9999999999999999,95.54143971897129
9.32,1.0,95.46610255609046
9.328,1.0,95.39075865589025
9.336,0.9999999999999999,95.31540801417081
9.344,0.9999999999999999,95.24005062674392
9.352,1.0,95.1646864894329
9.36,0.9999999999999999,95.08931559807307
9.368,0.9999999999999999,95.01393794851182
9.376,0.9999999999999999,94.93855353660896
9.384,1.0,94.86316235823682
9.392,0.9999999999999999,94.78776440928057
9.4,0.9999999999999999,94.71235968563842
9.408,0.9999999999999999,94.63694818322196
9.416,0.9999999999999999,94.56152989795632
9.424,0.9999999999999999,94.48610482578053
9.432,1.0,94.4106729626477
9.44,1.0,94.33523430452546
9.448,1.0,94.25978884739608
9.456,0.9999999999999999,94.18433658725695
9.464,1.0,94.10887752012074
9.472,1.0,94.0334116420159
9.48,0.9999999999999999,93.95793894898686
9.488,0.9999999999999999,93.8824594370945
9.496,0.9999999999999999,93.80697310241635
9.504,1.0,93.73147994104718
9.512,1.0,93.65597994909922
9.52,1.0,93.5804731227027
9.528,1.0,93.5049594580061
9.536,1.0,93.42943895117676
9.544,1.0,93.35391159840123
9.552,1.0,93.27837739588571
9.56,1.0,93.20283633985662
9.568,0.9999999999999999,93.12728842656104
9.576,0.9999999999999999,93.05173365226717
9.584,1.0,92.97617201326501
9.592,1.0,92.90060350586673
9.6,0.9999999999999998,92.82502812640737
9.608,0.9999999999999999,92.74944587124536
9.616,1.0,92.67385673676317
9.624,1.0,92.59826071936787
9.632,0.9999999999999999,92.52265781549193
9.64,1.0,92.44704802159366
9.648,0.9999999999999999,92.37143133415816
9.656,1.0,92.29580774969784
9.664,1.0,92.22017726475333
9.672,1.0,92.1445398758941
9.68,0.9999999999999999,92.06889557971941
9.688,1.0,91.99324437285901
9.696,0.9999999999999999,91.91758625197414
9.704,1.0,91.84192121375825
9.712,1.0,91.76624925493812
9.72,0.9999999999999999,91.69057037227459
9.728,1.0,91.61488456256382
9.736,1.0,91.539191822638
9.744,1.0,91.46349214936674
9.752,0.9999999999999999,91.3877855396579
9.76,0.9999999999999999,91.3120719904589
9.768,0.9999999999999999,91.23635149875778
9.776,0.9999999999999999,91.1606240615846
9.784,1.0,91.08488967601244
9.792,1.0,91.00914833915895
9.8,0.9999999999999998,90.93340004818764
9.808,1.0,90.85764480030922
9.816,1.0,90.78188259278312
9.824,1.0,90.70611342291902
9.832,1.0,90.63033728807837
9.84,1.0,90.55455418567604
9.847999999999999,1.0,90.47876411318198
9.856,1.0,90.40296706812295
9.864,1.0,90.32716304808443
9.872,1.0,90.25135205071236
9.879999999999999,1.0,90.1755340737151
9.888,1.0000000000000002,90.09970911486545
9.896,1.0,90.02387717200283
9.904,0.9999999999999999,89.94803824303528
9.911999999999999,0.9999999999999998,89.87219232594177
9.92,1.0,89.79633941877442
9.928,1.0,89.72047951966107
9.936,0.9999999999999999,89.64461262680764
9.943999999999999,1.0,89.56873873850064
9.952,0.9999999999999999,89.49285785310992
9.96,0.9999999999999999,89.41696996909145
9.968,1.0,89.34107508499012
9.975999999999999,1.0,89.26517319944264
9.984,1.0,89.18926431118064
9.992,0.9999999999999999,89.11334841903393
10.0,1.0,89.03742552193363
10.008,1.0,88.96149561891559
10.016,1.0,88.885558709124
10.024000000000001,1.0,88.80961479181488
10.032,0.9999999999999999,88.73366386635999
10.04,1.0,88.65770593225052
10.048,0.9999999999999999,88.5817409891013
10.056000000000001,1.0,88.50576903665487
10.064,0.9999999999999999,88.42979007478577
10.072,1.0,88.35380410350506
10.08,0.9999999999999999,88.27781112296479
10.088000000000001,1.0,88.20181113346288
10.096,1.0,88.12580413544804
10.104,0.9999999999999998,88.04979012952465
10.112,1.0,87.97376911645824
10.120000000000001,1.0,87.89774109718074
10.128,1.0,87.82170607279622
10.136,0.9999999999999999,87.74566404458645
10.144,0.9999999999999999,87.66961501401701
10.152000000000001,1.0,87.59355898274345
10.16,1.0,87.51749595261748
10.168,1.0,87.44142592569361
10.176,0.9999999999999999,87.36534890423584
10.184000000000001,1.0,87.28926489072461
10.192,1.0,87.2131738878639
10.2,1.0,87.13707589858863
10.208,1.0,87.06097092607209
10.216000000000001,1.0,86.98485897373392
