freq,mag,phase
6.0,0.9999920478228691,-158.49015324881583
6.008,0.9999928863076146,-158.78256474160102
6.016,0.9999937011020582,-159.07470798600292
6.024,0.9999944923723567,-159.3665863199116
6.032,0.9999952602832791,-159.65820309166457
6.04,0.9999960049981955,-159.94956165998943
6.048,0.9999967266790621,-160.2406653939487
6.056,0.999997425486411,-160.53151767288728
6.064,0.9999981015793391,-160.82212188638212
6.072,0.9999987551154921,-161.1124814341943
6.08,0.9999993862510554,-161.40259972622331
6.088,0.999999995140741,-161.69248018246373
6.096,0.9999999999999999,-161.98212623296416
6.104,0.9999999999999999,-162.27154131778866
6.112,1.0,-162.56072888697997
6.12,1.0,-162.8496924005257
6.128,1.0,-163.1384353283259
6.136,1.0,-163.42696115016386
6.144,1.0000000000000002,-163.7152733556782
6.152,0.9999999999999999,-164.0033754443377
6.16,1.0,-164.29127092541844
6.168,0.9999999999999999,-164.57896331798264
6.176,1.0,-164.86645615086022
6.184,0.9999999999999999,-165.15375296263193
6.192,1.0,-165.44085730161535
6.2,1.0,-165.72777272585242
6.208,1.0,-166.01450280309933
6.216,0.9999999999999998,-166.3010511108187
6.224,1.0,-166.58742123617353
6.232,0.9999999999999999,-166.87361677602362
6.24,0.9999999999999999,-167.15964133692364
6.248,1.0,-167.4454985351238
6.256,1.0,-167.73119199657208
6.264,1.0,-168.01672535691893
6.272,1.0,-168.30210226152357
6.28,0.9999999999999999,-168.58732636546299
6.288,0.9999999999999999,-168.87240133354197
6.296,0.9999999999999999,-169.15733084030632
6.304,1.0,-169.44211857005718
6.312,1.0,-169.72676821686758
6.32,1.0,-170.01128348460125
6.328,1.0,-170.295668086933
6.336,1.0,-170.57992574737148
6.344,0.9999999999999999,-170.86406019928341
6.352,1.0,-171.1480751859201
6.36,1.0,-171.43197446044599
6.368,1.0,-171.71576178596862
6.376,0.9999999999999998,-171.99944093557113
6.384,1.0,-172.28301569234623
6.392,0.9999999999999999,-172.5664898494321
6.4,1.0,-172.8498672100506
6.408,0.9999999999999999,-173.13315158754673
6.416,1.0,-173.4163468054305
6.424,0.9999999999999999,-173.69945669742032
6.432,1.0,-173.98248510748854
6.44,0.9999999999999999,-174.2654358899085
6.448,1.0,-174.54831290930372
6.456,1.0,-174.8311200406987
6.464,1.0,-175.11386116957195
6.472,1.0,-175.39654019191016
6.48,1.0,-175.6791610142649
6.4879999999999995,1.0,-175.9617275538106
6.496,1.0,-176.2442437384049
6.504,1.0,-176.5267135066498
6.5120000000000005,1.0,-176.80914080795617
6.52,1.0,-177.09152960260815
6.5280000000000005,1.0,-177.37388386183125
6.536,0.9999999999999998,-177.65620756786058
6.5440000000000005,1.0,-177.93850471401205
6.552,0.9999999999999999,-178.2207793047546
6.5600000000000005,1.0,-178.5030353557847
6.568,0.9999999999999999,-178.7852768941022
6.5760000000000005,0.9999999999999999,-179.06750795808844
6.584,0.9999996145389163,-179.3497325975853
6.592,0.9999990580066092,-179.6319548739772
6.6,0.9999984852591949,-179.9141788602737
6.608,0.9999978963100314,179.80359135880545
6.616,0.9999972911689247,179.52135168674369
6.624,0.9999966698420483,179.2390980151392
6.632,0.9999960323318572,178.956826223615
6.64,0.9999953786370013,178.6745321797267
6.648,0.999994708752229,178.39221173886918
6.656,0.9999940226682951,178.10986074418088
6.664,0.9999933203718588,177.8274750264468
6.672,0.9999926018453792,177.5450504039993
6.68,0.9999918670670075,177.26258268261765
6.688,0.9999911160104744,176.9800676554251
6.696,0.9999903486449694,176.697501102785
6.704,0.9999895649350213,176.41487879219426
6.712,0.9999887648403675,176.13219647817573
6.72,0.9999879483158217,175.84944990216826
6.728,0.999987115311133,175.56663479241527
6.736,0.9999862657708427,175.2837468638513
6.744,0.9999853996341301,175.00078181798673
6.752,0.9999845168346527,174.71773534279075
6.76,0.9999836173003852,174.4346031125724
6.768,0.9999827009534435,174.15138078785978
6.776,0.9999817677099017,173.86806401527693
6.784,0.999980817479606,173.58464842741967
6.792,0.9999798501659803,173.3011296427286
6.8,0.9999788656658135,173.0175032653607
6.808,0.9999778638690446,172.7337648850587
6.816,0.9999768446585433,172.44991007701853
6.824,0.999975807909865,172.1659344017545
6.832,0.9999747534910058,171.881833404963
6.84,0.999973681262146,171.59760261738333
6.848,0.9999725910753794,171.313237554657
6.856,0.9999714827744243,171.0287337171845
6.864,0.9999703561943223,170.74408658998007
6.872,0.9999692111611406,170.4592916425242
6.88,0.9999680474916249,170.1743443286136
6.888,0.9999668649928684,169.88924008620924
6.896,0.999965663461949,169.6039743372813
6.904,0.9999644426855453,169.318542487653
6.912,0.9999632024395406,169.03293992683987
6.92,0.9999619424886098,168.74716202788844
6.928,0.9999606625857682,168.46120414721136
6.936,0.9999593624719206,168.1750616244194
6.944,0.9999580418753723,167.88872978215161
6.952,0.999956700511313,167.60220392590213
6.96,0.9999553380812812,167.3154793438433
6.968,0.9999539542725984,167.0285513066472
6.976,0.9999525487577746,166.74141506730297
6.984,0.9999511211938684,166.45406586093063
6.992,0.9999496712218346,166.16649890459243
7.0,0.9999481984658048,165.87870939709964
7.008,0.9999467025323877,165.59069251881652
7.016,0.9999451830098353,165.30244343145975
7.024,0.9999436394672742,165.01395727789412
7.032,0.999942071453782,164.72522918192428
7.04,0.9999404784975128,164.43625424808155
7.048,0.9999388601046894,164.1470275614068
7.056,0.9999372157585875,163.85754418722783
7.064,0.9999355449184484,163.56779917093243
7.072,0.999933847018305,163.27778753773558
7.08,0.9999321214657796,162.98750429244137
7.088,0.9999303676407683,162.69694441919904
7.096,0.9999285848940502,162.4061028812527
7.104,0.9999267725458694,162.11497462068473
7.112,0.9999249298843212,161.82355455815264
7.12,0.9999230561637371,161.53183759261697
7.128,0.9999211506029068,161.2398186010641
7.136,0.9999192123832313,160.94749243821855
7.144,0.9999172406466952,160.6548539362481
7.152,0.9999152344937671,160.36189790445817
7.16,0.9999131929811248,160.06861912897884
7.168,0.9999111151192509,159.77501237243774
7.176,0.9999089998698398,159.4810723736254
7.184,0.9999068461430562,159.18679384714716
7.192,0.999904652794565,158.89217148306037
7.2,0.9999024186224131,158.59719994650217
7.208,0.99990014236361,158.30187387729885
7.216,0.9998978226905648,158.00618788956123
7.224,0.9998954582071453,157.71013657126284
7.232,0.9998930474445832,157.41371448380124
7.24,0.999890588856936,157.11691616153615
7.248,0.9998880808163388,156.81973611131215
7.256,0.9998855216077785,156.52216881195378
7.264,0.9998829094235892,156.224208713739
7.272,0.9998802423573803,155.92585023784557
7.28,0.999877518397633,155.6270877757689
7.288,0.9998747354206614,155.32791568871005
7.296,0.9998718911830656,155.02832830692694
7.304,0.9998689833136021,154.72831992905546
7.312,0.9998660093042618,154.4278848213838
7.32,0.99986296650074,154.12701721709027
7.328,0.9998598520919959,153.82571131543185
7.336,0.999856663098968,153.5239612808809
7.344,0.9998533963622337,153.22176124220934
7.352,0.9998500485286611,152.91910529150994
7.36,0.9998466160368135,152.61598748315336
7.368,0.9998430951009727,152.31240183267207
7.376,0.9998394816937941,152.00834231556476
7.384,0.9998357715272003,151.70380286601588
7.392,0.9998319600315965,151.39877737551754
7.4,0.9998280423329083,151.0932596913864
7.4079999999999995,0.9998240132274813,150.7872436151695
7.416,0.9998198671544356,150.4807229009174
7.4239999999999995,0.9998155981651553,150.17369125331902
7.432,0.9998111998896845,149.86614232568408
7.4399999999999995,0.9998066654996421,149.5580697177504
7.448,0.9998019876669627,149.24946697330194
7.4559999999999995,0.9997971585184273,148.94032757757634
7.464,0.9997921695849994,148.63064495444024
7.4719999999999995,0.9997870117455241,148.32041246329902
7.48,0.9997816751638012,148.0096233957195
7.4879999999999995,0.9997761492186857,147.69827097172998
7.496,0.9997704224254895,147.38634833575148
7.504,0.9997644823481409,147.07384855213107
7.5120000000000005,0.9997583155002754,146.760764600216
7.52,0.9997519072340844,146.44708936891817
7.5280000000000005,0.9997452416147538,146.13281565070588
7.536,0.9997383012784674,145.81793613494614
7.5440000000000005,0.9997310672714782,145.50244340052126
7.552,0.9997235188670982,145.18632990761986
7.5600000000000005,0.9997156333572516,144.86958798859197
7.568,0.9997073858141075,144.55220983775104
7.5760000000000005,0.999698748817207,144.23418749997018
7.584,0.999689692139614,143.91551285791513
7.5920000000000005,0.9996801823861755,143.5961776177209
7.6,0.9996701825754044,143.27617329289214
7.6080000000000005,0.9996596516539458,142.955491186171
7.616,0.9996485439316257,142.63412236909375
7.6240000000000006,0.9996368084212096,142.31205765888512
7.632,0.9996243880637117,141.98928759230716
7.640000000000001,0.9996112188164783,141.66580239602035
7.648,0.9995972285747156,141.34159195294222
7.656000000000001,0.9995823358903903,141.0166457640153
7.664,0.9995664484442512,140.69095290471918
7.672,0.9995494612136955,140.36450197559327
7.68,0.9995312542656043,140.03728104591414
7.688,0.9995116900828517,139.70927758965104
7.696,0.9994906103083806,139.3804784127591
7.704,0.9994678317559056,139.05086957084885
7.712,0.999443141493216,138.7204362764659
7.72,0.9994162907413212,138.38916279541544
7.728,0.9993869872542127,138.0570323322464
7.736,0.9993548857304461,137.72402690609235
7.744,0.9993195756578646,137.39012722010008
7.752,0.9992805657808135,137.05531253113386
7.76,0.999237264084098,136.71956053240507
7.768,0.9991889517756509,136.38284727181048
7.776,0.9991347491591094,136.0451471459847
7.784,0.9990735704489627,135.7064330394483
7.792,0.9990040633745969,135.36667672884258
7.8,0.9989245276876485,135.0258497598613
7.808,0.9988328042058766,134.68392515851792
7.816,0.9987261225312344,134.34088061189541
7.824,0.9986008908128903,133.9967042470052
7.832,0.9984524049667682,133.65140503804227
7.84,0.998274448850195,133.305031541648
7.848,0.9980587561185894,132.95770577527253
7.856,0.9977943250547536,132.60968486214983
7.864,0.997466667114244,132.26147365703918
7.872,0.9970573602462866,131.91402951513032
7.88,0.9965451122402561,131.56912442673763
7.888,0.9959116924896758,131.22993335759193
7.896,0.9951606675850408,130.90177013899546
7.904,0.99436195748963,130.59217859834212
7.912,0.9937203259935212,130.30776980999795
7.92,0.9935785814614788,130.04467791876704
7.928,0.9941797851368894,129.78017922407165
7.936,0.9953484597820096,129.48624218215713
7.944,0.9966324283499981,129.15434195557103
7.952,0.9977124432470948,128.79509943804263
7.96,0.9985080863819527,128.42219385672627
7.968,0.999060988734432,128.04446364658062
7.976,0.9994376726918568,127.66613306541754
7.984,0.9996939030335382,127.28880196031069
7.992,0.9998692248623737,126.91285500983044
8.0,0.9999901135244995,126.53818579047243
8.008,0.9999999999999998,126.16452330188078
8.016,1.0,125.79156760448268
8.024000000000001,0.9999999999999999,125.41904078351428
8.032,1.0,125.04670215233487
8.04,1.0,124.67434920201177
8.048,1.0000000000000002,124.30181349155679
8.056000000000001,1.0,123.92895527901028
8.064,0.9999999999999999,123.55565836431697
8.072,1.0,123.18182562810921
8.08,1.0,122.80737534822374
8.088000000000001,1.0,122.43223822579958
8.096,1.0,122.05635500920306
8.104,1.0,121.67967460300383
8.112,1.0,121.30215256319407
8.120000000000001,1.0,120.92374989721068
8.128,0.9999999999999999,120.54443210371176
8.136,1.0,120.16416840090503
8.144,1.0,119.78293110347865
8.152000000000001,0.9999999999999999,119.40069511700815
8.16,0.9999999999999999,119.01743752562518
8.168,1.0,118.63313725405104
8.176,1.0,118.24777478920231
8.184000000000001,1.0,117.8613319497756
8.192,0.9999999999999999,117.4737916946377
8.2,1.0,117.08513796276912
8.208,1.0,116.69535553899577
8.216000000000001,1.0,116.30442994088011
8.224,1.0000000000000002,115.91234732306272
8.232,1.0,115.51909439606384
8.24,0.9999999999999999,115.12465835711077
8.248000000000001,1.0,114.72902683101617
8.256,0.9999999999999999,114.33218781948685
8.264,1.0,113.93412965753197
8.272,1.0,113.53484097587729
8.280000000000001,1.0,113.13431066847541
8.288,1.0,112.73252786435306
8.296,1.0,112.32948190317192
8.304,1.0,111.92516231396748
8.312,1.0,111.51955879663002
8.32,0.9999999999999999,111.11266120574533
8.328,1.0,110.70445953648641
8.336,1.0,110.29494391227954
8.344,0.9999999999999999,109.88410457402568
8.352,0.9999999999999999,109.47193187067136
8.36,0.9999999999999999,109.05841625097071
8.368,0.9999999999999999,108.64354825628824
8.376,1.0,108.2273185143273
8.384,0.9999999999999998,107.8097177336666
8.392,1.0,107.3907366990224
8.4,1.0,106.97036626715176
8.408,1.0,106.54859736332763
8.416,1.0,106.1254209783266
8.424,1.0,105.70082816587487
8.432,0.9999999999999999,105.27481004050917
8.44,1.0,104.84735777580816
8.448,1.0,104.4184626029611
8.456,1.0,103.98811580964488
8.464,1.0,103.55630873917578
8.472,1.0,103.12303278991718
8.48,1.0,102.68827941492015
8.488,0.9999999999999999,102.25204012177562
8.496,1.0,101.81430647266572
8.504,1.0,101.37507008459453
8.512,1.0,100.93432262978769
8.52,0.9999999999999999,100.49205583624992
8.528,0.9999999999999999,100.04826148846561
8.536,0.9999999999999999,99.602931428238
8.544,0.9999999999999999,99.15605755565537
8.552,1.0000000000000002,98.70763183017678
8.56,0.9999999999999999,98.25764627183271
8.568,1.0,97.80609296253114
8.576,0.9999999999999999,97.35296404746738
8.584,1.0,96.89825173662875
8.592,1.0,96.44194830639228
8.6,1.0,95.9840461012118
8.608,0.9999999999999999,95.52453753538677
8.616,0.9999999999999999,95.06341509491521
8.624,1.0,94.6006713394224
8.632,0.9999999999999999,94.13629890416642
8.64,1.0,93.67029050211546
8.648,1.0,93.20263892609586
8.656,0.9999999999999999,92.73333705100866
8.664,1.0000000000000002,92.26237783611191
8.672,1.0,91.78975432736712
8.68,0.9999999999999999,91.31545965985003
8.688,1.0,90.83948706021977
8.696,0.9999999999999998,90.36182984925011
8.704,0.9999999999999999,89.8824814444168
8.712,0.9999999999999998,89.4014353625435
8.72,1.0,88.91868522250108
8.728,1.0,88.43422474796361
8.736,0.9999999999999999,87.94804777021446
8.744,0.9999999999999999,87.46014823100734
8.752,0.9999999999999999,86.97052018547488
8.76,0.9999999999999999,86.47915780508988
8.768,0.9999999999999999,85.98605538067203
8.776,1.0,85.49120732544483
8.784,1.0,84.99460817813608
8.792,0.9999999999999999,84.49625260612625
8.8,0.9999999999999999,83.996135408638
8.808,1.0,83.49425151997171
8.815999999999999,1.0,82.99059601277996
8.824,0.9999999999999999,82.48516410138465
8.832,1.0,81.97795114513299
8.84,1.0,81.46895265179141
8.847999999999999,1.0,80.95816428097669
8.856,1.0,80.44558184762307
8.864,0.9999999980879947,79.93120132548397
8.872,0.999999159504591,79.41501885066619
8.879999999999999,0.9999983385902242,78.89703072519625
8.888,0.9999975351526826,78.37723342061697
8.896,0.9999967490054626,77.85562358161324
8.904,0.9999959799675101,77.33219802966457
8.911999999999999,0.999995227862968,76.80695376672332
8.92,0.999994492520936,76.27988797891763
8.928,0.9999937737752373,75.75099804027674
8.936,0.9999930714641916,75.22028151647643
8.943999999999999,0.9999923854304,74.68773616860382
8.952,0.9999917155205326,74.1533599569391
8.96,0.9999910615851267,73.61715104475321
8.968,0.9999904234783906,73.0791078021176
8.975999999999999,0.999989801058012,72.53922880972566
8.984,0.9999891941849745,71.99751286272353
8.992,0.999988602723381,71.45395897454803
9.0,0.9999880265402787,70.90856638076882
9.008,0.9999874655054939,70.36133454293305
9.016,0.9999869194914696,69.81226315241078
9.024000000000001,0.9999863883731075,69.26135213423798
9.032,0.9999858720276177,68.70860165095459
9.04,0.9999853703343687,68.15401210643509
9.048,0.9999848831747455,67.59758414970996
9.056000000000001,0.9999844104320116,67.03931867877462
9.064,0.9999839519911712,66.47921684438249
9.072,0.9999835077388409,65.91728005382029
9.08,0.9999830775631202,65.3535099746629
9.088000000000001,0.9999826613534705,64.78790853850438
9.096,0.9999822590005923,64.220477944662
9.104,0.9999818703963116,63.65122066385015
9.112,0.9999814954334639,63.08013944182225
9.120000000000001,0.999981134005786,62.50723730297639
9.128,0.9999807860078087,61.93251755392138
9.136,0.9999804513347531,61.35598378700022
9.144,0.9999801298824292,60.777639883768316
9.152000000000001,0.9999798215471399,60.197490018422606
9.16,0.9999795262255838,59.61553866117742
9.168,0.9999792438147647,59.03179058158433
9.176,0.9999789742119012,58.446250851793096
9.184000000000001,0.9999787173143396,57.858924849749236
9.192,0.9999784730194722,57.2698182623246
9.2,0.9999782412246523,56.67893708837744
9.208,0.9999780218271186,56.0862876417393
9.216000000000001,0.999977814723915,55.4918765541236
9.224,0.9999776198118214,54.8957107779532
9.232,0.9999774369872778,54.297797589102004
9.24,0.9999772661463177,53.69814458954861
9.248000000000001,0.9999771071845015,53.09675970993736
9.256,0.999976959996851,52.493651212042124
9.264,0.9999768244777888,51.888827691130075
9.272,0.9999767005210779,51.28229807822199
9.280000000000001,0.9999765880197652,50.674071642244556
9.288,0.9999764868661268,50.064157992070825
9.296,0.9999763969516162,49.45256707844499
9.304,0.9999763181668122,48.83930919578892
9.312000000000001,0.9999762504013734,48.22439498388554
9.32,0.9999761935439916,47.60783542943551
9.328,0.9999761474823491,46.98964186748331
9.336,0.9999761121030787,46.36982598271038
9.344,0.9999760872917232,45.748399810590634
9.352,0.999976072932702,45.12537573840412
9.36,0.999976068909276,44.50076650610776
9.368,0.9999760751035166,43.874585207056555
9.376,0.9999760913962767,43.24684528857552
9.384,0.9999761176671624,42.617560552374805
9.392,0.9999761537945125,41.98674515480993
9.4,0.9999761996553729,41.35441360697836
9.408,0.9999762551254784,40.72058077465489
9.416,0.999976320079237,40.08526187805815
9.424,0.9999763943897113,39.44847249144951
9.432,0.9999764779286114,38.81022854255786
9.44,0.9999765705662782,38.17054631183157
9.448,0.9999766721716815,37.529442431511086
9.456,0.9999767826124125,36.886933884524105
9.464,0.9999769017546806,36.24303800319671
9.472,0.9999770294633117,35.59777246778276
9.48,0.9999771656017522,34.95115530480566
9.488,0.9999773100320726,34.30320488521422
9.496,0.9999774626149736,33.65393992234773
9.504,0.9999776232097937,33.003379469712264
9.512,0.9999777916745229,32.35154291856325
9.52,0.9999779678658143,31.69844999529707
9.528,0.999978151639001,31.0441207586467
9.536,0.9999783428481134,30.388575596685094
9.544,0.9999785413459,29.731835223630856
9.552,0.9999787469838495,29.073920676461153
9.56,0.999978959612218,28.414853311326446
9.568,0.9999791790800516,27.75465479977187
9.576,0.9999794052352216,27.093347124761152
9.584,0.9999796379244498,26.430952576507906
9.592,0.9999798769933468,25.76749374811028
9.6,0.9999801222864453,25.1029935309947
9.608,0.9999803736472384,24.437475110165
9.616,0.9999806309182202,23.77096195926294
9.624,0.9999808939409257,23.103477835436962
9.632,0.9999811625559761,22.435046774025537
9.64,0.9999814366031237,21.765693083052653
9.648,0.999981715921299,21.095441337541914
9.656,0.9999820003486602,20.424316373647187
9.664,0.9999822897226458,19.75234328260728
9.672,0.9999825838800226,19.079547404522383
9.68,0.9999828826569456,18.40595432196039
9.688,0.9999831858890097,17.731589853391398
9.696,0.9999834934113087,17.056480046458987
9.704,0.999983805058494,16.380651171086754
9.712,0.9999841206648343,15.704129712428964
9.72,0.9999844400642763,15.026942363664979
9.728,0.9999847630905095,14.349116018646026
9.736,0.9999850895770287,13.670677764394306
9.744,0.9999854193571972,12.991654873464025
9.752,0.9999857522643161,12.312074796164337
9.76,0.9999860881316883,11.631965152653914
9.768,0.9999864267926881,10.951353724907975
9.776,0.9999867680808279,10.270268448567586
9.784,0.9999871118298286,9.58873740467237
9.792,0.9999874578736893,8.906788811286962
9.8,0.9999878060467563,8.224451015022328
9.808,0.9999881561837952,7.541752482462848
9.816,0.9999885081200617,6.858721791500576
9.824,0.9999888616913724,6.175387622587623
9.832,0.9999892167341756,5.4917787499084225
9.84,0.9999895730856254,4.807924032483175
9.847999999999999,0.9999899305836502,4.123852405204425
9.856,0.9999902890670261,3.4395928698172358
