freq,mag,phase
6.0,0.9997774308963095,-144.0746276332555
6.002285056,0.99978996031562,-144.22140824611242
6.004570112,0.9998157163132513,-144.3684369841246
6.006855168,0.9998531216113429,-144.5159325820012
6.009140224,0.9998997096217875,-144.66398897710135
6.01142528,0.999952693565441,-144.81271713825942
6.013710336,1.0000085603154836,-144.96223718192525
6.015995392,1.0000639415034291,-145.11251798645634
6.018280448,1.0001152932568935,-145.26359851341337
6.020565504,1.0001592651079139,-145.4153240101405
6.02285056,1.0001931510810604,-145.56756412759782
6.025135616,1.0002147762315103,-145.72022844975
6.027420672,1.0002227833876254,-145.87304175757416
6.029705728,1.0002167103982273,-146.02586918653353
6.031990784,1.0001968165829112,-146.17849387434774
6.03427584,1.0001643948315393,-146.3306987538757
6.036560896,1.0001215433145523,-146.48232258879838
6.038845952,1.0000708994932648,-146.63327743121812
6.041131008,1.0000157512116539,-146.7833966282124
6.043416064,0.9999594084522362,-146.93270088610606
6.04570112,0.9999056327458719,-147.0812132842551
6.047986176,0.999857703489653,-147.2289285639134
6.050271232,0.9998187147886918,-147.37598278953607
6.052556288,0.9997910679791343,-147.522536681093
6.054841344,0.9997766045860946,-147.66876459000082
6.0571264,0.9997761627078864,-147.8148186199523
6.059411456,0.9997899051934258,-147.96099845375707
6.061696512,0.9998168860249008,-148.10741333393847
6.063981568,0.9998553663942285,-148.25428077420014
6.066266624,0.9999030143095831,-148.40176086225122
6.06855168,0.9999567082614784,-148.54995428541446
6.070836736,1.0000131261385,-148.6989119398585
6.073121792,1.000068723246777,-148.84864273355544
6.075406848,1.000119977590746,-148.99916241035316
6.077691904,1.0001635790302867,-149.15030907800366
6.07997696,1.0001968173457771,-149.30199596425766
6.082262016,1.000217639421022,-149.45404579605898
6.084547072,1.0002245512575598,-149.60627876720778
6.086832128,1.0002173206666147,-149.75850396120302
6.089117184,1.0001961522398053,-149.9104634366897
6.09140224,1.000162616251338,-150.06199106061112
6.093687296,1.0001187314387412,-150.2129885338918
6.095972352,1.0000672706601277,-150.36324394388458
6.098257408,1.0000113397131016,-150.5126655132026
6.100542464,0.9999547410882961,-150.66124714345878
6.10282752,0.9999008611411505,-150.80901603598997
6.105112576,0.9998531698686339,-150.9560174395351
6.107397632,0.9998147137246511,-151.10239598323054
6.1096832,0.9997879597375997,-151.24822288797506
6.111968256,0.9997744512888729,-151.39374488610108
6.114253312,0.999775206504234,-151.53913185421274
6.116538368,0.9997901635710839,-151.68463519001997
6.118823424,0.9998182491194332,-151.83043125337062
6.12110848,0.999857909086646,-151.97665040639095
6.123393536,0.9999064488558991,-152.12353541302895
6.125678592,0.999960902190906,-152.2710933996741
6.127963648,1.0000178535422217,-152.41945650860288
6.130248704,1.0000736211948689,-152.56859826543746
6.13253376,1.000124715893996,-152.71850984332187
6.134818816,1.0001678858073888,-152.86903809123643
6.137103872,1.0002004249288727,-153.0201329236181
6.139388928,1.0002202605988677,-153.17154456771593
6.141673984,1.0002261369705319,-153.3231162937841
6.14395904,1.0002176478995153,-153.4746524341828
6.146244096,1.000195323601885,-153.62596044095798
6.148529152,1.0001606282247786,-153.7768195971017
6.150814208,1.0001156153441055,-153.92703541518247
6.153099264,1.0000632538758718,-154.07657336631192
6.15538432,1.0000068082650788,-154.22526701053064
6.157669376,0.9999498511294473,-154.3731049004822
6.159954432,0.999896022605999,-154.52008099400678
6.162239488,0.9998486071177388,-154.66634183429326
6.164524544,0.999810753601811,-154.81193143300123
6.1668096,0.9997846677334663,-154.95702484985853
6.169094656,0.9997723357898721,-155.10182687410816
6.171379712,0.9997742276696384,-155.24650576556022
6.173664768,0.9997903842631579,-155.39128696517528
6.175949824,0.9998198091187268,-155.53635838850346
6.17823488,0.9998605493675684,-155.6819428187496
6.180519936,0.9999101006097058,-155.82814782105925
6.182804992,0.9999653253907075,-155.97504888560505
6.185090048,1.000022678325381,-156.1227779740155
6.187375104,1.000078666795897,-156.27127026947994
6.18966016,1.000129580396172,-156.4205585039679
6.191945216,1.0001723214176776,-156.57046013265972
6.194230272,1.0002041209739214,-156.72087596386186
6.196515328,1.000222976809115,-156.87162935902316
6.198800384,1.0002277400407094,-157.022512701556
6.20108544,1.0002179748947797,-157.17335760673004
6.203370496,1.0001943203824661,-157.32391512177472
6.205655552,1.000158458190641,-157.47401719239852
6.207940608,1.0001123662511786,-157.62352087839542
6.210225664,1.0000591744806526,-157.7722431631803
6.21251072,1.0000021343945487,-157.92013165809328
6.214795776,0.9999448185935006,-158.0671764216879
6.217080832,0.9998910087730166,-158.2133996136008
6.219365888,0.9998439160085405,-158.35883013515237
6.221650944,0.9998066464262025,-158.50361366679226
6.223936,0.9997815545197899,-158.6479518708542
6.226221056,0.9997702395601772,-158.79195420082127
6.228506112,0.9997734100895525,-158.93586467810982
6.230791168,0.9997908714605053,-159.07990617735967
6.233076224,0.999821423252396,-159.22428623721626
6.23536128,0.9998633554858911,-159.36917022974725
6.237646336,0.9999138633401217,-159.51465299521922
6.239931392,0.9999698610747301,-159.66090658523817
6.242216448,1.0000277027686997,-159.80795953517463
6.244501504,1.0000837805621163,-159.95575778322393
6.24678656,1.000134535672096,-160.10433054369875
6.249071616,1.0001767603043816,-160.2535530351915
6.251356672,1.000207777215148,-160.40328475861202
6.253641728,1.0002256076552163,-160.55333093719005
6.255926784,1.0002291834335326,-160.70351883922586
6.25821184,1.000218169389264,-160.85358139131176
6.260496896,1.0001932955985893,-161.003401892976
6.262781952,1.0001561187902666,-161.15271019127138
6.265067008,1.0001090277176892,-161.30140543287902
6.267352064,1.0000549322764503,-161.4493145979062
6.26963712,0.9999973062225105,-161.59639836590833
6.271922176,0.9999396894603244,-161.74256993608384
6.274207232,0.9998858929094118,-161.8879649461933
6.276492288,0.999839191137956,-162.03255019885606
6.278777344,0.9998025684503486,-162.17653111919995
6.2810624,0.999778430899244,-162.32001954586647
6.283347456,0.9997682051665053,-162.46322786813488
6.285632512,0.9997726071876929,-162.6063560282965
6.287917568,0.999791358697505,-162.74959775186377
6.290202624,0.9998232384256335,-162.89322436825702
6.29248768,0.9998662913082044,-163.03736206194068
6.294772736,0.9999177843424771,-163.1821010417091
6.297057792,0.9999744881498405,-163.32763121495762
6.299342848,1.0000327243554052,-163.47396155615903
6.301627904,1.0000889666287616,-163.621086151826
6.30391296,1.0001395687072112,-163.76896364292313
6.306198016,1.0001811431107146,-163.91746510746887
6.308483072,1.0002114255747916,-164.06649489470655
6.310768128,1.0002281663727055,-164.21577656736793
6.313053184,1.0002305371534574,-164.36518988227184
6.31533824,1.0002181901507579,-164.5145238991299
6.317623296,1.0001920681834657,-164.66349671752926
6.319908352,1.0001536074176278,-164.812023592903
6.322193408,1.0001054466107981,-164.959864367491
6.324478976,1.0000505088871647,-165.10690589698652
6.326764032,0.999992285644853,-165.25311979881474
6.329049088,0.9999344738673525,-165.39842931845413
6.331334144,0.9998807116711714,-165.5429435273103
6.3336192,0.9998344207177178,-165.6866566622138
6.335904256,0.9997985701933862,-165.82974733229827
6.338189312,0.9997753478439861,-165.97236763075244
6.340474368,0.9997662821811162,-166.11475635023876
6.342759424,0.9997719460112282,-166.2570688702694
6.34504448,0.999792071280511,-166.3995351825535
6.347329536,0.9998252368147902,-166.5423189854028
6.349614592,0.9998695017741304,-166.6857027866999
6.351899648,0.9999219894897933,-166.82967191766372
6.354184704,0.9999793456461463,-166.97445242759483
6.35646976,1.0000380328659302,-167.12003723809124
6.358754816,1.0000943510696327,-167.26643150373718
6.361039872,1.0001446058552297,-167.41359452644178
6.363324928,1.000185715476566,-167.56132696485918
6.365609984,1.000215012131293,-167.70956979563522
6.36789504,1.0002306852998686,-167.85811568808143
6.370180096,1.0002317993448742,-168.0067259281673
6.372465152,1.0002180851545686,-168.1552511587522
6.374750208,1.000190661230659,-168.3033863613116
6.377035264,1.0001509554448746,-168.4510304664207
6.37932032,1.0001016742578575,-168.5979893661298
6.381605376,1.0000459355732816,-168.7442011888013
6.383890432,0.9999871381409526,-168.88949929912837
6.386175488,0.9999290982494295,-169.03390607767065
6.388460544,0.9998754158559315,-169.17748966974005
6.3907456,0.9998295703301888,-169.3203381714914
6.393030656,0.9997943919694023,-169.4625184548584
6.395315712,0.9997723694947177,-169.60426312200158
6.397600768,0.9997644693907665,-169.74574206181376
6.399885824,0.9997714562128881,-169.88721854734956
6.40217088,0.9997929469102141,-170.02883153278412
6.404455936,0.9998274836580578,-170.17082365026363
6.406740992,0.9998729228299607,-170.31337834014855
6.409026048,0.9999263522722521,-170.45658244672455
6.411311104,0.9999844117790724,-170.60060139813731
6.41359616,1.0000434698431033,-170.74541113593162
6.415881216,1.0000997735524273,-170.89103187742825
6.418166272,1.000149778533818,-171.03741185504356
6.420451328,1.0001901586885438,-171.1843730231845
6.422736384,1.000218685145113,-171.331858901471
6.42502144,1.0002332543293326,-171.47957820131472
6.427306496,1.0002329440243796,-171.62739370637695
6.429591552,1.000217875591774,-171.77500771466333
6.431876608,1.00018902163812,-171.92234016338702
6.434161664,1.0001480761521937,-172.06908182116558
6.43644672,1.000097733020329,-172.21516069171318
6.438731776,1.0000410841254992,-172.36040464363543
6.441016832,0.9999817209499853,-172.5047754033939
6.443301888,0.9999235947471232,-172.64825679202337
6.445586944,0.999870098436497,-172.7908917070343
6.447872,0.9998246455136105,-172.93279863260773
6.450157056,0.9997904608860834,-173.07407977118626
6.452442112,0.9997692751867466,-173.21492798406354
6.454727168,0.9997626547125291,-173.35551451848406
6.457012224,0.9997710386274066,-173.4960786901813
6.45929728,0.9997939261418233,-173.63683996597888
6.461582336,0.9998297603105896,-173.77799447327587
6.463867392,0.9998764471463638,-173.91972408886662
6.466152448,0.9999308392854956,-174.06214955213142
6.468437504,0.999989584711701,-174.20531823608766
6.47072256,1.0000490985919055,-174.34935011629062
6.473007616,1.0001053797970163,-174.4942005644757
6.475292672,1.0001549718521228,-174.63974626489545
6.477577728,1.0001948274423476,-174.7859338187143
6.479862784,1.0002222113310604,-174.93258134426853
6.48214784,1.0002356379391466,-175.07945157255614
6.484432896,1.0002340382374244,-175.22640329808303
6.486717952,1.000217625155362,-175.37321681767958
6.489003008,1.0001872933741165,-175.51958177141236
6.491288064,1.0001451091304445,-175.66547933063504
6.49357312,1.0000935818684629,-175.81058655227835
6.495858176,1.0000362155200164,-175.9548887242093
6.498143232,0.9999764443676296,-176.09832513714483
6.500428288,0.9999179425726255,-176.24082329455217
6.502713344,0.9998645602531868,-176.38251714738516
6.5049984,0.9998197791499596,-176.52345776183805
6.507283456,0.9997863176474786,-176.66374962576725
6.509568512,0.9997662787136715,-176.80365620742162
6.511853568,0.9997610052001962,-176.94334350486113
6.514138624,0.9997708300151681,-177.0830038847893
6.51642368,0.9997950563084446,-177.22288683734178
6.518708736,0.99983230354735,-177.36318130177304
6.520993792,0.999880204491684,-177.50408401021517
6.523278848,0.9999355809776923,-177.64564100205138
6.525563904,0.9999949973140466,-177.78802959045456
6.52784896,1.0000547549683012,-177.93123382937426
6.530134016,1.0001109650803568,-178.075255998251
6.532419072,1.0001603237654162,-178.22001362346927
6.534704128,1.000199367218601,-178.3653597990875
6.536989184,1.0002258400398645,-178.51118902130082
6.53927424,1.0002379054190018,-178.65720223953844
6.541559808,1.0002348636933684,-178.80326933729197
6.543844864,1.000216979265447,-178.94915451723458
6.54612992,1.0001852984429762,-179.09465851641954
6.548414976,1.0001417322825146,-179.23955349179758
6.550700032,1.000089200123871,-179.38373879012312
6.552985088,1.000030907298933,-179.52707211415438
6.555270144,0.9999705605972312,-179.66951186951252
6.5575552,0.999912035773026,-179.81106748975319
6.559840256,0.9998589127660675,-179.951746327513
6.562125312,0.9998147179431314,179.90830101461947
6.564410368,0.9997822259232481,179.76897210148763
6.566695424,0.999763288420628,179.6300529279794
6.56898048,0.9997595001704921,179.49130304212457
6.571265536,0.9997706968242352,179.35254356035935
6.573550592,0.9997964501404065,179.2135812763662
6.575835648,0.999835059860632,179.07420070085055
6.578120704,0.9998841002873565,178.93414743633105
6.58040576,0.9999404965094261,178.79343029769973
6.582690816,1.0000005889488024,178.6518813711343
6.584975872,1.00006067186668,178.50949798410284
6.587260928,1.0001168436804555,178.3663119442653
6.589545984,1.0001655939010576,178.222392336822
6.59183104,1.000203903484026,178.0778634903733
6.594116096,1.0002292713747185,177.9329378494874
6.596401152,1.0002400911117006,177.78777062548636
6.598686208,1.0002356714288627,177.64261491481486
6.600971264,1.0002162313851233,177.49764376766237
6.60325632,1.0001831920126976,177.35305501330265
6.605541376,1.000138290205506,177.20912547464255
6.607826432,1.0000846374202845,177.06594299805803
6.610111488,1.000025636735685,176.92358819571854
6.612396544,0.9999647755557662,176.7821653894143
6.6146816,0.9999060911020375,176.64163509519392
6.616966656,0.9998533348304639,176.50195502953537
6.619251712,0.9998097426179577,176.3630184962161
6.621536768,0.9997781556171516,176.22466466529383
6.623821824,0.9997605039939025,176.08671986609036
6.62610688,0.9997579405803845,175.94893927334107
6.628391936,0.9997706875812682,175.81113797289208
6.630676992,0.9997979744443077,175.67309206180113
6.632962048,0.9998379093448321,175.53455065117836
6.635247104,0.9998882092335167,175.3954431859623
6.63753216,0.999945559687126,175.25555154469706
6.639817216,1.0000062603524968,175.11485982138808
6.642102272,1.0000666438440247,174.97333089064685
6.644387328,1.0001227024231485,174.83099402136483
6.646672384,1.0001711071559363,174.68793465581814
6.64895744,1.0002085045121436,174.54427821621172
6.651242496,1.0002327347367617,174.4002076872641
6.653527552,1.0002422428394437,174.25595129628354
6.655812608,1.0002362685707014,174.11167175285505
6.658097664,1.0002154381201114,173.96764116960495
6.66038272,1.0001807891214043,173.82404732498532
6.662667776,1.000134473818146,173.68110526505262
6.664952832,1.0000798877297643,173.5388992005294
6.667237888,1.000020019847137,173.39759053675286
6.669522944,0.9999587898300074,173.2571980675423
6.671808,0.9999000055993207,173.1176805917651
6.674093056,0.9998475154072177,172.97903971916327
6.676378112,0.9998046169799021,172.8411194559269
6.678663168,0.9997740820587909,172.70377100854455
6.680948224,0.9997577105603834,172.56680990409524
6.68323328,0.9997567366209259,172.42999897706989
6.685518336,0.9997709310010982,172.29315254997738
6.687803392,0.9997998005416747,172.1560325067235
6.690088448,0.9998411589401599,172.01842020698228
6.692373504,0.9998926320934352,171.8802104674147
6.69465856,0.9999508943741116,171.74120421665384
6.696943616,1.0000123067062785,171.60135903606485
6.699228672,1.0000728563283763,171.46068416763777
6.701513728,1.0001287113937312,171.31920888030615
6.703798784,1.000176537232911,171.17701996774161
6.70608384,1.0002130566270997,171.03424178842062
6.708368896,1.0002361992770499,170.89107545681026
6.710653952,1.0002442868146753,170.74769800211303
6.712939008,1.0002368038907894,170.60435300319352
6.715224064,1.000214359739163,170.46131834556445
6.71750912,1.0001781783718393,170.31869001444343
6.719794176,1.0001307099293741,170.17675382033815
6.722079232,1.000074793031653,170.03557525223817
6.724364288,1.000014244487112,169.8952732117904
6.726649344,0.9999525557639231,169.7558927834506
6.7289344,0.9998938968566751,169.61745613268715
6.731219456,0.9998416843726742,169.47984515938765
6.733504512,0.999799573943409,169.34296944462628
6.735789568,0.9997699575003329,169.20663267714886
6.738074624,0.9997549623586856,169.07069218123374
6.74035968,0.9997553254481213,168.9348870105172
6.742644736,0.9997713046312336,168.79896722400272
6.744929792,0.9998017198764368,168.66281062054327
6.747214848,0.9998444822125214,168.52612760544244
6.749499904,0.9998971912662161,168.38879587393942
6.75178496,0.9999563614688721,168.2506612232825
6.754070016,1.0000183683417925,168.11172872728451
6.756355072,1.0000792045759002,167.97190772999556
6.75864064,1.0001348370206737,167.83131090378686
6.760925696,1.0001820291669263,167.68996266119657
6.763210752,1.0002176168783041,167.5481032720002
6.765495808,1.0002394866489333,167.40583202922824
6.767780864,1.0002461830548688,167.26340097271876
6.77006592,1.000237081438876,167.12101055923247
6.772350976,1.0002130081444203,166.97888670940208
6.774636032,1.0001753583862294,166.8373017006803
6.776921088,1.0001264723707177,166.69639212600148
6.779206144,1.0000695660219587,166.55621262728386
6.7814912,1.000008155050437,166.41696453729043
6.783776256,0.9999462058961871,166.27866554840855
6.786061312,0.9998874580397761,166.14125942426696
6.788346368,0.999835733845383,166.0047317556251
6.790631424,0.999794350790442,165.86889205325863
6.79291648,0.9997660165236808,165.73358541081052
6.795201536,0.9997524225408786,165.59867122865643
6.797486592,0.9997544805988887,165.46387434519139
6.799771648,0.9997719129413865,165.3289342191673
6.802056704,0.999803821541076,165.193707328149
6.80434176,0.9998482655185877,165.05794765507414
6.806626816,0.9999021197852471,164.92151131407883
6.808911872,0.9999622559186082,164.784310728347
6.811196928,1.0000247382709297,164.64623483903347
6.813481984,1.0000855962726265,164.50730953930432
6.81576704,1.0001412001679906,164.36756399820024
6.818052096,1.0001876929339424,164.22714587404417
6.820337152,1.0002222398807845,164.08612713656083
6.822622208,1.000242813563267,163.94479765638548
6.824907264,1.0002478721724761,163.80329144579386
6.82719232,1.0002372569964835,163.66189153774323
6.829477376,1.0002114616385964,163.52074500256512
6.831762432,1.000172268357426,163.38017670950003
6.834047488,1.0001220707968326,163.24023171436394
6.836332544,1.0000641339873138,163.10114310082096
6.8386176,1.0000019868506718,162.96297261612827
6.840902656,0.9999396017773118,162.82568839583732
6.843187712,0.9998809341598299,162.6894142164105
6.845472768,0.9998298423338073,162.5539255761321
6.847757824,0.9997893076486285,162.4191428647962
6.85004288,0.9997619565414415,162.2848970337092
6.852327936,0.9997498379020825,162.1510056398883
6.854612992,0.9997535159228861,162.01716755088552
6.856898048,0.9997726951636723,161.88323021967346
6.859183104,0.9998063829126758,161.7489265963753
6.86146816,0.999852021207239,161.61412587026533
6.863753216,0.9999071797996393,161.47862408474077
6.866038272,0.9999682703812397,161.34229028886276
6.868323328,1.000031184881336,161.20512533457716
6.870608384,1.0000923171485263,161.0670546245039
6.87289344,1.000147394707241,160.92825003057214
6.875178496,1.0001932370665927,160.78868637922312
6.877463552,1.0002268368351919,160.648577082758
6.879748608,1.0002458702509784,160.50818096435788
6.882033664,1.000249461581515,160.36761740789612
6.88431872,1.0002370924434556,160.227187216447
6.886603776,1.0002096712105903,160.0870472850069
6.888888832,1.0001689881807583,159.94746130953908
6.891173888,1.0001174101107604,159.8086071191687
6.893458944,1.0000583254360125,159.67054061656745
6.895744,0.9999954232017622,159.53342834689101
6.898029056,0.9999327132002103,159.3972403212734
6.900314112,0.9998742828129238,159.26203432930816
6.902599168,0.9998237029086371,159.12760158394204
6.904884224,0.9997841635695909,158.99389251509575
6.90716928,0.9997581598259568,158.8607172853887
6.909454336,0.9997475348889239,158.72783727869557
6.911739392,0.9997527425099407,158.5950084248682
