freq,mag,phase
6.0,1.000081436076031,-69.96701865962896
6.007944192,1.0000921761549293,-70.30963961818648
6.015888896,1.0001001398964147,-70.65239586692816
6.023833088,1.0001029768478902,-70.99526063939636
6.031777792,1.0001008326984278,-71.33817968172183
6.039721984,1.000093486669098,-71.68103813886843
6.047666176,1.0000814766255004,-72.02377779915498
6.05561088,1.0000655345147629,-72.36635626300567
6.063555072,1.0000462128216512,-72.70875944535611
6.071499264,1.0000248884408864,-73.05087454416186
6.079443968,1.0000024918613168,-73.39277070110873
6.08738816,0.999980349295378,-73.73434578646581
6.095332864,0.9999596049616539,-74.0756853362885
6.103277056,0.9999412089173815,-74.41680578524218
6.111221248,0.9999262867739731,-74.7576735455011
6.119165952,0.9999157782896827,-75.09843639089384
6.127110144,0.9999099797615191,-75.43912441538554
6.135054848,0.9999092997723308,-75.77978635832062
6.14299904,0.9999138775326202,-76.12046628786425
6.150943232,0.9999233315967916,-76.46127792479307
6.158887936,0.9999372862350551,-76.80230074002402
6.166832128,0.9999549431303258,-77.14351419161487
6.17477632,0.9999752339448187,-77.48502935819761
6.182721024,0.999997398211295,-77.8268406312753
6.190665216,1.0000199330934045,-78.16896254293914
6.19860992,1.0000416639624652,-78.51144076632761
6.206554112,1.0000614829019454,-78.8541848434481
6.214498304,1.0000785184197891,-79.1972054122638
6.222443008,1.0000916674633098,-79.54045546055323
6.2303872,1.0001001565541856,-79.88387407262886
6.238331904,1.0001037487660687,-80.22739489633251
6.246276096,1.0001020497786173,-80.57095420229652
6.254220288,1.0000951542256218,-80.91449790056059
6.262164992,1.0000835575200087,-81.25788052407553
6.270109184,1.000067684857558,-81.60116901907443
6.278053376,1.0000487979767045,-81.94422331214221
6.28599808,1.0000274094201216,-82.28704011102171
6.293942272,1.0000048698241926,-82.62953551426979
6.301886976,0.9999824495244413,-82.9718113732264
6.309831168,0.9999612420855429,-83.3138394711402
6.31777536,0.9999424342467804,-83.65553531439092
6.325720064,0.9999269790012818,-83.99711633004625
6.333664256,0.9999157862300478,-84.33849450454925
6.34160896,0.9999095826587253,-84.67978087899554
6.349553152,0.9999082437417594,-85.02104583878057
6.357497344,0.9999123341417546,-85.36235827328137
6.365442048,0.9999214172236232,-85.70375103244217
6.37338624,0.9999350091725894,-86.04535746304336
6.381330432,0.9999523718524922,-86.38715902296305
6.389275136,0.9999727005359649,-86.72925690287056
6.397219328,0.999994805273755,-87.07163012923421
6.405164032,1.000017483596507,-87.41433932185369
6.413108224,1.0000395980295924,-87.75738772176067
6.421052416,1.0000599360675047,-88.10070446532232
6.42899712,1.000077260371341,-88.44433350260411
6.436941312,1.0000910658995263,-88.78815917101582
6.444886016,1.0001001711770015,-89.13218013508433
6.452830208,1.0001042399342681,-89.47631404746394
6.4607744,1.000103018704054,-89.82047197770021
6.468719104,1.0000967523371853,-90.16459598249106
6.476663296,1.0000855416204824,-90.5086401226049
6.484608,1.000070050058969,-90.85251312356888
6.492552192,1.0000511622764,-91.19618669654234
6.500496384,1.0000298062560031,-91.53962668370757
6.508441088,1.0000072156369717,-91.8827351743535
6.51638528,0.9999845424692327,-92.22561910162464
6.524329472,0.9999629752947656,-92.56822287481661
6.532274176,0.9999436772367843,-92.9105554854812
6.540218368,0.9999277970870064,-93.25266730496551
6.548163072,0.9999160484657864,-93.59462753856666
6.556107264,0.9999090676314443,-93.93651591298514
6.564051456,0.9999072005529749,-94.2783469199054
6.57199616,0.9999107188496026,-94.62016256084911
6.579940352,0.999919341193057,-94.96214141709902
6.587885056,0.9999326866636098,-95.30424426298465
6.595829248,0.9999499267827104,-95.64656442755607
6.60377344,0.9999700285004076,-95.98919441292716
6.611718144,0.9999921718420303,-96.33210163740401
6.619662336,1.0000150990294085,-96.6753117081713
6.627606528,1.00003746405065,-97.01886216945589
6.635551232,1.0000582244212832,-97.36273395517723
6.643495424,1.0000762426378564,-97.70684772121037
6.651440128,1.0000904736425222,-98.05122605284284
6.65938432,1.0001002439364053,-98.39575361140749
6.667328512,1.0001048497509388,-98.74043594177257
6.675273216,1.000104301026739,-99.08512436086937
6.683217408,1.000098418704872,-99.42983582336477
6.691162112,1.0000875949638404,-99.77441388471927
6.699106304,1.0000724841257842,-100.11884648224354
6.707050496,1.0000537663757119,-100.46309335437498
6.7149952,1.0000324674984895,-100.80704061516876
6.722939392,1.0000097353625035,-101.15076416304125
6.730883584,0.999986778555095,-101.49415841393564
6.738828288,0.9999647814701857,-101.83730511388973
6.74677248,0.999945165004957,-102.18019269968178
6.754717184,0.9999286620165498,-102.5228206625064
6.762661376,0.9999162795860903,-102.86531783819373
6.770605568,0.9999086524666202,-103.20769280764588
6.778550272,0.9999062859412671,-103.54999461214825
6.786494464,0.9999092973429097,-103.89234772483715
6.794439168,0.9999175079320739,-104.23474230739373
6.80238336,0.9999303198702427,-104.57734875947725
6.810327552,0.999947210918637,-104.92012703206078
6.818272256,0.9999673508473584,-105.26319726834606
6.826216448,0.999989607714321,-105.60655785615093
6.83416064,1.0000125455647708,-105.95021020683235
6.842105344,1.0000353027121776,-106.2942459910112
6.850049536,1.00005649109214,-106.63853075427815
6.85799424,1.0000749607647965,-106.98311612709186
6.865938432,1.0000898157404876,-107.32794925092291
6.873882624,1.0001001270209557,-107.67297695576268
6.881827328,1.000105417281521,-108.01810982409083
6.88977152,1.0001054136984437,-108.36329048658271
6.897716224,1.000100055016008,-108.70849161231226
6.905660416,1.00008974864833,-109.05354636176787
6.913604608,1.0000748899644643,-109.39846170621978
6.921549312,1.0000563193606118,-109.74322401193359
6.929493504,1.0000350633431943,-110.08767984609115
6.937437696,1.0000122143474408,-110.4318609999382
6.9453824,0.9999889934479288,-110.77577688077892
6.953326592,0.9999667320947881,-111.11939432118575
6.961271296,0.9999464970640105,-111.4627352610338
6.969215488,0.9999295845888911,-111.80582423471098
6.97715968,0.9999165434826582,-112.14874953071558
6.985104384,0.999908260691428,-112.49156005083572
6.993048576,0.9999053250483199,-112.83431297304287
7.00099328,0.9999077308176859,-113.17704265397417
7.008937472,0.9999154374704736,-113.51992248525373
7.016881664,0.9999279393454937,-113.8628874269271
7.024826368,0.9999445419239313,-114.20606081367801
7.03277056,0.9999645388476679,-114.54951789912775
7.040714752,0.9999867523045167,-114.89324853075755
7.048659456,1.0000099754907987,-115.23733739094743
7.056603648,1.000033056502093,-115.58171508678103
7.064548352,1.0000546638159726,-115.92639780758547
7.072492544,1.0000736999211504,-116.2713838559776
7.080436736,1.0000889974273381,-116.61660440372532
7.08838144,1.0000999896691307,-116.96203329962263
7.096325632,1.000105941216051,-117.30754608178343
7.104270336,1.0001065036711079,-117.65318537252647
7.112214528,1.000101651195168,-117.99875096770107
7.12015872,1.0000918491332365,-118.34424797292623
7.128103424,1.0000773462892858,-118.68959418521453
7.136047616,1.0000589302725185,-119.03474536259797
7.143991808,1.000037737826399,-119.37965203850028
7.151936512,1.0000148160736781,-119.72427710814962
7.159880704,0.9999912910068735,-120.06858468851827
7.167825408,0.9999686937642822,-120.41261219515157
7.1757696,0.9999480447614982,-120.75637103839338
7.183713792,0.9999303624041604,-121.09985740340082
7.191658496,0.9999168212868909,-121.44317255287882
7.199602688,0.9999079347983363,-121.78634460506002
7.207547392,0.9999043556839352,-122.12944472961064
7.215491584,0.9999061946897656,-122.4725680541938
7.223435776,0.9999133100636376,-122.8157268552241
7.23138048,0.9999254320485355,-123.15904057966797
7.239324672,0.9999418661428968,-123.50254464226039
7.247268864,0.9999617036756437,-123.84632946364607
7.255213568,0.9999839106998408,-124.19039399024793
7.26315776,1.0000073204374138,-124.53473970791549
7.271102464,1.0000306313820553,-124.87945424340856
7.279046656,1.000052675090931,-125.22448100687886
7.286990848,1.000072223536977,-125.56976233618522
7.294935552,1.0000882095610721,-125.91529785262492
7.302879744,1.0000998332209776,-126.26105199730463
7.310824448,1.0001064252594192,-126.60693305576359
7.31876864,1.0001075980543865,-126.95287486206233
7.326712832,1.0001033130213401,-127.29879527004152
7.334657536,1.0000938989172057,-127.6446590214857
7.342601728,1.0000797274461686,-127.99036270591003
7.350546432,1.0000615462174816,-128.33586598783648
7.358490624,1.000040409175851,-128.68111251963393
7.366434816,1.000017433052322,-129.0260886852169
7.37437952,0.9999937516781398,-129.3707648487916
7.382323712,0.999970706201324,-129.7151036482132
7.390267904,0.999949575989419,-130.05917951362196
7.398212608,0.9999314221629727,-130.40300090769517
7.4061568,0.9999171104939006,-130.7466296359114
7.414101504,0.9999077173907721,-131.09011246391705
7.422045696,0.9999034076327707,-131.43349615481696
7.429989888,0.999904610126336,-131.77687880131307
7.437934592,0.9999113275798753,-132.1203130071815
7.445878784,0.9999229764841935,-132.46387399667003
7.453823488,0.9999391327312719,-132.8076356595506
7.46176768,0.9999588241250761,-133.1516520821046
7.469711872,0.9999809867234193,-133.4959519746195
7.477656576,1.0000045716666188,-133.84055590260715
7.485600768,1.0000282744977789,-134.18552918930618
7.49354496,1.0000507175826483,-134.53075302770418
7.501489664,1.0000708022969689,-134.8762990011286
7.509433856,1.0000874079362734,-135.22211229590445
7.51737856,1.0000996368916053,-135.56811061641713
7.525322752,1.0001068613152284,-135.91425375787017
7.533266944,1.0001087096791725,-136.26045137025662
7.541211648,1.0001050967711447,-136.6066783557364
7.54915584,1.000096061652845,-136.9527862660593
7.557100544,1.0000822794061566,-137.29878449197645
7.565044736,1.000064333167287,-137.64456568028848
7.572988928,1.0000432233227659,-137.99006861287148
7.580933632,1.0000201489956777,-138.3353290532897
7.588877824,0.9999962318071511,-138.680262807235
7.596822016,0.9999729054974559,-139.02489644895775
7.60476672,0.9999512451459667,-139.36923189813982
7.612710912,0.9999324856570918,-139.7133220839502
7.620655616,0.9999176483472505,-140.05717572487612
7.628599808,0.9999074489657866,-140.4008696806964
7.636544,0.999902542665685,-140.74447545565553
7.644488704,0.9999031772304523,-141.08805657395544
7.652432896,0.9999092823707029,-141.43167356148018
7.6603776,0.9999205039112976,-141.7754426380663
7.668321792,0.9999363743845672,-142.11938674399346
7.676265984,0.9999558726548045,-142.4635434580144
7.684210688,0.999978094560546,-142.8080119338044
7.69215488,1.000001806971417,-143.1527956172606
7.700099072,1.0000257652330362,-143.49789494346726
7.708043776,1.0000486704252654,-143.8433394944024
7.715987968,1.0000691964805397,-144.18904121431018
7.723932672,1.00008646629527,-144.53502191372766
7.731876864,1.000099389535154,-144.88120393972173
7.739821056,1.0001072859164293,-145.22751644482335
7.74776576,1.0001097507546863,-145.5739182228224
7.755709952,1.000106663095891,-145.92031858745813
7.763654656,1.0000981749141304,-146.26665547391218
7.771598848,1.0000847385638352,-146.61285040848176
7.77954304,1.0000670205807234,-146.95883358600287
7.787487744,1.000046132505259,-147.30458018599003
7.795431936,1.000022988518739,-147.6500166766274
7.803376128,0.9999988173438409,-147.9951330035317
7.811320832,0.9999751452321298,-148.33998023127674
7.819265024,0.999952937865673,-148.6844910730302
7.827209728,0.9999335706561592,-149.02876730210346
7.83515392,0.999918079960053,-149.37278467929406
7.843098112,0.9999072331298624,-149.71660377873968
7.851042816,0.9999016625625432,-150.06036156072938
7.858987008,0.9999016080008208,-150.40405963258632
7.866931712,0.9999071265153697,-150.74780886313962
7.874875904,0.9999179690987492,-151.09167180375564
7.882820096,0.9999334751899634,-151.4357074175341
7.8907648,0.999952839765124,-151.7799936455056
7.898708992,0.9999750203442509,-152.1245511516566
7.906653184,0.9999989116877537,-152.4694172903637
7.914597888,1.0000231736919685,-152.81461403543736
7.92254208,1.0000463991494863,-153.1601133282987
7.930486784,1.0000676087332403,-153.50593033716598
7.938430976,1.0000854307729705,-153.85199629709507
7.946375168,1.000098975477926,-154.19827000024776
7.954319872,1.0001075900046117,-154.5447204182869
7.962264064,1.0001107435327325,-154.89123632091585
7.970208768,1.0001082390730973,-155.2377493563631
7.97815296,1.0001002947690676,-155.58420120434965
7.986097152,1.0000872532088119,-155.93052216541312
7.994041856,1.0000698495745013,-156.27665460554545
8.001986048,1.0000489932856258,-156.62251319660533
8.00993024,1.000025759002197,-156.96808862289015
8.017874944,1.0000014657684178,-157.31334455373567
8.025819136,0.9999772621631778,-157.65830008458178
8.03376384,0.9999546269614913,-158.0029267399375
8.041708032,0.9999347862472088,-158.34728403512463
8.049652224,0.9999186053102076,-158.69137347124777
8.057596928,0.9999070354946846,-159.03531606584986
8.06554112,0.9999007563931875,-159.3791059294982
8.073485824,0.9999001028597654,-159.72285823045627
8.081430016,0.9999050449478367,-160.0666627096609
8.089374208,0.9999154245607846,-160.41054412550528
8.097318912,0.9999305562902076,-160.75460533418
8.105263104,0.9999497571943571,-161.098904214124
8.113207296,0.9999719171965262,-161.44346931577564
8.121152,0.9999959193117307,-161.78833400673298
8.129096192,1.0000203965915526,-162.13353555512575
8.137040896,1.000044230342775,-162.47907084066676
8.144985088,1.0000659060930446,-162.82489565589745
8.15292928,1.00008434256604,-163.1709883108915
8.160873984,1.0000986952734718,-163.51731685754086
8.168818176,1.0001079369033883,-163.86377316273655
8.17676288,1.0001117739740115,-164.2103306728678
8.184707072,1.0001099650861405,-164.55691117771212
8.192651264,1.0001025223813949,-164.9034147738149
8.200595968,1.0000898454775913,-165.24978161601086
8.20854016,1.0000727642826226,-165.59595891015803
8.216484352,1.0000519827540597,-165.94188770778288
8.224429056,1.0000286169730195,-166.2874913318608
8.232373248,1.0000041533608375,-166.63281548117064
8.240317952,0.999979686552241,-166.977808045803
8.248262144,0.9999565730753845,-167.32246715311973
8.256206336,0.9999359900572307,-167.6668514441732
8.26415104,0.9999191464241619,-168.01094988497846
8.272095232,0.99990689925594,-168.35487988870617
8.280039936,0.9998999671044937,-168.698689309341
8.287984128,0.9998986361118407,-169.0424330077828
8.29592832,0.9999030349342819,-169.3861834689268
8.303873024,0.9999128906879108,-169.73001543968454
8.311817216,0.9999276905916011,-170.0740333868115
8.31976192,0.9999466623516389,-170.41826075276745
8.327706112,0.9999688735494485,-170.76278190954704
8.335650304,0.9999929782534716,-171.1075817327912
8.343595008,1.0000178223911065,-171.45270916298935
8.3515392,1.0000419927238222,-171.7981581401434
8.359483392,1.000064206892042,-172.14394379182446
8.367428096,1.00008324213826,-172.48998103396985
8.375372288,1.0000982701664025,-172.83623613983875
8.383316992,1.000108367980595,-173.18265671398305
8.391261184,1.0001128387001468,-173.52918645406325
8.399205376,1.000111676414493,-173.87573927736372
8.40715008,1.0001047206923563,-174.2222267566088
8.415094272,1.0000925249572745,-174.56857552143492
8.423038976,1.0000756347180153,-174.9147334064909
8.430983168,1.000054976936808,-175.2606562384503
8.43892736,1.0000317151975957,-175.606240138341
8.446872064,1.0000069467193775,-175.95154124301902
8.454816256,0.9999821325153443,-176.29646991868637
8.462760448,0.9999584605989589,-176.64110429274137
8.470705152,0.9999372920812345,-176.98543164147466
8.478649344,0.9999198139776149,-177.3294966914111
8.486594048,0.9999069401492574,-177.67333239569365
8.49453824,0.9998991981770561,-178.01703945088872
8.502482432,0.9998971767259232,-178.36067926418255
8.510427136,0.9999010016052855,-178.70434123729996
8.518371328,0.9999102561768517,-179.0480583035881
8.526316032,0.9999247035390102,-179.39193350188458
8.534260224,0.9999434963166604,-179.736044057897
8.542204416,0.9999656983651166,179.91960813067527
8.55014912,0.9999897921968717,179.57491053573534
8.558093312,1.0000150401294374,179.2299276839831
8.566037504,1.0000395216001925,178.88461323736018
8.573982208,1.0000624392122204,178.5389818910213
8.5819264,1.0000821967525333,178.19307634332682
8.589871104,1.0000977781037248,177.84693231320196
8.597815296,1.0001085417856375,177.50061823768903
8.605759488,1.0001138062231192,177.15421204229045
8.61370368,1.0001132861495152,176.80777664657475
8.621648896,1.0001069070250816,176.46137368554002
8.629593088,1.0000951630494743,176.11511513518914
8.63753728,1.0000785686134737,175.76905938681367
8.645481472,1.0000581234397274,175.42324116554045
8.653425664,1.0000347194859653,175.07771717552995
8.66137088,1.0000097433211315,174.7325194395496
8.669315072,0.9999845038313222,174.3876833291149
8.677259264,0.9999604426255546,174.04316414729624
8.685203456,0.9999386934082143,173.69896358917433
8.693147648,0.9999204674474613,173.355045963501
8.701092864,0.9999068441599896,173.011333271741
8.709037056,0.9998984128379116,172.66779427757797
8.716981248,0.9998957674918312,172.32432529827284
8.72492544,0.999898831629919,171.98084447749278
8.732869632,0.999907679663143,171.63731832469597
8.740813824,0.999921753297392,171.2936395396065
8.74875904,0.9999403019131836,170.9497419899997
8.756703232,0.9999623312572129,170.60558967180506
8.764647424,0.9999867570944208,170.26113981218722
8.772591616,1.000012169771974,169.91636108097794
8.780535808,1.0000371364428686,169.571250151383
8.788481024,1.0000604507050754,169.2258249659272
8.796425216,1.0000809137816749,168.88013235639875
8.804369408,1.0000972349240167,168.53416868382192
8.8123136,1.0001088286301134,168.18803546221443
8.820257792,1.000114804488172,167.84182137477342
8.828203008,1.0001148267361977,167.49555491613046
8.8361472,1.0001090702866877,167.1493471346218
8.844091392,1.0000978404568477,166.80323543397972
8.852035584,1.0000815541403887,166.45732881877984
8.859979776,1.0000610615693923,166.11168215998956
8.867924992,1.0000378722663925,165.76632187310594
8.875869184,1.0000125711573833,165.42130087601706
8.883813376,0.9999871050329566,165.07664022765945
8.891757568,0.9999625162799796,164.7323179071763
8.89970176,0.9999401863503733,164.38830895638606
8.907646976,0.9999211540686324,164.0445615326566
8.915591168,0.9999068478326284,163.70109907227308
8.92353536,0.9998976919694291,163.3577678075135
8.931479552,0.999894218591187,163.01453501735804
8.939423744,0.9998966475997042,162.67132534801158
8.947367936,0.9999049890910319,162.328039654068
8.955313152,0.9999186411393381,161.98462769772996
8.963257344,0.9999370794526696,161.64103948303512
8.971201536,0.9999589859273444,161.29715979889502
8.979145728,0.9999835232462505,160.9529777135509
8.98708992,1.0000091575262229,160.60849229562396
8.995035136,1.0000346222059835,160.26366783838114
9.002979328,1.0000585306452385,159.91852764470028
9.01092352,1.000079694450519,159.57309019667267
9.018867712,1.000096760321856,159.22740539527092
9.026811904,1.0001090301563333,158.88153436166004
9.03475712,1.0001156926202,158.53556828183466
9.042701312,1.0001164824709892,158.1895223455685
9.050645504,1.0001113651468243,157.84354966947598
9.058589696,1.0001004827498692,157.49769819776526
9.066533888,1.0000845299070875,157.1520170073672
9.074479104,1.000064369770605,156.8065998829679
9.082423296,1.0000409717812155,156.4614710462133
9.090367488,1.0000156444959918,156.11667811117647
9.09831168,0.9999897546168913,155.77225203486523
9.106255872,0.9999646340820968,155.42817075626203
9.114201088,0.9999416188297479,155.08440649255104
9.12214528,0.9999221086391339,154.74096691109875
9.130089472,0.9999068575621202,154.3977645149078
9.138033664,0.9998968990592981,154.05473108681792
9.145977856,0.9998927477299241,153.71179391749402
9.153922048,0.9998945080017616,153.36890850494942
9.161867264,0.9999023780519567,153.02596180716424
9.169811456,0.9999156034315594,152.6828998992958
