freq,mag,phase
6.0,1.0004862330371183,129.80611608806527
6.002287104,1.0006309361420047,129.6435758394904
6.004574208,1.0007359481415852,129.4792900613556
6.006861312,1.000794234214752,129.31383215947952
6.009147904,1.0008021917153727,129.1479657577152
6.011435008,1.0007592276908637,128.98236657614675
6.013722112,1.0006683189116297,128.81778887016924
6.016009216,1.0005347185592004,128.65485183310304
6.01829632,1.0003671777986356,128.49417089938544
6.020583424,1.00017606635597,128.33611958430942
6.022870016,0.9999737140495677,128.18096130755754
6.02515712,0.9997727001159787,128.02875077695418
6.027444224,0.9995859146074724,127.8794457048393
6.029731328,0.9994251896811153,127.7326917982273
6.032018432,0.9993005486190278,127.58805170032977
6.034305536,0.9992200710716765,127.44495844093474
6.036592128,0.9991890024482252,127.30272396602591
6.038879232,0.9992091293238116,127.16061265752124
6.041166336,0.9992793272743545,127.01788010175864
6.04345344,0.9993952655809804,126.8738567686512
6.045740544,0.9995495255531556,126.72791040423083
6.048027648,0.9997322795407366,126.57952537957904
6.05031424,0.9999319313943078,126.42842127079086
6.052601344,1.0001360318196422,126.2744129992153
6.054888448,1.0003314186141676,126.11753823781568
6.057175552,1.0005058244271468,125.95804205809252
6.059462656,1.0006483490322593,125.7962670994114
6.06174976,1.000749801966025,125.63274839423896
6.064036352,1.0008037747136533,125.46815204954902
6.066323456,1.0008067423566174,125.3031884699395
6.06861056,1.000758521347451,125.13855854381923
6.070897664,1.0006623881832128,124.97504375778186
6.073184768,1.0005239470873155,124.8132503316388
6.075471872,1.0003521774376283,124.65375427191356
6.077758464,1.000158036760195,124.49695659638027
6.080045568,0.9999534374869817,124.34310997795129
6.082332672,0.9997516983175584,124.19220803145649
6.084619776,0.9995653471864272,124.04419694048816
6.08690688,0.9994064316023813,123.89873650225942
6.089193984,0.9992849150161836,123.75536998380576
6.091481088,0.9992085363222339,123.6134588812941
6.09376768,0.9991820743233193,123.47236220206211
6.096054784,0.9992075066126948,123.33133034487048
6.098341888,0.9992831940433483,123.1895797926989
6.100628992,0.9994041724366641,123.04644747013722
6.102916096,0.9995628911298745,122.90131143815147
6.1052032,0.9997492507950496,122.75372558502443
6.107489792,0.9999516800490853,122.60335240769994
6.109776896,1.000157185894808,122.45003175009928
6.112064,1.0003526299136338,122.29387288495182
6.114351104,1.0005258368191694,122.13504627506222
6.116638208,1.0006658915207352,121.97397389430702
6.118925312,1.0007635793596776,121.8112276020778
6.121211904,1.0008130152636139,121.6474514907328
6.123499008,1.0008109583130775,121.48336807417093
6.125786112,1.0007573658435618,121.31971681516363
6.128073216,1.000655755534271,121.15723252218656
6.13036032,1.0005125122312788,120.99654915304887
6.132647424,1.000336577673445,120.83822981226515
6.134934016,1.0001391972125975,120.6826352270979
6.13722112,0.9999326478187179,120.53004534349243
6.139508224,0.9997301239804814,120.3804505311624
6.141795328,0.999544526303993,120.2336971913858
6.144082432,0.9993876634116127,120.08953436977708
6.146369536,0.9992692357011322,119.94734510628666
6.148656128,0.9991971358142265,119.8066276645552
6.150943232,0.9991756851122316,119.6666400010773
6.153230336,0.9992064672960755,119.52661551083264
6.15551744,0.9992875006135019,119.38580204818275
6.157804544,0.9994137620164467,119.24354859427872
6.160091648,0.9995771226961434,119.09919326953492
6.162378752,0.9997672451021518,118.95235110949099
6.164665344,0.9999722405027632,118.80263230278284
6.166952448,1.0001789718310399,118.64998549444894
6.169239552,1.0003743076523073,118.49444302077937
6.171526656,1.000546197173054,118.33627274487398
6.17381376,1.0006832960671563,118.17587964794353
6.176100864,1.0007772986947114,118.01385765756586
6.178387456,1.0008220152853822,117.85087563466905
6.18067456,1.0008145829887634,117.68765961944906
6.182961664,1.0007555882012324,117.52492252254675
6.185248768,1.000648574518172,117.36346849343924
6.187535872,1.0005003476724048,117.20388107518927
6.189822976,1.000320136937759,117.04668821447845
6.192109568,1.0001196890152404,116.89232751581001
6.194396672,0.9999111244160183,116.74095438402323
6.196683776,0.999708233802871,116.59262045776521
6.19897088,0.9995234024029674,116.44714717422897
6.201257984,0.999368617731141,116.30416567467643
6.203545088,0.9992536211889962,116.16319023772114
6.20583168,0.9991859153095993,116.023630255424
6.208118784,0.9991696356644336,115.88466867185205
6.210405888,0.9992059960171803,115.74563777721373
6.212692992,0.9992925863159383,115.60575544221129
6.214980096,0.9994240338489011,115.46429484148663
6.2172672,0.9995920173032536,115.3206972280428
6.219553792,0.9997859349884717,115.17451878166099
6.221840896,0.999993329058089,115.02544316283358
6.224128,1.0002012413036583,114.87341802132049
6.226415104,1.0003964975066963,114.71846824516969
6.228702208,1.0005666917157483,114.56088672625711
6.230989312,1.0007009443907438,114.40115677507463
6.233275904,1.0007908410140043,114.23983776191142
6.235563008,1.0008306461729375,114.07758910182
6.237850112,1.0008178441925166,113.91519553581729
6.240137216,1.0007531606940931,113.75338235674373
6.24242432,1.0006406156770615,113.59290875242101
6.244711424,1.0004873977312774,113.43437480181558
6.246998528,1.0003030438434624,113.27832529106882
6.24928512,1.0000993700616563,113.12511815935393
6.251572224,0.9998891775116555,112.9749807903954
6.253859328,0.9996856268564965,112.82788536740111
6.256146432,0.9995019296849725,112.68362211900275
6.258433536,0.9993494978611945,112.54185860467103
6.26072064,0.9992383375193081,112.40203693349939
6.263007232,0.9991750154124052,112.26354140335278
6.265294336,0.9991641240272099,112.12563827167331
6.26758144,0.9992061386094255,111.9875321573127
6.269868544,0.9992983944976694,111.84847393312289
6.272155648,0.9994352218051411,111.70778869557539
6.274442752,0.9996078097954039,111.56488395474418
6.276729344,0.9998052665746641,111.41933882050078
6.279016448,1.0000152308246002,111.27087494829605
6.281303552,1.0002241211827707,111.11939641526685
6.283590656,1.0004189687896974,110.96502020732787
6.28587776,1.0005872636589428,110.80801259161134
6.288164864,1.0007184716907194,110.64889953669471
6.290451456,1.0008041401379424,110.4882311559301
6.29273856,1.0008388607426926,110.32668471510932
6.295025664,1.0008204407986114,110.16509934572721
6.297312768,1.0007499209542934,110.0041891267401
6.299599872,1.0006318208806224,109.84465053281257
6.301886976,1.0004735745929774,109.68717546450091
6.304173568,1.0002852115934795,109.53221766036339
6.306460672,1.0000783663915078,109.38017319762947
6.308747776,0.9998664035416591,109.2312020947104
6.31103488,0.9996626828440528,109.08531879936893
6.313321984,0.9994801190859871,108.94224924364217
6.315609088,0.9993302999370709,108.80166313688089
6.317896192,0.9992228028741466,108.66295888613067
6.320182784,0.9991645130367675,108.52553388268143
6.322469888,0.9991590397755207,108.38856331262527
6.324756992,0.9992068087563094,108.25133378680799
6.327044096,0.9993049380082137,108.11311392214972
6.3293312,0.9994470915033267,107.97315879613741
6.331618304,0.9996242853691151,107.83091731808568
6.333904896,0.9998254569958017,107.68597072956939
6.336192,1.0000377532031641,107.53801976103591
6.338479104,1.0002475780258735,107.3870675711306
6.340766208,1.000441856206587,107.23320357636202
6.343053312,1.0006081901919537,107.07674126334507
6.345340416,1.0007361032640896,106.91818133417696
6.347627008,1.0008172940544084,106.75811688313172
6.349914112,1.000846718638999,106.59729282907384
6.352201216,1.000822586930415,106.43647121077628
6.35448832,1.0007461636909811,106.27638414586096
6.356775424,1.0006224834017148,106.11779074053761
6.359062528,1.0004590930035149,105.96132881581842
6.36134912,1.0002665308304826,105.80743172911333
6.363636224,1.0000566890863007,105.65655446809524
6.365923328,0.9998431682227948,105.50872401103439
6.368210432,0.9996393610504862,105.3640091116376
6.370497536,0.9994581956856085,105.22208985979915
6.37278464,0.9993111119105192,105.08263831281519
6.375071232,0.9992076949635674,104.94501327004431
6.377358336,0.9991542600008526,104.80857994051058
6.37964544,0.9991544655310338,104.67257314882512
6.381932544,0.9992082855929846,104.53620327432805
6.384219648,0.9993122817803402,104.39871369131666
6.386506752,0.9994598624210406,104.2594383514372
6.388793344,0.9996417467052511,104.11778312044228
6.391080448,0.9998464052578898,103.97338458307894
6.393367552,1.0000609487058998,103.82594007919974
6.395654656,1.0002715765215944,103.67545903763424
6.39794176,1.0004650367776797,103.52204209693204
6.400228864,1.0006291493423594,103.36605689818455
6.402515968,1.0007534913144611,103.20803804627091
6.40480256,1.0008300832914503,103.0485665288394
6.407089664,1.0008541250369356,102.88839844062441
6.409376768,1.000823992758311,102.72832382488556
6.411663872,1.0007416000042533,102.56906092865775
6.413950976,1.0006121337137914,102.41137657928387
6.41623808,1.000443703502715,102.25588645241953
6.418524672,1.0002469312891522,102.1030673469563
6.420811776,1.0000343160958045,101.95325839797476
6.42309888,0.9998192862058398,101.8065927848001
6.425385984,0.9996155327864492,101.66300194673752
6.427673088,0.9994359533755969,101.5222132115744
6.429960192,0.9992919137873414,101.38383788922809
6.432246784,0.9991926179519716,101.24726930580002
6.434533888,0.9991444310329466,101.11179029974899
6.436820992,0.9991504511835668,100.97667217210258
6.439108096,0.9992103614537715,100.84109176770426
6.4413952,0.9993203469912849,100.70433761007777
6.443682304,0.9994734720581943,100.5656879453351
6.445968896,0.9996599875726897,100.42457841615241
6.448256,0.9998680712927032,100.28065182361271
6.450543104,1.000084710123315,100.13366437189617
6.452830208,1.0002960274472572,99.98357871972007
6.455117312,1.0004885637282839,99.8306014777943
6.457404416,1.0006503701746015,99.67508249075148
6.459691008,1.000770928135297,99.51756275463744
6.461978112,1.000842593389815,99.35862292428845
6.464265216,1.0008610533102074,99.19909479405466
6.46655232,1.0008248214489277,99.03968821411382
6.468839424,1.0007362911694437,98.88123676008216
6.471126528,1.0006010085082182,98.72444070752505
6.473413632,1.0004274959220099,98.56988112048873
6.475700224,1.0002266271573435,98.41809425028049
6.477987328,1.0000112752277814,98.26935717910533
6.480274432,0.999794999328326,98.12378891865423
6.482561536,0.9995914004350059,97.98129288599273
6.48484864,0.9994134318203169,97.84162507298443
6.487135744,0.9992726463896323,97.70429053879083
6.489422336,0.9991778846410149,97.56873259443023
6.49170944,0.9991351323018134,97.43418468839943
6.493996544,0.9991471262688436,97.29990442187105
6.496283648,0.9992131087085903,97.16506232644579
6.498570752,0.9993291994674226,97.02896036585462
6.500857856,0.9994878061967643,96.89087608222519
6.503144448,0.9996789459434834,96.75028912623623
6.505431552,0.9998905089243226,96.60679183451077
6.507718656,1.0001091877798363,96.46020406348889
6.51000576,1.000320972431323,96.31051157711417
6.512292864,1.0005124383787272,96.1579004872975
6.514579968,1.000671586700784,96.00278392552222
6.51686656,1.0007881992402894,95.8456982425998
6.519153664,1.0008549482269282,95.68727290781787
6.521440768,1.0008675364047805,95.52833141363995
6.523727872,1.0008251295728465,95.36964081447714
6.526014976,1.0007303682567252,95.21195179228317
6.52830208,1.0005892676456876,95.05597239407204
6.530588672,1.000410480603065,94.9023892338928
6.532875776,1.0002057176824546,94.75157522730888
6.53516288,0.9999875777195819,94.60386529200095
6.537449984,0.9997700584332787,94.459351466662
6.539737088,0.9995668645946869,94.31796279952802
6.542024192,0.9993909775042329,94.17933287369056
6.544310784,0.9992535624571368,94.04302607729778
6.546597888,0.9991633261785087,93.90838793992569
6.548884992,0.9991261741542389,93.77472810820142
6.551172096,0.9991442962415781,93.64124367332387
6.5534592,0.9992167606833238,93.5071053391137
6.555746304,0.9993389174038049,93.37162444240408
6.558033408,0.9995030750244386,93.23405609457657
6.56032,0.9996987939939391,93.09389173684812
6.562607104,0.9999137256239733,92.9507795287708
6.564894208,1.0001342511181954,92.80453842765085
6.567181312,1.0003464147625867,92.65517482952201
6.569468416,1.0005365506419561,92.50289878716805
6.57175552,1.0006928696585964,92.3481592849864
6.574042112,1.0008052757991035,92.19146027792455
6.576329216,1.0008667211266116,92.03355527409431
6.57861632,1.000873321640365,91.87513863426611
6.580903424,1.000824675586631,91.71709255943877
6.583190528,1.0007234703457886,91.56013617771676
6.585477632,1.0005764316541534,91.40500079311911
6.587764224,1.0003927169306026,91.25228353110052
6.590051328,1.0001838952329782,91.10245953884981
6.592338432,0.9999631686220086,90.95575777884889
6.594625536,0.9997445733721523,90.81230811061307
6.59691264,0.9995420651688061,90.67192139750743
6.599199744,0.9993682542509358,90.5343177960156
6.601486336,0.9992344636193878,90.39896808515273
6.60377344,0.9991491231084061,90.26526630354327
6.606060544,0.9991175992627404,90.13242617933538
6.608347648,0.9991421699673949,89.99968601873798
6.610634752,0.999221068096266,89.86622859754715
6.612921856,0.9993493801809346,89.73127223668799
6.615208448,0.9995191480446843,89.59417406037174
6.617495552,0.9997194060290666,89.4544112440494
6.619782656,0.9999376409037078,89.31162056920084
6.62206976,1.0001598006594719,89.16567349873651
6.624356864,1.0003720583672941,89.01658785009393
6.626643968,1.0005607484678891,88.86461445379008
6.628931072,1.000714058937287,88.7101875534148
6.631217664,1.00082218927864,88.55386658959978
6.633504768,1.0008782491865704,88.39638110935273
6.635791872,1.0008786350074284,88.23851523501335
6.638078976,1.0008233960025865,88.08106957868891
6.64036608,1.0007158980177318,87.92482379970896
6.642653184,1.000562885693328,87.77045832894439
6.644939776,1.0003740932281249,87.61863760458259
6.64722688,1.0001613280064852,87.46974234962113
6.649513984,0.9999381715042561,87.32403000952023
6.651801088,0.9997186451347964,87.18155778618797
6.654088192,0.9995168927050818,87.04218829373698
6.656375296,0.9993455046447226,86.90557470424118
6.658661888,0.9992155652720711,86.77115404778283
6.660948992,0.999135207845546,86.63831466868108
6.663236096,0.999109690989543,86.50627296583689
6.6655232,0.9991406130872551,86.37421751563679
6.667810304,0.9992261874631545,86.24133181839191
6.670097408,0.9993607790324697,86.10688268679839
6.672384,0.9995360954594079,85.970209502557
6.674671104,0.9997409103816579,85.83079029100446
6.676958208,0.9999622370380711,85.68828230945178
6.679245312,1.0001860505511597,85.5425784881671
6.681532416,1.0003982108668015,85.39375139994286
6.68381952,1.0005852218896492,85.24199555130585
6.686106112,1.0007352632468431,85.08783638722214
6.688393216,1.0008388129003365,84.93186963458989
6.69068032,1.0008891752378586,84.77479381129321
6.692967424,1.0008833065382063,84.61740312681665
6.695254528,1.000821415818743,84.46052870179147
6.697541632,1.0007073654536944,84.30494408976593
6.699828224,1.000548433134064,84.15137650388516
6.702115328,1.0003545121582071,84.00036579805318
6.704402432,1.000137950532279,83.8523775572498
6.706689536,0.9999124702181007,83.70762979740061
6.70897664,0.9996923415608152,83.56614652050493
6.711263744,0.9994914896975218,83.42771643666909
6.713550848,0.9993227564016869,83.29204202180803
6.71583744,0.9991967655553758,83.15854241470105
6.718124544,0.9991217152880725,83.02650301285503
6.720411648,0.9991023471965556,82.89519985733193
6.722698752,0.9991399226740021,82.76379969080868
6.724985856,0.9992320989277508,82.63144918190905
6.72727296,0.9993730470691441,82.49745950711049
6.729559552,0.9995539015386604,82.36112474879239
6.731846656,0.9997630532301724,82.2220040359969
6.73413376,0.9999874085734193,82.07972626604469
6.736420864,1.000212742211043,81.93420628870224
6.738707968,1.0004247293399549,81.78554372004456
6.740995072,1.0006098503591074,81.63400517615874
6.743281664,1.0007564049297724,81.48008170762411
6.745568768,1.0008551711426334,81.32437959860415
6.747855872,1.0008997458603541,81.1676851589977
6.750142976,1.000887393012955,81.01075246378187
6.75243008,1.0008186468917621,80.85442825809187
6.754717184,1.0006980226745565,80.69950456727067
6.757003776,1.000533046864323,80.54664535401768
6.75929088,1.0003341578075164,80.39647515003354
6.761577984,1.000113897532629,80.24935144225856
6.763865088,0.9998861430431675,80.10552040099668
6.766152192,0.9996654893741683,79.96495383106904
6.768439296,0.9994658287747307,79.82749337840093
6.770725888,0.9992998742489922,79.6926835700291
6.773012992,0.9991781309233494,79.56003353600379
6.775300096,0.9991086395988921,79.4287787666559
6.7775872,0.9990955246921119,79.29817020625714
6.779874304,0.9991398498252405,79.16734136596489
6.782161408,0.9992387993582685,79.03550193004214
6.784448512,0.9993861407701679,78.90188520088869
6.786735104,0.9995725327986892,78.7658671734889
6.789022208,0.9997861341022104,78.62697430290363
6.791309312,1.000013343704881,78.48488782315978
6.793596416,1.000239892260198,78.33950230798973
6.79588352,1.0004514540194471,78.19096113022059
6.798170624,1.0006344875703022,78.03957761996942
6.800457216,1.0007773684581833,77.88584695937632
6.80274432,1.000871037499521,77.73040886728649
6.805031424,1.0009096568138312,77.5740435098161
6.807318528,1.0008905717272563,77.41753357244704
6.809605632,1.0008151093324877,77.2617274375601
6.811892736,1.0006877671795564,77.10740547920274
6.814179328,1.0005168387629402,76.95526908369007
6.816466432,1.000312896113281,76.80587135230644
6.818753536,1.000088975910994,76.6596128104223
6.82104064,0.9998591716009257,76.51664921561066
6.823327744,0.9996381024549269,76.37698719603887
6.825614848,0.9994398151213427,76.24038982379271
6.82790144,0.999276888744019,76.10649504270478
6.830188544,0.9991597604671169,75.97463604781497
6.832475648,0.9990958668265517,75.84410396443624
6.834762752,0.9990892825402392,75.71411774324164
6.837049856,0.9991405285174516,75.58384044621843
6.83933696,0.9992463710670046,75.45243776408257
6.841623552,0.9994000287672511,75.31915234049565
6.843910656,0.9995919661494086,75.18339424317857
6.84619776,0.9998099215172244,75.04466034176026
6.848484864,1.0000399407163578,74.90268984010781
6.850771968,1.0002676946903462,74.75742183899932
6.853059072,1.0004785842909185,74.60895067384804
6.855345664,1.0006592698494103,74.45767399145412
6.857632768,1.0007982373354005,74.3040871371661
6.859919872,1.0008867477918917,74.14887471513813
6.862206976,1.0009190606376395,73.99278412326959
6.86449408,1.000893223267398,73.8366647131634
6.866781184,1.0008107313829702,73.68135042721981
6.869068288,1.000676753124212,73.52762046340993
6.87135488,1.0004998040201982,73.37614859235197
6.873641984,1.0002909051351534,73.22751757261412
6.875929088,1.0000634861030493,73.08205639660012
6.878216192,0.999831773726909,72.93994432831593
6.880503296,0.9996104876168574,72.80115836753393
6.8827904,0.9994138177521533,72.66543948669229
6.885076992,0.9992541599039538,72.53231449318625
6.887364096,0.99914172612618,72.40121743850014
6.8896512,0.9990836127287464,72.27137738581203
6.891938304,0.9990837621086229,72.14197489982683
6.894225408,0.9991419773507717,72.01218295879292
6.896512512,0.9992547066621139,71.88117039279906
6.898799104,0.9994148813173587,71.74818332449628
6.901086208,0.999612309781965,71.61259217365469
6.903373312,0.999834492853842,71.47398297320157
6.905660416,1.0000673129270694,71.33208477288657
6.90794752,1.000295901080724,71.18685032978149
6.910234624,1.0005059306278123,71.03843069260287
6.912521216,1.0006840710071376,70.88721734965385
6.91480832,1.0008189521117925,70.73374723122387
6.917095424,1.0009020381717941,70.57870975281077
6.919382528,1.0009279603832049,70.4228788188191
6.921669632,1.0008951407203075,70.26712348987266
6.923956736,1.0008055188070744,70.11225026265417
6.926243328,1.00066475469976,69.9590865005453
6.928530432,1.0004818292487276,69.80825895263276
6.930817536,1.000268061437895,69.66033641021602
