freq,mag,phase
6.0,0.9999993295918468,131.72755183910016
6.008,0.9999993236348643,131.66127349760313
6.016,0.9999993178055219,131.59498773254788
6.024,0.9999993121043939,131.52869453426848
6.032,0.9999993065320403,131.46239389309935
6.04,0.9999993010890036,131.3960857993755
6.048,0.9999992957758115,131.32977024343222
6.056,0.9999992905929751,131.26344721560554
6.064,0.9999992855409906,131.19711670623178
6.072,0.999999280620338,131.13077870564786
6.08,0.9999992758314824,131.0644332041912
6.088,0.9999992711748734,130.99808019219975
6.096,0.999999266650945,130.93171966001196
6.104,0.9999992622601164,130.8653515979669
6.112,0.9999992580027917,130.79897599640418
6.12,0.9999992538793601,130.732592845664
6.128,0.999999249890196,130.666202136087
6.136,0.9999992460356585,130.59980385801464
6.144,0.9999992423160932,130.53339800178884
6.152,0.9999992387318299,130.46698455775217
6.16,0.9999992352831848,130.40056351624787
6.168,0.9999992319704591,130.33413486761972
6.176,0.9999992287939405,130.26769860221228
6.184,0.9999992257539022,130.20125471037068
6.192,0.999999222850603,130.1348031824407
6.2,0.9999992200842883,130.06834400876892
6.208,0.9999992174551895,130.00187717970255
6.216,0.9999992149635243,129.93540268558948
6.224,0.999999212609496,129.8689205167783
6.232,0.9999992103932955,129.80243066361848
6.24,0.9999992083150996,129.73593311646005
6.248,0.9999992063750717,129.6694278656539
6.256,0.9999992045733624,129.6029149015516
6.264,0.9999992029101084,129.5363942145056
6.272,0.9999992013854339,129.4698657948691
6.28,0.99999919999945,129.403329632996
6.288,0.9999991987522547,129.33678571924113
6.296,0.9999991976439336,129.27023404396007
6.304,0.9999991966745592,129.20367459750932
6.312,0.9999991958441921,129.13710737024607
6.32,0.9999991951528792,129.07053235252852
6.328,0.9999991946006559,129.00394953471564
6.336,0.9999991941875452,128.93735890716732
6.344,0.999999193913558,128.87076046024433
6.352,0.9999991937786924,128.80415418430832
6.36,0.9999991937829353,128.7375400697219
6.368,0.9999991939262614,128.6709181068485
6.376,0.9999991942086329,128.6042882860526
6.384,0.9999991946300015,128.5376505976996
6.392,0.9999991951903062,128.4710050321558
6.4,0.9999991958894746,128.40435157978848
6.408,0.9999991967274238,128.337690230966
6.416,0.9999991977040581,128.27102097605757
6.424,0.9999991988192716,128.2043438054335
6.432,0.9999992000729466,128.1376587094651
6.44,0.9999992014649549,128.07096567852466
6.448,0.9999992029951562,128.00426470298558
6.456,0.9999992046634006,127.93755577322224
6.464,0.9999992064695268,127.87083887961012
6.472,0.9999992084133627,127.80411401252579
6.48,0.9999992104947253,127.73738116234688
6.4879999999999995,0.9999992127134221,127.67064031945208
6.496,0.9999992150692487,127.60389147422126
6.504,0.9999992175619913,127.53713461703539
6.5120000000000005,0.9999992201914262,127.47036973827653
6.52,0.9999992229573177,127.40359682832795
6.5280000000000005,0.9999992258594225,127.33681587757398
6.536,0.9999992288974852,127.27002687640027
6.5440000000000005,0.9999992320712414,127.20322981519347
6.552,0.9999992353804171,127.13642468434153
6.5600000000000005,0.9999992388247281,127.06961147423362
6.568,0.9999992424038799,127.00279017526006
6.5760000000000005,0.9999992461175707,126.93596077781243
6.584,0.9999992499654866,126.86912327228353
6.592,0.9999992539473059,126.80227764906745
6.6,0.9999992580626972,126.73542389855946
6.608,0.9999992623113195,126.66856201115624
6.616,0.9999992666928231,126.60169197725558
6.624,0.9999992712068496,126.53481378725677
6.632,0.9999992758530307,126.4679274315602
6.64,0.9999992806309901,126.40103290056776
6.648,0.9999992855403421,126.33413018468256
6.656,0.999999290580693,126.26721927430913
6.664,0.9999992957516397,126.20030015985333
6.672,0.9999993010527712,126.13337283172231
6.68,0.9999993064836675,126.0664372803248
6.688,0.9999993120439012,125.99949349607071
6.696,0.9999993177330354,125.9325414693715
6.704,0.9999993235506258,125.86558119063997
6.712,0.9999993294962201,125.79861265029041
6.72,0.9999993355693575,125.7316358387385
6.728,0.9999993417695692,125.66465074640139
6.736,0.9999993480963794,125.59765736369778
6.744,0.9999993545493034,125.53065568104766
6.752,0.9999993611278497,125.46364568887275
6.76,0.9999993678315192,125.39662737759609
6.768,0.9999993746598045,125.32960073764232
6.776,0.9999993816121912,125.26256575943756
6.784,0.999999388688158,125.19552243340955
6.792,0.9999993958871756,125.1284707499875
6.8,0.999999403208708,125.06141069960225
6.808,0.9999994106522119,124.99434227268618
6.816,0.9999994182171372,124.92726545967324
6.824,0.9999994259029262,124.86018025099906
6.832,0.9999994337090149,124.79308663710081
6.84,0.9999994416348329,124.72598460841733
6.848,0.999999449679802,124.65887415538911
6.856,0.9999994578433384,124.5917552684582
6.864,0.9999994661248512,124.52462793806849
6.872,0.999999474523743,124.45749215466536
6.88,0.9999994830394106,124.390347908696
6.888,0.9999994916712437,124.32319519060925
6.896,0.9999995004186263,124.2560339908557
6.904,0.9999995092809363,124.18886429988765
6.912,0.9999995182575449,124.12168610815915
6.92,0.9999995273478178,124.05449940612597
6.928,0.9999995365511152,123.98730418424569
6.936,0.9999995458667903,123.92010043297765
6.944,0.999999555294192,123.85288814278299
6.952,0.9999995648326621,123.78566730412462
6.96,0.9999995744815375,123.7184379074673
6.968,0.9999995842401497,123.65119994327763
6.976,0.9999995941078244,123.58395340202402
6.984,0.999999604083882,123.51669827417673
6.992,0.9999996141676376,123.44943455020795
7.0,0.9999996243584015,123.38216222059165
7.008,0.9999996346554778,123.31488127580381
7.016,0.9999996450581667,123.2475917063222
7.024,0.9999996555657628,123.18029350262663
7.032,0.9999996661775553,123.1129866551987
7.04,0.9999996768928296,123.04567115452207
7.048,0.9999996877108657,122.97834699108232
7.056,0.999999698630939,122.911014155367
7.064,0.9999997096523195,122.84367263786564
7.072,0.9999997207742748,122.77632242906977
7.08,0.9999997319960653,122.70896351947292
7.088,0.9999997433169485,122.64159589957063
7.096,0.9999997547361774,122.57421955986055
7.104,0.9999997662530011,122.50683449084227
7.112,0.9999997778666628,122.43944068301755
7.12,0.9999997895764042,122.37203812689013
7.128,0.9999998013814604,122.30462681296588
7.136,0.9999998132810639,122.23720673175279
7.144,0.9999998252744433,122.1697778737609
7.152,0.9999998373608224,122.10234022950252
7.16,0.9999998495394224,122.03489378949186
7.168,0.9999998618094599,121.96743854424554
7.176,0.9999998741701485,121.8999744842822
7.184,0.9999998866206974,121.83250160012265
7.192,0.9999998991603132,121.76501988228998
7.2,0.9999999117881981,121.69752932130942
7.208,0.9999999245035521,121.63002990770843
7.216,0.9999999373055709,121.56252163201674
7.224,0.9999999501934473,121.4950044847663
7.232,0.9999999631663712,121.4274784564913
7.24,0.9999999762235288,121.35994353772823
7.248,0.9999999893641037,121.29239971901585
7.256,1.0,121.22484699089524
7.264,1.0,121.15728534390979
7.272,0.9999999999999999,121.08971476860522
7.28,1.0,121.02213525552955
7.288,1.0,120.95454679523321
7.296,1.0,120.88694937826895
7.304,1.0,120.81934299519193
7.312,1.0,120.75172763655974
7.32,0.9999999999999999,120.68410329293225
7.328,0.9999999999999999,120.61646995487192
7.336,1.0,120.54882761294353
7.344,1.0,120.48117625771432
7.352,0.9999999999999999,120.41351587975404
7.36,1.0,120.3458464696349
7.368,1.0,120.27816801793159
7.376,1.0,120.2104805152213
7.384,1.0,120.14278395208372
7.392,1.0,120.07507831910115
7.4,0.9999999999999999,120.0073636068583
7.4079999999999995,0.9999999999999999,119.9396398059426
7.416,0.9999999999999999,119.87190690694392
7.4239999999999995,0.9999999999999998,119.80416490045481
7.432,0.9999999999999999,119.73641377707031
7.4399999999999995,1.0,119.66865352738823
7.448,1.0,119.60088414200887
7.4559999999999995,0.9999999999999999,119.53310561153526
7.464,1.0,119.46531792657301
7.4719999999999995,1.0000000000000002,119.39752107773049
7.48,1.0,119.32971505561866
7.4879999999999995,1.0,119.26189985085124
7.496,1.0,119.19407545404466
7.504,1.0,119.1262418558181
7.5120000000000005,0.9999999999999999,119.05839904679337
7.52,1.0,118.99054701759516
7.5280000000000005,0.9999999999999999,118.92268575885088
7.536,1.0,118.85481526119068
7.5440000000000005,0.9999999999999999,118.7869355152476
7.552,0.9999999999999999,118.71904651165745
7.5600000000000005,0.9999999999999999,118.6511482410588
7.568,0.9999999999999999,118.58324069409318
7.5760000000000005,1.0,118.51532386140488
7.584,1.0,118.44739773364111
7.5920000000000005,1.0,118.37946230145192
7.6,0.9999999999999999,118.31151755549033
7.6080000000000005,1.0,118.24356348641217
7.616,0.9999999999999999,118.17560008487632
7.6240000000000006,1.0,118.10762734154444
7.632,0.9999999999999999,118.03964524708135
7.640000000000001,1.0,117.97165379215464
7.648,0.9999999999999999,117.903652967435
7.656000000000001,1.0000000000000002,117.83564276359611
7.664,1.0,117.76762317131461
7.672,1.0,117.69959418127024
7.68,1.0,117.63155578414573
7.688,0.9999999999999999,117.56350797062692
7.696,1.0,117.49545073140258
7.704,1.0,117.42738405716479
7.712,0.9999999999999999,117.35930793860854
7.72,0.9999999999999999,117.29122236643204
7.728,1.0,117.22312733133658
7.736,1.0,117.15502282402666
7.744,1.0,117.08690883520983
7.752,1.0,117.01878535559693
7.76,1.0,116.95065237590194
7.768,0.9999999999999999,116.882509886842
7.776,1.0,116.81435787913755
7.784,1.0,116.74619634351224
7.792,1.0,116.67802527069293
7.8,0.9999999999999999,116.6098446514098
7.808,1.0,116.54165447639626
7.816,1.0,116.47345473638907
7.824,1.0,116.40524542212825
7.832,1.0,116.33702652435717
7.84,0.9999999999999999,116.26879803382252
7.848,0.9999999999999999,116.20055994127436
7.856,1.0,116.13231223746612
7.864,1.0,116.06405491315464
7.872,0.9999999999999998,115.9957879591001
7.88,1.0,115.92751136606614
7.888,1.0,115.85922512481983
7.896,1.0,115.79092922613164
7.904,1.0,115.72262366077562
7.912,1.0,115.65430841952913
7.92,1.0,115.58598349317315
7.928,0.9999999999999999,115.5176488724921
7.936,0.9999999999999999,115.44930454827399
7.944,0.9999999999999999,115.38095051131026
7.952,1.0,115.31258675239606
7.96,1.0,115.24421326232996
7.968,0.9999999999999999,115.17583003191416
7.976,0.9999999999999999,115.10743705195452
7.984,1.0,115.03903431326046
7.992,0.9999999999999999,114.97062180664504
8.0,0.9999999999999999,114.90219952292496
8.008,0.9999999999999999,114.83376745292063
8.016,0.9999999999999999,114.76532558745603
8.024000000000001,1.0,114.69687391735896
8.032,1.0,114.62841243346088
8.04,1.0,114.55994112659697
8.048,1.0,114.49145998760612
8.056000000000001,1.0,114.42296900733102
8.064,1.0,114.35446817661817
8.072,1.0,114.28595748631776
8.08,0.9999999999999999,114.21743692728386
8.088000000000001,0.9999999999999999,114.14890649037432
8.096,0.9999999999999999,114.0803661664509
8.104,1.0,114.01181594637909
8.112,0.9999999999999999,113.94325582102836
8.120000000000001,0.9999999999999999,113.87468578127199
8.128,1.0,113.80610581798723
8.136,1.0,113.7375159220552
8.144,1.0,113.66891608436092
8.152000000000001,1.0,113.60030629579344
8.16,1.0,113.53168654724577
8.168,0.9999999999999999,113.4630568296148
8.176,1.0,113.39441713380153
8.184000000000001,1.0,113.32576745071091
8.192,1.0,113.25710777125195
8.2,0.9999999999999999,113.18843808633773
8.208,0.9999999999999999,113.11975838688528
8.216000000000001,0.9999999999999998,113.05106866381584
8.224,1.0,112.98236890805472
8.232,0.9999999999999999,112.9136591105313
8.24,1.0,112.84493926217907
8.248000000000001,1.0,112.77620935393573
8.256,1.0,112.70746937674313
8.264,0.9999999999999998,112.63871932154726
8.272,0.9999999999999998,112.56995917929832
8.280000000000001,1.0,112.50118894095074
8.288,1.0,112.43240859746318
8.296,1.0000000000000002,112.36361813979852
8.304,0.9999999999999999,112.29481755892388
8.312,0.9999999999999999,112.22600684581073
8.32,0.9999999999999999,112.15718599143477
8.328,1.0,112.08835498677607
8.336,1.0,112.01951382281895
8.344,1.0,111.95066249055216
8.352,0.9999999999999999,111.88180098096873
8.36,1.0,111.81292928506615
8.368,1.0,111.74404739384624
8.376,1.0,111.67515529831529
8.384,1.0,111.60625298948396
8.392,0.9999999999999999,111.53734045836742
8.4,1.0,111.46841769598524
8.408,0.9999999999999999,111.39948469336152
8.416,1.0,111.33054144152483
8.424,0.9999999999999999,111.26158793150827
8.432,1.0,111.19262415434947
8.44,1.0,111.12365010109062
8.448,0.9999999999999999,111.05466576277846
8.456,1.0,110.98567113046431
8.464,1.0,110.91666619520412
8.472,0.9999999999999999,110.84765094805843
8.48,0.9999999999999999,110.77862538009242
8.488,0.9999999999999999,110.70958948237593
8.496,1.0,110.64054324598351
8.504,1.0,110.57148666199433
8.512,1.0,110.50241972149227
8.52,0.9999999999999999,110.43334241556605
8.528,0.9999999999999999,110.36425473530895
8.536,1.0,110.29515667181916
8.544,0.9999999999999999,110.22604821619954
8.552,1.0,110.15692935955786
8.56,1.0,110.08780009300658
8.568,1.0,110.01866040766306
8.576,1.0,109.9495102946495
8.584,0.9999999999999999,109.88034974509296
8.592,1.0,109.81117875012536
8.6,0.9999999999999999,109.7419973008836
8.608,1.0,109.67280538850935
8.616,1.0,109.60360300414938
8.624,1.0,109.53439013895532
8.632,1.0,109.46516678408378
8.64,0.9999999999999999,109.3959329306964
8.648,1.0,109.3266885699598
8.656,0.9999999999999999,109.25743369304564
8.664,1.0,109.18816829113061
8.672,1.0,109.11889235539645
8.68,1.0,109.04960587703006
8.688,1.0,108.98030884722333
8.696,1.0,108.91100125717335
8.704,1.0,108.8416830980823
8.712,1.0,108.77235436115755
8.72,1.0,108.70301503761162
8.728,1.0,108.63366511866225
8.736,1.0,108.56430459553232
8.744,1.0,108.49493345945004
8.752,1.0,108.42555170164877
8.76,1.0,108.35615931336721
8.768,0.9999999999999999,108.28675628584932
8.776,1.0,108.21734261034437
8.784,0.9999999999999998,108.14791827810689
8.792,1.0,108.07848328039684
8.8,1.0,108.00903760847947
8.808,1.0,107.93958125362549
8.815999999999999,1.0,107.87011420711094
8.824,1.0,107.80063646021725
8.832,0.9999999999999999,107.73114800423136
8.84,0.9999999999999999,107.66164883044564
8.847999999999999,1.0,107.59213893015792
8.856,0.9999999999999999,107.5226182946715
8.864,1.0,107.45308691529524
8.872,1.0,107.38354478334351
8.879999999999999,0.9999999999999999,107.31399189013622
8.888,0.9999999999999999,107.24442822699885
8.896,1.0,107.17485378526246
8.904,0.9999999999999998,107.10526855626377
8.911999999999999,1.0,107.03567253134504
8.92,1.0,106.96606570185426
8.928,1.0,106.896448059145
8.936,1.0,106.82681959457662
8.943999999999999,1.0,106.75718029951409
8.952,1.0,106.68753016532813
8.96,0.9999999999999999,106.61786918339521
8.968,0.9999999999999999,106.5481973450976
8.975999999999999,0.9999999999999999,106.47851464182332
8.984,1.0,106.40882106496612
8.992,1.0000000000000002,106.3391166059257
9.0,1.0,106.26940125610753
9.008,1.0,106.19967500692294
9.016,1.0,106.12993784978917
9.024000000000001,0.9999999999999998,106.06018977612932
9.032,1.0,105.9904307773725
9.04,1.0,105.92066084495363
9.048,0.9999999999999999,105.85087997031367
9.056000000000001,1.0,105.78108814489957
9.064,1.0,105.71128536016427
9.072,0.9999999999999999,105.64147160756671
9.08,0.9999999999999999,105.57164687857187
9.088000000000001,0.9999999999999999,105.50181116465082
9.096,1.0,105.43196445728073
9.104,1.0,105.3621067479448
9.112,1.0,105.29223802813239
9.120000000000001,0.9999999999999999,105.22235828933903
9.128,1.0,105.1524675230664
9.136,0.9999999999999999,105.08256572082239
9.144,0.9999999999999999,105.01265287412096
9.152000000000001,1.0,104.94272897448249
9.16,1.0,104.8727940134335
9.168,1.0,104.80284798250678
9.176,1.0,104.73289087324142
9.184000000000001,0.9999999999999999,104.6629226771828
9.192,1.0,104.5929433858827
9.2,1.0,104.5229529908992
9.208,0.9999999999999998,104.4529514837967
9.216000000000001,0.9999999999999999,104.38293885614607
9.224,0.9999999999999999,104.3129150995246
9.232,1.0,104.24288020551596
9.24,0.9999999999999999,104.1728341657103
9.248000000000001,0.9999999999999999,104.10277697170424
9.256,0.9999999999999999,104.03270861510097
9.264,0.9999999999999999,103.96262908751007
9.272,1.0,103.89253838054776
9.280000000000001,0.9999999999999998,103.82243648583677
9.288,0.9999999999999999,103.75232339500648
9.296,1.0,103.68219909969282
9.304,1.0,103.61206359153837
9.312000000000001,1.0,103.54191686219232
9.32,0.9999999999999999,103.47175890331063
9.328,1.0,103.40158970655584
9.336,0.9999999999999999,103.33140926359724
9.344,1.0,103.26121756611094
9.352,1.0,103.19101460577967
9.36,0.9999999999999999,103.12080037429307
9.368,1.0,103.05057486334749
9.376,0.9999999999999998,102.98033806464616
9.384,0.9999999999999999,102.91008996989913
9.392,1.0,102.83983057082334
9.4,1.0,102.76955985914259
9.408,1.0,102.69927782658766
9.416,0.9999999999999999,102.6289844648962
9.424,0.9999999999999999,102.55867976581287
9.432,1.0,102.48836372108924
9.44,1.0,102.418036322484
9.448,1.0,102.34769756176273
9.456,0.9999999999999999,102.27734743069821
9.464,0.9999999999999999,102.20698592107018
9.472,0.9999999999999999,102.13661302466554
9.48,1.0,102.06622873327824
9.488,0.9999999999999999,101.99583303870946
9.496,1.0,101.9254259327675
9.504,0.9999999999999999,101.85500740726786
9.512,0.9999999999999999,101.78457745403324
9.52,1.0,101.71413606489361
9.528,0.9999999999999999,101.64368323168613
9.536,1.0,101.57321894625535
9.544,1.0,101.50274320045303
9.552,0.9999999999999999,101.43225598613832
9.56,1.0,101.36175729517767
9.568,1.0,101.291247119445
9.576,1.0,101.22072545082153
9.584,0.9999999999999999,101.150192281196
9.592,0.9999999999999999,101.0796476024645
9.6,0.9999999999999999,101.00909140653071
9.608,0.9999999999999999,100.9385236853057
9.616,1.0,100.86794443070815
9.624,1.0,100.79735363466423
9.632,0.9999999999999999,100.72675128910774
9.64,0.9999999999999999,100.65613738598002
9.648,1.0,100.58551191723008
9.656,0.9999999999999999,100.51487487481452
9.664,0.9999999999999999,100.4442262506977
9.672,0.9999999999999999,100.37356603685159
9.68,0.9999999999999999,100.30289422525594
9.688,0.9999999999999999,100.23221080789821
9.696,1.0,100.1615157767737
9.704,0.9999999999999999,100.0908091238854
9.712,1.0,100.02009084124424
9.72,1.0,99.94936092086893
9.728,0.9999999999999998,99.87861935478608
9.736,1.0,99.80786613503018
9.744,1.0,99.7371012536437
9.752,1.0,99.666324702677
9.76,1.0,99.59553647418846
9.768,1.0,99.52473656024446
9.776,1.0,99.45392495291944
9.784,1.0,99.38310164429585
9.792,1.0,99.31226662646426
9.8,1.0,99.24141989152332
9.808,1.0,99.17056143157988
9.816,1.0,99.09969123874893
9.824,0.9999999999999999,99.02880930515363
9.832,1.0,98.95791562292537
9.84,1.0,98.88701018420387
9.847999999999999,0.9999999999999999,98.81609298113703
9.856,0.9999999999999999,98.74516400588105
9.864,1.0,98.67422325060056
9.872,1.0,98.60327070746848
9.879999999999999,1.0,98.53230636866616
9.888,0.9999999999999999,98.46133022638331
9.896,0.9999999999999999,98.39034227281813
9.904,1.0,98.31934250017736
9.911999999999999,1.0,98.24833090067611
9.92,1.0,98.17730746653811
9.928,1.0,98.10627218999566
9.936,1.0,98.03522506328963
9.943999999999999,0.9999999999999999,97.9641660786695
9.952,0.9999999999999999,97.89309522839342
9.96,0.9999999999999999,97.82201250472824
9.968,0.9999999999999998,97.75091789994953
9.975999999999999,0.9999999999999999,97.67981140634153
9.984,1.0,97.60869301619734
9.992,1.0,97.53756272181882
10.0,0.9999999999999998,97.46642051551669
10.008,0.9999999999999999,97.39526638961054
10.016,1.0,97.3241003364288
10.024000000000001,0.9999999999999999,97.25292234830891
10.032,1.0,97.18173241759726
10.04,0.9999999999999998,97.11053053664921
10.048,1.0,97.03931669782911
10.056000000000001,0.9999999999999999,96.96809089351045
10.064,1.0,96.89685311607579
10.072,0.9999999999999999,96.8256033579168
10.08,1.0,96.75434161143428
10.088000000000001,1.0,96.68306786903831
10.096,1.0,96.6117821231481
10.104,1.0,96.54048436619222
10.112,1.0,96.46917459060843
10.120000000000001,1.0,96.39785278884389
10.128,1.0,96.32651895335516
10.136,1.0,96.25517307660812
