freq,mag,phase
6.0,1.000577782468503,64.81128179259956
6.002285568,1.0007182811099344,64.65909671135913
6.004571648,1.0008137874645,64.50517352241154
6.006857216,1.0008574590559276,64.35021010960133
6.009142784,1.0008465292621442,64.1949970675898
6.011428352,1.0007816550094124,64.04033924047361
6.013714432,1.0006667623410535,63.8869291896628
6.016,1.0005090491418414,63.73550729990686
6.018285568,1.0003185658386915,63.58659745100704
6.020571648,1.000107309957147,63.44058845070064
6.022857216,0.9998885034688446,63.29767702670728
6.025142784,0.999676101183417,63.157913868815434
6.027428352,0.9994837325189292,63.02108545982986
6.029714432,0.999323406067508,62.88681944447833
6.032,0.9992054407048232,62.75454942716447
6.034285568,0.9991373333964233,62.623657921133066
6.036571648,0.9991235237378033,62.49334591909275
6.038857216,0.9991649171887559,62.36284923464886
6.041142784,0.9992589809064245,62.231337316494326
6.043428352,0.99939984203805,62.09809952673522
6.045714432,0.9995784595810291,61.96255867439811
6.048,0.9997837067504757,61.8242155938608
6.050285568,1.000002499274995,61.682733314938716
6.052571648,1.000220936578002,61.53809783432116
6.054857216,1.0004252876233617,61.3903775371
6.057142784,1.000602573948976,61.23985854361686
6.059428352,1.000741535830289,61.08703795348926
6.061714432,1.0008332336441783,60.932536361578535
6.064,1.0008719081338802,60.77700121224734
6.066285568,1.0008550647408785,60.62135729174408
6.068571648,1.0007836187125712,60.46632441469955
6.070857216,1.0006621102421118,60.31263808537248
6.073142784,1.0004981198874772,60.16102172974361
6.075428352,1.0003019572519,60.01199545816532
6.077714432,1.0000860971328007,59.865952284645715
6.08,0.9998641190397523,59.7230635006683
6.082285568,0.9996500224889293,59.58333729456875
6.084571648,0.9994575912221785,59.446556018697464
6.086857216,0.9992988403361771,59.31233623057624
6.089142784,0.9991840358865656,59.180074921600216
6.091428352,0.9991205307497335,59.04910995940782
6.093714432,0.9991123045227,58.91869008651788
6.096,0.9991600428751035,58.787947222898225
6.098285568,0.9992607702842521,58.656089188518024
6.100571648,0.9994080732189653,58.52245402359634
6.102857216,0.9995928189626236,58.386373552021084
6.105142784,0.9998031036163862,58.24741059278167
6.107428352,1.0000257841753615,58.10527610808313
6.109714432,1.0002466757877408,57.95991649444161
6.112,1.000451795007895,57.81141357329827
6.114285568,1.000628184517913,57.660136379637535
6.116571648,1.0007645399951535,57.506564426674245
6.118857216,1.0008522455593687,57.35136431598782
6.121142784,1.0008857584975546,57.19522108024784
6.123428352,1.0008628545356535,57.03901294205904
6.125714432,1.0007848715325516,56.88349524746615
6.128,1.0006566582809997,56.729447618261716
6.130285568,1.0004863455245312,56.57754176810186
6.132571648,1.0002845974544157,56.42831870038387
6.134857216,1.0000641842006341,56.282131776149775
6.137142784,0.9998390196117155,56.139154322705984
6.139428352,0.9996234925286899,55.999385353206485
6.141714432,0.9994310448588266,55.8625718464794
6.144,0.9992741479127257,55.728262387280566
6.146285568,0.9991626985733566,55.595907309963906
6.148571648,0.9991039233203177,55.46478186485395
6.150857216,0.9991015217975368,55.33408230007017
6.153142784,0.9991556751296228,55.20299024501756
6.155428352,0.9992630746315747,55.07073436912612
6.157714432,0.9994170179311112,54.93653832000717
6.16,0.9996077270219146,54.7998362468089
6.162285568,0.9998231388699145,54.66013259873037
6.164571648,1.0000496394780654,54.51721103194306
6.166857216,1.0002728828840752,54.3709922003498
6.169142784,1.0004786466673803,54.22164907900783
6.171428352,1.0006539225192452,54.069498077716275
6.173714432,1.00078763165978,53.91510265624437
6.176,1.000871276104172,53.759080248868365
6.178285568,1.0008993930458745,53.60223448855535
6.180571648,1.00087031940267,53.4453290130577
6.182857216,1.0007856475726074,53.28925889552958
6.185142784,1.000650731026492,53.134739766974754
6.187428352,1.0004740797770846,52.982445445326924
6.189714432,1.0002668337657903,52.832927070007635
6.192,1.0000420018552476,52.686494401692585
6.194285568,0.9998138717347543,52.54337756301711
6.196571648,0.9995967652154393,52.40341289510734
6.198857216,0.9994046705206596,52.2664497769508
6.201142784,0.9992497115729305,52.13196152182792
6.203428352,0.9991417751109533,51.99940955484435
6.205714432,0.9990878386567387,51.86800305424595
6.208,0.9990912940609955,51.73694300292075
6.210285568,0.9991520005157116,51.60538334438724
6.212571648,0.9992661701681105,51.472580694312924
6.214857216,0.9994267499294399,51.33770491786936
6.217142784,0.9996234164500125,51.20024808190542
6.219428352,0.9998437503035174,51.05970593275892
6.221714432,1.000073942714537,50.91589490522794
6.224,1.0002993277807548,50.76871395985268
6.226285568,1.0005055570218622,50.61839373455781
6.228571648,1.000679616978034,50.465264516857616
6.230857216,1.0008104940613147,50.30989614560223
6.233142784,1.0008898626771126,50.152983987211286
6.235428352,1.0009125502792486,49.99529051828601
6.237714432,1.000877172654898,49.837661938013795
6.24,1.0007857269686278,49.68090999896067
6.242285568,1.000644138442508,49.525836942092205
6.244571648,1.0004610907327476,49.37305529256025
6.246857216,1.0002482627877096,49.22310301615807
6.249142784,1.000019084128581,49.07637821643813
6.251428352,0.9997880297530634,48.932944420259986
6.253714432,0.999569758741155,48.792742328893105
6.256,0.9993781193585872,48.65550591909022
6.258285568,0.9992252609343328,48.52075971801072
6.260571648,0.999120932396961,48.38787545643105
6.262857216,0.9990719401745447,48.25609159380983
6.265142784,0.9990813979379304,48.1245405963753
6.267428352,0.9991487541913453,47.99244048683711
6.269714432,0.9992697336632917,47.85894776387451
6.272,0.9994368573836984,47.72330634814292
6.274285568,0.9996395413014074,47.584934759200245
6.276571648,0.9998648509422384,47.443460549321124
6.278857216,1.0000986492062325,47.29860910189927
6.281142784,1.000326040814664,47.150394493764
6.283428352,1.0005326981273446,46.99897766307834
6.285714432,1.0007053905808834,46.84477140568594
6.288,1.0008333070114177,46.68834661035615
6.290285568,1.0009081770999033,46.53042405773081
6.292571648,1.0009252938523037,46.37179785830942
6.294857216,1.000883436962817,46.2133025316295
6.297142784,1.0007853597498764,46.05579163595577
6.299428352,1.0006369527488732,45.900023925358695
6.301714432,1.0004476091440373,45.74667555658774
6.304,1.0002293452701982,45.59623963594737
6.306285568,0.9999959229049049,45.4490428673515
6.308571648,0.9997620034034121,45.30521524332296
6.310857216,0.9995425182999241,45.16466115520537
6.313142784,0.999351496658801,45.02708063598818
6.315428352,0.9992008850284467,44.8919559140384
6.317714432,0.9991003737560005,44.75861965384533
6.32,0.9990564489707153,44.62630377806823
6.322285568,0.9990719806257398,44.494190511213326
6.324571648,0.9991460257801879,44.36138365687629
6.326857216,0.9992739695493119,44.22709515693028
6.329142784,0.9994476502968948,44.0905778291649
6.331428352,0.9996561151867558,43.951251971950455
6.333714432,0.9998863549672774,43.80868481106069
6.336,1.0001236524104504,43.662700208694176
6.338285568,1.0003529952172894,43.51330157394389
6.340571648,1.00055983203765,43.360679462359165
6.342857216,1.0007310826282387,43.20528557527682
6.345142784,1.000855837826416,43.047680352813565
6.347428352,1.0009261711670867,42.88866669680936
6.349714432,1.0009376227192783,42.72898947974051
6.352,1.0008893812999289,42.56950578339512
6.354285568,1.0007843056816963,42.4111256770438
6.356571648,1.0006291833951388,42.25459417552239
6.358857216,1.0004335442684984,42.10054906190585
6.361142784,1.000209850175758,41.94953324264686
6.363428352,0.9999721911570888,41.8018038791335
6.365714432,0.9997357418466791,41.6574785059073
6.368,0.9995152338027938,41.51645470538302
6.370285568,0.9993247621030897,41.37839849910523
6.372571648,0.9991765600776638,41.24274817815054
6.374857216,0.9990799850843974,41.10889265277876
6.377142784,0.9990413202178483,40.97595787221039
6.379428352,0.9990630342185913,40.843128867159564
6.381714432,0.999143731739397,40.70951416665686
6.384,0.9992785824218943,40.57430793012061
6.386285568,0.9994588089104106,40.43678082952854
6.388571648,0.9996732973074761,40.29635540016116
6.390857216,0.9999082435720422,40.152624420095876
6.393142784,1.0001488928790698,40.005379172797
6.395428352,1.0003800633995534,39.85467881400778
6.397714432,1.0005870269741803,39.70073786425936
6.4,1.000756590504181,39.54404112386168
6.402285568,1.0008781759475052,39.38519322726811
6.404571648,1.0009438406785722,39.22491365505629
6.406857216,1.0009494876612444,39.06407795137375
6.409142784,1.000894700321502,38.90356035767273
6.411428352,1.0007827696242966,38.74422295724089
6.413714432,1.0006208505599656,38.58679873028521
6.416,1.0004189973583784,38.43194905168524
6.418285568,1.0001899028286323,38.28021793502287
6.420571648,0.9999481430225975,38.13184351967297
6.422857216,0.9997090441105368,37.98692550141602
6.425142784,0.9994876501769963,37.845329696870955
6.427428352,0.9992980691439013,37.70667946997768
6.429714432,0.9991523740757448,37.57044823547748
6.432,0.9990598342253196,37.435898044025805
6.434285568,0.999026381471422,37.302248826766096
6.436571648,0.9990543825502537,37.16859651539739
6.438857216,0.9991419682781134,37.03407392791866
6.441142784,0.999283623245548,36.89783127505246
6.443428352,0.9994704548896167,36.7591803203382
6.445714432,0.9996907311357078,36.617504071196194
6.448,0.9999304184496686,36.47245224695412
6.450285568,1.000174381401335,36.3238522349419
6.452571648,1.0004072664026773,36.17174506903235
6.454857216,1.0006141575440377,36.01637618655774
6.457142784,1.0007820910810772,35.85826081512042
6.459428352,1.0009002478488322,35.69801876936816
6.461714432,1.000961224895041,35.53642766009179
6.464,1.0009610574644088,35.37436042542252
6.466285568,1.0008996422841523,35.21265349203221
6.468571648,1.0007809040490696,35.05221249660178
6.470857216,1.000612108222192,34.893805784317124
6.473142784,1.0004040685594302,34.73808139093839
6.475428352,1.000169731499232,34.58552757002438
6.477714432,0.9999239876515883,34.43640040177891
6.48,0.9996823325690499,34.29077092932828
6.482285568,0.9994601445110374,34.1484844748926
6.484571648,0.9992715076055931,34.00912890200856
6.486857216,0.999128478345268,33.872162149261754
6.489142784,0.9990400173151867,33.736829076472844
6.491428352,0.9990120584681215,33.60232243169718
6.493714432,0.9990462488573072,33.4677144669024
6.496,0.9991406116708308,33.33215953525873
6.498285568,0.999289217488948,33.19477722662725
6.500571648,0.9994825996301222,33.05486734536087
6.502857216,0.9997086126419867,32.911841793507
6.505142784,0.9999529769331682,32.76539252095376
6.507428352,1.0002002265492185,32.61529428441291
6.509714432,1.0004346608048749,32.46164295996675
6.512,1.0006414031857396,32.304752768924324
6.514285568,1.0008075253727444,32.145109758327344
6.516571648,1.0009222153238613,31.983373313880794
6.518857216,1.0009783427786416,31.82033250622159
6.521142784,1.0009722810038177,31.656870232058523
6.523428352,1.0009042806073887,31.493912540978044
6.525714432,1.0007786664394875,31.332281362102172
6.528,1.0006031957524284,31.172773363661843
6.530285568,1.0003888421288492,31.01603543968161
6.532571648,1.0001493063683544,30.86254960071185
6.534857216,0.9998995746251357,30.71255820768766
6.537142784,0.9996555533194055,30.566110374544454
6.539428352,0.9994326195665674,30.423017123224717
6.541714432,0.9992449783359865,30.282849742364878
6.544,0.9991045460846468,30.145020648327662
6.546285568,0.9990203774144825,30.008817308519927
6.548571648,0.998997871219528,29.873318809407575
6.550857216,0.9990384262645543,29.737658278042783
6.553142784,0.9991395591845235,29.600929933843315
6.555428352,0.9992949964469676,29.46226474759854
6.557714432,0.9994949447877385,29.32099569080343
6.56,0.9997267170686747,29.17653416636838
6.562285568,0.999975596103846,29.02852146462771
6.564571648,1.0002259622694858,28.87682845495738
6.566857216,1.0004618788983126,28.721528245610987
6.569142784,1.0006684599699187,28.56298696522983
6.571428352,1.0008325634680422,28.40168682290961
6.573714432,1.000943754888006,28.23832625002751
6.576,1.0009950401821657,28.073747558931604
6.578285568,1.0009830443262497,27.908825311576326
6.580571648,1.0009084223709532,27.744457143732415
6.582857216,1.0007758645897307,27.581517324980883
6.585142784,1.0005936266322386,27.420815215510803
6.587428352,1.0003732444385014,27.26297501205316
6.589714432,1.000128544836599,27.10843424371252
6.592,0.9998749643326907,26.957460701147806
6.594285568,0.9996286274572425,26.810073814509987
6.596571648,0.9994051925837792,26.666050550782614
6.598857216,0.9992185853433639,26.524948677604122
6.601142784,0.9990810136609298,26.38616304093048
6.603428352,0.9990010910990025,26.248941856032456
6.605714432,0.9989840168225721,26.112340030612085
6.608,0.9990308846735751,25.975490433616642
6.610285568,0.9991388529728801,25.83748246527731
6.612571648,0.9993012042052747,25.697428679832445
6.614857216,0.9995076013297006,25.554667479014437
6.617142784,0.9997449283611838,25.408596415069603
6.619428352,0.9999984355092627,25.258921971311334
6.621714432,1.0002518739844775,25.105505085471854
6.624,1.0004891608995146,24.948455129232414
6.626285568,1.0006954097146912,24.788158554584214
6.628571648,1.000857591244324,24.625100347101387
6.630857216,1.000965283958113,24.460021075864027
6.633142784,1.001011538459834,24.29376380430685
6.635428352,1.0009935876914802,24.127213458844835
6.637714432,1.0009123675246436,23.96135007200197
6.64,1.0007729347052747,23.797013894672354
6.642285568,1.0005841176868582,23.634969281134154
6.644571648,1.0003575852185669,23.475902025025825
6.646857216,1.0001077624734611,23.320208667084273
6.649142784,0.9998504529688704,23.16812474565889
6.651428352,0.9996018773525515,23.019677233359264
6.653714432,0.9993777767083032,22.87459936184888
6.656,0.9991924755779301,22.73246650277299
6.658285568,0.9990576742431074,22.592603878889783
6.660571648,0.9989820360001719,22.454208219590786
6.662857216,0.9989704458647833,22.316409973955988
6.665142784,0.9990237083333181,22.178235978232095
6.667428352,0.9991384614812379,22.03880144326697
6.669714432,0.9993075683756614,21.897246545353504
6.672,0.9995204352690669,21.752862900302247
6.674285568,0.9997633379208382,21.605095838399148
6.676571648,1.0000212333784355,21.453614009428833
6.678857216,1.0002776147002495,21.29836846067167
6.681142784,1.0005163990472796,21.139453958766218
6.683428352,1.0007222014127202,20.977240621268162
6.685714432,1.0008823537739895,20.812304486177045
6.688,1.0009864280374585,20.645394665755052
6.690285568,1.0010277091367141,20.477337120326585
6.692571648,1.00100391538237,20.30910421519461
6.694857216,1.0009160630152438,20.141598569595338
6.697142784,1.0007697930689194,19.97571274950268
6.699428352,1.000574297810344,19.812232592639287
6.701714432,1.0003417235955736,19.651820629434667
6.704,1.0000870000459703,19.49484148590505
6.706285568,0.9998259148465634,19.341552164265707
6.708571648,0.9995751476948587,19.191915693356112
6.710857216,0.9993506303549673,19.045683493978892
6.713142784,0.9991664660008484,18.902352957116427
6.715428352,0.9990345977080475,18.761281328802454
6.717714432,0.9989632851707305,18.621612925210915
6.72,0.9989571680223076,18.48246370111146
6.722285568,0.9990167054444998,18.342875860367894
6.724571648,0.9991382983889271,18.201910640702316
6.726857216,0.9993141792040183,18.058692934256925
6.729142784,0.9995333760918588,17.91257010549234
6.731428352,0.9997818865644236,17.762969188705608
6.733714432,1.0000440488695803,17.60958768005338
6.736,1.0003033748441985,17.452371784383395
6.738285568,1.0005433942763609,17.29143973676032
6.740571648,1.0007488963169644,17.127238637118186
6.742857216,1.0009068617469816,16.960291451745015
6.745142784,1.0010073146732064,16.791423977630192
6.747428352,1.0010437933692766,16.621480191544908
6.749714432,1.0010138496343222,16.45138821492716
6.752,1.0009194835369564,16.282169116028218
6.754285568,1.000766489587323,16.11461973646778
6.756571648,1.0005643787957375,15.949599004171354
6.758857216,1.0003259356298662,15.787680093310998
6.761142784,1.0000661263850326,15.629306290945284
6.763428352,0.9998014751350224,15.474668104235008
6.765714432,0.9995485680969675,15.323726370281697
6.768,0.9993235654532767,15.1761879905802
6.770285568,0.9991407274880955,15.03156020082736
6.772571648,0.9990116802933152,14.889141020268873
6.774857216,0.9989446124732807,14.748088246481988
6.777142784,0.9989440055977801,14.607460489174057
6.779428352,0.9990098844458191,14.466304065259882
6.781714432,0.9991382034638189,14.32365362387058
6.784,0.9993208420920042,14.17870881152364
6.786285568,0.9995462530314546,14.030705545829983
6.788571648,0.999800136009757,13.879141424367733
6.790857216,1.0000667376042411,13.723745311380831
6.793142784,1.0003289290614978,13.564433215983863
6.795428352,1.0005701081332157,13.401391145235824
6.797714432,1.0007752018621625,13.23503733993272
6.8,1.000931093469673,13.065977798383615
6.802285568,1.0010279358036926,12.895013299398867
6.804571648,1.001059460447862,12.723049215195605
6.806857216,1.0010236398518189,12.551026405157554
6.809142784,1.000922777622864,12.379888441297208
6.811428352,1.0007629402884244,12.210580833151845
6.813714432,1.000554351862589,12.043881648104037
6.816,1.0003099633483428,11.880350601602508
6.818285568,1.0000452677935157,11.720464752756445
6.820571648,0.9997769414955446,11.564351345901812
6.822857216,0.9995219878147127,11.411968602959586
6.825142784,0.9992966367376489,11.263021468449669
6.827428352,0.9991150047787588,11.116960254173973
6.829714432,0.9989887630234835,10.973062027018987
6.832,0.9989261151780575,10.830494226175622
6.834285568,0.9989309464115144,10.688268768026182
6.836571648,0.9990030967449881,10.54540726752224
6.838857216,0.9991380332108518,10.400988218306098
6.841142784,0.9993272700692962,10.254126837840834
6.843428352,0.9995589580482964,10.104143403555787
6.845714432,0.9998183583296696,9.950511134934755
6.848,1.0000891100865592,9.792942877932987
6.850285568,1.0003541830082505,9.631422454491442
6.852571648,1.0005966172831737,9.466147810514567
6.854857216,1.0008012704527416,9.297527095251498
6.857142784,1.000955048568206,9.12621830605453
6.859428352,1.0010482596039911,8.953056533171042
6.861714432,1.0010750438435758,8.77894573813152
6.864,1.0010333949618826,8.604833734369636
6.866285568,1.0009260132406006,8.43172525334227
6.868571648,1.00075954940555,8.26051277149436
6.870857216,1.0005444592457975,8.091981005205762
6.873142784,1.0002943231242052,7.926714345805033
6.875428352,1.000024788340922,7.765161327393816
6.877714432,0.9997529096142939,7.607464527327628
6.88,0.9994958329754289,7.453508219408336
6.882285568,0.9992700672352437,7.302993920341263
6.884571648,0.9990897581731196,7.15537305135316
6.886857216,0.9989663766615021,7.009898433083662
6.889142784,0.9989079135934954,6.86564868095726
6.891428352,0.998918106363938,6.721687596222465
6.893714432,0.9989964313388318,6.577027256453175
6.896,0.9991379359727216,6.430655945073539
6.898285568,0.9993337849029718,6.281783919354075
6.900571648,0.9995715390194423,6.129693438525941
6.902857216,0.9998363076109716,5.973847445310645
6.905142784,1.0001111880404514,5.814020327217416
6.907428352,1.0003790414993399,5.650151463013561
6.909714432,1.0006227566036434,5.482489862723383
6.912,1.000827009768071,5.311510947847146
6.914285568,1.0009786889061152,5.137847230274319
6.916571648,1.0010684501838536,4.962362037071332
6.918857216,1.00109039636025,4.785938901202868
6.921142784,1.0010429433086692,4.609640660050449
6.923428352,1.0009292592244765,4.434413260179128
6.925714432,1.000756218171993,4.261179918611831
6.928,1.0005348033994053,4.090680750289095
6.930285568,1.0002788857424176,3.9235584000454593
6.932571648,1.0000045434537173,3.760207690112982
6.934857216,0.9997291051363931,3.6007671820171074
6.937142784,0.9994701382315344,3.4451159043155037
6.939428352,0.9992438878138333,3.2929198397015154
6.941714432,0.9990646903425646,3.1435910281458894
6.944,0.9989441543187421,2.996374654037295
