freq,mag,phase
6.0,0.9993346151785053,-37.50681392297642
6.010403328,0.9994743152980622,-37.89234987415402
6.020806144,0.9996418645152205,-38.27994420063817
6.031209472,0.9998279408099241,-38.66992014186875
6.041612288,1.0000231433650104,-39.06244651604215
6.052015616,1.000217935869879,-39.45754103843388
6.062418944,1.0004023705583294,-39.85518648284806
6.07282176,1.0005671149954902,-40.255160021320435
6.083225088,1.0007041890046688,-40.65714266573651
6.093627904,1.0008062073620305,-41.06076471886774
6.104031232,1.0008686128507338,-41.46553516110136
6.11443456,1.0008879575206249,-41.87091517319408
6.124837376,1.000863184115535,-42.27635770487845
6.135240704,1.0007956488485807,-42.68125873313369
6.14564352,1.0006883946471687,-43.08512436106918
6.156046848,1.000547122260447,-43.4875320875193
6.166450176,1.0003785643121557,-43.88796151346248
6.176852992,1.0001913001119949,-44.28625375776148
6.18725632,0.9999945562067518,-44.68208340758573
6.197659136,0.9997981671725895,-45.07551995834831
6.208062464,0.9996120714391483,-45.46652004306938
6.218465792,0.9994455480827898,-45.855312231708474
6.228868608,0.9993072355417352,-46.24223452178988
6.239271936,0.9992034870658222,-46.62768546854868
6.249674752,0.9991401309514402,-47.0121180656613
6.26007808,0.9991200631343727,-47.39610720359195
6.270480896,0.9991447603973087,-47.78016258215802
6.280884224,0.9992126785272757,-48.164903456200875
6.291287552,0.999320302907527,-48.55088172664398
6.301690368,0.9994626962755527,-48.9385108914002
6.312093696,0.9996325867957991,-49.32823982636927
6.322496512,0.9998214171788887,-49.72041933191443
6.33289984,1.0000198092527064,-50.11512539711765
6.343303168,1.00021760359033,-50.512485368704866
6.353705984,1.0004052252003126,-50.91241214688217
6.364109312,1.000573323638814,-51.3147288348968
6.374512128,1.0007129186609196,-51.71910398987851
6.384915456,1.0008176454750732,-52.125133965511544
6.395318784,1.0008818784124127,-52.532339163024325
6.4057216,1.0009023681749762,-52.94020968527092
6.416124928,1.0008780811850586,-53.34811345359549
6.426527744,1.0008102497156832,-53.75552930008931
6.436931072,1.0007022738106262,-54.16189178577373
6.4473344,1.0005591529896716,-54.56673594134142
6.457737216,1.0003884264804912,-54.969657893299654
6.468140544,1.0001983084683028,-55.370329519223624
6.47854336,0.9999984087885357,-55.76855612191864
6.488946688,0.9997986447773152,-56.16430676297582
6.499350016,0.9996091571684325,-56.55762491585557
6.509752832,0.9994393993169112,-56.94870665491104
6.52015616,0.9992978011243665,-57.33784591291387
6.530558976,0.9991916628275728,-57.72547113296588
6.540962304,0.9991262230281965,-58.11207932189296
6.551365632,0.9991049678374727,-58.498169372235324
6.561768448,0.9991288604698774,-58.88437845508954
6.572171776,0.9991968680684706,-59.2712634196348
6.582574592,0.9993055972126995,-59.659349470258086
6.59297792,0.9994495700147159,-60.04917409045706
6.603381248,0.9996218788015006,-60.44108048824881
6.613784064,0.9998134874793478,-60.83543491622319
6.624187392,1.000015187523331,-61.232400025435396
6.634590208,1.0002165231360387,-61.63208687223766
6.644993536,1.0004078745136344,-62.034343933082205
6.655396864,1.0005792063528158,-62.43903738216424
6.66579968,1.0007223032003478,-62.84587787210169
6.676203008,1.0008296403846015,-63.254404673604405
6.686605824,1.0008960951935741,-63.664157806402514
6.697009152,1.0009181373218576,-64.07451767297506
6.707411968,1.0008946240179493,-64.48501332502433
6.717815296,1.0008267085133886,-64.89496922770738
6.728218624,1.0007177384426524,-65.30392140871356
6.73862144,1.0005729533564887,-65.7113110069271
6.749024768,1.0003998179781266,-66.11677543596457
6.759427584,1.0002067309736844,-66.51992786685824
6.769830912,1.0000033873970482,-66.92065382454838
6.78023424,0.9998001985124987,-67.31877796236556
6.790637056,0.99960682698741,-67.71447954263225
6.801040384,0.999433347695522,-68.10785759932878
6.8114432,0.9992883455102544,-68.49931266351065
6.821846528,0.9991792969888801,-68.88917891546916
6.832249856,0.9991115237482316,-69.27795680857662
6.842652672,0.9990885703800342,-69.66624491233571
6.853056,0.9991115951290563,-70.05461858587094
6.863458816,0.9991796174526744,-70.4436743940761
6.873862144,0.9992893211873037,-70.8339233322856
6.884265472,0.9994349727225994,-71.22592840845773
6.894668288,0.9996095806090756,-71.62008250840056
6.905071616,0.9998042880367126,-72.0167006318017
6.915474432,1.000009370269471,-72.41598204170685
6.92587776,1.000214719440643,-72.81799019668277
6.936281088,1.0004099001279187,-73.22267433175364
6.946683904,1.0005851785919235,-73.62981266850585
6.957087232,1.0007316959710344,-74.03915271832875
6.967490048,1.0008423367822041,-74.45022548769198
6.977893376,1.0009112727050538,-74.8624997053692
6.988296704,1.0009350386120563,-75.27551039078492
6.99869952,1.0009124958297044,-75.68864909405013
7.009102848,1.0008446856077822,-76.10127034680356
7.019505664,1.0007348033396888,-76.51284795536758
7.029908992,1.0005884927716995,-76.92288620985128
7.04031232,1.0004129036133003,-77.33088017026668
7.050715136,1.000216681000484,-77.73662049957649
7.061118464,1.0000097185767607,-78.13984415057665
7.07152128,0.9998023190475345,-78.54049603061908
7.081924608,0.9996048830623182,-78.93860950258754
7.092327936,0.999427439419766,-79.33441206930083
7.102730752,0.9992787595058878,-79.72814672818406
7.11313408,0.9991662717764163,-80.12032614502351
7.123536896,0.9990957771982892,-80.51135004888634
7.133940224,0.9990709448054526,-80.9018818628029
7.144343552,0.9990929733249853,-81.29242922267399
7.154746368,0.9991608331559247,-81.68364357379856
7.165149696,0.9992710723849847,-82.07614277389416
7.175552512,0.9994185495404451,-82.47034669430036
7.18595584,0.9995955899189969,-82.86673089149552
7.196358656,0.9997934153521916,-83.26562064469844
7.206761984,1.0000024031639176,-83.66722938694501
7.217165312,1.0002118565719607,-84.07161661493254
7.227568128,1.0004112579914153,-84.47874141194028
7.237971456,1.0005907570306112,-84.8883750010982
7.248374272,1.0007412847023034,-85.30022548283364
7.2587776,1.000855391943155,-85.71389907597185
7.269180928,1.0009272186196563,-86.12886228604101
7.279583744,1.00095310446716,-86.5445049277318
7.289987072,1.0009317056122868,-86.96033719742813
7.300389888,1.0008641447788327,-87.37566426554704
7.310793216,1.0007535996266763,-87.78990908093232
7.321196544,1.0006055325204857,-88.20265390055283
7.33159936,1.0004273236458427,-88.61333813234485
7.342002688,1.0002279394604663,-89.02168542954598
7.352405504,1.000017008481862,-89.42755917693879
7.362808832,0.9998054626057311,-89.83072694252591
7.37321216,0.9996035507855132,-90.23132679106541
7.383614976,0.999421659332714,-90.6295167168925
7.394018304,0.9992687094173018,-91.02563709201739
7.40442112,0.9991525205562943,-91.42010276074316
7.414824448,0.9990789204190474,-91.81343650523915
7.425227776,0.9990518589753291,-92.20616658303364
7.435630592,0.9990724465234521,-92.59896607446278
7.44603392,0.9991400131547453,-92.99241431122596
7.456436736,0.9992510119373517,-93.38708990136593
7.466840064,0.9994000594445451,-93.78354511788773
7.477243392,0.9995798019762204,-94.18216930764426
7.487646208,0.9997810327431018,-94.58334708568461
7.498049536,0.9999940085074159,-94.98730749411176
7.508452352,1.000207778203867,-95.39410434462128
7.51885568,1.0004118391102403,-95.80367033588745
7.529259008,1.000596094273025,-96.21583697672295
7.539661824,1.0007509981740859,-96.63026309039107
7.550065152,1.0008690001426421,-97.04654451155727
7.560467968,1.0009441726836519,-97.46419981972548
7.570871296,1.0009725028258274,-97.88258646381816
7.581274624,1.0009526082192524,-98.30114892242402
7.59167744,1.000885404185308,-98.71922394426191
7.602080768,1.0007743681688508,-99.13626146975093
7.612483584,1.0006246898043598,-99.55173070945092
7.622886912,1.0004438038308845,-99.965146460295
7.63329024,1.0002409023964367,-100.37620413124145
7.643693056,1.0000259786946804,-100.78467139653856
7.654096384,0.9998095744830263,-101.19040404238383
7.6644992,0.9996029418276632,-101.59352613021395
7.674902528,0.9994160703191524,-101.99422893565983
7.685305344,0.9992585080530915,-102.39270546874805
7.695708672,0.9991381372043914,-102.78955143530992
7.706112,0.9990610988157289,-103.18516580949847
7.716514816,0.9990313134987294,-103.58017793952504
7.726918144,0.9990502504839458,-103.97519658128648
7.73732096,0.9991173400359374,-104.37085442193627
7.747724288,0.9992289287642432,-104.76775568026235
7.758127616,0.9993795263365662,-105.16640957976627
7.768530432,0.9995619782234367,-105.56730682865413
7.77893376,0.999766815661073,-105.97078267470872
7.789336576,0.9999839671881873,-106.3770957888696
7.799739904,1.000202714187696,-106.78628902401806
7.810143232,1.0004119073480442,-107.19832630144602
7.820546048,1.0006010794050773,-107.6130225819024
7.830949376,1.0007609818844396,-108.0300668892289
7.841352192,1.0008833368484122,-108.44901405737558
7.85175552,1.0009621468148173,-108.86934898724114
7.862158848,1.0009933103082609,-109.29050992322765
7.872561664,1.0009751748276654,-109.71184656804265
7.882964992,1.0009087054961363,-110.13272945653
7.893367808,1.0007970333195075,-110.55259929765462
7.903771136,1.0006457332584062,-110.97083432439578
7.914174464,1.0004622444309454,-111.38702079726421
7.92457728,1.0002556539299017,-111.80081542361248
7.934980608,1.0000362964411984,-112.21195980959554
7.945383424,0.9998149734595281,-112.62032212990644
7.955786752,0.9996029275382778,-113.02601238449103
7.96619008,0.9994107021876739,-113.42915904078102
7.976592896,0.9992480656207914,-113.83010180981445
7.986996224,0.9991230439046748,-114.22927016985916
7.99739904,0.9990421518668099,-114.62720886997884
8.007802368,0.9990092562046006,-115.02445689065912
8.018205696,0.9990263098875521,-115.42169735938047
8.028608512,0.9990925459804414,-115.81959247134367
8.03901184,0.9992045069880923,-116.21866206640192
8.049414656,0.9993568576252163,-116.6195596210546
8.059817984,0.9995420284351092,-117.02269570026661
8.070221312,0.9997506496407137,-117.42847776905158
8.080624128,0.9999724407587033,-117.83710373379627
8.091027456,1.0001963268286245,-118.24868476045475
8.101430272,1.000411021951984,-118.6632078966103
8.1118336,1.000605833665319,-119.08045996688128
8.122236416,1.0007710331973607,-119.50009872754224
8.132639744,1.0008983379454892,-119.92172862087092
8.143043072,1.0009812438337404,-120.34480603401317
8.153445888,1.0010156863110733,-120.76876216717429
8.163849216,1.0009997819697567,-121.19291581510555
8.174252032,1.000934139104642,-121.61666685068997
8.18465536,1.000822156579745,-122.03932640394757
8.195058688,1.00066913972729,-122.46042360728227
8.205461504,1.0004828910479115,-122.8794326043026
8.215864832,1.000272364858169,-123.29598801654565
8.226267648,1.0000482393699073,-123.70983604730081
8.236670976,0.9998216080155333,-124.12084772712936
8.247074304,0.9996038047240724,-124.52909911059764
8.25747712,0.9994057237917562,-124.93477460789099
8.267880448,0.9992373320760637,-125.3381407710641
8.278283264,0.9991072448963317,-125.73965670485275
8.288686592,0.9990218659213146,-126.13988270710828
8.29908992,0.9989855798441171,-126.53938577722293
8.309492736,0.999000330931045,-126.93884768142907
8.319896064,0.9990654780503794,-127.33889008989395
8.33029888,0.9991777780254629,-127.74014814067986
8.340702208,0.9993318211373473,-128.1432348047618
8.351105536,0.9995197828173052,-128.54858581448573
8.361508352,0.9997324013859079,-128.95663433242171
8.37191168,0.9999591714930469,-129.3675532325867
8.382314496,1.000188536028109,-129.78156577761072
8.392717824,1.0004093125970153,-130.19851401342856
8.403121152,1.0006102345510293,-130.6183009465934
8.413523968,1.0007813874878055,-131.04056751578466
8.423927296,1.0009140610359426,-131.46489816749153
8.434330112,1.0010016855363961,-131.89071741096848
8.44473344,1.001039742304194,-132.31746383146742
8.455136768,1.0010263206596401,-132.74445366221744
8.465539584,1.0009619698021965,-133.17106518830954
8.475942912,1.0008496864448342,-133.5966554890428
8.486345728,1.000695100914175,-134.02059579431608
8.496749056,1.0005057866383666,-134.44243871754222
8.507152384,1.000291262043459,-134.8617859008772
8.5175552,1.0000620678648695,-135.2783782474141
8.527958528,0.9998296036774358,-135.69206027812834
8.538361344,0.9996055704698389,-136.10290979200875
8.548764672,0.9994011184423953,-136.51107005361544
8.559168,0.999226547837107,-136.9168825647631
8.569570816,0.9990906488419976,-137.32073140387365
8.579974144,0.9990002813228015,-137.7232171926415
8.59037696,0.9989601220737616,-138.12497598058562
8.600779776,0.998972208244977,-138.52659095283605
8.611183616,0.9990360420962494,-138.92878137767522
8.621586432,0.9991484800075506,-139.33219516344008
8.631989248,0.9993040969283463,-139.73740266034912
8.642393088,0.9994951093673854,-140.1449355972991
8.652795904,0.9997119611083989,-140.55520139287057
8.66319872,0.9999439040244753,-140.96842994318428
8.67360256,1.0001793700959245,-141.38477326075358
8.684005376,1.0004066163740926,-141.80417413384603
8.694408192,1.0006142629524823,-142.2264620397349
8.704811008,1.000791941838798,-142.65133747892668
8.715214848,1.000930729929177,-143.07832442898228
8.725617664,1.0010235302178159,-143.5069118130888
8.73602048,1.0010657508555767,-143.93648185015482
8.74642432,1.0010551925651574,-144.36633635480956
8.756827136,1.00099223543229,-144.79584275793496
8.767229952,1.0008799167375404,-145.2243171303289
8.777633792,1.0007237911745248,-145.6511417127437
8.788036608,1.0005315251791336,-146.07585256591145
8.798439424,1.000312582086621,-146.4980041780008
8.80884224,1.000077941496143,-146.91732952835756
8.81924608,0.9998392078734791,-147.33372008383319
8.829648896,0.9996083470080506,-147.74713058091976
8.840051712,0.9993968849599641,-148.15780589375925
8.850455552,0.9992154681441471,-148.56602020153775
8.860858368,0.9990732490598516,-148.9722127912951
8.871261184,0.9989773643699041,-149.3769582365087
8.881664,0.9989327230918226,-149.780877677871
8.89206784,0.9989416675066332,-150.18462536106304
8.902470656,0.9990039314191339,-150.58892119432036
8.912873472,0.9991163908552597,-150.9944099024222
8.923277312,0.9992735623776784,-151.40171695399067
8.933680128,0.9994676769308845,-151.8113649598587
8.944082944,0.9996889919021741,-152.2238112488196
8.954486784,0.9999265965899795,-152.63926210427923
8.9648896,1.0001686379450658,-153.05791131440438
8.975292416,1.0004030121529979,-153.47970138166363
8.985695232,1.0006179393034236,-153.90447869849802
8.996099072,1.0008027665550634,-154.33192080128578
9.006501888,1.0009481559520927,-154.76160108005826
9.016904704,1.001046827346685,-155.192925023068
9.027308544,1.0010937310988177,-155.6253035847929
9.03771136,1.0010864730854456,-156.05803368494736
9.048114176,1.0010252577376841,-156.49041704107412
9.058518016,1.0009131023567313,-156.9218034733146
9.068920832,1.0007553613438998,-157.35153868413911
9.079323648,1.0005599499478184,-157.77912602281765
9.089726464,1.0003364460847743,-158.20411668938968
9.100130304,1.0000958845249537,-158.6261793648273
9.11053312,0.9998503014175155,-159.04523531621538
9.120935936,0.9996121318604749,-159.46126319343037
9.131339776,0.9993929759766227,-159.87439913623774
9.141742592,0.999203995580003,-160.28501396678564
9.152145408,0.9990547397013557,-160.69348696316962
9.162549248,0.9989526503567407,-161.1004308738765
9.172952064,0.9989030721175921,-161.5064612905928
9.18335488,0.9989085290508282,-161.91228450799693
9.193757696,0.9989687808059604,-162.3186134942923
9.204161536,0.9990810511560207,-162.72610943982465
9.214564352,0.9992398198420859,-163.13546780936696
9.224967168,0.9994371154029236,-163.5471666912786
9.235371008,0.9996632174804895,-163.961701190951
9.245773824,0.9999069131427655,-164.3793341823817
9.25617664,1.000155987835966,-164.8002128063079
9.26658048,1.0003980564301709,-165.2243479065798
9.276983296,1.0006210642759914,-165.65159208516556
9.287386112,1.0008137852307462,-166.08158407969495
9.297788928,1.0009665011612079,-166.51388599975803
9.308192768,1.0010716757112526,-166.94793466727825
9.318595584,1.0011238242385712,-167.3831087399863
9.3289984,1.0011203159114,-167.81870893241359
9.33940224,1.0010612419076037,-168.25400512271884
9.349805056,1.0009494042947746,-168.68829586380176
9.360207872,1.000790139262982,-169.12096034694355
9.370610688,1.0005913950972805,-169.55140825017202
9.381014528,1.0003629831929852,-169.97922699879825
9.391417344,1.000116185247947,-170.4040661566039
9.40182016,0.9998633185667456,-170.8257846900443
9.412224,0.999616987027683,-171.24435486194145
9.422626816,0.9993894889390817,-171.65996003963429
9.433029632,0.9991922871092708,-172.0728999759512
9.443433472,0.9990352130099397,-172.4836329598361
9.453836288,0.9989263977722088,-172.89272020697527
9.464239104,0.9988711647499093,-173.30081651252465
9.47464192,0.998872558053665,-173.70865066785692
9.48504576,0.9989306162317497,-174.1169271418799
9.495448576,0.9990424853999406,-174.526364238056
9.505851392,0.9992027908368353,-174.9376602312163
9.516255232,0.9994033932334546,-175.35132614692347
9.526658048,0.9996346649101137,-175.76786356712512
9.537060864,0.9998849242216241,-176.18758195580713
9.547464704,1.0001415674381269,-176.6106601654754
9.55786752,1.0003921652699075,-177.03709367243917
9.568270336,1.0006239176565055,-177.46669820668478
9.578673152,1.0008252539769844,-177.8992102184482
9.589076992,1.0009860902905423,-178.33412519171992
9.599479808,1.001098413912976,-178.7709074557761
9.609882624,1.001156637740345,-179.20887037790578
9.620286464,1.0011572965181883,-179.6473152997733
9.63068928,1.001100701252103,179.9144951979343
9.641092096,1.0009893710817663,179.47727942288873
9.651495936,1.0008285315092929,179.04171705669782
9.661898752,1.0006264124030946,178.60838581608104
9.672301568,1.0003927211546126,178.17775206976302
9.682704384,1.0001392001816451,177.75017695786886
9.693108224,0.9998783528950658,177.3258226120735
9.70351104,0.9996231779182935,176.90470196567784
9.713913856,0.9993865097172453,176.48666698242207
9.724317696,0.9991801624336266,176.07141550159724
9.734720512,0.9990145491590003,175.65849226092152
9.745123328,0.9988980662752105,175.24732504307326
9.755527168,0.9988364997393802,174.83722708901695
9.765929984,0.9988333991903973,174.4274963787333
9.7763328,0.998888779659089,174.01734043251568
9.786735616,0.9990000041329318,173.60606149262773
9.797139456,0.9991618263125471,173.19294539894528
9.807542272,0.9993660230712549,172.77740107400805
9.817945088,0.9996027550460092,172.35893139693107
9.828348928,0.999860003601342,171.93721147717937
9.838751744,1.000125067610461,171.5120443958239
9.84915456,1.0003846757196497,171.0833966253176
9.859557376,1.000626046886415,170.65145028381036
9.869961216,1.0008369364641791,170.21649802785552
9.880364032,1.0010069170788127,169.7790298446851
9.890766848,1.0011272350321503,169.3395710512726
9.901170688,1.0011919018333761,168.89883617687684
9.911573504,1.0011975324799007,168.4575550142247
9.92197632,1.0011437712452211,168.0164583741989
9.93238016,1.0010330441367257,167.5763489314115
9.942782976,1.0008708907131052,167.13787521423947
9.953185792,1.000665089391698,166.70167315161498
9.963588608,1.0004258431179596,166.26821663121888
9.973992448,1.0001649780033846,165.83790564763632
9.984395264,0.9998954250586352,165.41091206137438
9.99479808,0.9996306542384708,164.98728360399508
10.00520192,0.9993839669441446,164.56687874260248
10.015604736,0.9991675186199588,164.1493512472035
10.026007552,0.998992453609768,163.7343181086196
10.036411392,0.9988674690027699,163.3211605691229
10.046814208,0.998799075548512,162.90917271118965
10.057217024,0.9987907567001234,162.49761768348654
10.06761984,0.998842903835206,162.08571448202804
10.07802368,0.9989534135968773,161.67269645593012
10.088426496,0.9991166688409068,161.25784964092253
10.098829312,0.9993246736563469,160.84052132869843
10.109233152,0.9995671738941813,160.42023224949662
10.119635968,0.9998321029887327,159.99661372353063
10.130038784,1.0001061528529884,159.56943144285893
10.140442624,1.000375903489155,159.13866707928497
10.15084544,1.0006277548751976,158.70445842568907
