freq,mag,phase
6.0,0.9999931809550759,-118.49603209899644
6.008,0.9999932762317724,-118.8564244027234
6.016,0.9999933615827704,-119.21620465644085
6.024,0.9999934373151571,-119.57537553724329
6.032,0.9999935037308433,-119.93393973719759
6.04,0.9999935611266095,-120.29189996301285
6.048,0.9999936097941541,-120.64925893571434
6.056,0.9999936500201376,-121.00601939032155
6.064,0.999993682086233,-121.36218407553054
6.072,0.9999937062691705,-121.71775575340021
6.08,0.9999937228407869,-122.07273719904288
6.088,0.9999937320680725,-122.42713120031888
6.096,0.9999937342132161,-122.7809405575351
6.104,0.9999937295336572,-123.13416808314783
6.112,0.9999937182821289,-123.48681660146954
6.12,0.9999937007067098,-123.83888894837966
6.128,0.9999936770508673,-124.19038797103926
6.136,0.9999936475535098,-124.54131652761014
6.144,0.9999936124490295,-124.89167748697726
6.152,0.9999935719673548,-125.24147372847571
6.16,0.9999935263339935,-125.59070814162129
6.168,0.9999934757700839,-125.93938362584493
6.176,0.999993420492439,-126.28750309023125
6.184,0.999993360713597,-126.63506945326075
6.192,0.999993296641866,-126.98208564255603
6.2,0.9999932284813714,-127.32855459463164
6.208,0.999993156432106,-127.67447925464772
6.216,0.9999930806899713,-128.0198625761677
6.224,0.9999930014468309,-128.36470752091915
6.232,0.9999929188905516,-128.70901705855908
6.24,0.9999928332050524,-129.05279416644225
6.248,0.999992744570351,-129.39604182939357
6.256,0.9999926531626094,-129.73876303948384
6.264,0.9999925591541796,-130.0809607958095
6.272,0.9999924627136506,-130.42263810427528
6.28,0.9999923640058924,-130.7637979773812
6.288,0.9999922631921027,-131.1044434340125
6.296,0.999992160429852,-131.44457749923328
6.304,0.9999920558731276,-131.78420320408347
6.312,0.9999919496723801,-132.12332358537964
6.32,0.9999918419745661,-132.46194168551852
6.328,0.999991732923194,-132.80006055228466
6.336,0.9999916226583677,-133.1376832386608
6.344,0.9999915113168294,-133.4748128026419
6.352,0.9999913990320057,-133.81145230705246
6.36,0.9999912859340487,-134.14760481936693
6.368,0.9999911721498786,-134.48327341153345
6.376,0.9999910578032306,-134.81846115980076
6.384,0.9999909430146922,-135.15317114454842
6.392,0.9999908279017492,-135.48740645011986
6.4,0.9999907125788268,-135.82117016465878
6.408,0.9999905971573295,-136.15446537994865
6.416,0.9999904817456867,-136.48729519125516
6.424,0.9999903664493895,-136.81966269717148
6.432,0.999990251371035,-137.15157099946705
6.44,0.999990136610364,-137.4830232029389
6.448,0.9999900222643037,-137.8140224152659
6.456,0.9999899084270067,-138.14457174686615
6.464,0.9999897951898912,-138.47467431075694
6.472,0.9999896826416791,-138.8043332224179
6.48,0.9999895708684374,-139.13355159965678
6.4879999999999995,0.9999894599536148,-139.46233256247768
6.496,0.9999893499780812,-139.79067923295278
6.504,0.9999892410201667,-140.11859473509585
6.5120000000000005,0.9999891331556983,-140.44608219473955
6.52,0.9999890264580368,-140.77314473941414
6.5280000000000005,0.9999889209981168,-141.09978549822998
6.536,0.9999888168444804,-141.4260076017618
6.5440000000000005,0.9999887140633166,-141.75181418193603
6.552,0.9999886127184964,-142.07720837192022
6.5600000000000005,0.9999885128716073,-142.40219330601573
6.568,0.9999884145819923,-142.72677211955178
6.5760000000000005,0.9999883179067826,-143.05094794878315
6.584,0.9999882229009331,-143.37472393078926
6.592,0.9999881296172588,-143.6981032033766
6.6,0.9999880381064667,-144.0210889049826
6.608,0.9999879484171917,-144.34368417458256
6.616,0.9999878605960296,-144.66589215159854
6.624,0.9999877746875709,-144.9877159758105
6.632,0.9999876907344337,-145.30915878726998
6.64,0.9999876087772962,-145.63022372621563
6.648,0.9999875288549296,-145.95091393299134
6.656,0.9999874510042308,-146.27123254796612
6.664,0.9999873752602527,-146.59118271145647
6.672,0.999987301656238,-146.9107675636507
6.68,0.9999872302236474,-147.2299902445353
6.688,0.9999871609921933,-147.54885389382343
6.696,0.9999870939898693,-147.8673616508857
6.704,0.9999870292429798,-148.1855166546823
6.712,0.999986966776171,-148.50332204369784
6.72,0.9999869066124604,-148.82078095587775
6.728,0.9999868487732645,-149.13789652856659
6.736,0.999986793278431,-149.45467189844845
6.744,0.9999867401462645,-149.77111020148914
6.752,0.9999866893935566,-150.08721457288033
6.76,0.9999866410356133,-150.40298814698508
6.768,0.9999865950862822,-150.718434057286
6.776,0.9999865515579822,-151.03355543633432
6.784,0.9999865104617283,-151.3483554157013
6.792,0.9999864718071598,-151.66283712593105
6.8,0.9999864356025664,-151.9770036964953
6.808,0.9999864018549139,-152.2908582557497
6.816,0.999986370569873,-152.60440393089172
6.824,0.9999863417518404,-152.91764384792032
6.832,0.9999863154039678,-153.2305811315972
6.84,0.9999862915281865,-153.54321890540967
6.848,0.9999862701252309,-153.8555602915349
6.856,0.9999862511946638,-154.167608410806
6.864,0.9999862347349007,-154.47936638267933
6.872,0.9999862207432343,-154.79083732520357
6.88,0.9999862092158576,-155.10202435499005
6.888,0.9999862001478858,-155.4129305871847
6.896,0.9999861935333834,-155.72355913544123
6.904,0.9999861893653823,-156.0339131118961
6.912,0.9999861876359087,-156.34399562714435
6.92,0.9999861883360024,-156.65380979021722
6.928,0.9999861914557397,-156.96335870856097
6.936,0.9999861969842564,-157.272645488017
6.944,0.9999862049097675,-157.5816732328033
6.952,0.9999862152195895,-157.89044504549722
6.96,0.9999862279001612,-158.1989640270195
6.968,0.9999862429370643,-158.50723327661947
6.976,0.9999862603150439,-158.81525589186154
6.984,0.9999862800180298,-159.1230349686129
6.992,0.9999863020291538,-159.4305736010324
7.0,0.9999863263307719,-159.73787488156057
7.008,0.999986352904484,-160.0449419009109
7.016,0.9999863817311504,-160.35177774806198
7.024,0.9999864127909128,-160.6583855102511
7.032,0.9999864460632152,-160.9647682729687
7.04,0.9999864815268161,-161.27092911995402
7.048,0.9999865191598138,-161.57687113319167
7.056,0.9999865589396594,-161.88259739290947
7.064,0.9999866008431769,-162.18811097757697
7.072,0.9999866448465814,-162.49341496390545
7.08,0.9999866909254941,-162.79851242684833
7.088,0.9999867390549615,-163.1034064396031
7.096,0.9999867892094711,-163.4081000736138
7.104,0.9999868413629687,-163.71259639857468
7.112,0.9999868954888741,-164.01689848243458
7.12,0.9999869515600995,-164.3210093914025
7.128,0.9999870095490624,-164.62493218995368
7.136,0.999987069427703,-164.92866994083693
7.144,0.9999871311675006,-165.2322257050825
7.152,0.9999871947394875,-165.53560254201105
7.16,0.9999872601142649,-165.8388035092431
7.168,0.9999873272620183,-166.14183166270985
7.176,0.9999873961525313,-166.44469005666411
7.184,0.9999874667552002,-166.74738174369253
7.192,0.9999875390390504,-167.0499097747284
7.2,0.9999876129727475,-167.35227719906516
7.208,0.9999876885246135,-167.65448706437067
7.216,0.9999877656626405,-167.95654241670226
7.224,0.9999878443545025,-168.25844630052245
7.232,0.9999879245675709,-168.56020175871535
7.24,0.9999880062689276,-168.86181183260365
7.248,0.9999880894253755,-169.1632795619665
7.256,0.9999881740034552,-169.46460798505777
7.264,0.9999882599694547,-169.76580013862517
7.272,0.9999883472894239,-170.06685905792975
7.28,0.9999884359291847,-170.3677877767663
7.288,0.9999885258543462,-170.66858932748409
7.296,0.999988617030313,-170.96926674100834
7.304,0.9999887094223017,-171.26982304686217
7.312,0.9999888029953474,-171.57026127318915
7.32,0.99998889771432,-171.87058444677635
7.328,0.9999889935439312,-172.17079559307803
7.336,0.9999890904487491,-172.47089773623966
7.344,0.9999891883932076,-172.7708938991227
7.352,0.9999892873416182,-173.07078710332948
7.36,0.9999893872581787,-173.370580369229
7.368,0.9999894881069853,-173.6702767159829
7.376,0.9999895898520453,-173.96987916157207
7.384,0.9999896924572815,-174.26939072282337
7.392,0.999989795886547,-174.56881441543737
7.4,0.9999899001036352,-174.86815325401574
7.4079999999999995,0.9999900050722866,-175.1674102520899
7.416,0.9999901107562008,-175.46658842214933
7.4239999999999995,0.9999902171190449,-175.7656907756705
7.432,0.9999903241244639,-176.06472032314656
7.4399999999999995,0.9999904317360893,-176.3636800741167
7.448,0.9999905399175482,-176.66257303719655
7.4559999999999995,0.9999906486324722,-176.96140222010817
7.464,0.9999907578445074,-177.26017062971127
7.4719999999999995,0.999990867517321,-177.5588812720338
7.48,0.9999909776146114,-177.8575371523037
7.4879999999999995,0.999991088100117,-178.1561412749801
7.496,0.9999911989376232,-178.45469664378578
7.504,0.9999913100909712,-178.7532062617388
7.5120000000000005,0.9999914215240673,-179.0516731311855
7.52,0.999991533200888,-179.3501002538327
7.5280000000000005,0.9999916450854909,-179.64849063078108
7.536,0.9999917571420205,-179.94684726255795
7.5440000000000005,0.9999918693347168,179.75482685084887
7.552,0.9999919816279221,179.45652870995806
7.5600000000000005,0.9999920939860889,179.15825531576036
7.568,0.9999922063737873,178.86000366968517
7.5760000000000005,0.9999923187557108,178.5617707735659
7.584,0.9999924310966857,178.2635536296062
7.5920000000000005,0.9999925433616756,177.9653492403447
7.6,0.9999926555157904,177.66715460862127
7.6080000000000005,0.999992767524291,177.36896673754157
7.616,0.9999928793525976,177.0707826304426
7.6240000000000006,0.999992990966295,176.77259929085733
7.632,0.9999931023311402,176.47441372248005
7.640000000000001,0.9999932134130676,176.1762229291307
7.648,0.9999933241781959,175.87802391472002
7.656000000000001,0.9999934345928341,175.57981368321379
7.664,0.9999935446234872,175.28158923859783
7.672,0.9999936542368624,174.98334758484214
7.68,0.9999937633998753,174.68508572586558
7.688,0.9999938720796552,174.3868006655004
7.696,0.9999939802435505,174.08848940745645
7.704,0.9999940878591348,173.79014895528582
7.712,0.9999941948942118,173.49177631234704
7.72,0.9999943013168223,173.19336848176962
7.728,0.9999944070952465,172.89492246641856
7.736,0.9999945121980126,172.59643526885853
7.744,0.9999946165938985,172.29790389131867
7.752,0.999994720251941,171.99932533565698
7.76,0.9999948231414367,171.70069660332493
7.768,0.9999949252319489,171.4020146953321
7.776,0.9999950264933124,171.10327661221106
7.784,0.9999951268956376,170.80447935398203
7.792,0.9999952264093159,170.50561992011785
7.8,0.9999953250050239,170.20669530950917
7.808,0.9999954226537271,169.9077025204293
7.816,0.9999955193266858,169.60863855049973
7.824,0.9999956149954585,169.30950039665552
7.832,0.999995709631906,169.0102850551108
7.84,0.9999958032081966,168.71098952132448
7.848,0.9999958956968089,168.41161078996615
7.856,0.999995987070537,168.1121458548822
7.864,0.9999960773024943,167.81259170906208
7.872,0.9999961663661161,167.5129453446047
7.88,0.9999962542351656,167.21320375268513
7.888,0.9999963408837351,166.91336392352147
7.896,0.9999964262862533,166.61342284634205
7.904,0.9999965104174849,166.31337750935265
7.912,0.9999965932525371,166.01322489970434
7.92,0.9999966747668616,165.71296200346112
7.928,0.9999967549362591,165.41258580556814
7.936,0.9999968337368811,165.11209328982036
7.944,0.9999969111452356,164.81148143883098
7.952,0.9999969871381882,164.51074723400063
7.96,0.9999970616929664,164.20988765548677
7.968,0.9999971347871619,163.90889968217334
7.976,0.9999972063987352,163.60778029164072
7.984,0.999997276506017,163.30652646013633
7.992,0.9999973450877123,163.00513516254512
8.0,0.9999974121229025,162.70360337236087
8.008,0.9999974775910486,162.40192806165774
8.016,0.9999975414719942,162.1001062010619
8.024000000000001,0.9999976037459681,161.79813475972426
8.032,0.9999976643935867,161.49601070529297
8.04,0.9999977233958568,161.19373100388657
8.048,0.9999977807341788,160.89129262006767
8.056000000000001,0.9999978363903478,160.58869251681713
8.064,0.9999978903465574,160.28592765550863
8.072,0.9999979425854016,159.98299499588342
8.08,0.9999979930898772,159.67989149602604
8.088000000000001,0.999998041843386,159.37661411234052
8.096,0.9999980888297376,159.07315979952682
8.104,0.9999981340331502,158.7695255105577
8.112,0.9999981774382545,158.46570819665666
8.120000000000001,0.9999982190300949,158.16170480727604
8.128,0.9999982587941314,157.85751229007585
8.136,0.9999982967162426,157.55312759090293
8.144,0.9999983327827262,157.24854765377108
8.152000000000001,0.9999983669803019,156.94376942084168
8.16,0.9999983992961131,156.63878983240483
8.168,0.9999984297177285,156.33360582686092
8.176,0.9999984582331444,156.0282143407035
8.184000000000001,0.9999984848307855,155.72261230850233
8.192,0.9999985094995073,155.41679666288718
8.2,0.9999985322285977,155.11076433453223
8.208,0.9999985530077782,154.80451225214142
8.216000000000001,0.9999985718272056,154.49803734243463
8.224,0.9999985886774738,154.1913365301341
8.232,0.9999986035496147,153.884406737952
8.24,0.9999986164350998,153.57724488657848
8.248000000000001,0.9999986273258418,153.2698478946711
8.256,0.9999986362141954,152.96221267884434
8.264,0.9999986430929592,152.65433615366024
8.272,0.9999986479553765,152.34621523161988
8.280000000000001,0.9999986507951364,152.0378468231558
8.288,0.9999986516063749,151.72922783662523
8.296,0.9999986503836766,151.4203551783037
8.304,0.9999986471220752,151.11122575238045
8.312,0.9999986418170538,150.80183646095432
8.32,0.9999986344645476,150.49218420402994
8.328,0.9999986250609436,150.18226587951628
8.336,0.999998613603081,149.87207838322465
8.344,0.9999986000882536,149.56161860886877
8.352,0.9999985845142086,149.25088344806525
8.36,0.9999985668791495,148.93986979033548
8.368,0.9999985471817345,148.62857452310794
8.376,0.9999985254210797,148.3169945317225
8.384,0.9999985015967565,148.00512669943467
8.392,0.9999984757087956,147.6929679074221
8.4,0.9999984477576846,147.38051503479102
8.408,0.9999984177443706,147.06776495858492
8.416,0.9999983856702584,146.75471455379326
8.424,0.9999983515372138,146.4413606933625
8.432,0.9999983153475612,146.12770024820722
8.44,0.9999982771040851,145.81373008722326
8.448,0.9999982368100306,145.4994470773015
8.456,0.9999981944691028,145.18484808334344
8.464,0.9999981500854672,144.8699299682773
8.472,0.9999981036637503,144.55468959307635
8.48,0.9999980552090388,144.23912381677738
8.488,0.9999980047268809,143.92322949650188
8.496,0.9999979522232847,143.60700348747687
8.504,0.999997897704719,143.29044264305907
8.512,0.9999978411781135,142.97354381475833
8.52,0.9999977826508573,142.6563038522645
8.528,0.9999977221308002,142.3387196034739
8.536,0.9999976596262513,142.0207879145188
8.544,0.9999975951459796,141.70250562979706
8.552,0.9999975286992129,141.38386959200434
8.56,0.9999974602956372,141.06487664216695
8.568,0.9999973899453978,140.74552361967702
8.576,0.9999973176590959,140.4258073623282
8.584,0.9999972434477922,140.10572470635432
8.592,0.9999971673230013,139.7852724864682
8.6,0.9999970892966954,139.4644475359034
8.608,0.9999970093813015,139.1432466864563
8.616,0.9999969275897,138.82166676853137
8.624,0.9999968439352258,138.49970461118653
8.632,0.9999967584316666,138.1773570421816
8.64,0.9999966710932607,137.85462088802743
8.648,0.9999965819346982,137.53149297403786
8.656,0.9999964909711188,137.20797012438223
8.664,0.9999963982181105,136.884049162141
8.672,0.9999963036917089,136.55972690936198
8.68,0.9999962074083959,136.23500018711965
8.688,0.9999961093850993,135.90986581557524
8.696,0.9999960096391898,135.5843206140397
8.704,0.9999959081884809,135.25836140103766
8.712,0.999995805051227,134.9319849943744
8.72,0.9999957002461226,134.60518821120385
8.728,0.9999955937922995,134.2779678680994
8.736,0.9999954857093268,133.95032078112618
8.744,0.9999953760172081,133.6222437659158
8.752,0.9999952647363799,133.29373363774286
8.76,0.9999951518877105,132.96478721160406
8.768,0.9999950374924977,132.6354013022989
8.776,0.9999949215724667,132.30557272451315
8.784,0.9999948041497694,131.97529829290394
8.792,0.9999946852469804,131.64457482218774
8.8,0.9999945648870965,131.3133991272298
8.808,0.9999944430935339,130.98176802313694
8.815999999999999,0.9999943198901269,130.6496783253516
8.824,0.9999941953011238,130.3171268497489
8.832,0.999994069351187,129.984110412736
8.84,0.9999939420653878,129.65062583135375
8.847999999999999,0.999993813469207,129.3166699233807
8.856,0.9999936835885299,128.98223950743963
8.864,0.999993552449645,128.64733140310705
8.872,0.999993420079241,128.3119424310246
8.879999999999999,0.9999932865044039,127.97606941301297
8.888,0.9999931517526145,127.63970917218892
8.896,0.9999930158517459,127.30285853308483
8.904,0.999992878830059,126.9655143217706
8.911999999999999,0.9999927407162011,126.62767336597815
8.92,0.999992601539203,126.28933249522896
8.928,0.9999924613284736,125.95048854096457
8.936,0.9999923201137993,125.61113833667903
8.943999999999999,0.9999921779253391,125.27127871805483
8.952,0.999992034793622,124.93090652310131
8.96,0.9999918907495422,124.59001859229636
8.968,0.9999917458243578,124.24861176873048
8.975999999999999,0.9999916000496853,123.90668289825389
8.984,0.9999914534574968,123.56422882962677
8.992,0.9999913060801152,123.22124641467256
9.0,0.9999911579502119,122.87773250843398
9.008,0.9999910091008014,122.53368396933197
9.016,0.999990859565238,122.18909765932814
9.024000000000001,0.999990709377212,121.84397044409022
9.032,0.9999905585707444,121.49829919316032
9.04,0.999990407180184,121.15208078012655
9.048,0.9999902552402012,120.80531208279778
9.056000000000001,0.9999901027857857,120.45798998338189
9.064,0.9999899498522403,120.11011136866694
9.072,0.9999897964751772,119.76167313020548
9.08,0.999989642690512,119.41267216450252
9.088000000000001,0.9999894885344616,119.06310537320701
9.096,0.9999893340435357,118.71296966330601
9.104,0.9999891792545341,118.36226194732264
9.112,0.9999890242045417,118.01097914351756
9.120000000000001,0.9999888689309221,117.65911817609384
9.128,0.999988713471313,117.3066759754052
9.136,0.9999885578636207,116.95364947816758
9.144,0.9999884021460153,116.60003562767459
9.152000000000001,0.9999882463569233,116.24583137401669
9.16,0.9999880905350242,115.89103367430332
9.168,0.9999879347192433,115.535639492889
9.176,0.9999877789487464,115.17964580160312
9.184000000000001,0.9999876232629326,114.82304957998353
9.192,0.9999874677014309,114.4658478155135
9.2,0.9999873123040913,114.10803750386239
9.208,0.9999871571109796,113.74961564913036
9.216000000000001,0.9999870021623722,113.39057926409684
9.224,0.9999868474987467,113.0309253704726
9.232,0.9999866931607789,112.67065099915544
9.24,0.9999865391893329,112.30975319049027
9.248000000000001,0.9999863856254565,111.94822899453284
9.256,0.9999862325103738,111.5860754713172
9.264,0.9999860798854769,111.22328969112702
9.272,0.999985927792321,110.85986873477111
9.280000000000001,0.999985776272615,110.49580969386298
9.288,0.9999856253682159,110.131109671104
9.296,0.9999854751211205,109.76576578057062
9.304,0.999985325573458,109.39977514800576
9.312000000000001,0.9999851767674822,109.03313491111449
9.32,0.9999850287455639,108.66584221986325
9.328,0.9999848815501837,108.29789423678307
9.336,0.9999847352239223,107.92928813727752
9.344,0.9999845898094541,107.56002110993441
9.352,0.999984445349539,107.19009035684117
9.36,0.9999843018870118,106.81949309390534
9.368,0.9999841594647773,106.44822655117794
9.376,0.9999840181257982,106.07628797318242
9.384,0.9999838779130893,105.70367461924633
9.392,0.9999837388697073,105.33038376383843
9.4,0.9999836010387414,104.95641269690887
9.408,0.9999834644633065,104.58175872423472
9.416,0.999983329186532,104.20641916776833
9.424,0.9999831952515528,103.8303913659914
9.432,0.9999830627015016,103.4536726742718
9.44,0.999982931579497,103.0762604652259
9.448,0.9999828019286371,102.69815212908388
9.456,0.999982673791986,102.31934507406052
9.464,0.9999825472125674,101.9398367267289
9.472,0.9999824222333528,101.55962453239965
9.48,0.9999822988972522,101.178705955503
9.488,0.9999821772471043,100.79707847997653
9.496,0.999982057325665,100.41473960965551
9.504,0.9999819391755986,100.03168686866917
9.512,0.9999818228394668,99.64791780183934
9.52,0.9999817083597178,99.26342997508506
9.528,0.9999815957786752,98.87822097582968
