freq,mag,phase
6.0,0.9999697822680972,65.05076359368749
6.008,0.9999704279563919,64.87642095984674
6.016,0.9999710659081935,64.7020013406885
6.024,0.9999716961614723,64.52750473238005
6.032,0.9999723187543054,64.35293113137998
6.04,0.9999729337248744,64.17828053443975
6.048,0.9999735411114634,64.00355293860527
6.056,0.9999741409524602,63.828748341218706
6.064,0.9999747332863532,63.653866739919984
6.072,0.9999753181517312,63.47890813264844
6.08,0.9999758955872831,63.30387251764455
6.088,0.9999764656317954,63.12875989345143
6.096,0.999977028324152,62.95357025891661
6.104,0.9999775837033329,62.7783036131936
6.112,0.9999781318084129,62.60295995574352
6.12,0.9999786726785611,62.42753928633681
6.128,0.9999792063530397,62.25204160505487
6.136,0.9999797328712019,62.07646691229159
6.144,0.9999802522724921,61.90081520875512
6.152,0.9999807645964439,61.72508649546947
6.16,0.9999812698826794,61.54928077377615
6.168,0.9999817681709086,61.37339804533584
6.176,0.9999822595009266,61.19743831213
6.184,0.999982743912614,61.021401576462544
6.192,0.9999832214459348,60.845287840961454
6.2,0.9999836921409367,60.669097108580495
6.208,0.9999841560377477,60.492829382600775
6.216,0.999984613176577,60.31648466663245
6.224,0.9999850635977123,60.14006296461635
6.232,0.9999855073415198,59.96356428082563
6.24,0.9999859444484421,59.78698861986746
6.248,0.9999863749589977,59.610335986684554
6.256,0.9999867989137791,59.433606386556946
6.264,0.9999872163534518,59.256799825103556
6.272,0.9999876273187541,59.07991630828389
6.28,0.999988031850494,58.90295584239962
6.288,0.9999884299895497,58.72591843409628
6.296,0.9999888217768668,58.54880409036492
6.304,0.9999892072534589,58.371612818543696
6.312,0.9999895864604043,58.194344626319584
6.32,0.9999899594388464,58.016999521729915
6.328,0.9999903262299915,57.83957751316417
6.336,0.999990686875108,57.6620786093655
6.344,0.9999910414155246,57.4845028194324
6.352,0.9999913898926294,57.30685015282037
6.36,0.9999917323478689,57.1291206193435
6.368,0.9999920688227459,56.9513142291762
6.376,0.9999923993588183,56.77343099285476
6.384,0.9999927239976992,56.59547092127902
6.392,0.9999930427810532,56.417434025714
6.4,0.999993355750597,56.2393203177915
6.408,0.9999936629480974,56.061129809511826
6.416,0.9999939644153698,55.882862513245264
6.424,0.9999942601942765,55.7045184417339
6.432,0.999994550326727,55.52609760809313
6.44,0.999994834854674,55.34760002581326
6.448,0.9999951138201149,55.169025708761225
6.456,0.9999953872650876,54.990374671182224
6.464,0.9999956552316716,54.81164692770116
6.472,0.9999959177619852,54.63284249332458
6.48,0.999996174898184,54.45396138344191
6.4879999999999995,0.9999964266824605,54.275003613827415
6.496,0.9999966731570415,54.095969200641555
6.504,0.9999969143641879,53.91685816043287
6.5120000000000005,0.9999971503461921,53.73767051013925
6.52,0.9999973811453773,53.55840626708993
6.5280000000000005,0.9999976068040957,53.379065449006696
6.536,0.9999978273647273,53.19964807400588
6.5440000000000005,0.9999980428696783,53.02015416059962
6.552,0.9999982533613802,52.84058372769777
6.5600000000000005,0.9999984588822867,52.660936794609235
6.568,0.9999986594748741,52.48121338104373
6.5760000000000005,0.9999988551816394,52.301413507113296
6.584,0.9999990460450973,52.12153719333401
6.592,0.9999992321077807,51.94158446062735
6.6,0.9999994134122384,51.761555330322025
6.608,0.9999995900010328,51.58144982415542
6.616,0.9999997619167402,51.40126796427521
6.624,0.9999999292019467,51.22100977324092
6.632,1.0,51.04067527402554
6.64,0.9999999999999999,50.860264490017094
6.648,1.0,50.679777445020136
6.656,1.0,50.49921416325743
6.664,1.0,50.31857466937142
6.672,1.0,50.13785898842584
6.68,1.0,49.95706714590726
6.688,0.9999999999999999,49.776199167726624
6.696,0.9999999999999999,49.5952550802208
6.704,0.9999999999999999,49.41423491015419
6.712,1.0,49.233138684720195
6.72,1.0,49.05196643154277
6.728,1.0,48.870718178677976
6.736,1.0,48.6893939546155
6.744,0.9999999999999999,48.50799378828026
6.752,0.9999999999999999,48.326517709033766
6.76,0.9999999999999999,48.1449657466758
6.768,0.9999999999999999,47.96333793144586
6.776,1.0,47.781634294024656
6.784,0.9999999999999999,47.59985486553568
6.792,1.0,47.41799967754666
6.8,0.9999999999999999,47.23606876207106
6.808,0.9999999999999999,47.054062151569624
6.816,0.9999999999999999,46.87197987895183
6.824,1.0,46.689821977577346
6.832,1.0,46.507588481257585
6.84,1.0,46.32527942425714
6.848,1.0,46.142894841295245
6.856,1.0,45.960434767547305
6.864,1.0000000000000002,45.77789923864627
6.872,1.0,45.59528829068416
6.88,1.0,45.41260196021351
6.888,0.9999999999999999,45.22984028424879
6.896,0.9999999999999999,45.047003300267875
6.904,1.0,44.8640910462135
6.912,1.0,44.68110356049462
6.92,0.9999999999999999,44.498040881987926
6.928,1.0,44.31490305003921
6.936,1.0,44.131690104464816
6.944,0.9999999999999999,43.948402085553056
6.952,0.9999999999999999,43.7650390340655
6.96,0.9999999999999999,43.581600991238616
6.968,1.0,43.398087998784916
6.976,0.9999999999999999,43.21450009889452
6.984,0.9999999999999999,43.030837334236395
6.992,1.0,42.84709974795989
7.0,1.0,42.663287383695966
7.008,1.0,42.47940028555867
7.016,1.0,42.29543849814639
7.024,1.0,42.111402066543285
7.032,1.0,41.92729103632063
7.04,1.0,41.74310545353812
7.048,0.9999999999999999,41.55884536474522
7.056,0.9999999999999999,41.37451081698247
7.064,0.9999999999999999,41.19010185778286
7.072,0.9999999999999999,41.00561853517308
7.08,1.0000000000000002,40.82106089767486
7.088,1.0,40.63642899430631
7.096,1.0,40.451722874583105
7.104,1.0,40.26694258851988
7.112,1.0,40.08208818663147
7.12,0.9999999999999999,39.89715971993418
7.128,0.9999999999999999,39.712157239947
7.136,1.0,39.52708079869294
7.144,1.0,39.3419304487003
7.152,1.0,39.156706243003775
7.16,0.9999999999999999,38.97140823514589
7.168,0.9999999999999999,38.786036479178
7.176,1.0,38.60059102966175
7.184,1.0,38.41507194167006
7.192,1.0,38.22947927078849
7.2,1.0,38.0438130731164
7.208,0.9999999999999999,37.858073405268094
7.216,1.0,37.67226032437403
7.224,0.9999999999999999,37.486373888082014
7.232,1.0,37.30041415455836
7.24,1.0000000000000002,37.114381182488984
7.248,0.9999999999999999,36.92827503108063
7.256,1.0,36.74209576006197
7.264,1.0,36.55584342968478
7.272,1.0,36.36951810072496
7.28,0.9999999999999999,36.18311983448379
7.288,1.0,35.99664869278896
7.296,1.0,35.81010473799559
7.304,1.0,35.623488032987495
7.312,1.0,35.43679864117811
7.32,1.0,35.25003662651169
7.328,1.0,35.063202053464174
7.336,0.9999999999999999,34.876294987044496
7.344,1.0,34.68931549279543
7.352,1.0,34.502263636794716
7.36,1.0,34.315139485656026
7.368,0.9999999999999999,34.12794310653004
7.376,1.0,33.94067456710542
7.384,1.0000000000000002,33.7533339356098
7.392,1.0,33.56592128081079
7.4,1.0,33.37843667201695
7.4079999999999995,0.9999999999999999,33.190880179078775
7.416,1.0,33.003251872389505
7.4239999999999995,1.0,32.81555182288639
7.432,1.0,32.62778010205127
7.4399999999999995,1.0,32.43993678191178
7.448,1.0,32.25202193504203
7.4559999999999995,0.9999999999999998,32.064035634563794
7.464,1.0,31.87597795414707
7.4719999999999995,0.9999999579464658,31.6878489680113
7.48,0.9999998685924048,31.49964875092594
7.4879999999999995,0.999999778907438,31.31137737821164
7.496,0.9999996889249079,31.123034925740754
7.504,0.9999995986779675,30.934621469938524
7.5120000000000005,0.9999995081995765,30.74613708778359
7.52,0.9999994175224993,30.557581856809126
7.5280000000000005,0.9999993266793042,30.368955855103383
7.536,0.9999992357023597,30.18025916131068
7.5440000000000005,0.999999144623834,29.991491854632024
7.552,0.9999990534756916,29.802654014826118
7.5600000000000005,0.9999989622896919,29.61374572220984
7.568,0.9999988710973877,29.4247670576593
7.5760000000000005,0.9999987799301221,29.235718102610257
7.584,0.9999986888190268,29.04659893905924
7.5920000000000005,0.9999985977950205,28.857409649563852
7.6,0.9999985068888064,28.66815031724386
7.6080000000000005,0.99999841613087,28.478821025781578
7.616,0.9999983255514783,28.289421859422834
7.6240000000000006,0.9999982351806757,28.09995290297735
7.632,0.9999981450482831,27.91041424181974
7.640000000000001,0.9999980551838967,27.720805961889806
7.648,0.9999979656168841,27.531128149693526
7.656000000000001,0.9999978763763839,27.34138089230334
7.664,0.9999977874913026,27.1515642773591
7.672,0.9999976989903133,26.961678393068375
7.68,0.9999976109018525,26.771723328207255
7.688,0.9999975232541198,26.581699172120818
7.696,0.9999974360750746,26.391606014723745
7.704,0.9999973493924341,26.201443946500852
7.712,0.9999972632336722,26.01121305850762
7.72,0.9999971776260167,25.820913442370767
7.728,0.9999970925964469,25.630545190288725
7.736,0.9999970081716927,25.440108395032134
7.744,0.9999969243782316,25.24960314994441
7.752,0.9999968412422879,25.059029548942103
7.76,0.9999967587898292,24.86838768651546
7.768,0.999996677046565,24.67767765772885
7.776,0.9999965960379454,24.486899558221157
7.784,0.9999965157891583,24.296053484206286
7.792,0.9999964363251269,24.10513953247351
7.8,0.9999963576705093,23.914157800387894
7.808,0.9999962798496955,23.723108385890676
7.816,0.9999962028868057,23.531991387499655
7.824,0.9999961268056876,23.340806904309538
7.832,0.999996051629916,23.149555035992247
7.84,0.9999959773827883,22.958235882797357
7.848,0.9999959040873261,22.766849545552283
7.856,0.9999958317662699,22.575396125662696
7.864,0.9999957604420794,22.383875725112727
7.872,0.9999956901369296,22.192288446465312
7.88,0.9999956208727112,22.00063439286241
7.888,0.9999955526710269,21.80891366802528
7.896,0.9999954855531898,21.61712637625471
7.904,0.9999954195402222,21.425272622431216
7.912,0.9999953546528533,21.23335251201527
7.92,0.9999952909115166,21.041366151047498
7.928,0.99999522833635,20.849313646148858
7.936,0.9999951669471907,20.65719510452078
7.944,0.9999951067635768,20.465010633945344
7.952,0.9999950478047435,20.2727603427854
7.96,0.9999949900896211,20.080444339984695
7.968,0.9999949336368347,19.88806273506798
7.976,0.9999948784647001,19.6956156381411
7.984,0.9999948245912244,19.50310315989106
7.992,0.9999947720341026,19.310525411586127
8.0,0.9999947208107165,19.11788250507584
8.008,0.9999946709381319,18.925174552791056
8.016,0.999994622433099,18.7324016677439
8.024000000000001,0.9999945753120474,18.539563963527947
8.032,0.9999945295910881,18.346661554318075
8.04,0.9999944852860089,18.15369455487039
8.048,0.9999944424122733,17.960663080522266
8.056000000000001,0.9999944009850201,17.767567247192343
8.064,0.9999943610190598,17.5744071713804
8.072,0.9999943225288745,17.38118297016717
8.08,0.9999942855286151,17.18789476121432
8.088000000000001,0.9999942500321009,16.99454266276442
8.096,0.9999942160528159,16.80112679364075
8.104,0.9999941836039101,16.60764727324701
8.112,0.9999941526981949,16.414104221567303
8.120000000000001,0.9999941233481434,16.220497759165983
8.128,0.9999940955658879,16.026828007187436
8.136,0.9999940693632194,15.833095087355703
8.144,0.9999940447515847,15.639299121974434
8.152000000000001,0.9999940217420862,15.445440233926664
8.16,0.9999940003454793,15.25151854667445
8.168,0.999993980572171,15.057534184258607
8.176,0.9999939624322194,14.863487271298412
8.184000000000001,0.9999939459353313,14.669377932991422
8.192,0.9999939310908612,14.475206295113056
8.2,0.9999939179078101,14.280972484016168
8.208,0.9999939063948224,14.086676626630805
8.216000000000001,0.9999938965601878,13.892318850463889
8.224,0.9999938884118367,13.69789928359876
8.232,0.9999938819573405,13.503418054694686
8.24,0.9999938772039103,13.308875292986528
8.248000000000001,0.9999938741583946,13.114271128284399
8.256,0.9999938728272797,12.919605690973105
8.264,0.9999938732166866,12.724879112011617
8.272,0.9999938753323714,12.530091522932661
8.280000000000001,0.9999938791797232,12.335243055842286
8.288,0.9999938847637622,12.1403338434193
8.296,0.9999938920891408,11.945364018914608
8.304,0.9999939011601404,11.750333716150777
8.312,0.9999939119806714,11.555243069521579
8.32,0.9999939245542716,11.36009221399112
8.328,0.9999939388841047,11.164881285093571
8.336,0.9999939549729615,10.969610418932213
8.344,0.9999939728232559,10.774279752179154
8.352,0.9999939924370261,10.578889422074315
8.36,0.999994013815933,10.383439566425112
8.368,0.9999940369612588,10.187930323605466
8.376,0.9999940618739072,9.992361832555359
8.384,0.9999940885544014,9.796734232779876
8.392,0.9999941170028847,9.601047664348703
8.4,0.9999941472191185,9.405302267895141
8.408,0.9999941792024816,9.209498184615606
8.416,0.9999942129519701,9.013635556268506
8.424,0.9999942484661969,8.8177145251738
8.432,0.9999942857433907,8.621735234211837
8.44,0.999994324781395,8.425697826822839
8.448,0.9999943655776682,8.229602447005712
8.456,0.9999944081292822,8.033449239317518
8.464,0.9999944524329238,7.83723834887224
8.472,0.9999944984848922,7.640969921340221
8.48,0.9999945462810987,7.444644102946862
8.488,0.9999945958170681,7.248261040472104
8.496,0.999994647087937,7.051820881249029
8.504,0.9999947000884536,6.8553237731632715
8.512,0.9999947548129775,6.6587698646516955
8.52,0.9999948112554804,6.462159304701704
8.528,0.9999948694095441,6.265492242849839
8.536,0.9999949292683621,6.068768829181141
8.544,0.9999949908247391,5.871989214327682
8.552,0.9999950540710899,5.675153549467855
8.56,0.9999951189994412,5.478261986324915
8.568,0.9999951856014297,5.28131467716623
8.576,0.9999952538683049,5.0843117748017574
8.584,0.9999953237909254,4.887253432583268
8.592,0.9999953953597631,4.690139804402808
8.6,0.9999954685649011,4.492971044691893
8.608,0.9999955433960342,4.295747308419889
8.616,0.9999956198424704,4.098468751093193
8.624,0.9999956978931295,3.9011355287536023
8.632,0.9999957775365458,3.7037477979774462
8.64,0.9999958587608666,3.50630571587389
8.648,0.9999959415538536,3.3088094400840498
8.656,0.9999960259028842,3.1112591287793046
8.664,0.9999961117949512,2.91365494066028
8.672,0.9999961992166634,2.715997034955192
8.68,0.9999962881542475,2.518285571418819
8.688,0.9999963785935476,2.3205207103307326
8.696,0.9999964705200278,2.1227026124942916
8.704,0.9999965639187718,1.9248314392347916
8.712,0.9999966587744836,1.7269073523984506
8.72,0.9999967550714906,1.528930514350559
8.728,0.9999968527937425,1.3309010879743564
8.736,0.9999969519248145,1.1328192366691725
8.744,0.9999970524479069,0.9346851243492444
8.752,0.9999971543458475,0.7364989154419184
8.76,0.9999972576010924,0.5382607748863097
8.768,0.9999973621957284,0.3399708681315194
8.776,0.9999974681114738,0.14162936113528538
8.784,0.9999975753296798,-0.05676357963791507
8.792,0.999997683831333,-0.2552077872181787
8.8,0.9999977935970568,-0.4537030941321419
8.808,0.9999979046071137,-0.652249332404304
8.815999999999999,0.9999980168414059,-0.8508463335590407
8.824,0.9999981302794784,-1.0494939286221587
8.832,0.9999982449005209,-1.2481919481225217
8.84,0.9999983606833707,-1.446940222093871
8.847999999999999,0.9999984776065125,-1.6457385800767326
8.856,0.9999985956480839,-1.844586851120001
8.864,0.9999987147858751,-2.0434848637827625
8.872,0.999998834997333,-2.24243244613612
8.879999999999999,0.9999989562595625,-2.4414294257651328
8.888,0.9999990785493317,-2.6404756297706014
8.896,0.9999992018430696,-2.8395708847708407
8.904,0.9999993261168748,-3.0387150169036845
8.911999999999999,0.9999994513465141,-3.2379078518284037
8.92,0.9999995775074281,-3.437149214727652
8.928,0.9999997045747315,-3.636438930309256
8.936,0.999999832523219,-3.8357768228083287
8.943999999999999,0.9999999613273668,-4.035162715989257
8.952,0.9999999999999999,-4.234596433147729
8.96,0.9999999999999999,-4.434077797112595
8.968,0.9999999999999998,-4.633606630248031
8.975999999999999,0.9999999999999999,-4.833182754455662
8.984,0.9999999999999998,-5.032805991176646
8.992,0.9999999999999999,-5.232476161393593
9.0,0.9999999999999999,-5.432193085632781
9.008,0.9999999999999999,-5.631956583966478
9.016,1.0,-5.831766476014917
9.024000000000001,1.0,-6.031622580948466
9.032,1.0,-6.231524717489869
9.04,1.0,-6.431472703916568
9.048,1.0,-6.631466358062889
9.056000000000001,1.0,-6.831505497322176
9.064,1.0,-7.031589938649173
9.072,1.0,-7.231719498562419
9.08,1.0,-7.431893993146519
9.088000000000001,1.0,-7.632113238054317
9.096,1.0,-7.832377048509446
9.104,1.0,-8.032685239308714
9.112,0.9999999999999999,-8.233037624824428
9.120000000000001,0.9999999999999999,-8.433434019006846
9.128,0.9999999999999999,-8.63387423538651
9.136,1.0,-8.834358087077028
9.144,0.9999999999999999,-9.034885386777281
9.152000000000001,1.0,-9.235455946773934
9.16,0.9999999999999999,-9.43606957894403
9.168,1.0,-9.636726094757675
9.176,1.0,-9.837425305280403
9.184000000000001,0.9999999999999999,-10.038167021175829
9.192,1.0,-10.238951052708218
9.2,1.0,-10.439777209745278
9.208,1.0,-10.640645301760738
9.216000000000001,1.0,-10.84155513783684
9.224,1.0,-11.042506526667259
9.232,0.9999999999999999,-11.24349927655979
9.24,0.9999999999999999,-11.444533195439089
9.248000000000001,0.9999999999999999,-11.645608090849278
9.256,0.9999999999999999,-11.846723769956856
9.264,1.0,-12.047880039553602
9.272,1.0,-12.249076706059238
9.280000000000001,1.0,-12.450313575524298
9.288,1.0,-12.651590453633014
9.296,1.0,-12.852907145706311
9.304,1.0,-13.054263456704652
9.312000000000001,0.9999999999999999,-13.255659191230889
9.32,1.0,-13.457094153533257
9.328,1.0000000000000002,-13.658568147508516
9.336,1.0,-13.860080976704804
9.344,1.0,-14.061632444324621
9.352,1.0,-14.263222353228086
9.36,1.0,-14.464850505935692
9.368,1.0,-14.666516704631842
9.376,1.0,-14.868220751167462
9.384,0.9999999999999999,-15.069962447063613
9.392,1.0,-15.271741593514221
9.4,1.0,-15.473557991389749
9.408,1.0,-15.675411441239904
9.416,0.9999999999999999,-15.877301743297325
9.424,0.9999999999999999,-16.079228697480417
9.432,0.9999999999999999,-16.281192103397096
9.44,1.0,-16.48319176034763
9.448,1.0,-16.685227467328414
9.456,0.9999999999999999,-16.887299023034867
9.464,1.0,-17.089406225865282
9.472,1.0,-17.291548873923823
9.48,1.0,-17.493726765024274
9.488,0.9999999999999999,-17.695939696693202
9.496,1.0,-17.898187466173745
9.504,1.0,-18.1004698704288
9.512,1.0,-18.302786706144843
9.52,0.9999999999999999,-18.505137769735185
9.528,0.9999999999999999,-18.707522857343907
9.536,0.9999999999999999,-18.909941764849027
9.544,0.9999999999999999,-19.11239428786657
9.552,1.0,-19.31488022175386
9.56,0.9999999999999999,-19.51739936161349
9.568,1.0,-19.719951502296727
9.576,0.9999999999999999,-19.922536438407583
9.584,0.9999999999999999,-20.125153964306183
9.592,1.0,-20.32780387411298
9.6,1.0,-20.530485961712106
9.608,1.0,-20.73320002075564
9.616,1.0,-20.935945844667053
9.624,1.0000000000000002,-21.138723226645517
9.632,0.9999999999999999,-21.341531959669386
9.64,1.0,-21.544371836500538
9.648,0.9999999999999998,-21.747242649687973
9.656,1.0,-21.950144191572104
9.664,0.9999999999999999,-22.15307625428856
9.672,0.9999999999999999,-22.356038629772407
9.68,1.0,-22.55903110976197
9.688,0.9999999999999999,-22.7620534858033
9.696,0.9999999999999999,-22.965105549253856
9.704,0.9999999999999999,-23.16818709128704
9.712,0.9999999999999999,-23.37129790289611
9.72,1.0,-23.574437774898595
9.728,0.9999999999999999,-23.777606497940248
9.736,1.0,-23.980803862499677
9.744,0.9999999999999999,-24.1840296588922
9.752,1.0,-24.38728367727459
9.76,1.0,-24.590565707649006
9.768,1.0,-24.793875539867717
9.776,1.0,-24.99721296363717
9.784,0.9999999999999999,-25.200577768522713
9.792,0.9999999999999999,-25.403969743952743
9.8,1.0,-25.607388679223458
9.808,1.0,-25.810834363503115
9.816,0.9999999999999998,-26.014306585836753
9.824,0.9999999999999999,-26.217805135150535
9.832,1.0000000000000002,-26.421329800256604
9.84,1.0,-26.624880369857358
9.847999999999999,1.0,-26.82845663255035
9.856,0.9999999999999999,-27.0320583768329
9.864,1.0,-27.235685391106625
9.872,1.0,-27.43933746368221
9.879999999999999,1.0,-27.6430143827843
9.888,0.9999999999999999,-27.846715936556176
9.896,0.9999999999999999,-28.05044191306439
9.904,1.0,-28.254192100303698
9.911999999999999,1.0,-28.457966286202023
9.92,1.0,-28.661764258625183
9.928,0.9999999999999999,-28.865585805381727
9.936,1.0,-29.069430714227888
