freq,mag,phase
6.0,0.9999977629157846,167.9679953118927
6.008,0.9999976696250731,167.57854957796008
6.016,0.9999975791767214,167.18889349789075
6.024,0.9999974915109012,166.7990217350252
6.032,0.9999974065685425,166.408928939649
6.04,0.9999973242913298,166.01860974904227
6.048,0.9999972446216967,165.6280587875296
6.056,0.9999971675028196,165.23727066653058
6.064,0.9999970928786142,164.84623998461103
6.072,0.999997020693729,164.4549613275352
6.08,0.9999969508935416,164.06342926831817
6.088,0.9999968834241515,163.67163836727994
6.096,0.9999968182323776,163.2795831720998
6.104,0.9999967552657516,162.88725821787204
6.112,0.9999966944725129,162.49465802716279
6.12,0.9999966358016041,162.1017771100676
6.128,0.999996579202665,161.70860996427066
6.136,0.999996524626031,161.31515107510518
6.144,0.9999964720227215,160.921394915615
6.152,0.9999964213444406,160.52733594661768
6.16,0.9999963725435725,160.1329686167693
6.168,0.9999963255731729,159.73828736263022
6.176,0.9999962803869643,159.34328660873345
6.184,0.9999962369393359,158.94796076765357
6.192,0.999996195185332,158.55230424007857
6.2,0.9999961550806525,158.15631141488262
6.208,0.9999961165816471,157.7599766692014
6.216,0.999996079645306,157.36329436850912
6.224,0.9999960442292624,156.96625886669787
6.232,0.999996010291783,156.56886450615886
6.24,0.999995977791762,156.17110561786612
6.248,0.999995946688722,155.77297652146262
6.256,0.9999959169428037,155.3744715253484
6.264,0.9999958885147654,154.97558492677194
6.272,0.9999958613659747,154.57631101192305
6.28,0.9999958354584078,154.1766440560296
6.288,0.9999958107546406,153.7765783234561
6.296,0.9999957872178475,153.3761080678057
6.304,0.999995764811796,152.97522753202466
6.312,0.9999957435008414,152.57393094851037
6.32,0.9999957232499229,152.17221253922176
6.328,0.99999570402456,151.77006651579399
6.336,0.9999956857908463,151.36748707965515
6.344,0.9999956685154472,150.96446842214735
6.352,0.9999956521655909,150.56100472465084
6.36,0.9999956367090722,150.15709015871178
6.368,0.9999956221142408,149.75271888617382
6.376,0.999995608349999,149.34788505931314
6.384,0.9999955953858001,148.9425828209778
6.392,0.9999955831916418,148.5368063047305
6.4,0.9999955717380609,148.13054963499607
6.408,0.9999955609961307,147.72380692721256
6.416,0.9999955509374586,147.31657228798693
6.424,0.999995541534179,146.908839815255
6.432,0.9999955327589489,146.50060359844588
6.44,0.9999955245849472,146.09185771865094
6.448,0.9999955169858679,145.68259624879786
6.456,0.9999955099359155,145.27281325382862
6.464,0.9999955034098044,144.86250279088358
6.472,0.9999954973827512,144.4516589094894
6.48,0.9999954918304734,144.04027565175303
6.4879999999999995,0.9999954867291831,143.62834705256043
6.496,0.9999954820555861,143.21586713978047
6.504,0.9999954777868749,142.8028299344754
6.5120000000000005,0.9999954739007278,142.38922945111514
6.52,0.9999954703753013,141.97505969779908
6.5280000000000005,0.9999954671892297,141.56031467648225
6.536,0.9999954643216211,141.14498838320856
6.5440000000000005,0.9999954617520519,140.7290748083491
6.552,0.9999954594605632,140.31256793684773
6.5600000000000005,0.9999954574276598,139.89546174847158
6.568,0.9999954556343026,139.4777502180695
6.5760000000000005,0.9999954540619064,139.05942731583568
6.584,0.9999954526923394,138.64048700758104
6.592,0.9999954515079145,138.22092325501066
6.6,0.9999954504913893,137.80073001600837
6.608,0.9999954496259608,137.37990124492873
6.616,0.9999954488952623,136.95843089289556
6.624,0.9999954482833607,136.53631290810824
6.632,0.9999954477747517,136.11354123615527
6.64,0.999995447354357,135.69010982033544
6.648,0.9999954470075205,135.26601260198672
6.656,0.9999954467200057,134.8412435208227
6.664,0.9999954464779909,134.41579651527766
6.672,0.9999954462680672,133.9896655228589
6.68,0.999995446077234,133.56284448050775
6.688,0.9999954458928967,133.1353273249691
6.696,0.9999954457028613,132.7071079931689
6.704,0.9999954454953343,132.27818042260088
6.712,0.9999954452589165,131.84853855172153
6.72,0.9999954449826008,131.41817632035426
6.728,0.9999954446557698,130.98708767010257
6.736,0.9999954442681899,130.55526654477237
6.744,0.9999954438100114,130.12270689080347
6.752,0.9999954432717625,129.68940265771081
6.76,0.9999954426443484,129.255347798535
6.768,0.9999954419190449,128.8205362703028
6.776,0.9999954410874993,128.3849620344972
6.784,0.9999954401417236,127.94861905753785
6.792,0.9999954390740923,127.5115013112713
6.8,0.9999954378773418,127.07360277347166
6.808,0.9999954365445631,126.63491742835183
6.816,0.9999954350692017,126.19543926708481
6.824,0.9999954334450527,125.75516228833624
6.832,0.9999954316662591,125.31408049880747
6.84,0.9999954297273073,124.87218791378959
6.848,0.9999954276230246,124.42947855772854
6.856,0.9999954253485764,123.98594646480176
6.864,0.9999954228994625,123.54158567950554
6.872,0.9999954202715142,123.09639025725468
6.88,0.9999954174608916,122.65035426499311
6.888,0.9999954144640795,122.20347178181656
6.896,0.9999954112778853,121.75573689960721
6.904,0.9999954078994351,121.30714372368001
6.912,0.9999954043261714,120.85768637344154
6.92,0.9999954005558495,120.40735898306086
6.928,0.9999953965865342,119.95615570215277
6.936,0.999995392416597,119.50407069647387
6.944,0.9999953880447132,119.0510981486308
6.952,0.9999953834698575,118.59723225880158
6.96,0.9999953786913037,118.1424672454697
6.968,0.9999953737086186,117.68679734617115
6.976,0.99999536852166,117.23021681825463
6.984,0.9999953631305737,116.77271993965493
6.992,0.9999953575357902,116.3143010096796
7.0,0.9999953517380219,115.85495434980892
7.008,0.9999953457382593,115.39467430450972
7.016,0.9999953395377686,114.93345524206242
7.024,0.9999953331380871,114.47129155540206
7.032,0.9999953265410222,114.0081776629729
7.04,0.9999953197486458,113.5441080095971
7.048,0.9999953127632929,113.0790770673573
7.056,0.9999953055875579,112.61307933649314
7.064,0.9999952982242897,112.14610934631212
7.072,0.999995290676592,111.67816165611436
7.08,0.9999952829478158,111.20923085613185
7.088,0.9999952750415595,110.73931156848212
7.096,0.9999952669616643,110.26839844813578
7.104,0.9999952587122088,109.79648618389918
7.112,0.9999952502975109,109.3235694994109
7.12,0.9999952417221177,108.84964315415331
7.128,0.9999952329908076,108.37470194447823
7.136,0.9999952241085854,107.89874070464752
7.144,0.9999952150806756,107.42175430788795
7.152,0.9999952059125232,106.9437376674611
7.16,0.9999951966097888,106.46468573774744
7.168,0.9999951871783442,105.98459351534548
7.176,0.9999951776242694,105.5034560401852
7.184,0.9999951679538496,105.02126839665628
7.192,0.9999951581735697,104.53802571475096
7.2,0.9999951482901127,104.0537231712214
7.208,0.9999951383103562,103.56835599075166
7.216,0.9999951282413672,103.08191944714405
7.224,0.9999951180903969,102.59440886452009
7.232,0.999995107864882,102.10581961853586
7.24,0.9999950975724355,101.61614713761159
7.248,0.9999950872208468,101.1253869041755
7.256,0.9999950768180754,100.63353445592183
7.264,0.9999950663722472,100.1405853870831
7.272,0.9999950558916514,99.64653534971607
7.28,0.9999950453847369,99.15138005500168
7.288,0.9999950348601064,98.6551152745587
7.296,0.9999950243265151,98.15773684177108
7.304,0.9999950137928633,97.65924065312848
7.312,0.9999950032681939,97.15962266958023
7.32,0.9999949927616896,96.65887891790253
7.328,0.9999949822826665,96.15700549207823
7.336,0.9999949718405701,95.65399855468972
7.344,0.9999949614449721,95.14985433832405
7.352,0.9999949511055655,94.64456914699046
7.36,0.9999949408321587,94.13813935755003
7.368,0.9999949306346746,93.63056142115711
7.376,0.9999949205231422,93.12183186471228
7.384,0.9999949105076947,92.61194729232663
7.392,0.9999949005985634,92.10090438679707
7.4,0.9999948908060744,91.58869991109235
7.4079999999999995,0.9999948811406427,91.07533070984954
7.416,0.9999948716127676,90.56079371088012
7.4239999999999995,0.9999948622330289,90.04508592668695
7.432,0.999994853012082,89.52820445598877
7.4399999999999995,0.9999948439606514,89.01014648525586
7.448,0.9999948350895278,88.49090929025215
7.4559999999999995,0.9999948264095616,87.97049023758763
7.464,0.999994817931659,87.4488867862764
7.4719999999999995,0.999994809666777,86.9260964893042
7.48,0.9999948016259168,86.40211699520086
7.4879999999999995,0.9999947938201209,85.87694604962101
7.496,0.9999947862604663,85.35058149692888
7.504,0.9999947789580594,84.82302128179055
7.5120000000000005,0.9999947719240315,84.29426345076895
7.52,0.9999947651695333,83.76430615392552
7.5280000000000005,0.9999947587057286,83.23314764642343
7.536,0.9999947525437913,82.70078629013639
7.5440000000000005,0.9999947466948965,82.16722055525786
7.552,0.9999947411702174,81.63244902191435
7.5600000000000005,0.9999947359809206,81.09647038177864
7.568,0.9999947311381576,80.55928343968513
7.5760000000000005,0.9999947266530613,80.02088711524394
7.584,0.9999947225367405,79.48128044445626
7.5920000000000005,0.9999947188002734,78.94046258132657
7.6,0.9999947154547021,78.39843279947488
7.6080000000000005,0.999994712511027,77.85519049374466
7.616,0.9999947099802011,77.31073518180898
7.6240000000000006,0.9999947078731243,76.76506650577093
7.632,0.9999947062006376,76.21818423376092
7.640000000000001,0.9999947049735162,75.67008826152644
7.648,0.9999947042024661,75.12077861401728
7.656000000000001,0.9999947038981151,74.5702554469614
7.664,0.9999947040710103,74.01851904843481
7.672,0.9999947047316082,73.4655698404203
7.68,0.9999947058902732,72.91140838035817
7.688,0.9999947075572674,72.3560353626849
7.696,0.9999947097427483,71.79945162036084
7.704,0.9999947124567594,71.24165812638495
7.712,0.9999947157092283,70.68265599529627
7.72,0.9999947195099558,70.12244648466081
7.728,0.9999947238686143,69.56103099654293
7.736,0.9999947287947393,68.99841107896044
7.744,0.9999947342977243,68.43458842732235
7.752,0.9999947403868145,67.86956488584796
7.76,0.9999947470711006,67.30334244896677
7.768,0.9999947543595142,66.73592326269797
7.776,0.9999947622608195,66.16730962600819
7.784,0.9999947707836101,65.59750399214701
7.792,0.9999947799363003,65.02650896995877
7.8,0.9999947897271213,64.45432732516967
7.808,0.9999948001641148,63.88096198164917
7.816,0.9999948112551267,63.30641602264472
7.824,0.9999948230078014,62.730692691988324
7.832,0.9999948354295767,62.15379539527437
7.84,0.9999948485276775,61.57572770100706
7.848,0.9999948623091094,60.99649334171695
7.856,0.9999948767806552,60.41609621504486
7.864,0.9999948919488674,59.83454038479255
7.872,0.999994907820063,59.25183008193867
7.88,0.9999949244003189,58.66796970561917
7.888,0.999994941695466,58.082963824070724
7.896,0.999994959711083,57.496817175536464
7.904,0.9999949784524931,56.90953466913236
7.912,0.999994997924757,56.321121385673685
7.92,0.9999950181326689,55.731582578460134
7.928,0.9999950390807506,55.140923674018445
7.936,0.9999950607732481,54.54915027280165
7.944,0.9999950832141244,53.9562681498437
7.952,0.9999951064070575,53.362283255368425
7.96,0.9999951303554336,52.76720171535162
7.968,0.9999951550623438,52.17102983203554
7.976,0.9999951805305787,51.57377408439423
7.984,0.999995206762626,50.975441128549164
7.992,0.9999952337606635,50.376037798133744
8.0,0.9999952615265579,49.775571104605966
8.008,0.999995290061859,49.17404823750805
8.016,0.9999953193677965,48.57147656467177
8.024000000000001,0.999995349445277,47.96786363236983
8.032,0.9999953802948788,47.36321716541034
8.04,0.9999954119168508,46.75754506717469
8.048,0.9999954443111077,46.15085541959815
8.056000000000001,0.9999954774772267,45.54315648309203
8.064,0.999995511414447,44.93445669640573
8.072,0.9999955461216635,44.32476467642884
8.08,0.9999955815974272,43.71408921793239
8.088000000000001,0.9999956178399417,43.102439293248594
8.096,0.9999956548470608,42.489824051887425
8.104,0.9999956926162867,41.876252820089945
8.112,0.9999957311447685,41.2617351003183
8.120000000000001,0.9999957704292999,40.646280570681164
8.128,0.9999958104663179,40.029899084293575
8.136,0.9999958512519017,39.41260066857106
8.144,0.9999958927817726,38.79439552445791
8.152000000000001,0.9999959350512901,38.175294025589075
8.16,0.9999959780554548,37.555306717384084
8.168,0.9999960217889059,36.934444316073574
8.176,0.9999960662459214,36.312717707658386
8.184000000000001,0.9999961114204174,35.69013794680047
8.192,0.9999961573059496,35.066716255644735
8.2,0.999996203895713,34.44246402257206
8.208,0.9999962511825419,33.81739280088422
8.216000000000001,0.9999962991589115,33.1915143074195
8.224,0.9999963478169388,32.564840421098786
8.232,0.9999963971483835,31.937383181402378
8.24,0.9999964471446501,31.309154786778404
8.248000000000001,0.9999964977967885,30.68016759298199
8.256,0.9999965490954973,30.05043411134499
8.264,0.999996601031125,29.419967006976908
8.272,0.9999966535936732,28.788779096897855
8.280000000000001,0.999996706772798,28.156883348103104
8.288,0.9999967605578138,27.524292875559304
8.296,0.999996814937697,26.89102094013295
8.304,0.9999968699010869,26.25708094645238
8.312,0.9999969254362918,25.622486440703153
8.32,0.9999969815312922,24.987251108356098
8.328,0.9999970381737427,24.351388771831793
8.336,0.9999970953509796,23.71491338809801
8.344,0.9999971530500221,23.077839046205387
8.352,0.9999972112575799,22.44017996475723
8.36,0.9999972699600551,21.801950489319317
8.368,0.9999973291435504,21.163165089765574
8.376,0.9999973887938712,20.523838357565285
8.384,0.999997448896534,19.883985003008423
8.392,0.9999975094367705,19.24361985237439
8.4,0.9999975703995337,18.602757845040816
8.408,0.9999976317695045,17.961414030538343
8.416,0.9999976935310984,17.319603565547617
8.424,0.9999977556684696,16.67734171084463
8.432,0.9999978181655221,16.034643828190976
8.44,0.9999978810059128,15.391525377175032
8.448,0.9999979441730598,14.748001912000712
8.456,0.9999980076501506,14.104089078230064
8.464,0.9999980714201484,13.459802609476345
8.472,0.9999981354658005,12.815158324053927
8.48,0.9999981997696454,12.170172121581846
8.488,0.9999982643140212,11.52485997954728
8.496,0.9999983290810744,10.879237949825967
8.504,0.9999983940527664,10.233322155166029
8.512,0.9999984592108839,9.587128785631995
8.52,0.9999985245370457,8.940674095015773
8.528,0.999998590012713,8.293974397211503
8.536,0.9999986556191969,7.6470460625608885
8.544,0.9999987213376677,6.999905514166212
8.552,0.9999987871491647,6.352569224177505
8.56,0.9999988530346035,5.705053710051262
8.568,0.9999989189747878,5.057375530787269
8.576,0.9999989849504166,4.40955128314083
8.584,0.9999990509420938,3.7615975978170835
8.592,0.9999991169303396,3.1135311356448
8.6,0.9999991828955974,2.4653685837362542
8.608,0.9999992488182448,1.8171266516308004
8.616,0.9999993146786035,1.1688220674284804
8.624,0.9999993804569485,0.5204715739115984
8.632,0.9999994461335174,-0.12790807533945672
8.64,0.999999511688522,-0.7763001198383661
8.648,0.9999995771021546,-1.4246877960864592
8.656,0.9999996423546016,-2.0730543414700944
8.664,0.9999997074260515,-2.7213829981552378
8.672,0.9999997722967042,-3.369657016981662
8.68,0.9999998369467815,-4.017859661350035
8.688,0.999999901356537,-4.665974211104467
8.696,0.9999999655062659,-5.313983966403781
8.704,1.0,-5.961872251583982
8.712,0.9999999999999999,-6.6096224190053245
8.72,1.0,-7.2572178528864715
8.728,0.9999999999999999,-7.904641973119056
8.736,1.0,-8.551878239065344
8.744,0.9999999999999999,-9.198910153332216
8.752,0.9999999999999999,-9.845721265524222
8.76,1.0,-10.492295175969067
8.768,0.9999999999999999,-11.138615539418225
8.776,0.9999999999999999,-11.78466606871612
8.784,1.0,-12.43043053844066
8.792,0.9999999999999999,-13.075892788508588
8.8,1.0,-13.721036727748519
8.808,0.9999999999999999,-14.365846337435178
8.815999999999999,1.0,-15.01030567478765
8.824,1.0,-15.654398876426214
8.832,1.0,-16.298110161787825
8.84,0.9999999999999999,-16.94142383649887
8.847999999999999,1.0,-17.584324295703116
8.856,1.0,-18.22679602734282
8.864,1.0,-18.868823615391822
8.872,1.0,-19.510391743040014
8.879999999999999,0.9999999999999999,-20.151485195826968
8.888,0.9999999999999999,-20.792088864723045
8.896,0.9999999999999999,-21.43218774915687
8.904,1.0,-22.07176695998885
8.911999999999999,1.0,-22.710811722428794
8.92,1.0,-23.34930737889579
8.928,1.0,-23.987239391819973
8.936,1.0,-24.624593346385666
8.943999999999999,0.9999999999999998,-25.2613549532142
8.952,1.0,-25.89751005098503
8.96,1.0,-26.53304460899466
8.968,0.9999999999999999,-27.16794472965335
8.975999999999999,0.9999999999999998,-27.802196650917917
8.984,1.0,-28.435786748659673
8.992,1.0,-29.06870153896711
9.0,0.9999999999999999,-29.700927680383327
9.008,1.0,-30.332451976077316
9.016,0.9999999999999999,-30.963261375947614
9.024000000000001,0.9999999999999999,-31.593342978658765
9.032,1.0,-32.22268403361057
9.04,1.0,-32.85127194283922
9.048,0.9999999999999999,-33.479094262849614
9.056000000000001,0.9999999999999999,-34.10613870637897
9.064,0.9999999999999999,-34.73239314409204
9.072,0.9999999999999999,-35.35784560620781
9.08,1.0,-35.982484284056014
9.088000000000001,0.9999999999999999,-36.60629753156499
9.096,1.0,-37.229273866680956
9.104,1.0,-37.85140197271804
9.112,1.0,-38.472670699639224
9.120000000000001,0.9999999999999999,-39.09306906526826
9.128,0.9999999999999999,-39.71258625643373
9.136,0.9999999999999999,-40.33121163004486
9.144,0.9999999999999999,-40.948934714098726
9.152000000000001,0.9999999999999999,-41.56574520861983
9.16,1.0,-42.18163298653307
9.168,1.0,-42.7965880944698
9.176,0.9999999999999999,-43.410600753506905
9.184000000000001,0.9999999999999998,-44.02366135984033
9.192,1.0,-44.635760485393405
9.2,1.0,-45.246888878360856
9.208,1.0,-45.85703746368794
9.216000000000001,1.0,-46.46619734348624
9.224,1.0,-47.074359797387174
9.232,0.9999999999999999,-47.68151628283345
9.24,1.0,-48.28765843530895
9.248000000000001,1.0,-48.892778068507624
9.256,1.0,-49.496867174443764
9.264,1.0,-50.09991792350306
9.272,1.0,-50.70192266443523
9.280000000000001,0.9999999999999999,-51.302873924289706
9.288,1.0,-51.90276440829538
9.296,0.9999999999999999,-52.50158699968537
9.304,1.0,-53.099334759466764
9.312000000000001,1.0,-53.69600092613718
9.32,0.9999999999999999,-54.291578915349334
9.328,0.9999999999999998,-54.88606231952463
9.336,0.9999999999999999,-55.479444907415555
9.344,1.0,-56.071720623618816
9.352,1.0,-56.662883588041794
9.36,1.0,-57.25292809531957
9.368,1.0,-57.841848614188244
9.376,0.9999999999999999,-58.429639786811
9.384,1.0,-59.01629642806255
9.392,1.0,-59.60181352476862
9.4,0.9999999999999999,-60.18618623490585
9.408,1.0,-60.769409886759014
9.416,0.9999999999999999,-61.351479978041134
9.424,1.0,-61.93239217497274
9.432,0.9999999999999999,-62.5121423113265
9.44,1.0,-63.09072638743333
9.448,1.0,-63.66814056915588
9.456,1.0,-64.2443811868259
9.464,1.0,-64.81944473415112
9.472,1.0,-65.39332786708846
9.48,1.0,-65.96602740268868
9.488,1.0,-66.53754031790973
9.496,1.0,-67.10786374840391
9.504,0.9999999999999999,-67.67699498727568
9.512,1.0,-68.24493148381546
9.52,1.0,-68.81167084220654
9.528,1.0,-69.3772108202098
9.536,1.0,-69.94154932782382
9.544,1.0,-70.50468442592505
9.552,0.9999999999999999,-71.06661432488522
9.56,0.9999999999999999,-71.62733738317102
9.568,1.0,-72.1868521059231
9.576,1.0,-72.7451571435193
9.584,1.0,-73.30225129011922
9.592,1.0,-73.8581334821951
9.6,0.9999999999999999,-74.41280279704584
9.608,1.0,-74.96625845129932
9.616,1.0,-75.51849979939979
9.624,1.0,-76.06952633208539
9.632,1.0,-76.61933767485267
9.64,1.0,-77.16793358641294
9.648,0.9999999999999999,-77.71531395713734
9.656,0.9999999999999999,-78.26147880749569
9.664,1.0,-78.80642828648574
9.672,1.0,-79.35016267005763
9.68,1.0,-79.89268235953068
9.688,1.0,-80.43398788000695
9.696,1.0,-80.97407987877865
9.704,1.0,-81.51295912373386
9.712,1.0,-82.05062650175766
9.72,1.0,-82.58708301713311
9.728,1.0,-83.12232978993896
9.736,0.9999999999999999,-83.6563680544487
9.744,0.9999999999999999,-84.18919915752775
9.752,0.9999999999999999,-84.72082455703321
9.76,0.9999999999999999,-85.25124582021319
9.768,1.0,-85.78046462210995
9.776,0.9999999999999999,-86.3084827439638
9.784,1.0,-86.83530207162204
9.792,1.0,-87.36092459394992
9.8,1.0,-87.8853524012476
9.808,0.9999999999999999,-88.40858768367042
