freq,mag,phase
6.0,1.000042393243827,-19.36017451176731
6.014234624,1.0000087905978285,-19.838452720304712
6.02846976,0.999974178740248,-20.316333890106904
6.042704384,0.9999407165049855,-20.793829459746934
6.05693952,0.999909792679641,-21.27099310512122
6.071174144,0.99988272418312,-21.747815435427086
6.08540928,0.999860556964573,-22.224401233427216
6.099643904,0.9998445087723354,-22.700744889195107
6.11387904,0.9998352621936988,-23.176949822869904
6.128113664,0.9998333494750861,-23.653141916209957
6.1423488,0.9998386315409815,-24.12936771184274
6.156583424,0.9998509477761153,-24.605774788177243
6.17081856,0.9998697138653596,-25.082336069905946
6.185053184,0.9998944553964146,-25.559262591492196
6.19928832,0.9999235052204372,-26.036479971788474
6.213522944,0.9999560273036635,-26.51413257977866
6.22775808,0.9999903150985656,-26.99222177238254
6.241992704,1.000024938116285,-27.470745990997457
6.25622784,1.0000583505985936,-27.949760224658398
6.270462464,1.0000891095239035,-28.429172723422955
6.2846976,1.000115803662626,-28.90894650182695
6.298932224,1.0001370676606383,-29.389054914371695
6.31316736,1.0001521114989222,-29.869430840914433
6.327401984,1.0001603472675236,-30.34999260819499
6.34163712,1.0001611487107356,-30.830621463156618
6.355871744,1.0001548305464685,-31.31121044468864
6.37010688,1.0001413857043042,-31.791771424741817
6.384341504,1.0001212837310465,-32.272129377445616
6.39857664,1.000095761703461,-32.75221812603276
6.412811264,1.00006575394816,-33.23202763656757
6.4270464,1.0000327104527982,-33.71151753824337
6.441281024,0.9999979408102719,-34.190574518968766
6.45551616,0.9999631331713055,-34.66926406887465
6.469750784,0.9999297515636116,-35.14759178405511
6.48398592,0.9998993406713854,-35.62553171343668
6.498220544,0.9998733094496972,-36.103144212691284
6.51245568,0.9998527632221265,-36.580501037735914
6.526690304,0.9998386925712537,-37.057699738493646
6.54092544,0.9998315023249706,-37.534855420780005
6.555160064,0.9998317861741425,-38.011925049150825
6.5693952,0.9998394749080787,-38.48909851746852
6.583629824,0.9998540996186828,-38.966404843082074
6.59786496,0.9998752921634619,-39.443998204295056
6.612099584,0.9999019662002505,-39.92189846600775
6.62633472,0.9999327843828837,-40.40016281931044
6.640569344,0.9999666234114951,-40.87887366956654
6.65480448,1.0000016443872892,-41.358040335012376
6.669039104,1.000036698036039,-41.83766351087559
6.68327424,1.0000699052681183,-42.31770566961298
6.697508864,1.0001000523351427,-42.798170875336936
6.711744,1.0001255164763798,-43.27903602995461
6.725978624,1.0001454075012992,-43.76018810536667
6.74021376,1.0001584028293473,-44.24161231433637
6.754448384,1.0001645690495435,-44.723130350816554
6.76868352,1.0001630260673697,-45.204704149777776
6.782918144,1.0001541676413126,-45.68628442911921
6.79715328,1.000138319377808,-46.167734281427826
6.811387904,1.000116091851361,-46.64898803908817
6.825622528,1.0000885607897079,-47.12998738048846
6.839857664,1.0000569780090618,-47.610627749881004
6.854092288,1.00002245389294,-48.090903867247604
6.868327424,0.9999871065196971,-48.57077307009358
6.882562048,0.9999518712072281,-49.050316616764874
6.896797184,0.9999188090651128,-49.529388424398576
6.911031808,0.9998891258925547,-50.00814036598368
6.925266944,0.9998641760130693,-50.48658315981146
6.939501568,0.9998451938036952,-50.964820245203065
6.953736704,0.999833002053262,-51.44284379831378
6.967971328,0.9998281635517935,-51.92084560892075
6.982206464,0.9998308035710834,-52.39884986739884
6.996441088,0.999840923386454,-52.87694742629012
7.010676224,0.999858100749946,-53.35525996738342
7.024910848,0.9998813813398688,-53.83382980150732
7.039145984,0.9999099838630148,-54.31275357267363
7.053380608,0.9999424708644966,-54.79209241370855
7.067615744,0.9999775368581925,-55.271860234442045
7.081850368,1.0000134361173023,-55.75206863583009
7.096085504,1.0000487565010743,-56.23275361626435
7.110320128,1.000081603067624,-56.713923021053624
7.124555264,1.0001109928619163,-57.19547598084086
7.138789888,1.0001351183499119,-57.67739532921192
7.153025024,1.0001533593597567,-58.159601859784836
7.167259648,1.0001644997772938,-58.64202281181177
7.181494784,1.0001683450946026,-59.12452517287843
7.195729408,1.000164363992018,-59.607122393801546
7.209964544,1.0001530481810992,-60.0896243895033
7.224199168,1.0001347678292665,-60.57197932364473
7.238434304,1.000110331590066,-61.05412046137705
7.252668928,1.0000808789698563,-61.535925156794825
7.266904064,1.0000474745145713,-62.0174426356195
7.281138688,1.0000120656902756,-62.49855118278299
7.295373824,0.9999757218904296,-62.97922259616064
7.309608448,0.9999404505070024,-63.459522642315996
7.323843584,0.999907585269478,-63.93942481019322
7.338078208,0.9998787807388821,-64.41896981422313
7.352313344,0.9998552468442289,-64.89825988897523
7.366547968,0.9998379958853251,-65.37730359152887
7.380783104,0.9998278239376519,-65.85622722375368
7.395017728,0.9998252116936626,-66.33509539576934
7.409252864,0.999830397822908,-66.81400022567314
7.423487488,0.9998429800207476,-67.29305744956908
7.437722624,0.9998625377712291,-67.77235023040492
7.451957248,0.9998881981493803,-68.2518868133918
7.466192384,0.999918692088179,-68.73187721124783
7.480427008,0.9999527593335102,-69.21224288650068
7.494662144,0.9999888870122087,-69.69306747049826
7.508896768,1.0000255189895282,-70.1743813436413
7.523131904,1.0000608106208637,-70.65615407705472
7.537366528,1.0000935156225705,-71.13837116693549
7.551601664,1.000121883590779,-71.62099699902676
7.565836288,1.0001447177478435,-72.10397440622518
7.580071424,1.0001611178570835,-72.58721005974408
7.594306048,1.0001702232102259,-73.0706286093182
7.608540672,1.0001716328438153,-73.55412956233157
7.622775808,1.0001652301417767,-74.03769187547766
7.637010432,1.0001513744270238,-74.52110247434854
7.651245568,1.0001306092169524,-75.0043699247069
7.665480192,1.0001040240202672,-75.48735285696087
7.679715328,1.0000725377070547,-75.97001043657713
7.693949952,1.0000376232907278,-76.45235016695983
7.708185088,1.0000009625657422,-76.93424878665172
7.722419712,0.9999640848122437,-77.41572393179504
7.736654848,0.999928693394122,-77.89682624437198
7.750889472,0.9998964903997221,-78.37747446177946
7.765124608,0.9998686005027696,-78.85782513078212
7.779359232,0.9998464058912929,-79.33794391115036
7.793594368,0.9998310111847429,-79.81780023932374
7.807828992,0.9998229826295965,-80.29757544942579
7.822064128,0.9998228993810989,-80.7773112665599
7.836298752,0.9998306199600352,-81.25712293085617
7.850533888,0.9998456483942858,-81.73714916901969
7.864768512,0.9998676892465861,-82.21737806404609
7.879003648,0.9998955009707893,-82.6979756926827
7.893238272,0.9999279612198796,-83.17892669481331
7.907473408,0.9999636090200822,-83.66035596702838
7.921708032,1.00000081701478,-84.14222257815666
7.935943168,1.0000379774999713,-84.62460625362348
7.950177792,1.0000734029888139,-85.10747200272044
7.964412928,1.0001054850211237,-85.5907554041942
7.978647552,1.0001328781942143,-86.07443894577726
7.992882688,1.0001542191285275,-86.55845254256697
8.007117312,1.000168660951201,-87.0426985748105
8.021352448,1.0001755621531898,-87.52711822594073
8.035587072,1.0001745218579634,-88.01158030285312
8.049822208,1.0001655480816534,-88.49604618140856
8.064056832,1.0001491199374952,-88.98039516146049
8.078291968,1.0001259322074147,-89.46452126030678
8.092526592,1.0000970850834665,-89.94835045449636
8.106761728,1.0000636927009283,-90.43185267287326
8.120996352,1.0000273622936027,-90.91493060235052
8.135231488,0.999989637544958,-91.39762568710172
8.149466112,0.999952255181095,-91.87986538873513
8.163701248,0.9999168875014721,-92.36171707354004
8.177935872,0.9998850072599632,-92.84318113387341
8.192171008,0.9998583156163862,-93.32430754490328
8.206405632,0.9998377418522644,-93.80517627096746
8.220640768,0.9998242795657589,-94.28588089087071
8.234875392,0.9998185894805074,-94.76649488108954
8.249110528,0.9998209936609925,-95.24707758110445
8.263345152,0.9998311685845281,-95.72777910495975
8.277580288,0.9998489340543,-96.2086853722771
8.291814912,0.9998734089885774,-96.68989760213147
8.306050048,0.9999035179005946,-97.17145862136418
8.320284672,0.9999377384537778,-97.65344376719135
8.334519808,0.9999749000274976,-98.1358624876006
8.348754432,1.0000131673353598,-98.61881622260312
8.362989568,1.0000507974042532,-99.10222864948896
8.377224192,1.00008606345431,-99.58613120561702
8.391459328,1.0001175943769542,-100.07047389281351
8.405693952,1.0001437833886397,-100.55516659828469
8.419928576,1.000163489274391,-101.04020540005948
8.434163712,1.0001759968132886,-101.52545474189253
8.448398336,1.0001805227532503,-102.01081880916013
8.462633472,1.000176939655377,-102.49623187773689
8.476868096,1.0001652860689592,-102.9816055736726
8.491103232,1.0001462782737145,-103.4668229181584
8.505337856,1.0001206304737493,-103.95176885335854
8.519572992,1.000089545743592,-104.4363978704351
8.533807616,1.0000542573731408,-104.92068928335848
8.548042752,1.0000164548521302,-105.40453885811614
8.562277376,0.9999777649741223,-105.88797732716841
8.576512512,0.9999399840818934,-106.37095378891806
8.590747648,0.9999048210094459,-106.85352165975232
8.604982272,0.9998736770901828,-107.33571537326495
8.619216896,0.9998480955253131,-107.81760005560882
8.63345152,0.9998292403505362,-108.29922036708095
8.647687168,0.999817823366982,-108.78066575260257
8.661921792,0.9998144836324407,-109.26209719351839
8.676156416,0.9998194709043958,-109.74357720171439
8.69039104,0.9998323605850267,-110.22514636907944
8.704626688,0.9998528041499888,-110.70695084808547
8.718861312,0.9998797514474296,-111.189077994185
8.733095936,0.9999120146465269,-111.67159947667457
8.74733056,0.9999482193936897,-112.15453934621911
8.761566208,0.9999867880158123,-112.63799250990112
8.775800832,1.000025928539707,-113.12194293457456
8.790035456,1.0000639283009258,-113.60636479576534
8.80427008,1.000098990492288,-114.09128610163904
8.818505728,1.0001297260814759,-114.57665683303584
8.832740352,1.0001546949949478,-115.06234740472486
8.846974976,1.0001726610355992,-115.54833694826101
8.8612096,1.0001829611337334,-116.03456777357741
8.875445248,1.0001850649838815,-116.52085843542967
8.889679872,1.0001788113532035,-117.00716588673237
8.903914496,1.00016455456594,-117.49341179815656
8.91814912,1.000142890591872,-117.97943273698549
8.932384768,1.000114661222104,-118.46518718854121
8.946619392,1.000081278905221,-118.95058154895584
8.960854016,1.0000441873507204,-119.43561235519513
8.97508864,1.0000049557167587,-119.92017022514125
8.989324288,0.9999653479977897,-120.40429003229653
9.003558912,0.9999273123124297,-120.88795940536575
9.017793536,0.9998923310419147,-121.37121784999124
9.03202816,0.99986201005605,-121.85409205931118
9.046263808,0.9998377587205012,-122.33666961137595
9.060498432,0.9998206873391587,-122.819035850305
9.074733056,0.9998115752672505,-123.30125949628818
9.08896768,0.9998107290630317,-123.78345603944024
9.103203328,0.999818382887547,-124.26570438466055
9.117437952,0.9998340810945335,-124.74811216287989
9.131672576,0.9998571807606665,-125.23078542247241
9.1459072,0.9998866007496057,-125.7138268133769
9.160142848,0.9999211473378404,-126.1972467673365
9.174377472,0.9999592192364308,-126.68116943227082
9.188612096,0.9999991166012278,-127.16556239897216
9.20284672,1.0000391485064808,-127.65047735483301
9.217081344,1.0000774102027996,-128.13590213504003
9.231316992,1.0001122368511597,-128.62180825920584
9.245551616,1.000142056858503,-129.10813014750198
9.25978624,1.0001655830443994,-129.59478548317645
9.274020864,1.0001817266224013,-130.08172258707347
9.288256512,1.0001897748183748,-130.56883579890916
9.302491136,1.0001892237382022,-131.0560342132539
9.31672576,1.0001802257527175,-131.54318695972006
9.330960384,1.0001631533229047,-132.0302436256098
9.345196032,1.0001386912857626,-132.5170234265397
9.359430656,1.000107976673945,-133.00351929723854
9.37366528,1.000072337888268,-133.48964484547815
9.387899904,1.000033415123167,-133.97533791214775
9.402135552,0.9999928004130894,-134.46055713081003
9.416370176,0.9999524748862612,-134.94533515384705
9.4306048,0.9999140901179486,-135.42965726256344
9.444839424,0.9998795006873984,-135.91352689258045
9.459075072,0.9998501929760762,-136.397074672384
9.473309696,0.9998274103881426,-136.8803176009059
9.48754432,0.9998122836325453,-137.3633381141631
9.501778944,0.9998055388048459,-137.84628049631357
9.516014592,0.999807357710828,-138.32916864528997
9.530249216,0.9998177832228686,-138.8121864153464
9.54448384,0.9998362965089813,-139.29539445114838
9.558718464,0.9998622384208793,-139.77890859366627
9.572954112,0.9998942368786504,-140.26278221080344
9.587188736,0.9999309710900651,-140.74710772003638
9.60142336,0.999970895320005,-141.2319236522898
9.615657984,1.0000121466566723,-141.71725210900166
9.629893632,1.0000528557752786,-142.20309236028044
9.644128256,1.0000913362825241,-142.68947289214816
9.65836288,1.000125733313261,-143.17630277996574
9.672597504,1.0001545927815605,-143.66353981941637
9.686833152,1.0001764317963506,-144.15111549706262
9.701067776,1.000190570942959,-144.6389487782768
9.7153024,1.0001961604268634,-145.1269098044943
9.729537024,1.0001929637785498,-145.6149268899411
9.743772672,1.0001811104318827,-146.10286268412878
9.758007296,1.0001611249339841,-146.59065525424654
9.77224192,1.0001338660131396,-147.07817028610185
9.786476544,1.000100511386176,-147.56534321207053
9.800712192,1.0000626786720959,-148.05212040643826
9.814946816,1.0000218553833595,-148.5384337632692
9.82918144,0.9999799412661132,-149.02426774913383
9.843416064,0.9999388442955135,-149.50962752290013
9.857651712,0.9999004181585716,-149.99451262422966
9.871886336,0.9998662430120355,-150.47899447932107
9.88612096,0.9998379658539213,-150.9631031027854
9.900355584,0.9998168494985751,-151.4469285598216
9.914591232,0.9998038355375741,-151.9305837360932
9.928825856,0.9997995463409924,-152.41417001441138
9.94306048,0.9998041367016633,-152.89774138178416
9.957295104,0.9998175501219927,-153.38146298930556
9.971530752,0.9998390952603802,-153.86541482710447
9.985765376,0.9998677613111424,-154.3497060957763
10.0,0.9999024253459983,-154.83438103472562
10.014234624,0.999941420094677,-155.3195407449079
10.028469248,0.9999831951258547,-155.80522382145168
10.042704896,1.0000257143667814,-156.29142763854182
10.05693952,1.000067202970479,-156.77815287104835
10.071174144,1.000105740342746,-157.26539677727658
10.085408768,1.0001395709712297,-157.7531185121171
10.099644416,1.0001672739390335,-158.24124697687859
10.11387904,1.000187516769634,-158.72967502990795
10.128113664,1.0001993923180967,-159.21832924234656
10.142348288,1.0002023633028696,-159.7070924567461
10.156583936,1.000196338754436,-160.19585589944302
10.17081856,1.0001815347510663,-160.68453135930017
10.185053184,1.0001584864213893,-161.1729979702298
10.199287808,1.0001282610578206,-161.66115802329327
10.213523456,1.0000923478223167,-162.1489583199173
10.22775808,1.0000521336439874,-162.636296776516
10.241992704,1.000009570860843,-163.12317224275895
10.256227328,0.9999664222989767,-163.60953021874766
10.270462976,0.999924626254847,-164.09540662206007
10.2846976,0.999886067401929,-164.5808092552235
10.298932224,0.9998525727245413,-165.0657942035007
10.313166848,0.9998255014915886,-165.55042851942292
10.327402496,0.9998062788960698,-166.03479798740037
10.34163712,0.9997954347671089,-166.51900589340087
10.355871744,0.9997937669120418,-167.00316327964322
10.370106368,0.9998013288149958,-167.48736753582926
10.384342016,0.99981778037889,-167.97175494542785
10.39857664,0.9998422383364802,-168.4563810712235
10.412811264,0.9998739919365363,-168.94138660723462
10.427045888,0.9999112426046702,-169.42680736418316
10.441281536,0.9999526507521296,-169.91275577856325
10.45551616,0.9999961988337382,-170.3992298662891
10.469750784,1.000039975859397,-170.88625702345138
10.483985408,1.0000820639506875,-171.3738304324022
10.498221056,1.0001205515398581,-171.86191721088358
10.51245568,1.0001537666533928,-172.35045261362853
10.526690304,1.0001800348996022,-172.83938347681263
10.540924928,1.0001984172235023,-173.32860431482314
10.555160576,1.000208023759863,-173.81801158792842
10.5693952,1.0002082494667488,-174.30750612241982
10.583629824,1.0001992252016167,-174.7969736646171
10.597864448,1.000181254696032,-175.28629195435087
10.612100096,1.0001550411104612,-175.77538168864365
10.62633472,1.0001218860052072,-176.26411153243902
10.640569344,1.0000833246599592,-176.75244537955368
10.654803968,1.0000407934093218,-177.2402841488919
10.669039616,0.999996299766592,-177.72763851284333
10.68327424,0.9999518830696618,-178.21445516325485
10.697508864,0.9999095649479053,-178.70077655851424
10.711743488,0.9998711563458732,-179.1866093173656
10.725979136,0.9998382822576366,-179.67202351860743
10.74021376,0.999812726306451,179.84288207127256
10.754448384,0.9997953070446242,179.3580489730753
10.768683008,0.9997870195354561,178.8733481740212
10.782918656,0.9997882004508034,178.38868788803416
10.79715328,0.9997988533339469,177.90392781080715
10.811387904,0.9998184340346747,177.41896944427643
10.825622528,0.9998462925436403,176.9336961506397
10.839857152,0.9998810780117848,176.44803804633116
10.8540928,0.9999210761174083,175.96191061335728
10.868327424,0.9999648388998577,175.47524120202456
10.882562048,1.0000101381895097,174.98802139268923
10.896796672,1.0000552297222944,174.5002365586826
10.91103232,1.0000977969706886,174.0118889935068
10.925266944,1.0001361138234586,173.52303850282885
10.939501568,1.000168541945184,173.0337369754004
10.953736192,1.0001934976574378,172.54407140353666
10.96797184,1.0002097696904007,172.05412112687904
10.982206464,1.000216772334675,171.56400235020627
10.996441088,1.0002140757804519,171.07385453673848
11.010675712,1.0002018038114837,170.5837808072221
11.02491136,1.0001804584610388,170.09387599463838
11.039145984,1.0001510747050342,169.6042569943796
11.053380608,1.0001148098230623,169.11501894633508
11.067615232,1.0000732790927986,168.6262314644912
11.08185088,1.0000283917834911,168.137973384068
11.096085504,0.9999822407746619,167.650249183938
11.110320128,0.9999365688984202,167.16304570195788
11.124554752,0.9998936117054587,166.6763828796021
11.1387904,0.9998553058464666,166.19017925999688
11.153025024,0.9998234014195927,165.70439542528976
11.167259648,0.9997993557845068,165.2189563715407
11.181494272,0.99978413777472,164.73371983594774
11.19572992,0.9997784991095925,164.24860640554823
11.209964544,0.9997827824794844,163.7634932733809
11.224199168,0.9997965999567854,163.27825704027174
11.238433792,0.9998197143606417,162.79278212778823
11.25266944,0.9998508728199748,162.30695598304126
11.266904064,0.999888758067845,161.8206862713331
11.281138688,0.9999316316129819,161.33392647414297
11.295373312,0.9999778222844431,160.84660926771724
11.30960896,1.0000250129711796,160.35870248507268
11.323843584,1.0000712058710521,159.87022103233062
11.338078208,1.0001143311011473,159.38116524372114
11.352312832,1.0001524207913397,158.8916195190886
11.36654848,1.0001838895215591,158.4016006090262
11.380783104,1.0002071339957652,157.91125822739914
11.395017728,1.000221190897606,157.42066378887563
11.409252352,1.0002253953437397,156.92992671549325
11.423488,1.000219558228496,156.4392022493386
11.437722624,1.0002038440980792,155.948561485039
11.451957248,1.0001791418343022,155.45816746882352
11.466191872,1.0001461721761191,154.9681117918437
11.48042752,1.0001066738487019,154.4784528445153
11.494662144,1.000062179448651,153.98931834601564
11.508896768,1.0000148276214993,153.50070628914625
11.523131392,0.9999667563003722,153.0126786563084
11.53736704,0.9999199658737282,152.52520857112205
11.551601664,0.99987661756881,152.03826435355177
11.565836288,0.999838633384048,151.5517953658777
11.580070912,0.9998077617824465,151.06575445334178
11.59430656,0.999785435218874,150.58001448499817
11.608541184,0.9997724331008244,150.09448252710328
11.622775808,0.9997697053853402,149.60903558350049
11.637010432,0.999777250874886,149.1235374597708
11.651245056,0.9997946940210506,148.63788815854406
