freq,mag,phase
6.0,0.9999981418320142,177.12399384088116
6.008,0.9999977324070229,176.81665084963444
6.016,0.9999973414041052,176.50922231353996
6.024,0.9999969684010497,176.20170198011203
6.032,0.999996612981766,175.89408358534234
6.04,0.9999962747362185,175.5863608534258
6.048,0.9999959532603516,175.27852749648457
6.056,0.9999956481560229,174.97057721429098
6.064,0.9999953590309327,174.66250369398858
6.072,0.9999950854985578,174.35430060981182
6.08,0.9999948271780829,174.0459616228042
6.088,0.9999945836943354,173.73748038053506
6.096,0.9999943546777176,173.42885051681466
6.104,0.9999941397641438,173.12006565140817
6.112,0.9999939385949735,172.81111938974786
6.12,0.9999937508169514,172.50200532264424
6.128,0.999993576082141,172.19271702599568
6.136,0.9999934140478638,171.8832480604965
6.144,0.9999932643766377,171.57359197134417
6.152,0.9999931267361162,171.26374228794464
6.16,0.999993000799029,170.95369252361687
6.168,0.999992886243121,170.6434361752957
6.176,0.9999927827510947,170.3329667232337
6.184,0.9999926900105517,170.02227763070195
6.192,0.999992607713936,169.71136234368885
6.2,0.9999925355584749,169.40021429059883
6.208,0.9999924732461277,169.08882688194916
6.216,0.9999924204835239,168.77719351006579
6.224,0.9999923769819132,168.46530754877813
6.232,0.999992342457111,168.15316235311278
6.24,0.9999923166294404,167.8407512589861
6.248,0.9999922992236867,167.52806758289583
6.256,0.9999922899690386,167.21510462161183
6.264,0.9999922885990388,166.9018556518653
6.272,0.9999922948515351,166.58831393003805
6.28,0.9999923084686269,166.27447269184967
6.288,0.9999923291966164,165.96032515204485
6.296,0.99999235678596,165.6458645040792
6.304,0.99999239099122,165.3310839198046
6.312,0.9999924315710151,165.0159765491534
6.32,0.9999924782879744,164.70053551982238
6.328,0.999992530908688,164.38475393695563
6.336,0.9999925892036655,164.06862488282678
6.344,0.9999926529472858,163.75214141652077
6.352,0.9999927219177529,163.43529657361492
6.36,0.999992795897055,163.11808336585935
6.368,0.9999928746709147,162.80049478085712
6.376,0.999992958028748,162.48252378174368
6.384,0.9999930457636251,162.16416330686596
6.392,0.9999931376722206,161.84540626946128
6.4,0.9999932335547772,161.52624555733556
6.408,0.9999933332150642,161.20667403254154
6.416,0.9999934364603348,160.8866845310567
6.424,0.9999935431012833,160.56626986246093
6.432,0.9999936529520123,160.24542280961413
6.44,0.9999937658299877,159.9241361283339
6.448,0.9999938815560026,159.60240254707278
6.456,0.9999939999541365,159.28021476659606
6.464,0.9999941208517215,158.9575654596594
6.472,0.9999942440793008,158.63444727068662
6.48,0.9999943694705957,158.31085281544796
6.4879999999999995,0.9999944968624659,157.98677468073828
6.496,0.9999946260948765,157.66220542405603
6.504,0.9999947570108605,157.33713757328246
6.5120000000000005,0.9999948894564864,157.01156362636124
6.52,0.9999950232808212,156.68547605097905
6.5280000000000005,0.9999951583358974,156.3588672842463
6.536,0.9999952944766806,156.03172973237935
6.5440000000000005,0.9999954315610351,155.70405577038258
6.552,0.9999955694496911,155.37583774173265
6.5600000000000005,0.9999957080062136,155.04706795806234
6.568,0.9999958470969724,154.71773869884697
6.5760000000000005,0.9999959865911041,154.38784221109051
6.584,0.9999961263604902,154.0573707090146
6.592,0.9999962662797208,153.7263163737474
6.6,0.9999964062260654,153.39467135301518
6.608,0.9999965460794457,153.06242776083477
6.616,0.9999966857224017,152.72957767720803
6.624,0.9999968250400707,152.39611314781817
6.632,0.9999969639201508,152.06202618372788
6.64,0.999997102252877,151.7273087610795
6.648,0.9999972399309938,151.3919528207977
6.656,0.9999973768497268,151.055950268294
6.664,0.9999975129067561,150.7192929731741
6.672,0.9999976480021922,150.38197276894763
6.68,0.9999977820385443,150.04398145274072
6.688,0.999997914920702,149.70531078501125
6.696,0.9999980465559052,149.36595248926727
6.704,0.9999981768537187,149.02589825178848
6.712,0.9999983057260123,148.68513972135116
6.72,0.9999984330869317,148.3436685089563
6.728,0.999998558852877,148.00147618756174
6.736,0.9999986829424796,147.65855429181767
6.744,0.9999988052765784,147.31489431780636
6.752,0.9999989257781957,146.97048772278632
6.76,0.9999990443725184,146.62532592493997
6.768,0.9999991609868718,146.2794003031266
6.776,0.9999992755507006,145.9327021966399
6.784,0.9999993879955466,145.5852229049699
6.792,0.9999994982550272,145.23695368757075
6.8,0.999999606264816,144.88788576363322
6.808,0.9999997119626198,144.53801031186308
6.816,0.9999998152881618,144.18731847026504
6.824,0.9999999161831593,143.8358013359328
6.832,1.0,143.48344996484533
6.84,1.0,143.13025537166934
6.848,0.9999999999999998,142.77620852956872
6.856,1.0000000000000002,142.42130037002087
6.864,1.0,142.0655217826402
6.872,1.0,141.7088636150089
6.88,0.9999999999999999,141.3513166725159
6.888,1.0,140.99287171820328
6.896,1.0,140.63351947262134
6.904,1.0000000000000002,140.27325061369237
6.912,1.0,139.91205577658266
6.92,0.9999999999999999,139.5499255535847
6.928,0.9999999999999998,139.1868504940078
6.936,0.9999999999999999,138.82282110407937
6.944,1.0,138.45782784685585
6.952,0.9999999999999999,138.09186114214455
6.96,1.0,137.72491136643578
6.968,0.9999999999999999,137.3569688528467
6.976,0.9999999999999999,136.98802389107652
6.984,0.9999999999999999,136.6180667273734
6.992,1.0,136.24708756451403
7.0,1.0,135.87507656179568
7.008,0.9999999999999999,135.50202383504134
7.016,0.9999999999999999,135.12791945661843
7.024,0.9999999999999999,134.75275345547135
7.032,1.0,134.3765158171684
7.04,0.9999999999999999,133.9991964839635
7.048,0.9999999999999999,133.62078535487296
7.056,0.9999999999999999,133.24127228576822
7.064,1.0,132.86064708948433
7.072,0.9999999999999999,132.47889953594546
7.08,1.0,132.0960193523071
7.088,1.0,131.71199622311613
7.096,1.0,131.32681979048877
7.104,0.9999999999999999,130.9404796543074
7.112,0.9999999999999998,130.5529653724363
7.12,1.0,130.1642664609569
7.128,0.9999999999999999,129.77437239442378
7.136,0.9999999999999999,129.3832726061409
7.144,1.0,128.99095648845966
7.152,1.0,128.5974133930982
7.16,1.0000000000000002,128.2026326314841
7.168,1.0,127.8066034751196
7.176,1.0,127.40931515597066
7.184,0.9999999999999999,127.01075686688064
7.192,0.9999999999999999,126.61091776200861
7.2,1.0,126.20978695729373
7.208,1.0,125.80735353094575
7.216,1.0,125.40360652396231
7.224,1.0000000000000002,124.9985349406745
7.232,1.0,124.59212774932013
7.24,1.0,124.18437388264672
7.248,0.9999999999999998,123.77526223854365
7.256,1.0,123.36478168070568
7.264,1.0,122.95292103932708
7.272,1.0,122.53966911182805
7.28,1.0,122.12501466361407
7.288,1.0,121.70894642886881
7.296,1.0,121.2914531113814
7.304,1.0,120.87252338540884
7.312,1.0,120.4521458965748
7.32,1.0,120.03030926280469
7.328,1.0,119.60700207529896
7.336,1.0000000000000002,119.18221289954471
7.344,0.9999999067004706,118.75593027636654
7.352,0.9999998044012227,118.32814272301815
7.36,0.9999996995091163,117.89883873431457
7.368,0.9999995920683195,117.46800678380676
7.376,0.9999994821241489,117.03563532499912
7.384,0.999999369723061,116.60171279261067
7.392,0.9999992549126416,116.16622760388138
7.4,0.9999991377415969,115.7291681599237
7.4079999999999995,0.9999990182597487,115.29052284712128
7.416,0.999998896518016,114.8502800385747
7.4239999999999995,0.9999987725684161,114.40842809559662
7.432,0.9999986464640468,113.96495536925504
7.4399999999999995,0.9999985182590805,113.51985020196875
7.448,0.9999983880087546,113.07310092915257
7.4559999999999995,0.9999982557693605,112.62469588091646
7.464,0.9999981215982328,112.17462338381655
7.4719999999999995,0.9999979855537406,111.72287176266224
7.48,0.9999978476952769,111.2694293423769
7.4879999999999995,0.999997708083245,110.81428444991667
7.496,0.9999975667790536,110.35742541624494
7.504,0.9999974238450979,109.89884057836683
7.5120000000000005,0.9999972793447564,109.43851828142147
7.52,0.999997133342372,108.97644688083614
7.5280000000000005,0.9999969859032456,108.51261474454017
7.536,0.9999968370936205,108.04701025524288
7.5440000000000005,0.9999966869806721,107.57962181277304
7.552,0.9999965356324945,107.11043783648446
7.5600000000000005,0.9999963831180875,106.63944676772512
7.568,0.9999962295073421,106.16663707237414
7.5760000000000005,0.9999960748710295,105.69199724344442
7.584,0.9999959192807847,105.21551580375497
7.5920000000000005,0.9999957628090937,104.73718130867088
7.6,0.9999956055292772,104.25698234891476
7.6080000000000005,0.9999954475154762,103.77490755344742
7.616,0.9999952888426379,103.29094559242237
7.6240000000000006,0.9999951295864972,102.80508518021104
7.632,0.9999949698235615,102.31731507850331
7.640000000000001,0.9999948096310949,101.82762409948091
7.648,0.9999946490870982,101.33600110906754
7.656000000000001,0.999994488270294,100.84243503025343
7.664,0.9999943272601074,100.34691484649845
7.672,0.9999941661366449,99.84942960521079
7.68,0.9999940049806796,99.34996842130562
7.688,0.9999938438736274,98.84852048084161
7.696,0.9999936828975285,98.34507504473719
7.704,0.9999935221350261,97.83962145256717
7.712,0.999993361669344,97.33214912643979
7.72,0.999993201584267,96.82264757495516
7.728,0.9999930419641142,96.31110639724534
7.736,0.999992882893719,95.79751528709645
7.744,0.9999927244584035,95.28186403715345
7.752,0.9999925667439548,94.76414254320754
7.76,0.9999924098365978,94.24434080856686
7.768,0.999992253822971,93.72244894851023
7.776,0.9999920987901006,93.19845719482467
7.784,0.999991944825369,92.6723559004261
7.792,0.9999917920164915,92.14413554406387
7.8,0.9999916404514848,91.61378673510875
7.808,0.9999914902186375,91.08130021842415
7.816,0.9999913414064806,90.54666687932067
7.824,0.9999911941037558,90.00987774859357
7.832,0.9999910483993839,89.47092400764268
7.84,0.9999909043824312,88.92979699367453
7.848,0.999990762142078,88.3864882049859
7.856,0.9999906217675828,87.84098930632842
7.864,0.9999904833482469,87.29329213435332
7.872,0.99999034697338,86.74338870313565
7.88,0.9999902127322619,86.19127120977673
7.888,0.9999900807141064,85.63693204008429
7.896,0.9999899510080221,85.08036377432872
7.904,0.9999898237029728,84.52155919307441
7.912,0.9999896988877386,83.96051128308461
7.92,0.9999895766508737,83.3972132432986
7.928,0.999989457080666,82.83165849087926
7.936,0.9999893402650933,82.2638406673295
7.944,0.9999892262917804,81.69375364467555
7.952,0.9999891152479549,81.12139153171509
7.96,0.9999890072204025,80.54674868032826
7.968,0.9999889022954196,79.969819691849
7.976,0.9999888005587683,79.39059942349446
7.984,0.999988702095628,78.80908299484994
7.992,0.9999886069905468,78.22526579440627
8.0,0.9999885153273926,77.63914348614742
8.008,0.9999884271893038,77.05071201618463
8.016,0.9999883426586371,76.459967619434
8.024000000000001,0.9999882618169175,75.86690682633505
8.032,0.9999881847447851,75.2715264696053
8.04,0.999988111521943,74.67382369102778
8.048,0.999988042227103,74.07379594826838
8.056000000000001,0.9999879769379317,73.47144102171846
8.064,0.9999879157309957,72.86675702135777
8.072,0.9999878586817055,72.25974239363416
8.08,0.9999878058642597,71.65039592835588
8.088000000000001,0.9999877573515888,71.03871676559133
8.096,0.9999877132152979,70.42470440257082
8.104,0.9999876735256077,69.80835870058583
8.112,0.9999876383512983,69.18967989188093
8.120000000000001,0.9999876077596496,68.56866858653292
8.128,0.9999875818163819,67.94532577931037
8.136,0.9999875605855983,67.31965285650892
8.144,0.9999875441297242,66.69165160275668
8.152000000000001,0.9999875325094467,66.06132420778329
8.16,0.9999875257836572,65.42867327314562
8.168,0.9999875240093887,64.7937018189045
8.176,0.9999875272417574,64.15641329024618
8.184000000000001,0.9999875355339026,63.51681156404152
8.192,0.999987548936925,62.874900955335306
8.2,0.9999875674998299,62.23068622375903
8.208,0.9999875912694638,61.58417257986104
8.216000000000001,0.9999876202904588,60.935365691345616
8.224,0.9999876546051697,60.284271689213156
8.232,0.9999876942536181,59.63089717379467
8.24,0.9999877392734329,58.97524922067309
8.248000000000001,0.9999877896997933,58.31733538648312
8.256,0.9999878455653705,57.65716371458136
8.264,0.9999879069002723,56.994742740578765
8.272,0.9999879737319876,56.33008149772845
8.280000000000001,0.9999880460853308,55.66318952215965
8.288,0.9999881239823888,54.99407685794909
8.296,0.999988207442468,54.322754062022135
8.304,0.9999882964820426,53.64923220887575
8.312,0.9999883911147043,52.973522895114655
8.32,0.9999884913511131,52.2956382437902
8.328,0.9999885971989498,51.61559090853757
8.336,0.9999887086628692,50.9333940774982
8.344,0.9999888257444569,50.24906147702344
8.352,0.9999889484421843,49.56260737514654
8.36,0.9999890767513688,48.874046584819375
8.368,0.9999892106641352,48.183394466900474
8.376,0.999989350169376,47.490666932891166
8.384,0.9999894952527179,46.79588044740679
8.392,0.999989645896488,46.09905203037967
8.4,0.999989802079683,45.40019925898096
8.408,0.9999899637779417,44.69934026925875
8.416,0.9999901309635155,43.99649375747914
8.424,0.9999903036052488,43.29167898116873
8.432,0.9999904816685552,42.58491575984509
8.44,0.9999906651154009,41.87622447543386
8.448,0.9999908539042872,41.16562607236043
8.456,0.9999910479902381,40.45314205731408
8.464,0.9999912473247929,39.73879449867378
8.472,0.9999914518559957,39.022606025593944
8.48,0.9999916615283939,38.30459982673963
8.488,0.9999918762830372,37.584799648670476
8.496,0.9999920960574803,36.863229793863
8.504,0.9999923207857876,36.1399151183717
8.512,0.9999925503985443,35.41488102911901
8.52,0.999992784822867,34.68815348081526
8.528,0.9999930239824223,33.95975897249958
8.536,0.9999932677974428,33.229724543703576
8.544,0.9999935161847537,32.49807777022964
8.552,0.9999937690577972,31.7648467595466
8.56,0.9999940263266637,31.030060145795193
8.568,0.9999942878981251,30.293747084407393
8.576,0.9999945536756731,29.555937246332583
8.584,0.9999948235595596,28.816660811875817
8.592,0.9999950974468415,28.075948464142336
8.6,0.9999953752314301,27.333831382093877
8.608,0.9999956568041427,26.5903412332128
8.616,0.9999959420527578,25.845510165780215
8.624,0.9999962308620753,25.099370800764977
8.632,0.9999965231139799,24.35195622333124
8.64,0.9999968186875067,23.603299973962336
8.648,0.9999971174589123,22.853436039209704
8.656,0.9999974193017479,22.102398842065654
8.664,0.9999977240869364,21.35022323197013
8.672,0.9999980316828535,20.59694447445105
8.68,0.9999983419554109,19.842598240409583
8.688,0.9999986547681442,19.0872205950511
8.696,0.9999989699823015,18.330847986474215
8.704,0.9999992874569386,17.573517233919684
8.712,0.9999996070490142,16.815265515692808
8.72,0.9999999286134899,16.056130356762015
8.728,1.0000000000000002,15.296149616048417
8.736,0.9999999999999999,14.53536147341007
8.744,1.0,13.77380441633655
8.752,0.9999999999999999,13.011517226358897
8.76,0.9999999999999999,12.248538965191178
8.768,1.0,11.484908960609836
8.776,1.0,10.720666792087965
8.784,1.0,9.955852276191411
8.792,0.9999999999999999,9.190505451754895
8.8,0.9999999999999999,8.424666564845687
8.808,0.9999999999999999,7.658376053533789
8.815999999999999,0.9999999999999999,6.891674532477092
8.824,1.0,6.124602777339966
8.832,0.9999999999999999,5.357201709057706
8.84,1.0,4.589512377961081
8.847999999999999,1.0,3.8215759477765947
8.856,1.0,3.0534336795182493
8.864,1.0,2.2851269152855536
8.872,1.0,1.5166970619825562
8.879999999999999,1.0,0.7481855749742857
8.888,1.0,-0.020366058302990285
8.896,1.0,-0.788916334762437
8.904,1.0,-1.5574237521030898
8.911999999999999,1.0,-2.325846825245402
8.92,0.9999999999999999,-3.09414410274927
8.928,1.0,-3.862274183199314
8.936,1.0,-4.630195731542268
8.943999999999999,0.9999999999999999,-5.39786749536
8.952,1.0,-6.165248321061801
8.96,1.0,-6.932297169981261
8.968,1.0,-7.698973134362878
8.975999999999999,0.9999999999999998,-8.465235453222755
8.984,1.0,-9.231043528067746
8.992,1.0,-9.996356938458986
9.0,1.0,-10.76113545740628
9.008,1.0,-11.525339066578475
9.016,1.0,-12.288927971315301
9.024000000000001,0.9999999999999999,-13.051862615428261
9.032,1.0,-13.81410369577785
9.04,1.0,-14.575612176614007
9.048,0.9999999999999999,-15.336349303666788
9.056000000000001,1.0,-16.096276617976237
9.064,1.0,-16.85535596945055
9.072,1.0,-17.61354953014124
9.08,1.0,-18.370819807223995
9.088000000000001,0.9999999999999999,-19.127129655675937
9.096,1.0,-19.882442290640775
9.104,0.9999999999999999,-20.636721299471926
9.112,1.0,-21.38993065344477
9.120000000000001,1.0,-22.142034719130717
9.128,0.9999999999999998,-22.892998269426556
9.136,0.9999999999999999,-23.642786494231398
9.144,1.0,-24.391365010764535
9.152000000000001,1.0,-25.13869987351909
9.16,0.9999999999999999,-25.88475758384693
9.168,1.0,-26.629505099169723
9.176,1.0,-27.372909841811413
9.184000000000001,0.9999999999999999,-28.114939707449135
9.192,0.9999999999999999,-28.855563073180516
9.2,1.0,-29.594748805204247
9.208,1.0,-30.332466266111247
9.216000000000001,1.0,-31.0686853217861
9.224,0.9999999999999999,-31.803376347918284
9.232,1.0,-32.536510236122396
9.24,0.9999999999999999,-33.26805839966702
9.248000000000001,0.9999999999999998,-33.99799277881349
9.256,0.9999999999999999,-34.72628584576648
9.264,1.0,-35.45291060923737
9.272,0.9999999999999999,-36.17784061862208
9.280000000000001,1.0,-36.90104996779607
9.288,1.0,-37.62251329853117
9.296,1.0,-38.342205803535784
9.304,1.0,-39.06010322912263
9.312000000000001,1.0,-39.77618187750854
9.32,1.0,-40.49041860875135
9.328,1.0,-41.20279084232855
9.336,1.0,-41.91327655836211
9.344,1.0,-42.62185429849568
9.352,1.0,-43.32850316643164
9.36,1.0,-44.03320282813047
9.368,1.0,-44.73593351168375
9.376,0.9999999999999999,-45.436676006862086
9.384,1.0000000000000002,-46.13541166435068
9.392,0.9999999999999999,-46.832122394673796
9.4,0.9999999999999999,-47.52679066682137
9.408,0.9999999999999999,-48.219399506579535
9.416,1.0,-48.90993249457831
9.424,1.0,-49.59837376405893
9.432,1.0,-50.28470799837422
9.44,1.0,-50.96892042822456
9.448,0.9999999999999999,-51.650996828643095
9.456,1.0,-52.33092351573332
9.464,1.0000000000000002,-53.00868734317225
9.472,1.0,-53.68427569848288
9.48,1.0,-54.35767649908884
9.488,1.0,-55.028878188155495
9.496,0.9999999999999999,-55.69786973022997
9.504,1.0,-56.36464060668467
9.512,0.9999999999999999,-57.02918081097656
9.52,1.0,-57.69148084372678
9.528,1.0,-58.351531707632965
9.536,1.0,-59.009324902218395
9.544,0.9999999999999999,-59.66485241843068
9.552,0.9999999999999998,-60.31810673309343
9.56,1.0,-60.969080803224095
9.568,1.0,-61.617768060220776
9.576,0.9999999999999999,-62.26416240393098
9.584,0.9999999999999999,-62.9082581966053
9.592,0.9999999999999999,-63.55005025674857
9.6,0.9999999999999999,-64.18953385287101
9.608,0.9999999999999999,-64.82670469715195
9.616,0.9999999999999999,-65.46155893901847
9.624,0.9999999999999999,-66.09409315865088
9.632,1.0,-66.72430436041724
9.64,1.0,-67.35218996624884
9.648,1.0,-67.97774780895843
9.656,1.0,-68.60097612551216
9.664,1.0,-69.22187355025764
9.672,1.0,-69.84043910811828
9.68,1.0,-70.45667220775594
9.688,1.0,-71.07057263471194
9.696,1.0,-71.6821405445279
9.704,1.0,-72.29137645585622
9.712,0.9999999999999999,-72.89828124356144
9.72,0.9999999999999999,-73.50285613182167
9.728,1.0,-74.10510268723122
9.736,0.9999999999999998,-74.7050228119132
9.744,1.0,-75.30261873664278
9.752,1.0,-75.89789301398972
9.76,1.0,-76.49084851148035
9.768,1.0,-77.08148840478728
9.776,0.9999999999999999,-77.66981617094682
9.784,1.0,-78.25583558161188
9.792,0.9999999999999999,-78.83955069634017
9.8,1.0,-79.42096585592489
9.808,1.0,-80.00008567576765
9.816,1.0,-80.57691503930043
9.824,1.0,-81.15145909145586
9.832,1.0,-81.72372323219254
9.84,0.9999999999999999,-82.2937131100741
9.847999999999999,1.0,-82.86143461590858
9.856,1.0,-83.42689387644732
9.864,1.0,-83.9900972481469
9.872,0.9999999999999999,-84.55105131099695
9.879999999999999,0.9999999999999999,-85.10976286241498
9.888,0.9999999999999998,-85.66623891120977
9.896,1.0,-86.22048667161559
9.904,0.9999999999999999,-86.7725135573993
9.911999999999999,0.9999999999999999,-87.32232717604114
9.92,1.0,-87.86993532299056
