freq,mag,phase
6.0,0.9999967863712659,59.421961697570346
6.008,0.9999966998099292,59.24608281035983
6.016,0.9999965945375792,59.0701603540077
6.024,0.9999964710597072,58.89419438531131
6.032,0.9999963298774401,58.718184961395316
6.04,0.9999961714875397,58.54213213971246
6.048,0.9999959963824033,58.36603597804423
6.056,0.999995805050062,58.18989653450158
6.064,0.9999955979741819,58.013713867525645
6.072,0.9999953756340625,57.837488035888505
6.08,0.9999951385046368,57.66121909869379
6.088,0.9999948870564708,57.484907115377474
6.096,0.999994621755762,57.30855214570842
6.104,0.9999943430643412,57.13215424978921
6.112,0.9999940514396682,56.95571348805674
6.12,0.9999937473348351,56.77922992128289
6.128,0.9999934311985623,56.60270361057518
6.136,0.9999931034751994,56.42613461737746
6.144,0.9999927646047244,56.24952300347052
6.152,0.9999924150227418,56.07286883097278
6.16,0.9999920551604826,55.896172162340854
6.168,0.999991685444803,55.71943306037027
6.176,0.9999913062981818,55.54265158819606
6.184,0.9999909181387224,55.36582780929334
6.192,0.9999905213801484,55.18896178747807
6.2,0.9999901164318039,55.01205358690748
6.208,0.9999897036986516,54.835103272080836
6.216,0.9999892835812715,54.65811090783996
6.224,0.999988856475859,54.481076559369896
6.232,0.9999884227742233,54.30400029219945
6.24,0.999987982863786,54.126882172201825
6.248,0.9999875371275788,53.94972226559524
6.256,0.9999870859442415,53.772520638943455
6.264,0.99998662968802,53.59527735915641
6.272,0.9999861687287639,53.417992493490836
6.28,0.9999857034319257,53.240666109550745
6.288,0.9999852341585561,53.063298275288155
6.296,0.9999847612653027,52.88588905900353
6.304,0.9999842851044077,52.70843852934649
6.312,0.9999838060237045,52.53094675531629
6.32,0.9999833243666146,52.353413806262466
6.328,0.9999828404721465,52.17583975188544
6.336,0.9999823546748896,51.998224662237
6.344,0.9999818673050139,51.82056860772102
6.352,0.9999813786882648,51.642871659093885
6.36,0.9999808891459598,51.46513388746529
6.368,0.9999803989949863,51.28735536429867
6.376,0.9999799085477962,51.109536161411754
6.384,0.9999794181124027,50.93167635097738
6.392,0.9999789279923766,50.753776005523875
6.4,0.9999784384868421,50.575835197935774
6.408,0.9999779498904717,50.397854001454405
6.416,0.9999774624934825,50.219832489678474
6.424,0.9999769765816322,50.04177073656476
6.432,0.9999764924362134,49.863668816428635
6.44,0.9999760103340491,49.6855268039448
6.448,0.999975530547488,49.50734477414785
6.456,0.9999750533443993,49.32912280243298
6.464,0.9999745789881676,49.1508609645566
6.472,0.9999741077376864,48.97255933663698
6.48,0.9999736398473547,48.79421799515502
6.4879999999999995,0.9999731755670699,48.61583701695486
6.496,0.9999727151422221,48.43741647924453
6.504,0.9999722588136883,48.25895645959682
6.5120000000000005,0.9999718068178274,48.080457035949784
6.52,0.9999713593864719,47.90191828660771
6.5280000000000005,0.9999709167469236,47.72334029024166
6.536,0.9999704791219465,47.54472312589037
6.5440000000000005,0.9999700467297604,47.366066872960914
6.552,0.9999696197840331,47.18737161122965
6.5600000000000005,0.9999691984938757,47.0086374208428
6.568,0.9999687830638344,46.82986438231756
6.5760000000000005,0.9999683736938831,46.65105257654266
6.584,0.999967970579418,46.47220208477952
6.592,0.9999675739112494,46.293312988662805
6.6,0.9999671838755935,46.11438537020159
6.608,0.9999668006540677,45.93541931178021
6.616,0.9999664244236809,45.75641489615919
6.624,0.999966055356826,45.57737220647615
6.632,0.9999656936212752,45.39829132624696
6.64,0.9999653393801686,45.2191723393666
6.648,0.9999649927920098,45.040015330110315
6.656,0.9999646540106562,44.86082038313463
6.664,0.9999643231853124,44.68158758347849
6.672,0.999964000460523,44.50231701656432
6.68,0.9999636859761634,44.32300876819926
6.688,0.9999633798674341,44.143662924576304
6.696,0.9999630822648519,43.96427957227558
6.704,0.9999627932942421,43.7848587982655
6.712,0.999962513076733,43.60540068990415
6.72,0.9999622417287461,43.4259053349405
6.728,0.9999619793619912,43.24637282151593
6.736,0.9999617260834567,43.06680323816541
6.744,0.9999614819954055,42.887196673819076
6.752,0.9999612471953657,42.70755321780364
6.76,0.9999610217761248,42.52787295984391
6.768,0.9999608058257241,42.34815599006432
6.776,0.9999605994274515,42.16840239899056
6.784,0.9999604026598354,41.98861227755106
6.792,0.9999602155966395,41.808785717078926
6.8,0.9999600383068572,41.62892280931334
6.808,0.9999598708547062,41.44902364640155
6.816,0.9999597132996241,41.269088320900586
6.824,0.9999595656962634,41.089116925779074
6.832,0.999959428094489,40.909109554419196
6.84,0.9999593005393725,40.729066300618605
6.848,0.9999591830711907,40.54898725859239
6.856,0.9999590757254226,40.36887252297517
6.864,0.9999589785327472,40.188722188823114
6.872,0.9999588915190413,40.00853635161615
6.88,0.9999588147053807,39.82831510726011
6.888,0.9999587481080376,39.64805855208901
6.896,0.999958691738483,39.46776678286723
6.904,0.9999586456033858,39.28743989679205
6.912,0.999958609704617,39.10707799149589
6.92,0.9999585840392511,38.92668116504883
6.928,0.9999585685995697,38.74624951596106
6.936,0.9999585633730661,38.56578314318551
6.944,0.9999585683424513,38.38528214612045
6.952,0.9999585834856604,38.2047466246121
6.96,0.999958608775859,38.024176678957375
6.968,0.9999586441814524,37.84357240990664
6.976,0.9999586896660961,37.662933918666674
6.984,0.9999587451887056,37.48226130690333
6.992,0.9999588107034689,37.30155467674456
7.0,0.9999588861598598,37.12081413078346
7.008,0.9999589715026534,36.94003977208125
7.016,0.9999590666719415,36.75923170417034
7.024,0.99995917160315,36.57839003105748
7.032,0.9999592862270594,36.397514857227
7.04,0.9999594104698246,36.21660628764397
7.048,0.9999595442529984,36.03566442775749
7.056,0.9999596874935534,35.85468938350403
7.064,0.9999598401039101,35.67368126131083
7.072,0.999960001991965,35.492640168099264
7.08,0.999960173061117,35.3115662112883
7.088,0.9999603532103034,35.13045949879799
7.096,0.99996054233403,34.949320139053015
7.104,0.9999607403224084,34.768148240986214
7.112,0.9999609470611943,34.586943914042216
7.12,0.9999611624318256,34.40570726818102
7.128,0.9999613863114675,34.22443841388164
7.136,0.9999616185730544,34.04313746214583
7.144,0.9999618590853387,33.86180452450166
7.152,0.9999621077129405,33.68043971300736
7.16,0.9999623643163982,33.49904314025494
7.168,0.9999626287522243,33.317614919373945
7.176,0.999962900872963,33.13615516403519
7.184,0.9999631805272483,32.95466398845445
7.192,0.9999634675598698,32.773141507396254
7.2,0.999963761811835,32.591587836177574
7.208,0.9999640631204403,32.41000309067151
7.216,0.9999643713193411,32.22838738731095
7.224,0.9999646862386262,32.04674084309238
7.232,0.9999650077048955,31.865063575579303
7.24,0.9999653355413408,31.683355702905985
7.248,0.9999656695678282,31.501617343780914
7.256,0.9999660096009859,31.319848617490443
7.264,0.9999663554542941,31.13804964390211
7.272,0.9999667069381769,30.95622054346806
7.28,0.9999670638601,30.77436143722843
7.288,0.9999674260246701,30.592472446814515
7.296,0.9999677932337371,30.410553694451995
7.304,0.999968165286501,30.228605302964006
7.312,0.9999685419796215,30.04662739577408
7.32,0.9999689231073307,29.864620096909064
7.328,0.9999693084615493,29.68258353100192
7.336,0.9999696978320073,29.500517823294214
7.344,0.9999700910063648,29.318423099638814
7.352,0.9999704877703405,29.136299486502132
7.36,0.9999708879078395,28.954147110966428
7.368,0.9999712912010874,28.77196610073181
7.376,0.9999716974307659,28.589756584118227
7.384,0.9999721063761516,28.407518690067107
7.392,0.9999725178152588,28.225252548142993
7.4,0.9999729315249858,28.042958288534837
7.4079999999999995,0.9999733472812615,27.86063604205722
7.416,0.9999737648591991,27.678285940151152
7.4239999999999995,0.9999741840332488,27.495908114885072
7.432,0.9999746045773557,27.313502698955045
7.4399999999999995,0.9999750262651199,27.13106982568525
7.448,0.9999754488699583,26.948609629027832
7.4559999999999995,0.9999758721652698,26.766122243562823
7.464,0.9999762959246038,26.583607804497422
7.4719999999999995,0.9999767199218276,26.4010664476655
7.48,0.9999771439313,26.218498309526215
7.4879999999999995,0.9999775677280444,26.03590352716297
7.496,0.9999779910879237,25.853282238281448
7.504,0.9999784137878185,25.670634581208006
7.5120000000000005,0.999978835605805,25.487960694887015
7.52,0.9999792563213351,25.30526071887867
7.5280000000000005,0.9999796757154175,25.122534793355623
7.536,0.9999800935707993,24.93978305910019
7.5440000000000005,0.9999805096721491,24.75700565750032
7.552,0.9999809238062405,24.57420273054598
7.5600000000000005,0.9999813357621341,24.391374420824565
7.568,0.9999817453313629,24.208520871516516
7.5760000000000005,0.9999821523081138,24.025642226389994
7.584,0.9999825564894118,23.842738629795814
7.5920000000000005,0.9999829576753012,23.659810226661303
7.6,0.9999833556690281,23.476857162484556
7.6080000000000005,0.9999837502772188,23.293879583327506
7.616,0.9999841413100592,23.11087763580946
7.6240000000000006,0.9999845285814728,22.927851467099394
7.632,0.9999849119092937,22.74480122490871
7.640000000000001,0.9999852911154399,22.56172705748281
7.648,0.9999856660260836,22.378629113593078
7.656000000000001,0.9999860364718178,22.195507542527714
7.664,0.9999864022878213,22.01236249408292
7.672,0.9999867633140175,21.829194118553115
7.68,0.9999871193952333,21.64600256672117
7.688,0.9999874703813503,21.462787989848138
7.696,0.9999878161274545,21.27955053966265
7.704,0.9999881564939789,21.096290368349948
7.712,0.9999884913468446,20.913007628540605
7.72,0.9999888205575931,20.729702473298868
7.728,0.9999891440035155,20.546375056110783
7.736,0.9999894615677745,20.363025530871887
7.744,0.9999897731395228,20.17965405187466
7.752,0.9999900786140129,19.996260773795683
7.76,0.9999903778927007,19.81284585168251
7.768,0.9999906708833444,19.629409440940307
7.776,0.9999909575000936,19.445951697318208
7.784,0.9999912376635736,19.262472776895414
7.792,0.9999915113009606,19.078972836067155
7.8,0.9999917783460516,18.895452031530382
7.808,0.9999920387393224,18.711910520269296
7.816,0.9999922924279836,18.528348459540698
7.824,0.9999925393660212,18.344766006859246
7.832,0.9999927795142369,18.161163319982464
7.84,0.9999930128402723,17.977540556895786
7.848,0.9999932393186313,17.793897875797388
7.856,0.9999934589306881,17.610235435083023
7.864,0.9999936716646917,17.42655339333078
7.872,0.9999938775157569,17.242851909285793
7.88,0.9999940764858499,17.05913114184501
7.888,0.9999942685837638,16.87539125004189
7.896,0.9999944538250841,16.691632393031202
7.904,0.9999946322321482,16.50785473007385
7.912,0.9999948038339922,16.324058420521798
7.92,0.999994968666293,16.140243623803066
7.928,0.9999951267712983,15.956410499406879
7.936,0.9999952781977489,15.772559206868973
7.944,0.999995423000794,15.588689905757008
7.952,0.9999955612418965,15.40480275565623
7.96,0.9999956929887281,15.220897916155346
7.968,0.9999958183150621,15.036975546832563
7.976,0.9999959373006511,14.853035807241936
7.984,0.9999960500311016,14.669078856899995
7.992,0.9999961565977398,14.485104855272603
8.0,0.9999962570974696,14.301113961762193
8.008,0.9999963516326229,14.1171063356953
8.016,0.999996440310805,13.933082136310341
8.024000000000001,0.999996523244731,13.749041522746039
8.032,0.9999966005520577,13.56498465402993
8.04,0.9999966723552082,13.380911689067306
8.048,0.9999967387811918,13.19682278663068
8.056000000000001,0.9999967999614177,13.012718105349748
8.064,0.9999968560315029,12.828597803701552
8.072,0.9999969071310787,12.644462040001113
8.08,0.9999969534035876,12.460310972392682
8.088000000000001,0.9999969949960804,12.276144758841477
8.096,0.9999970320590088,12.091963557125693
8.104,0.9999970647460122,11.907767524829007
8.112,0.9999970932137056,11.723556819333751
8.120000000000001,0.9999971176214607,11.539331597814545
8.128,0.9999971381311881,11.355092017232316
8.136,0.9999971549071169,11.170838234328727
8.144,0.9999971681155713,10.98657040562139
8.152000000000001,0.9999971779247486,10.802288687399471
8.16,0.9999971845044946,10.617993235719702
8.168,0.9999971880260796,10.433684206402884
8.176,0.9999971886619747,10.249361755031021
8.184000000000001,0.9999971865856292,10.065026036944982
8.192,0.9999971819712454,9.880677207242497
8.2,0.9999971749935604,9.696315420776612
8.208,0.9999971658276243,9.511940832154789
8.216000000000001,0.9999971546485832,9.327553595738513
8.224,0.9999971416314629,9.14315386564317
8.232,0.9999971269509567,8.958741795738378
8.24,0.9999971107812151,8.774317539648958
8.248000000000001,0.9999970932956387,8.589881250756315
8.256,0.9999970746666751,8.405433082200084
8.264,0.9999970550656186,8.220973186880189
8.272,0.9999970346624161,8.036501717459496
8.280000000000001,0.9999970136254752,7.8520188263667885
8.288,0.9999969921214767,7.667524665800019
8.296,0.9999969703151947,7.483019387729877
8.304,0.9999969483693181,7.298503143903889
8.312,0.9999969264442795,7.113976085850863
8.32,0.9999969046980898,6.929438364885278
8.328,0.9999968832861768,6.7448901321125305
8.336,0.9999968623612302,6.56033153843386
8.344,0.9999968420730534,6.375762734552159
8.352,0.9999968225684197,6.1911838709773965
8.36,0.9999968039909357,6.006595098032919
8.368,0.9999967864809104,5.821996565861313
8.376,0.9999967701752318,5.637388424431118
8.384,0.9999967552072475,5.452770823543083
8.392,0.9999967417066534,5.2681439128372185
8.4,0.9999967297993898,5.083507841799358
8.408,0.9999967196075407,4.898862759768503
8.416,0.9999967112492437,4.714208815943624
8.424,0.9999967048386023,4.529546159391224
8.432,0.999996700485608,4.344874939052321
8.44,0.9999966982960676,4.160195303750159
8.448,0.9999966983715367,3.975507402197312
8.456,0.9999967008092587,3.79081138300349
8.464,0.9999967057021127,3.6061073946827027
8.472,0.9999967131385654,3.4213955856610805
8.48,0.9999967232026303,3.2366761042840575
8.488,0.9999967359738319,3.0519490988241675
8.496,0.9999967515271768,2.8672147174881597
8.504,0.999996769933131,2.6824731084247393
8.512,0.9999967912576021,2.4977244197315613
8.52,0.9999968155619273,2.312968799462851
8.528,0.9999968429028665,2.1282063956362625
8.536,0.9999968733326032,1.943437356240309
8.544,0.9999969068987467,1.7586618292410403
8.552,0.9999969436443428,1.573879962589261
8.56,0.999996983607888,1.3890919042269716
8.568,0.9999970268233492,1.2042978020943458
8.576,0.9999970733201857,1.019497804135911
8.584,0.9999971231233789,0.834692058307229
8.592,0.9999971762534663,0.64988071258079
8.6,0.9999972327265748,0.46506391495239024
8.608,0.9999972925544656,0.28024181344669763
8.616,0.9999973557445753,0.09541455612329597
8.624,0.9999974223000666,-0.08941770891809547
8.632,0.9999974922198794,-0.2742548335319244
8.64,0.9999975654987854,-0.4590966695219506
8.648,0.9999976421274468,-0.6439430686359279
8.656,0.9999977220924791,-0.8287938825611173
8.664,0.9999978053765127,-1.0136489629193515
8.672,0.9999978919582616,-1.1985081612629407
8.68,0.9999979818125915,-1.3833713290701313
8.688,0.9999980749105928,-1.568238317741404
8.696,0.9999981712196533,-1.7531089785953344
8.704,0.999998270703535,-1.9379831628652906
8.712,0.9999983733224512,-2.1228607216956954
8.72,0.9999984790331464,-2.3077415061391333
8.728,0.9999985877889774,-2.492625367153003
8.736,0.9999986995399948,-2.67751215559704
8.744,0.9999988142330293,-2.8624017222303575
8.752,0.9999989318117735,-3.0472939177093763
8.76,0.9999990522168701,-3.232188592585263
8.768,0.9999991753859986,-3.41708559730224
8.776,0.9999993012539613,-3.601984782195427
8.784,0.9999994297527732,-3.7868859974895335
8.792,0.9999995608117508,-3.9717890932970756
8.8,0.9999996943576004,-4.156693919617444
8.808,0.999999830314508,-4.3416003263355085
8.815999999999999,0.9999999686042291,-4.526508163220989
8.824,1.0,-4.711417279927632
8.832,0.9999999999999999,-4.89632752599258
8.84,1.0,-5.081238750836071
8.847999999999999,1.0,-5.266150803761337
8.856,0.9999999999999999,-5.451063533954474
8.864,0.9999999999999999,-5.635976790484479
8.872,0.9999999999999999,-5.820890422303626
8.879999999999999,1.0,-6.005804278247968
8.888,1.0,-6.190718207037853
8.896,1.0,-6.3756320572785645
8.904,1.0,-6.5605456774612865
8.911999999999999,1.0,-6.745458915964186
8.92,1.0000000000000002,-6.930371621053489
8.928,1.0,-7.115283640884676
8.936,0.9999999999999999,-7.300194823503948
8.943999999999999,1.0000000000000002,-7.485105016849867
8.952,1.0,-7.670014068754898
8.96,0.9999999999999999,-7.8549218269470815
8.968,0.9999999999999999,-8.039828139052007
8.975999999999999,1.0,-8.22473285259486
8.984,0.9999999999999999,-8.409635815002407
8.992,1.0,-8.59453687360513
9.0,0.9999999999999998,-8.779435875639557
9.008,0.9999999999999999,-8.964332668250686
9.016,1.0,-9.149227098494416
9.024000000000001,1.0,-9.334119013339965
9.032,1.0,-9.519008259672567
9.04,1.0,-9.703894684296275
9.048,1.0,-9.888778133936626
9.056000000000001,0.9999999999999999,-10.073658455243406
9.064,0.9999999999999999,-10.258535494793655
9.072,1.0,-10.443409099094685
9.08,1.0,-10.62827911458706
9.088000000000001,1.0,-10.813145387647587
9.096,1.0,-10.998007764592542
9.104,0.9999999999999999,-11.18286609168094
9.112,0.9999999999999999,-11.367720215117707
9.120000000000001,1.0,-11.552569981056875
9.128,0.9999999999999999,-11.737415235604988
9.136,1.0,-11.922255824824576
9.144,1.0,-12.107091594737437
9.152000000000001,1.0,-12.29192239132806
9.16,0.9999999999999999,-12.476748060547104
9.168,1.0,-12.661568448315036
9.176,1.0,-12.846383400525585
9.184000000000001,1.0,-13.03119276304917
9.192,1.0,-13.215996381736595
9.2,1.0,-13.400794102422728
9.208,1.0,-13.585585770930027
9.216000000000001,1.0,-13.77037123307212
9.224,0.9999999999999999,-13.955150334657494
9.232,1.0,-14.13992292149327
9.24,1.0,-14.324688839388802
9.248000000000001,1.0,-14.50944793415928
9.256,0.9999999999999999,-14.694200051629476
9.264,1.0,-14.878945037637553
9.272,0.9999999999999999,-15.063682738038716
9.280000000000001,1.0,-15.248412998708748
9.288,0.9999999999999999,-15.433135665547935
9.296,1.0,-15.617850584484732
9.304,1.0,-15.802557601479466
9.312000000000001,1.0,-15.98725656252796
9.32,1.0,-16.1719473136653
9.328,1.0,-16.356629700969638
9.336,1.0,-16.541303570565802
9.344,0.9999999999999999,-16.72596876862888
9.352,1.0,-16.910625141388167
9.36,1.0,-17.095272535130547
9.368,1.0,-17.27991079620445
9.376,1.0,-17.46453977102324
9.384,1.0,-17.64915930606915
9.392,1.0,-17.833769247896615
9.4,1.0,-18.01836944313621
9.408,0.9999999999999999,-18.202959738497956
9.416,1.0,-18.387539980775234
9.424,0.9999999999999999,-18.57211001684806
9.432,1.0,-18.756669693686998
9.44,1.0,-18.941218858356347
9.448,1.0,-19.125757358018053
9.456,0.9999999999999999,-19.310285039934918
9.464,0.9999999999999999,-19.494801751474405
9.472,1.0,-19.679307340111833
9.48,1.0,-19.863801653434177
9.488,1.0,-20.0482845391432
9.496,1.0,-20.232755845059224
9.504,0.9999999999999999,-20.417215419124247
9.512,1.0,-20.60166310940567
9.52,1.0,-20.786098764099325
9.528,0.9999999999999999,-20.970522231533273
9.536,1.0,-21.154933360170695
9.544,0.9999999999999999,-21.33933199861366
9.552,1.0,-21.52371799560606
9.56,1.0,-21.708091200037288
9.568,0.9999999999999999,-21.892451460945097
9.576,1.0,-22.076798627519256
9.584,1.0,-22.261132549104442
9.592,1.0,-22.44545307520379
9.6,0.9999999999999999,-22.629760055481736
9.608,1.0,-22.814053339767568
9.616,1.0,-22.998332778058185
9.624,0.9999999999999999,-23.182598220521644
9.632,0.9999999999999999,-23.366849517499887
9.64,1.0,-23.551086519512207
9.648,0.9999999999999999,-23.73530907725796
9.656,0.9999999999999999,-23.91951704161997
9.664,1.0,-24.103710263667253
9.672,1.0,-24.28788859465831
9.68,1.0,-24.472051886043864
9.688,1.0,-24.656199989470107
9.696,0.9999999999999999,-24.840332756781347
9.704,1.0,-25.024450040023275
9.712,1.0,-25.208551691445564
9.72,1.0,-25.39263756350506
9.728,1.0,-25.57670750886836
9.736,1.0,-25.76076138041498
9.744,1.0,-25.944799031239867
9.752,1.0,-26.128820314656554
9.76,0.9999999999999999,-26.312825084199616
9.768,0.9999999999999999,-26.496813193627766
9.776,0.9999999999999999,-26.680784496926318
9.784,1.0,-26.864738848310214
