freq,mag,phase
6.0,0.9999983178418393,102.14281349454265
6.008,0.9999984946112294,102.03151059601487
6.016,0.9999986670890285,101.92017968987315
6.024,0.999998835338374,101.80882075453383
6.032,0.9999989994219054,101.6974337684808
6.04,0.9999991594017654,101.58601871026586
6.048,0.9999993153396007,101.47457555850892
6.056,0.9999994672965645,101.36310429189831
6.064,0.9999996153333183,101.25160488919094
6.072,0.9999997595100313,101.14007732921269
6.08,0.9999998998863854,101.02852159085856
6.088,0.9999999999999999,100.916937653093
6.096,1.0,100.80532549495017
6.104,0.9999999999999999,100.69368509553408
6.112,1.0,100.58201643401908
6.12,1.0,100.47031948964988
6.128,1.0,100.358594241742
6.136,1.0,100.24684066968184
6.144,1.0,100.13505875292715
6.152,1.0,100.02324847100715
6.16,1.0,99.9114098035228
6.168,0.9999999999999999,99.79954273014708
6.176,0.9999999999999999,99.68764723062529
6.184,1.0,99.57572328477526
6.192,0.9999999999999999,99.4637708724876
6.2,1.0,99.35178997372599
6.208,0.9999999999999998,99.23978056852745
6.216,0.9999999999999999,99.12774263700254
6.224,1.0,99.01567615933567
6.232,1.0,98.90358111578537
6.24,1.0,98.7914574866845
6.248,0.9999999999999999,98.67930525244049
6.256,0.9999999999999999,98.56712439353572
6.264,1.0,98.45491489052765
6.272,1.0,98.34267672404913
6.28,1.0,98.23040987480864
6.288,0.9999999999999998,98.11811432359059
6.296,1.0,98.00579005125553
6.304,1.0,97.89343703874043
6.312,1.0,97.78105526705892
6.32,1.0,97.66864471730159
6.328,0.9999999999999999,97.5562053706362
6.336,1.0,97.44373720830794
6.344,1.0,97.33124021163971
6.352,1.0,97.21871436203239
6.36,1.0,97.10615964096503
6.368,1.0,96.9935760299952
6.376,1.0,96.88096351075916
6.384,1.0,96.76832206497215
6.392,1.0,96.65565167442871
6.4,1.0,96.54295232100279
6.408,1.0,96.43022398664814
6.416,0.9999999999999998,96.31746665339851
6.424,1.0,96.2046803033679
6.432,0.9999999999999999,96.0918649187508
6.44,1.0,95.97902048182257
6.448,1.0,95.86614697493948
6.456,0.9999999999999999,95.75324438053913
6.464,0.9999999999999999,95.64031268114067
6.472,1.0,95.52735185934502
6.48,1.0,95.41436189783514
6.4879999999999995,0.9999999999999999,95.30134277937631
6.496,1.0,95.18829448681632
6.504,1.0,95.07521700308583
6.5120000000000005,1.0,94.96211031119844
6.52,0.9999999999999999,94.84897439425124
6.5280000000000005,0.9999999999999999,94.73580923542472
6.536,1.0,94.62261481798329
6.5440000000000005,1.0,94.50939112527536
6.552,1.0,94.39613814073373
6.5600000000000005,1.0,94.28285584787568
6.568,0.9999999999999999,94.16954423030346
6.5760000000000005,1.0,94.05620327170423
6.584,0.9999999999999999,93.94283295585063
6.592,1.0,93.82943326660079
6.6,0.9999999999999999,93.71600418789869
6.608,0.9999999999999999,93.60254570377441
6.616,1.0000000000000002,93.48905779834439
6.624,1.0,93.37554045581157
6.632,1.0,93.26199366046582
6.64,1.0,93.14841739668402
6.648,1.0,93.03481164893046
6.656,1.0,92.92117640175694
6.664,1.0,92.80751163980311
6.672,1.0,92.69381734779677
6.68,1.0,92.58009351055398
6.688,1.0,92.4663401129794
6.696,1.0,92.35255714006652
6.704,0.9999999999999999,92.23874457689791
6.712,1.0,92.12490240864548
6.72,1.0,92.01103062057068
6.728,1.0,91.8971291980248
6.736,1.0,91.7831981264492
6.744,1.0000000000000002,91.66923739137553
6.752,1.0,91.55524697842604
6.76,0.9999999999999999,91.44122687331377
6.768,1.0,91.32717706184278
6.776,1.0,91.21309752990844
6.784,1.0,91.09898826349772
6.792,0.9999999999999999,90.98484924868933
6.8,1.0,90.870680471654
6.808,1.0,90.75648191865474
6.816,1.0,90.64225357604714
6.824,1.0,90.52799543027949
6.832,0.9999999999999999,90.4137074678931
6.84,0.9999999999999999,90.29938967552259
6.848,0.9999999999999999,90.18504203989598
6.856,1.0,90.07066454783508
6.864,0.9999999999999999,89.95625718625573
6.872,1.0,89.84181994216787
6.88,0.9999999999999999,89.72735280267602
6.888,0.9999999999999999,89.61285575497935
6.896,1.0,89.49832878637197
6.904,1.0,89.38377188424319
6.912,1.0,89.26918503607773
6.92,0.9999999999999999,89.15456822945603
6.928,1.0,89.03992145205437
6.936,1.0,88.92524469164522
6.944,0.9999999999999999,88.81053793609739
6.952,1.0,88.69580117337635
6.96,1.0,88.58103439154442
6.968,1.0,88.466237578761
6.976,0.9999999999999998,88.35141072328283
6.984,1.0,88.23655381346425
6.992,1.0000000000000002,88.12166683775737
7.0,1.0,88.00674978471238
7.008,1.0000000000000002,87.89180264297771
7.016,0.9999999999999999,87.77682540130031
7.024,0.9999999999999998,87.66181804852592
7.032,1.0,87.54678057359922
7.04,0.9999999999999999,87.4317129655641
7.048,0.9999999999999999,87.31661521356398
7.056,1.0,87.20148730684184
7.064,1.0,87.08632923474069
7.072,0.9999999999999999,86.9711409867036
7.08,0.9999999999999999,86.8559225522741
7.088,1.0,86.74067392109625
7.096,1.0,86.62539508291502
7.104,1.0,86.5100860275764
7.112,1.0,86.39474674502773
7.12,0.9999999999999999,86.27937722531784
7.128,1.0,86.16397745859734
7.136,1.0,86.04854743511882
7.144,1.0,85.9330871452371
7.152,0.9999999999999999,85.8175965794094
7.16,0.9999999999999999,85.70207572819567
7.168,0.9999999999999999,85.58652458225869
7.176,1.0,85.47094313236444
7.184,1.0,85.35533136938216
7.192,0.9999999999999998,85.23968928428471
7.2,1.0,85.12401686814877
7.208,1.0,85.00831411215496
7.216,0.9999999999999999,84.8925810075882
7.224,0.9999999999999999,84.77681754583787
7.232,1.0,84.661023718398
7.24,0.9999999999999999,84.54519951686753
7.248,0.9999999999999999,84.42934493295058
7.256,1.0,84.31345995845655
7.264,0.9999999999999999,84.19754458530043
7.272,0.9999999999999999,84.081598805503
7.28,0.9999999999999999,83.96562261119104
7.288,1.0,83.8496159945975
7.296,1.0,83.73357894806186
7.304,0.9999999999999999,83.61751146403014
7.312,0.9999999999999999,83.50141353505532
7.32,1.0,83.38528515379738
7.328,1.0,83.26912631302368
7.336,1.0,83.15293700560898
7.344,1.0,83.03671722453583
7.352,0.9999999999999999,82.92046696289474
7.36,1.0,82.80418621388424
7.368,0.9999999999999999,82.68787497081132
7.376,1.0,82.57153322709149
7.384,1.0,82.45516097624903
7.392,1.0,82.33875821191718
7.4,0.9999999999999999,82.2223249278384
7.4079999999999995,1.0,82.10586111786452
7.416,1.0,81.98936677595688
7.4239999999999995,0.9999999999999999,81.8728418961868
7.432,1.0,81.7562864727354
7.4399999999999995,1.0,81.63970049989415
7.448,0.9999999999999999,81.52308397206482
7.4559999999999995,0.9999999999999999,81.40643688375988
7.464,0.9999999999999999,81.28975922960251
7.4719999999999995,1.0,81.17305100432696
7.48,0.9999999999999999,81.05631220277864
7.4879999999999995,1.0,80.9395428199144
7.496,1.0,80.82274285080257
7.504,1.0,80.70591229062343
7.5120000000000005,1.0,80.5890511346691
7.52,1.0,80.47215937834397
7.5280000000000005,0.9999999999999999,80.3552370171647
7.536,1.0,80.2382840467606
7.5440000000000005,1.0,80.1213004628736
7.552,1.0,80.00428626135871
7.5600000000000005,0.9999999999999999,79.8872414381839
7.568,1.0,79.77016598943058
7.5760000000000005,1.0,79.65305991129352
7.584,1.0,79.53592320008126
7.5920000000000005,0.9999999999999999,79.4187558522161
7.6,1.0,79.30155786423443
7.6080000000000005,0.9999999999999999,79.18432923278682
7.616,0.9999999999999999,79.06706995463827
7.6240000000000006,0.9999999999999998,78.94978002666822
7.632,0.9999999999999999,78.83245944587102
7.640000000000001,0.9999999999999999,78.71510820935573
7.648,1.0,78.59772631434669
7.656000000000001,1.0,78.4803137581833
7.664,1.0,78.36287053832054
7.672,0.9999999999999999,78.24539665232881
7.68,1.0,78.12789209789437
7.688,1.0,78.01035687281939
7.696,0.9999999999999999,77.89279097502202
7.704,0.9999999999999999,77.77519440253675
7.712,0.9999999999999999,77.65756715351438
7.72,1.0,77.53990922622228
7.728,1.0,77.42222061904452
7.736,0.9999999999999999,77.30450133048198
7.744,0.9999999999999998,77.18675135915261
7.752,0.9999999999999999,77.06897070379144
7.76,1.0,76.9511593632508
7.768,0.9999999999999999,76.83331733650046
7.776,0.9999999999999999,76.71544462262779
7.784,0.9999999999999999,76.59754122083783
7.792,0.9999999999999999,76.47960713045346
7.8,1.0,76.36164235091559
7.808,1.0,76.24364688178316
7.816,0.9999999999999999,76.12562072273344
7.824,0.9999999999999999,76.00756387356199
7.832,0.9999999999999999,75.88947633418289
7.84,1.0,75.7713581046288
7.848,1.0,75.65320918505113
7.856,1.0,75.53502957572007
7.864,1.0,75.41681927702481
7.872,0.9999999999999998,75.29857828947355
7.88,1.0,75.18030661369367
7.888,0.9999999999999999,75.06200425043177
7.896,1.0,74.9436712005538
7.904,1.0,74.82530746504519
7.912,0.9999999999999999,74.70691304501085
7.92,1.0,74.58848794167531
7.928,1.0,74.47003215638281
7.936,1.0,74.35154569059733
7.944,0.9999999999999999,74.23302854590273
7.952,1.0,74.11448072400275
7.96,0.9999999999999999,73.99590222672104
7.968,1.0,73.87729305600136
7.976,1.0,73.75865321390754
7.984,1.0,73.63998270262347
7.992,1.0,73.52128152445322
8.0,1.0,73.40254968182109
8.008,1.0,73.28378717727159
8.016,1.0,73.16499401346945
8.024000000000001,1.0,73.0461701931997
8.032,0.9999999999999999,72.92731571936767
8.04,1.0,72.80843059499892
8.048,0.9999999999999999,72.68951482323926
8.056000000000001,0.9999999999999999,72.57056840735483
8.064,0.9999999999999999,72.45159135073203
8.072,0.9999999999999999,72.33258365687738
8.08,1.0,72.21354532941766
8.088000000000001,1.0,72.09447637209975
8.096,1.0,71.97537678879067
8.104,1.0,71.8562465834774
8.112,0.9999999999999999,71.73708576026685
8.120000000000001,1.0,71.6178943233859
8.128,1.0,71.49867227718111
8.136,1.0,71.37941962611877
8.144,1.0,71.26013637478462
8.152000000000001,1.0,71.14082252788396
8.16,1.0,71.02147809024132
8.168,1.0,70.90210306680031
8.176,0.9999999999999999,70.78269746262353
8.184000000000001,1.0,70.6632612828924
8.192,0.9999999999999999,70.54379453290692
8.2,1.0,70.4242972180854
8.208,1.0,70.3047693439643
8.216000000000001,1.0,70.18521091619805
8.224,1.0,70.06562194055863
8.232,1.0,69.94600242293542
8.24,0.9999999999999999,69.82635236933477
8.248000000000001,0.9999999999999999,69.70667178587986
8.256,1.0,69.5869606788102
8.264,1.0,69.46721905448123
8.272,1.0,69.34744691936412
8.280000000000001,1.0,69.22764428004515
8.288,0.9999999999999999,69.10781114322548
8.296,0.9999999999999999,68.98794751572042
8.304,1.0,68.8680534044591
8.312,0.9999999999999998,68.74812881648403
8.32,1.0,68.62817375895023
8.328,1.0,68.50818823912498
8.336,0.9999999999999999,68.38817226438695
8.344,0.9999999999999999,68.26812584222569
8.352,1.0,68.14804898024073
8.36,1.0,68.02794168614115
8.368,0.9999999999999999,67.90780396774437
8.376,0.9999999999999999,67.78763583297577
8.384,1.0,67.66743728986737
8.392,0.9999999999999999,67.5472083465573
8.4,0.9999999999999998,67.42694901128846
8.408,0.9999999999999999,67.30665929240774
8.416,1.0,67.1863391983648
8.424,0.9999999999999999,67.06598873771094
8.432,1.0,66.94560791909774
8.44,1.0,66.82519675127602
8.448,1.0,66.70475524309423
8.456,0.9999999999999999,66.58428340349715
8.464,0.9999999999999999,66.46378124152425
8.472,0.9999999999999999,66.3432487663081
8.48,0.9999999999999999,66.22268598707267
8.488,1.0,66.10209291313157
8.496,1.0,65.98146955388606
8.504,1.0,65.860815918823
8.512,1.0,65.74013201751275
8.52,1.0,65.619417859607
8.528,1.0,65.49867345483618
8.536,1.0,65.37789881300709
8.544,0.9999999999999999,65.25709394400009
8.552,1.0,65.13625885776639
8.56,0.9999999999999999,65.01539356432487
8.568,1.0,64.89449807375914
8.576,1.0,64.77357239621385
8.584,1.0,64.65261654189148
8.592,0.9999999999999999,64.53163052104814
8.6,1.0,64.41061434398996
8.608,0.9999999999999998,64.2895680210685
8.616,0.9999999999999999,64.1684915626765
8.624,0.9999999999999999,64.04738497924279
8.632,0.9999999999999999,63.92624828122757
8.64,1.0,63.80508147911657
8.648,0.9999999999999999,63.68388458341573
8.656,0.9999999999999999,63.562657604644805
8.664,1.0,63.44140055333104
8.672,0.9999999999999999,63.32011344000219
8.68,1.0,63.198796275179284
8.688,1.0,63.07744906936868
8.696,0.9999999999999999,62.95607183305399
8.704,1.0,62.83466457668695
8.712,1.0,62.713227310678306
8.72,0.9999999999999999,62.59176004538753
8.728,0.9999999999999999,62.470262791112354
8.736,1.0,62.348735558077145
8.744,1.0,62.22717835642094
8.752,0.9999999999999999,62.105591196184314
8.76,0.9999999999999999,61.98397408729568
8.768,0.9999999999999999,61.86232703955628
8.776,1.0,61.74065006262464
8.784,1.0,61.61894316599941
8.792,1.0,61.49720635900159
8.8,1.0,61.37543965075486
8.808,0.9999999999999999,61.253643050165294
8.815999999999999,1.0,61.13181656589895
8.824,1.0,61.009960206358286
8.832,1.0,60.8880739796569
8.84,0.9999999999999999,60.76615789359225
8.847999999999999,1.0,60.644211955616534
8.856,1.0,60.52223617280559
8.864,1.0,60.40023055182545
8.872,1.0,60.27819509889641
8.879999999999999,0.9999999999999999,60.156129819754646
8.888,0.9999999999999999,60.03403471961093
8.896,0.9999999999999999,59.911909803106525
8.904,0.9999999999999999,59.78975507426564
8.911999999999999,0.9999999999999999,59.66757053644461
8.92,0.9999999999999998,59.54535619227731
8.928,0.9999999999999999,59.423112043616776
8.936,0.9999999999999999,59.30083809147252
8.943999999999999,0.9999999999999998,59.178534335943176
8.952,1.0,59.056200776144856
8.96,1.0,58.933837410134096
8.968,1.0,58.8114442348257
8.975999999999999,1.0,58.68902124590465
8.984,1.0,58.56656843773263
8.992,1.0,58.44408580324821
9.0,0.9999999999999999,58.3215733338606
9.008,1.0,58.19903101933727
9.016,1.0,58.0764588476849
9.024000000000001,1.0,57.95385680502386
9.032,1.0,57.831224875456705
9.04,0.9999999999999999,57.70856304093013
9.048,0.9999999999999999,57.58587128109236
9.056000000000001,0.9999999999999999,57.46314957314581
9.064,1.0,57.340397891696455
9.072,1.0,57.217616208602266
9.08,0.9999999999999999,57.09480449282256
9.088000000000001,1.0,56.97196271027179
9.096,1.0,56.849090823681806
9.104,1.0,56.72618879247792
9.112,1.0,56.60325657267611
9.120000000000001,1.0,56.48029411680981
9.128,1.0,56.35730137389724
9.136,1.0,56.234278289463624
9.144,1.0,56.1112248056353
9.152000000000001,1.0,55.98814086132734
9.16,0.9999999999999999,55.86502639255097
9.168,1.0,55.741881332873014
9.176,1.0,55.61870561406677
9.184000000000001,1.0,55.49549916700194
9.192,0.9999999999999999,55.3722619228295
9.2,1.0,55.248993814529
9.208,0.9999999999999999,55.1256947788969
9.216000000000001,0.9999999999999999,55.00236475906577
9.224,1.0,54.879003707656736
9.232,1.0,54.7556115906777
9.24,1.0,54.632188392287894
9.248000000000001,0.9999999999999999,54.50873412055094
9.256,1.0,54.38524881429146
9.264,1.0,54.261732551150075
9.272,1.0,54.138185456890426
9.280000000000001,1.0,54.01460771594338
9.288,0.9999999999999999,53.89099958307005
9.296,0.9999999999999999,53.76736139587599
9.304,1.0,53.64369358770981
9.312000000000001,0.9999999999999999,53.51999670022437
9.32,1.0,53.39627139457531
9.328,1.0,53.272518459898485
9.336,0.9999999999999999,53.14873881738017
9.344,1.0,53.02493351797358
9.352,1.0,52.9011037317064
9.36,1.0,52.77725072667031
9.368,1.0,52.65337583628418
9.376,1.0,52.52948041436335
9.384,1.0,52.40556577890434
9.392,1.0,52.28163314722287
9.4,0.9999999999999999,52.15768356691977
9.408,1.0,52.03371784875088
9.416,1.0,51.90973650842262
9.424,1.0,51.78573972426329
9.432,0.9999999999999999,51.66172731644047
9.44,0.9999999999999999,51.53769875100069
9.448,1.0,51.413653168886604
9.456,0.9999999999999999,51.28958943685657
9.464,1.0,51.165506214538986
9.472,1.0,51.041402030229186
9.48,0.9999999999999998,50.91727535769702
9.488,1.0,50.793124687144655
9.496,1.0000000000000002,50.66894858518022
9.504,0.9999999999999999,50.544745740800096
9.512,0.9999999999999999,50.42051499644914
9.52,1.0000000000000002,50.2962553649378
9.528,1.0,50.17196603416358
9.536,0.9999999999999999,50.047646362206585
9.544,0.9999999999999999,49.92329586551432
9.552,1.0,49.7989142027027
9.56,0.9999999999999999,49.67450115611031
9.568,1.0,49.55005661277253
9.576,0.9999999999999998,49.42558054601065
9.584,0.9999999999999999,49.301072998417354
9.592,1.0,49.1765340666796
9.6,1.0,49.051963888425384
9.608,0.9999999999999999,48.92736263109888
9.616,0.9999999999999999,48.80273048275368
9.624,1.0,48.678067644583145
9.632,0.9999999999999998,48.553374324977696
9.64,0.9999999999999999,48.42865073488941
9.648,1.0,48.30389708429445
9.656,1.0,48.179113579559726
9.664,1.0,48.054300421544696
9.672,1.0,47.929457804289825
9.68,0.9999999999999999,47.80458591416851
9.688,1.0,47.679684929398405
9.696,0.9999999999999999,47.55475501982815
9.704,1.0,47.4297963469303
9.712,0.9999999999999999,47.30480906394653
9.72,0.9999999999999999,47.179793316140795
9.728,1.0,47.05474924112743
9.736,1.0,46.929676969247026
9.744,0.9999999999999999,46.80457662397091
9.752,0.9999999999999999,46.679448322317846
9.76,1.0,46.55429217527305
9.768,1.0,46.429108288200034
9.776,0.9999999999999999,46.303896761240544
9.784,1.0,46.17865768969764
9.792,1.0,46.05339116440036
9.8,0.9999999999999998,45.928097272047545
9.808,1.0,45.802776095530994
9.816,1.0,45.677427714237176
9.824,1.0,45.55205220432852
9.832,0.9999999999999999,45.426649639004125
9.84,0.9999999999999999,45.30122008874169
9.847999999999999,1.0,45.17576362152077
9.856,1.0000000000000002,45.050280303029005
9.864,1.0,44.924770196852165
9.872,0.9999999999999999,44.79923336464911
9.879999999999999,0.9999999999999999,44.67366986631272
9.888,1.0,44.54807976011792
9.896,0.9999999999999999,44.42246310285779
9.904,1.0,44.296819949968516
9.911999999999999,1.0,44.171150355644144
9.92,0.9999999999999999,44.0454543729421
9.928,1.0,43.91973205388015
9.936,1.0,43.79398344952536
9.943999999999999,1.0,43.66820861007579
9.952,1.0,43.542407584935724
9.96,0.9999999999999999,43.41658042278487
9.968,0.9999999999999999,43.290727171641784
9.975999999999999,0.9999999999999999,43.16484787892234
9.984,0.9999999999999999,43.03894259149341
9.992,0.9999999999999999,42.91301135572266
10.0,0.9999999999999999,42.78705421752391
10.008,1.0,42.66107122239923
10.016,1.0,42.53506241547764
10.024000000000001,1.0,42.40902784155096
10.032,1.0,42.2829675451067
10.04,0.9999999999999999,42.15688157035838
10.048,1.0,42.030769961273826
10.056000000000001,0.9999999999999999,41.9046327616011
10.064,0.9999999999999999,41.77847001489249
10.072,1.0,41.6522817645267
10.08,1.0,41.526068053729446
10.088000000000001,1.0,41.39982892559256
10.096,0.9999999999999999,41.273564423091614
10.104,1.0,41.14727458910219
10.112,1.0000000000000002,41.02095946641509
10.120000000000001,1.0,40.894619097750514
10.128,1.0,40.76825352577106
10.136,0.9999999999999999,40.64186279309375
10.144,1.0,40.515446942301466
10.152000000000001,1.0,40.38900601595342
10.16,1.0,40.26254005659486
10.168,1.0,40.13604910676614
10.176,1.0,40.00953320901114
10.184000000000001,0.9999999999999999,39.88299240588528
10.192,0.9999999999999999,39.75642673996277
10.2,0.9999999999999999,39.62983625384333
10.208,1.0,39.50322099015872
10.216000000000001,1.0,39.376580991578656
10.224,1.0,39.2499163008164
10.232,1.0,39.12322696063378
10.24,0.9999999999999999,38.996513013846155
10.248000000000001,1.0,38.86977450332692
10.256,1.0,38.743011472011865
10.264,1.0,38.616223962902765
10.272,0.9999999999999999,38.48941201907141
10.280000000000001,1.0,38.36257568366295
10.288,0.9999999999999999,38.23571499989917
10.296,1.0,38.10883001108133
10.304,0.9999999999999999,37.98192076059322
10.312000000000001,1.0,37.85498729190375
10.32,1.0,37.72802964856939
10.328,0.9999999999999999,37.60104787423644
10.336,1.0,37.47404201264336
10.344000000000001,1.0000000000000002,37.34701210762269
10.352,1.0,37.21995820310304
10.36,1.0,37.09288034311078
10.368,1.0,36.96577857177176
10.376000000000001,0.9999999999999998,36.83865293331294
10.384,0.9999999999999999,36.71150347206385
10.392,1.0,36.58433023245786
10.4,1.0,36.457133259033505
10.408000000000001,0.9999999999999999,36.329912596435825
10.416,1.0,36.2026682894174
10.424,0.9999999999999999,36.07540038283933
10.432,0.9999999999999999,35.94810892167233
10.440000000000001,1.0,35.82079395099768
10.448,1.0,35.693455516008044
10.456,1.0,35.5660936620082
10.464,1.0,35.438708434415894
10.472000000000001,1.0,35.311299878762604
10.48,1.0,35.183868040694065
10.488,1.0,35.05641296597093
10.496,1.0,34.92893470046932
