freq,mag,phase
6.0,0.999984408513712,100.92087371983531
6.008,0.9999853016244807,100.78732022018357
6.016,0.9999861777006782,100.65364764913438
6.024,0.999987036923465,100.51985584155003
6.032,0.9999878794730024,100.38594463255357
6.04,0.9999887055284533,100.25191385753244
6.048,0.9999895152679837,100.117763352142
6.056,0.999990308868763,99.98349295230919
6.064,0.9999910865069648,99.84910249423606
6.072,0.9999918483577686,99.71459181440349
6.08,0.9999925945953592,99.57996074957475
6.088,0.99999332539293,99.44520913679925
6.096,0.9999940409226812,99.31033681341619
6.104,0.999994741355823,99.17534361705825
6.112,0.9999954268625754,99.04022938565535
6.12,0.9999960976121692,98.90499395743831
6.128,0.9999967537728472,98.76963717094273
6.136,0.9999973955118656,98.63415886501267
6.144,0.9999980229954942,98.49855887880442
6.152,0.999998636389018,98.36283705179041
6.16,0.9999992358567378,98.22699322376296
6.168,0.9999998215619719,98.0910272348382
6.176,0.9999999999999999,97.9549389254598
6.184,1.0,97.81872813640298
6.192,1.0,97.68239470877836
6.2,0.9999999999999999,97.5459384840359
6.208,1.0,97.40935930396878
6.216,0.9999999999999999,97.27265701071741
6.224,0.9999999999999999,97.1358314467734
6.232,1.0,96.99888245498346
6.24,1.0,96.86180987855356
6.248,1.0,96.72461356105283
6.256,1.0,96.58729334641765
6.264,1.0,96.44984907895571
6.272,0.9999999999999999,96.31228060335008
6.28,1.0,96.17458776466333
6.288,1.0,96.03677040834158
6.296,1.0,95.8988283802188
6.304,0.9999999999999999,95.7607615265207
6.312,0.9999999999999999,95.6225696938691
6.32,1.0,95.48425272928611
6.328,1.0,95.34581048019822
6.336,1.0,95.20724279444065
6.344,0.9999999999999999,95.06854952026147
6.352,1.0,94.92973050632598
6.36,1.0,94.79078560172088
6.368,1.0,94.6517146559587
6.376,1.0,94.51251751898194
6.384,1.0,94.37319404116754
6.392,1.0,94.2337440733312
6.4,1.0,94.09416746673169
6.408,0.9999999999999999,93.95446407307534
6.416,1.0,93.81463374452035
6.424,1.0,93.67467633368126
6.432,1.0,93.53459169363335
6.44,1.0,93.3943796779172
6.448,0.9999999999999999,93.25404014054303
6.456,0.9999999999999998,93.11357293599528
6.464,0.9999999999999999,92.97297791923712
6.472,1.0,92.83225494571498
6.48,1.0,92.69140387136304
6.4879999999999995,1.0,92.55042455260788
6.496,1.0,92.40931684637299
6.504,0.9999999999999998,92.26808061008347
6.5120000000000005,1.0,92.12671570167049
6.52,1.0,91.98522197957618
6.5280000000000005,1.0,91.84359930275798
6.536,1.0,91.7018475306936
6.5440000000000005,0.9999999999999999,91.55996652338546
6.552,1.0,91.41795614136565
6.5600000000000005,1.0,91.27581624570041
6.568,0.9999999999999999,91.13354669799511
6.5760000000000005,0.9999999999999999,90.99114736039878
6.584,1.0,90.84861809560915
6.592,0.9999999999999998,90.70595876687717
6.6,1.0,90.56316923801202
6.608,1.0,90.42024937338594
6.616,0.9999999999999999,90.27719903793894
6.624,1.0,90.13401809718384
6.632,0.9999999999999999,89.99070641721099
6.64,0.9999999999999998,89.84726386469332
6.648,1.0,89.70369030689119
6.656,0.9999999999999999,89.55998561165732
6.664,1.0,89.41614964744177
6.672,1.0,89.2721822832969
6.68,0.9999999999999998,89.12808338888239
6.688,1.0,88.98385283447016
6.696,1.0,88.83949049094953
6.704,1.0,88.69499622983216
6.712,0.9999999999999999,88.55036992325711
6.72,1.0,88.40561144399598
6.728,1.0,88.26072066545794
6.736,1.0,88.11569746169491
6.744,1.0,87.97054170740653
6.752,1.0,87.82525327794554
6.76,1.0,87.67983204932273
6.768,1.0,87.5342778982122
6.776,1.0,87.38859070195659
6.784,1.0,87.24277033857224
6.792,1.0,87.09681668675437
6.8,1.0,86.95072962588245
6.808,1.0000000000000002,86.80450903602531
6.816,0.9999999999999999,86.65815479794652
6.824,1.0,86.51166679310968
6.832,1.0,86.36504490368364
6.84,0.9999999999999999,86.2182890125479
6.848,1.0,86.07139900329791
6.856,0.9999999999999999,85.92437476025046
6.864,1.0,85.77721616844902
6.872,1.0,85.62992311366908
6.88,1.0,85.4824954824237
6.888,1.0,85.33493316196875
6.896,1.0,85.18723604030848
6.904,1.0,85.03940400620084
6.912,0.9999999999999999,84.89143694916308
6.92,0.9999999999999999,84.74333475947712
6.928,1.0,84.5950973281951
6.936,1.0,84.44672454714484
6.944,1.0,84.29821630893545
6.952,0.9999999999999999,84.14957250696273
6.96,0.9999999999999999,84.00079303541486
6.968,0.9999999999999999,83.8518777892779
6.976,1.0,83.70282666434136
6.984,1.0,83.5536395572038
6.992,1.0,83.40431636527849
7.0,1.0,83.25485698679898
7.008,1.0,83.10526132082474
7.016,1.0,82.95552926724683
7.024,0.9999999999999999,82.80566072679358
7.032,0.9999999999999999,82.65565560103623
7.04,0.9999999999999999,82.50551379239462
7.048,0.9999999999999999,82.35523520414297
7.056,0.9999999999999999,82.20481974041552
7.064,1.0,82.05426730621225
7.072,1.0000000000000002,81.90357780740474
7.08,1.0,81.75275115074177
7.088,1.0,81.60178724385524
7.096,1.0,81.45068599526586
7.104,0.9999999999999999,81.29944731438897
7.112,1.0,81.14807111154035
7.12,1.0,80.99655729794203
7.128,1.0,80.84490578572819
7.136,1.0,80.69311648795089
7.144,0.9999999999999999,80.541189318586
7.152,0.9999999999999999,80.3891241925391
7.16,0.9999999999999999,80.23692102565124
7.168,1.0,80.08457973470499
7.176,1.0,79.93210023743018
7.184,1.0,79.77948245250997
7.192,1.0,79.62672629958664
7.2,0.9999999999999999,79.47383169926759
7.208,1.0,79.32079857313134
7.216,1.0000000000000002,79.16762684373333
7.224,1.0,79.01431643461207
7.232,1.0,78.860867270295
7.24,0.9999999999999999,78.70727927630448
7.248,1.0,78.5535523791638
7.256,0.9999999999999999,78.39968650640333
7.264,0.9999999999999999,78.24568158656622
7.272,1.0,78.09153754921473
7.28,0.9999999999999999,77.93725432493612
7.288,1.0,77.78283184534872
7.296,0.9999999999999999,77.62827004310793
7.304,1.0,77.47356885191242
7.312,1.0,77.31872820651
7.32,1.0,77.1637480427039
7.328,0.9999999999999998,77.0086282973587
7.336,0.9999999999999999,76.85336890840648
7.344,0.9999999999999999,76.69796981485297
7.352,0.9999999999999999,76.54243095678355
7.36,1.0,76.38675227536943
7.368,1.0,76.2309337128738
7.376,1.0,76.07497521265792
7.384,1.0,75.91887671918718
7.392,1.0,75.76263817803742
7.4,1.0,75.6062595359009
7.4079999999999995,0.9999999999999999,75.44974074059257
7.416,1.0,75.29308174105611
7.4239999999999995,1.0,75.1362824873703
7.432,1.0,74.97934293075492
7.4399999999999995,0.9999999999999999,74.82226302357721
7.448,0.9999999999999999,74.6650427193577
7.4559999999999995,1.0,74.50768197277684
7.464,1.0,74.35018073968072
7.4719999999999995,1.0,74.19253897708766
7.48,1.0,74.03475664319411
7.4879999999999995,0.9999999999999999,73.87683369738109
7.496,1.0,73.7187701002201
7.504,1.0,73.56056581347973
7.5120000000000005,0.9999999999999999,73.40222080013142
7.52,0.9999999999999999,73.2437350243561
7.5280000000000005,1.0,73.08510845155
7.536,1.0,72.92634104833122
7.5440000000000005,1.0,72.7674327825457
7.552,0.9999999999999998,72.60838362327361
7.5600000000000005,0.9999999999999999,72.4491935408354
7.568,0.9999999999999999,72.28986250679822
7.5760000000000005,0.9999999999999998,72.13039049398193
7.584,1.0,71.97077747646557
7.5920000000000005,1.0,71.8110234295933
7.6,0.9999999999999999,71.65112832998095
7.6080000000000005,1.0,71.49109215552187
7.616,1.0,71.33091488539353
7.6240000000000006,0.9999999999999999,71.17059650006343
7.632,1.0,71.0101369812956
7.640000000000001,0.9999999099832028,70.84953631215652
7.648,0.9999997835646757,70.68879447702164
7.656000000000001,0.9999996585113856,70.52791146158135
7.664,0.9999995348368653,70.36688725284743
7.672,0.9999994125541224,70.205721839159
7.68,0.9999992916756436,70.04441521018892
7.688,0.9999991722133991,69.88296735694996
7.696,0.999999054178846,69.721378271801
7.704,0.9999989375829322,69.55964794845316
7.712,0.9999988224361014,69.3977763819761
7.72,0.9999987087482957,69.23576356880415
7.728,0.9999985965289606,69.07360950674251
7.736,0.9999984857870496,68.91131419497347
7.744,0.9999983765310267,68.74887763406251
7.752,0.9999982687688717,68.58629982596452
7.76,0.999998162508084,68.42358077402999
7.768,0.9999980577556862,68.26072048301113
7.776,0.9999979545182291,68.09771895906803
7.784,0.9999978528017962,67.93457620977485
7.792,0.9999977526120055,67.77129224412585
7.8,0.9999976539540162,67.60786707254165
7.808,0.9999975568325322,67.44430070687532
7.816,0.9999974612518054,67.28059316041843
7.824,0.9999973672156415,67.11674444790722
7.832,0.9999972747274021,66.95275458552872
7.84,0.9999971837900105,66.78862359092678
7.848,0.9999970944059563,66.62435148320814
7.856,0.9999970065772983,66.45993828294861
7.864,0.9999969203056692,66.29538401219907
7.872,0.9999968355922808,66.1306886944914
7.88,0.9999967524379271,65.96585235484476
7.888,0.9999966708429885,65.80087501977141
7.896,0.999996590807438,65.63575671728287
7.904,0.9999965123308436,65.47049747689584
7.912,0.9999964354123727,65.3050973296382
7.92,0.9999963600507978,65.139556308055
7.928,0.9999962862444997,64.97387444621452
7.936,0.9999962139914723,64.80805177971405
7.944,0.9999961432893267,64.64208834568598
7.952,0.9999960741352962,64.47598418280364
7.96,0.9999960065262402,64.30973933128728
7.968,0.9999959404586484,64.1433538329099
7.976,0.9999958759286458,63.976827731003155
7.984,0.9999958129319967,63.81016107046328
7.992,0.9999957514641097,63.643353897756874
8.0,0.9999956915200411,63.476406260926744
8.008,0.9999956330945001,63.309318209597755
8.016,0.9999955761818541,63.14208979498255
8.024000000000001,0.9999955207761309,62.974721069887494
8.032,0.9999954668710248,62.80721208871828
8.04,0.999995414459902,62.63956290748578
8.048,0.9999953635358021,62.47177358381162
8.056000000000001,0.9999953140914455,62.30384417693414
8.064,0.999995266119237,62.13577474771395
8.072,0.9999952196112687,61.96756535863951
8.08,0.9999951745593278,61.799216073832866
8.088000000000001,0.999995130954898,61.630726959055366
8.096,0.9999950887891655,61.4620980817132
8.104,0.999995048053024,61.29332951086292
8.112,0.9999950087370776,61.124421317217
8.120000000000001,0.9999949708316471,60.9553735731496
8.128,0.9999949343267733,60.786186352701876
8.136,0.9999948992122227,60.6168597315875
8.144,0.9999948654774911,60.44739378719812
8.152000000000001,0.9999948331118083,60.277788598609014
8.16,0.9999948021041432,60.108044246584285
8.168,0.9999947724432078,59.938160813582314
8.176,0.9999947441174626,59.768138383761176
8.184000000000001,0.9999947171151203,59.597977042984
8.192,0.9999946914241507,59.42767687882436
8.2,0.999994667032285,59.257237980571325
8.208,0.9999946439270222,59.08666043923498
8.216000000000001,0.9999946220956307,58.91594434755163
8.224,0.9999946015251551,58.74508979998898
8.232,0.9999945822024201,58.57409689275125
8.24,0.9999945641140356,58.40296572378439
8.248000000000001,0.9999945472464,58.23169639278133
8.256,0.999994531585707,58.06028900118698
8.264,0.9999945171179476,57.88874365220324
8.272,0.9999945038289167,57.71706045079407
8.280000000000001,0.9999944917042176,57.54523950369065
8.288,0.9999944807292649,57.37328091939629
8.296,0.9999944708892914,57.20118480819117
8.304,0.9999944621693511,57.02895128213753
8.312,0.9999944545543242,56.85658045508446
8.32,0.999994448028922,56.68407244267273
8.328,0.9999944425776922,56.51142736233966
8.336,0.9999944381850211,56.33864533332378
8.344,0.9999944348351412,56.16572647666978
8.352,0.9999944325121334,55.992670915233035
8.36,0.9999944311999334,55.81947877368444
8.368,0.9999944308823353,55.646150178514866
8.376,0.9999944315429958,55.472685258040045
8.384,0.9999944331654405,55.29908414240483
8.392,0.9999944357330668,55.125346963588015
8.4,0.9999944392291489,54.95147385540659
8.408,0.9999944436368432,54.777464953520415
8.416,0.9999944489391918,54.603320395436455
8.424,0.9999944551191277,54.42904032051334
8.432,0.9999944621594794,54.2546248699655
8.44,0.9999944700429748,54.08007418686774
8.448,0.9999944787522472,53.905388416159205
8.456,0.999994488269838,53.730567704647875
8.464,0.9999944985782028,53.55561220101452
8.472,0.9999945096597145,53.38052205581707
8.48,0.9999945214966693,53.205297421494436
8.488,0.9999945340712908,53.0299384523709
8.496,0.9999945473657337,52.854445304659784
8.504,0.999994561362089,52.67881813646775
8.512,0.9999945760423885,52.50305710779837
8.52,0.9999945913886095,52.327162380556445
8.528,0.9999946073826783,52.15113411855137
8.536,0.9999946240064763,51.974972487501354
8.544,0.9999946412418423,51.79867765503683
8.552,0.9999946590705794,51.62224979070441
8.56,0.9999946774744576,51.445689065970285
8.568,0.9999946964352185,51.268995654224184
8.576,0.9999947159345811,51.09216973078251
8.584,0.999994735954244,50.91521147289228
8.592,0.9999947564758921,50.73812105973417
8.6,0.999994777481199,50.56089867242633
8.608,0.9999947989518326,50.38354449402738
8.616,0.9999948208694589,50.20605870954007
8.624,0.9999948432157475,50.02844150591427
8.632,0.9999948659723734,49.850693072050376
8.64,0.999994889121024,49.672813598802264
8.648,0.9999949126434016,49.494803278980726
8.656,0.9999949365212293,49.31666230735612
8.664,0.9999949607362537,49.1383908806618
8.672,0.9999949852702497,48.9599891975967
8.68,0.9999950101050255,48.781457458828534
8.688,0.999995035222425,48.60279586699637
8.696,0.9999950606043349,48.42400462671372
8.704,0.9999950862326853,48.24508394457094
8.712,0.9999951120894575,48.06603402913832
8.72,0.9999951381566847,47.88685509096825
8.728,0.9999951644164592,47.70754734259823
8.736,0.9999951908509342,47.52811099855303
8.744,0.9999952174423299,47.348546275347424
8.752,0.9999952441729353,47.16885339148834
8.76,0.999995271025114,46.98903256747749
8.768,0.9999952979813079,46.80908402581329
8.776,0.9999953250240409,46.629007990993514
8.784,0.9999953521359224,46.44880468951705
8.792,0.9999953792996533,46.26847434988631
8.8,0.9999954064980268,46.088017202609066
8.808,0.9999954337139354,45.90743348020065
8.815999999999999,0.9999954609303727,45.72672341718562
8.824,0.9999954881304385,45.54588725009981
8.832,0.9999955152973415,45.36492521749211
8.84,0.9999955424144049,45.18383755992621
8.847999999999999,0.9999955694650681,45.00262451998216
8.856,0.9999955964328922,44.82128634225805
8.864,0.9999956233015623,44.63982327337163
8.872,0.9999956500548933,44.458235561961835
8.879999999999999,0.9999956766768308,44.27652345868994
8.888,0.9999957031514574,44.09468721624111
8.896,0.9999957294629943,43.912727089325784
8.904,0.9999957555958069,43.73064333468075
8.911999999999999,0.9999957815344066,43.54843621107028
8.92,0.9999958072634554,43.366105979287305
8.928,0.9999958327677689,43.18365290215443
8.936,0.9999958580323202,43.00107724452498
8.943999999999999,0.9999958830422434,42.81837927328365
8.952,0.999995907782837,42.63555925734745
8.96,0.9999959322395667,42.45261746766666
8.968,0.9999959563980693,42.269554177225245
8.975999999999999,0.999995980244157,42.08636966104155
8.984,0.9999960037638189,41.90306419616879
8.992,0.999996026943225,41.71963806169574
9.0,0.9999960497687306,41.53609153874698
9.008,0.9999960722268773,41.352424910483165
9.016,0.9999960943043986,41.168638462101384
9.024000000000001,0.9999961159882218,40.9847324808354
9.032,0.9999961372654704,40.800707255955736
9.04,0.9999961581234686,40.61656307876962
9.048,0.9999961785497441,40.43230024262102
9.056000000000001,0.9999961985320304,40.24791904289068
9.064,0.9999962180582701,40.063419776995815
9.072,0.9999962371166181,39.87880274438981
9.08,0.9999962556954449,39.69406824656198
9.088000000000001,0.9999962737833384,39.50921658703727
9.096,0.9999962913691071,39.32424807137566
9.104,0.9999963084417836,39.13916300717163
9.112,0.9999963249906266,38.95396170405352
9.120000000000001,0.999996341005124,38.768644473682976
9.128,0.9999963564749959,38.5832116297541
9.136,0.9999963713901956,38.39766348799251
9.144,0.9999963857409151,38.212000366154456
9.152000000000001,0.9999963995175842,38.026222584025966
9.16,0.9999964127108762,37.84033046342169
9.168,0.9999964253117087,37.654324328183584
9.176,0.9999964373112464,37.46820450417983
9.184000000000001,0.999996448700903,37.28197131930355
9.192,0.9999964594723445,37.095625103471434
9.2,0.9999964696174911,36.90916618862203
9.208,0.9999964791285189,36.72259490871442
9.216000000000001,0.9999964879978633,36.5359115997266
9.224,0.9999964962182206,36.3491165996537
9.232,0.9999965037825496,36.162210248506135
9.24,0.9999965106840744,35.97519288830777
9.248000000000001,0.9999965169162863,35.78806486309412
9.256,0.999996522472946,35.60082651891016
9.264,0.999996527348085,35.413478203808225
9.272,0.9999965315360083,35.22602026784579
9.280000000000001,0.9999965350312956,35.03845306308335
9.288,0.9999965378288032,34.85077694358198
9.296,0.9999965399236662,34.66299226540076
9.304,0.9999965413113006,34.475099386594415
9.312000000000001,0.9999965419874031,34.287098667210714
9.32,0.9999965419479552,34.098990469287735
9.328,0.9999965411892232,33.91077515685103
9.336,0.9999965397077601,33.72245309591084
9.344,0.9999965375004071,33.534024654459266
9.352,0.9999965345642957,33.34549020246694
9.36,0.9999965308968479,33.156850111880345
9.368,0.9999965264957785,32.9681047566182
9.376,0.9999965213590958,32.779254512568556
9.384,0.9999965154851033,32.59029975758508
9.392,0.9999965088724011,32.40124087148399
9.4,0.9999965015198862,32.212078236040185
9.408,0.9999964934267541,32.02281223498392
9.416,0.9999964845924999,31.833443253996826
9.424,0.9999964750169187,31.643971680708418
9.432,0.9999964647001084,31.454397904691984
9.44,0.9999964536424678,31.26472231746083
9.448,0.9999964418446994,31.074945312463996
9.456,0.99999642930781,30.88506728508249
9.464,0.9999964160331102,30.695088632624625
9.472,0.9999964020222166,30.505009754322195
9.48,0.9999963872770519,30.31483105132565
9.488,0.9999963717998449,30.124552926700012
9.496,0.9999963555931313,29.93417578542
9.504,0.9999963386597548,29.743700034365666
9.512,0.9999963210028671,29.553126082317373
9.52,0.999996302625927,29.3624543399513
9.528,0.9999962835327034,29.171685219834217
9.536,0.999996263727273,28.9808191364188
9.544,0.9999962432140217,28.789856506038248
9.552,0.9999962219976443,28.598797746901468
9.56,0.9999962000831448,28.407643279087427
9.568,0.9999961774758369,28.2163935245402
9.576,0.9999961541813427,28.02504890706323
9.584,0.9999961302055934,27.833609852314076
9.592,0.9999961055548294,27.64207678779854
9.6,0.9999960802355997,27.450450142865304
9.608,0.9999960542547612,27.258730348699796
9.616,0.9999960276194791,27.066917838318716
9.624,0.9999960003372262,26.875013046563705
9.632,0.9999959724157829,26.683016410095615
9.64,0.9999959438632353,26.49092836738816
9.648,0.9999959146879764,26.29874935872195
9.656,0.9999958848987044,26.10647982617789
9.664,0.9999958545044226,25.91412021363109
9.672,0.9999958235144377,25.72167096674415
9.68,0.9999957919383603,25.529132532960848
9.688,0.999995759786103,25.336505361499214
9.696,0.99999572706788,25.14378990334509
9.704,0.9999956937942059,24.950986611244996
9.712,0.999995659975895,24.75809593969959
9.72,0.9999956256240595,24.565118344956275
9.728,0.9999955907501094,24.37205428500253
9.736,0.9999955553657502,24.178904219558326
9.744,0.9999955194829818,23.985668610069283
9.752,0.9999954831140987,23.792347919698944
9.76,0.9999954462716856,23.59894261332174
9.768,0.9999954089686193,23.405453157515076
9.776,0.9999953712180644,23.2118800205521
9.784,0.9999953330334734,23.018223672393745
9.792,0.9999952944285848,22.824484584681176
9.8,0.9999952554174206,22.63066323072769
9.808,0.9999952160142853,22.436760085511104
9.816,0.9999951762337642,22.24277562566533
9.824,0.9999951360907203,22.048710329472705
9.832,0.9999950956002943,21.854564676855368
9.84,0.999995054777901,21.660339149367374
9.847999999999999,0.9999950136392274,21.466034230185997
9.856,0.9999949722002315,21.271650404103436
9.864,0.9999949304771395,21.077188157518364
9.872,0.999994888486443,20.882647978427215
9.879999999999999,0.9999948462448981,20.68803035641542
9.888,0.9999948037695217,20.493335782648675
9.896,0.9999947610775898,20.298564749864205
9.904,0.9999947181866347,20.103717752361682
9.911999999999999,0.9999946751144425,19.908795285994152
9.92,0.999994631879051,19.71379784815899
9.928,0.9999945884987455,19.518725937788776
9.936,0.9999945449920581,19.323580055341946
9.943999999999999,0.999994501377764,19.12836070279334
