freq,mag,phase
6.0,0.9999970989090862,111.17198056954098
6.008,0.9999974468968834,111.06510214396107
6.016,0.999997783361696,110.95816217350384
6.024,0.9999981085228146,110.85116054937754
6.032,0.9999984225972615,110.74409716285132
6.04,0.9999987257997988,110.63697190525623
6.048,0.9999990183429359,110.52978466798636
6.056,0.9999993004369391,110.42253534249978
6.064,0.9999995722898378,110.31522382031976
6.072,0.9999998341074359,110.20784999303567
6.08,1.0,110.10041375230418
6.088,0.9999999999999998,109.99291498985028
6.096,1.0,109.8853535974683
6.104,1.0,109.77772946702305
6.112,1.0,109.67004249045085
6.12,0.9999999999999999,109.56229255976058
6.128,0.9999999999999999,109.45447956703475
6.136,0.9999999999999999,109.34660340443062
6.144,1.0,109.23866396418121
6.152,1.0,109.13066113859637
6.16,1.0,109.02259482006389
6.168,0.9999999999999999,108.91446490105054
6.176,0.9999999999999999,108.80627127410308
6.184,0.9999999999999999,108.69801383184947
6.192,1.0,108.5896924669998
6.2,1.0,108.48130707234742
6.208,1.0,108.37285754077003
6.216,1.0,108.26434376523069
6.224,1.0,108.15576563877893
6.232,0.9999999999999999,108.04712305455178
6.24,1.0,107.9384159057749
6.248,1.0,107.82964408576362
6.256,1.0,107.72080748792399
6.264,1.0,107.61190600575385
6.272,0.9999999999999999,107.50293953284395
6.28,1.0,107.39390796287893
6.288,0.9999999999999999,107.28481118963849
6.296,1.0,107.1756491069984
6.304,1.0,107.06642160893159
6.312,1.0,106.95712858950918
6.32,1.0,106.84776994290164
6.328,1.0,106.7383455633797
6.336,1.0,106.62885534531564
6.344,1.0,106.51929918318417
6.352,0.9999999999999999,106.40967697156361
6.36,0.9999999999999999,106.29998860513687
6.368,0.9999999999999999,106.19023397869262
6.376,1.0,106.08041298712627
6.384,1.0,105.97052552544115
6.392,1.0,105.86057148874941
6.4,1.0,105.75055077227329
6.408,1.0,105.64046327134601
6.416,0.9999999999999999,105.53030888141298
6.424,1.0,105.42008749803276
6.432,1.0,105.3097990168782
6.44,1.0,105.19944333373752
6.448,0.9999999999999999,105.08902034451528
6.456,0.9999999999999999,104.97852994523355
6.464,1.0,104.86797203203292
6.472,1.0,104.7573465011737
6.48,1.0,104.64665324903672
6.4879999999999995,0.9999999999999999,104.53589217212468
6.496,1.0,104.42506316706302
6.504,1.0,104.31416613060112
6.5120000000000005,0.9999999999999999,104.20320095961328
6.52,1.0,104.09216755109989
6.5280000000000005,0.9999999999999998,103.98106580218831
6.536,1.0,103.86989561013418
6.5440000000000005,1.0,103.75865687232226
6.552,1.0000000000000002,103.64734948626769
6.5600000000000005,0.9999999999999999,103.53597334961687
6.568,1.0,103.42452836014873
6.5760000000000005,1.0,103.31301441577558
6.584,1.0,103.20143141454442
6.592,1.0,103.0897792546377
6.6,0.9999999999999999,102.97805783437468
6.608,1.0,102.86626705221234
6.616,1.0,102.75440680674643
6.624,1.0000000000000002,102.64247699671266
6.632,1.0,102.53047752098757
6.64,1.0,102.41840827858982
6.648,0.9999999999999999,102.30626916868106
6.656,1.0,102.19406009056709
6.664,0.9999999999999999,102.0817809436989
6.672,0.9999999999999999,101.96943162767374
6.68,0.9999999999999999,101.85701204223618
6.688,0.9999999999999999,101.74452208727915
6.696,1.0,101.63196166284501
6.704,1.0,101.51933066912663
6.712,1.0,101.40662900646845
6.72,0.9999999999999999,101.29385657536749
6.728,0.9999999999999999,101.18101327647443
6.736,1.0,101.06809901059476
6.744,1.0,100.95511367868967
6.752,1.0,100.84205718187722
6.76,0.9999999999999999,100.72892942143339
6.768,1.0,100.6157302987931
6.776,0.9999999999999999,100.5024597155513
6.784,0.9999999999999999,100.38911757346396
6.792,1.0,100.27570377444924
6.8,1.0,100.16221822058841
6.808,0.9999999999999999,100.048660814127
6.816,0.9999999999999999,99.9350314574758
6.824,1.0,99.82133005321197
6.832,0.9999999999999999,99.70755650407999
6.84,0.9999999999999999,99.5937107129928
6.848,0.9999999999999999,99.47979258303286
6.856,0.9999999999999999,99.36580201745309
6.864,1.0,99.25173891967806
6.872,1.0,99.13760319330488
6.88,0.9999999999999999,99.02339474210441
6.888,1.0,98.90911347002222
6.896,1.0,98.79475928117957
6.904,1.0,98.68033207987463
6.912,0.9999999999999999,98.56583177058334
6.92,1.0,98.4512582579606
6.928,1.0,98.3366114468412
6.936,1.0,98.22189124224093
6.944,0.9999999999999999,98.10709754935762
6.952,0.9999999999999999,97.9922302735721
6.96,1.0,97.87728932044935
6.968,1.0,97.7622745957395
6.976,0.9999999999999999,97.64718600537877
6.984,0.9999999999999999,97.5320234554907
6.992,1.0,97.41678685238699
7.0,0.9999999999999999,97.30147610256866
7.008,0.9999999999999999,97.18609111272706
7.016,1.0,97.07063178974481
7.024,0.9999999999999999,96.95509804069704
7.032,1.0,96.83948977285215
7.04,0.9999999999999999,96.72380689367307
7.048,0.9999999999999999,96.60804931081817
7.056,0.9999999999999999,96.49221693214233
7.064,1.0000000000000002,96.37630966569792
7.072,1.0,96.26032741973589
7.08,1.0,96.14427010270676
7.088,1.0,96.02813762326164
7.096,1.0,95.91192989025326
7.104,0.9999999999999999,95.79564681273705
7.112,1.0,95.67928829997199
7.12,0.9999999999999999,95.56285426142183
7.128,0.9999999999999999,95.44634460675601
7.136,1.0,95.32975924585071
7.144,1.0,95.21309808878975
7.152,0.9999999999999999,95.09636104586582
7.16,1.0,94.97954802758133
7.168,1.0,94.86265894464943
7.176,0.9999999999999999,94.74569370799513
7.184,0.9999999999999999,94.62865222875618
7.192,0.9999999999999999,94.5115344182842
7.2,1.0,94.39434018814556
7.208,1.0,94.27706945012253
7.216,1.0,94.15972211621417
7.224,1.0000000000000002,94.04229809863736
7.232,0.9999999999999998,93.92479730982788
7.24,0.9999999999999999,93.80721966244131
7.248,0.9999999999999999,93.68956506935406
7.256,0.9999999999999999,93.57183344366445
7.264,1.0000000000000002,93.45402469869354
7.272,1.0,93.33613874798634
7.28,1.0,93.21817550531262
7.288,0.9999999999999999,93.10013488466798
7.296,1.0,92.9820168002749
7.304,0.9999999999999999,92.86382116658363
7.312,1.0,92.74554789827322
7.32,0.9999999999999999,92.62719691025254
7.328,1.0,92.50876811766119
7.336,1.0,92.39026143587064
7.344,0.9999999999999999,92.271676780485
7.352,1.0,92.1530140673422
7.36,0.9999999999999999,92.03427321251483
7.368,1.0,91.91545413231121
7.376,0.9999999999999999,91.79655674327635
7.384,1.0,91.67758096219289
7.392,0.9999999999999999,91.5585267060821
7.4,1.0,91.4393938922049
7.4079999999999995,1.0,91.32018243806277
7.416,1.0000000000000002,91.20089226139869
7.4239999999999995,0.9999999999999999,91.08152328019828
7.432,0.9999999999999999,90.96207541269054
7.4399999999999995,1.0,90.842548577349
7.448,1.0,90.72294269289259
7.4559999999999995,0.9999999999999999,90.60325767828667
7.464,0.9999999999999999,90.48349345274386
7.4719999999999995,1.0,90.36364993572525
7.48,0.9999999999999999,90.24372704694103
7.4879999999999995,0.9999999999999999,90.1237247063518
7.496,1.0,90.00364283416917
7.504,1.0,89.8834813508571
7.5120000000000005,0.9999999999999999,89.76324017713245
7.52,0.9999999999999999,89.6429192339663
7.5280000000000005,1.0,89.5225184425846
7.536,1.0,89.40203772446938
7.5440000000000005,1.0,89.28147700135943
7.552,0.9999999999999999,89.16083619525155
7.5600000000000005,0.9999999999999999,89.04011522840116
7.568,1.0,88.91931402332355
7.5760000000000005,1.0,88.79843250279458
7.584,1.0,88.67747058985182
7.5920000000000005,0.9999999999999999,88.55642820779528
7.6,1.0,88.43530528018856
7.6080000000000005,0.9999999999999999,88.31410173085959
7.616,1.0,88.19281748390176
7.6240000000000006,0.9999999999999998,88.07145246367462
7.632,1.0,87.95000659480503
7.640000000000001,1.0,87.82847980218793
7.648,1.0,87.70687201098737
7.656000000000001,1.0,87.58518314663733
7.664,0.9999999999999999,87.4634131348428
7.672,0.9999999999999999,87.3415619015805
7.68,1.0,87.21962937309996
7.688,1.0,87.09761547592436
7.696,1.0,86.97552013685149
7.704,1.0,86.8533432829546
7.712,1.0,86.7310848415834
7.72,1.0,86.60874474036486
7.728,0.9999999999999999,86.4863229072042
7.736,1.0,86.36381927028584
7.744,0.9999999999999999,86.24123375807419
7.752,1.0,86.11856629931457
7.76,1.0,85.9958168230342
7.768,1.0,85.87298525854305
7.776,1.0,85.7500715354347
7.784,1.0,85.6270755835873
7.792,0.9999999999999998,85.50399733316443
7.8,0.9999999999999999,85.38083671461598
7.808,1.0,85.25759365867911
7.816,0.9999999999999999,85.13426809637903
7.824,0.9999999999999999,85.01085995902999
7.832,1.0,84.88736917823611
7.84,0.9999999999999999,84.76379568589228
7.848,1.0,84.64013941418504
7.856,1.0,84.51640029559346
7.864,1.0,84.39257826289001
7.872,0.9999999999999999,84.26867324914149
7.88,1.0,84.14468518770978
7.888,1.0,84.02061401225288
7.896,1.0,83.89645965672568
7.904,0.9999999999999999,83.77222205538078
7.912,1.0,83.64790114276956
7.92,0.9999999999999998,83.52349685374274
7.928,0.9999999999999999,83.39900912345159
7.936,1.0,83.2744378873485
7.944,1.0,83.149783081188
7.952,1.0,83.02504464102763
7.96,1.0,82.90022250322868
7.968,1.0,82.77531660445713
7.976,0.9999999999999998,82.65032688168453
7.984,1.0,82.52525327218879
7.992,1.0,82.40009571355505
8.0,0.9999999999999999,82.27485414367652
8.008,1.0,82.14952850075541
8.016,1.0,82.02411872330359
8.024000000000001,1.0,81.89862475014365
8.032,0.9999999999999999,81.77304652040966
8.04,1.0,81.64738397354793
8.048,1.0,81.52163704931789
8.056000000000001,0.9999999999999999,81.39580568779303
8.064,0.9999999999999999,81.26988982936169
8.072,1.0,81.14388941472772
8.08,0.9999999999999999,81.01780438491156
8.088000000000001,1.0,80.89163468125095
8.096,1.0,80.76538024540179
8.104,0.9999999999999999,80.63904101933893
8.112,1.0,80.51261694535701
8.120000000000001,1.0,80.38610796607131
8.128,1.0,80.2595140244186
8.136,1.0,80.13283506365786
8.144,1.0,80.00607102737115
8.152000000000001,1.0,79.8792218594645
8.16,1.0,79.75228750416863
8.168,1.0,79.62526790603985
8.176,1.0,79.49816300996069
8.184000000000001,1.0,79.37097276114099
8.192,1.0,79.24369710511854
8.2,0.9999999999999999,79.11633598775985
8.208,0.9999999999999999,78.9888893552611
8.216000000000001,0.9999999999999999,78.86135715414879
8.224,1.0,78.73373933128077
8.232,1.0000000000000002,78.60603583384678
8.24,1.0,78.47824660936935
8.248000000000001,0.9999999999999999,78.35037160570472
8.256,1.0,78.22241077104354
8.264,1.0,78.09436405391162
8.272,0.9999999999999999,77.96623140317077
8.280000000000001,0.9999999999999999,77.83801276801967
8.288,0.9999999999999998,77.70970809799458
8.296,1.0,77.58131734297011
8.304,1.0,77.4528404531601
8.312,1.0,77.3242773791184
8.32,1.0,77.19562807173952
8.328,0.9999999999999999,77.06689248225965
8.336,1.0,76.9380705622572
8.344,0.9999999999999999,76.80916226365385
8.352,0.9999999999999999,76.68016753871505
8.36,0.9999999999999999,76.55108634005107
8.368,1.0,76.42191862061756
8.376,1.0,76.29266433371653
8.384,1.0,76.16332343299695
8.392,0.9999999999999999,76.03389587245566
8.4,0.9999999999999999,75.90438160643808
8.408,1.0,75.7747805896391
8.416,0.9999999999999999,75.64509277710357
8.424,1.0,75.5153181242275
8.432,1.0,75.38545658675848
8.44,1.0,75.25550812079662
8.448,1.0,75.12547268279526
8.456,0.9999999999999999,74.99535022956182
8.464,0.9999999999999998,74.8651407182585
8.472,1.0,74.73484410640307
8.48,0.9999999999999999,74.60446035186966
8.488,1.0,74.47398941288951
8.496,0.9999999999999999,74.34343124805171
8.504,1.0,74.21278581630412
8.512,0.9999999999999999,74.08205307695387
8.52,1.0,73.95123298966844
8.528,1.0,73.82032551447611
8.536,1.0,73.68933061176702
8.544,1.0,73.5582482422937
8.552,0.9999999999999999,73.42707836717206
8.56,1.0,73.2958209478819
8.568,1.0,73.16447594626791
8.576,1.0,73.03304332454029
8.584,1.0,72.9015230452756
8.592,1.0,72.7699150714174
8.6,0.9999998970782427,72.63821936627726
8.608,0.9999997641120965,72.50643589353514
8.616,0.9999996292317364,72.37456461724062
8.624,0.999999492453794,72.24260550181323
8.632,0.9999993537955695,72.11055851204357
8.64,0.9999992132750278,71.97842361309374
8.648,0.9999990709107996,71.84620077049843
8.656,0.9999989267221807,71.71388995016544
8.664,0.999998780729131,71.58149111837659
8.672,0.9999986329522735,71.44900424178837
8.68,0.999998483412894,71.31642928743288
8.688,0.9999983321329386,71.1837662227183
8.696,0.999998179135014,71.05101501543007
8.704,0.9999980244423847,70.91817563373117
8.712,0.9999978680789723,70.78524804616337
8.72,0.999997710069353,70.6522322216476
8.728,0.9999975504387567,70.51912812948498
8.736,0.9999973892130641,70.38593573935745
8.744,0.9999972264188047,70.25265502132861
8.752,0.999997062083155,70.1192859458444
8.76,0.9999968962339354,69.98582848373402
8.768,0.9999967288996081,69.85228260621054
8.776,0.9999965601092743,69.71864828487179
8.784,0.9999963898926703,69.58492549170101
8.792,0.9999962182801665,69.45111419906782
8.8,0.999996045302762,69.31721437972871
8.808,0.9999958709920831,69.18322600682818
8.815999999999999,0.9999956953803784,69.0491490538991
8.824,0.9999955185005159,68.91498349486383
8.832,0.9999953403859795,68.78072930403485
8.84,0.9999951610708641,68.64638645611556
8.847999999999999,0.9999949805898724,68.51195492620103
8.856,0.9999947989783099,68.37743468977878
8.864,0.9999946162720822,68.24282572272968
8.872,0.9999944325076878,68.10812800132867
8.879999999999999,0.9999942477222158,67.97334150224538
8.888,0.9999940619533395,67.83846620254512
8.896,0.9999938752393129,67.70350207968971
8.904,0.9999936876189639,67.56844911153813
8.911999999999999,0.9999934991316906,67.43330727634729
8.92,0.9999933098174543,67.29807655277288
8.928,0.9999931197167753,67.16275691987028
8.936,0.9999929288707268,67.02734835709522
8.943999999999999,0.9999927373209285,66.89185084430461
8.952,0.9999925451095409,66.75626436175727
8.96,0.9999923522792592,66.62058889011492
8.968,0.9999921588733067,66.48482441044287
8.975999999999999,0.999991964935429,66.34897090421079
8.984,0.9999917705098859,66.21302835329352
8.992,0.9999915756414467,66.07699673997205
9.0,0.9999913803753812,65.94087604693416
9.008,0.9999911847574537,65.8046662572753
9.016,0.999990988833916,65.66836735449932
9.024000000000001,0.999990792651499,65.53197932251952
9.032,0.9999905962574062,65.39550214565928
9.04,0.999990399699305,65.25893580865288
9.048,0.9999902030253197,65.12228029664642
9.056000000000001,0.999990006284023,64.98553559519864
9.064,0.9999898095244283,64.8487016902818
9.072,0.9999896127959804,64.71177856828234
9.08,0.9999894161485486,64.57476621600188
9.088000000000001,0.9999892196324165,64.43766462065805
9.096,0.9999890232982748,64.30047376988539
9.104,0.9999888271972106,64.16319365173597
9.112,0.9999886313807003,64.02582425468047
9.120000000000001,0.9999884359005988,63.88836556760902
9.128,0.9999882408091312,63.75081757983198
9.136,0.9999880461588824,63.61318028108081
9.144,0.999987852002789,63.47545366150898
9.152000000000001,0.9999876583941272,63.33763771169285
9.16,0.9999874653865047,63.19973242263252
9.168,0.9999872730338506,63.06173778575272
9.176,0.9999870813904044,62.923653792903615
9.184000000000001,0.9999868905107052,62.785480436361865
9.192,0.9999867004495827,62.64721770883138
9.2,0.9999865112621453,62.50886560344424
9.208,0.9999863230037701,62.370424113761594
9.216000000000001,0.9999861357300914,62.2318932337746
9.224,0.9999859494969899,62.09327295790534
9.232,0.9999857643605815,61.95456328100766
9.24,0.9999855803772058,61.81576419836807
9.248000000000001,0.9999853976034146,61.676875705706834
9.256,0.9999852160959607,61.53789779917877
9.264,0.9999850359117851,61.39883047537411
9.272,0.9999848571080069,61.259673731319566
9.280000000000001,0.9999846797419091,61.12042756447922
9.288,0.999984503870928,60.981091972755536
9.296,0.9999843295526404,60.84166695449015
9.304,0.9999841568447511,60.7021525084649
9.312000000000001,0.9999839858050802,60.56254863390288
9.32,0.9999838164915511,60.42285533046935
9.328,0.9999836489621766,60.283072598272575
9.336,0.9999834832750473,60.14320043786496
9.344,0.9999833194883169,60.00323885024401
9.352,0.9999831576601903,59.86318783685319
9.36,0.9999829978489101,59.723047399583145
9.368,0.9999828401127424,59.582817540772375
9.376,0.9999826845099643,59.442498263208606
9.384,0.9999825310988493,59.30208957012948
9.392,0.999982379937654,59.16159146522376
9.4,0.999982231084604,59.02100395263222
9.408,0.9999820845978802,58.88032703694887
9.416,0.9999819405356041,58.739560723221686
9.424,0.9999817989558236,58.59870501695395
9.432,0.9999816599164996,58.45775992410505
9.44,0.9999815234754904,58.3167254510917
9.448,0.9999813896905376,58.1756016047889
9.456,0.9999812586192511,58.03438839253109
9.464,0.999981130319095,57.89308582211303
9.472,0.999981004847372,57.751693901791114
9.48,0.999980882261209,57.61021264028423
9.488,0.9999807626175411,57.46864204677508
9.496,0.9999806459730977,57.326982130911006
9.504,0.9999805323843864,57.1852329028053
9.512,0.9999804219076776,57.043394373038225
9.52,0.9999803145989891,56.90146655265817
9.528,0.9999802105140716,56.759449453182654
9.536,0.9999801097083916,56.61734308659965
9.544,0.9999800122371157,56.47514746536848
9.552,0.9999799181550963,56.33286260242124
9.56,0.9999798275168551,56.19048851116364
9.568,0.9999797403765657,56.048025205476435
9.576,0.9999796567880396,55.90547269971637
9.584,0.9999795768047094,55.76283100871752
9.592,0.9999795004796124,55.62010014779229
9.6,0.9999794278653739,55.47728013273284
9.608,0.9999793590141928,55.33437097981197
9.616,0.9999792939778228,55.191372705784666
9.624,0.9999792328075582,55.048285327888934
9.632,0.9999791755542156,54.90510886384739
9.64,0.9999791222681185,54.761843331868135
9.648,0.999979072999081,54.61848875064628
9.656,0.99997902779639,54.47504513936492
9.664,0.9999789867087897,54.33151251769665
9.672,0.9999789497844638,54.18789090580453
9.68,0.9999789170710198,54.044180324343635
9.688,0.9999788886154719,53.90038079446202
9.696,0.999978864464224,53.7564923378023
9.704,0.999978844663053,53.6125149765027
9.712,0.9999788292570917,53.46844873319849
9.72,0.9999788182908125,53.32429363102311
9.728,0.9999788118080098,53.180049693609824
9.736,0.9999788098517837,53.03571694509256
9.744,0.9999788124645224,52.89129541010768
9.752,0.9999788196878865,52.74678511379496
9.76,0.99997883156279,52.60218608179922
9.768,0.9999788481293855,52.45749834027142
9.776,0.9999788694270463,52.312721915870284
9.784,0.9999788954943484,52.16785683576331
9.792,0.9999789263690559,52.022903127628595
9.8,0.9999789620881021,51.87786081965573
9.808,0.9999790026875736,51.73272994054762
9.816,0.9999790482026928,51.58751051952156
9.824,0.9999790986678013,51.442202586310884
9.832,0.999979154116344,51.29680617116616
9.84,0.9999792145808499,51.15132130485684
9.847999999999999,0.9999792800929178,51.00574801867248
9.856,0.9999793506831984,50.86008634442427
9.864,0.9999794263813775,50.71433631444654
9.872,0.9999795072161599,50.568497961598176
9.879999999999999,0.9999795932152523,50.422571319264016
9.888,0.9999796844053471,50.27655642135635
9.896,0.9999797808121057,50.13045330231648
9.904,0.9999798824601426,49.9842619971162
9.911999999999999,0.9999799893730079,49.83798254125912
9.92,0.9999801015731722,49.691614970782396
9.928,0.9999802190820102,49.5451593222581
9.936,0.9999803419197836,49.398615632794865
9.943999999999999,0.999980470105627,49.25198394003927
9.952,0.9999806036575285,49.10526428217737
9.96,0.999980742592319,48.95845669793653
9.968,0.9999808869256513,48.81156122658661
9.975999999999999,0.9999810366719882,48.66457790794173
9.984,0.9999811918445848,48.517506782361764
9.992,0.9999813524554733,48.370347890753976
10.0,0.9999815185154493,48.22310127457465
10.008,0.9999816900340547,48.07576697583049
10.016,0.9999818670195638,47.928345037080376
10.024000000000001,0.9999820494789684,47.78083550143699
10.032,0.9999822374179619,47.63323841256839
10.04,0.9999824308409259,47.48555381469954
10.048,0.9999826297509153,47.33778175261408
10.056000000000001,0.9999828341496442,47.18992227165593
10.064,0.9999830440374713,47.04197541773094
10.072,0.9999832594133858,46.89394123730843
10.08,0.9999834802749945,46.745819777422994
10.088000000000001,0.9999837066185076,46.59761108567615
10.096,0.9999839384387246,46.449315210237955
10.104,0.999984175729022,46.30093219984869
10.112,0.9999844184813403,46.15246210382052
