freq,mag,phase
6.0,0.9999937850491473,47.945592246487024
6.008,0.999993450944737,47.74821212183075
6.016,0.9999931225123537,47.55077444369416
6.024,0.9999927997074665,47.35327929319472
6.032,0.9999924824853813,47.15572675242622
6.04,0.9999921708012502,46.958116904457405
6.048,0.9999918646100812,46.76044983333034
6.056,0.9999915638667459,46.56272562405885
6.064,0.9999912685259896,46.36494436262703
6.072,0.9999909785424388,46.167106135987545
6.08,0.9999906938706101,45.96921103206011
6.088,0.9999904144649201,45.77125913972979
6.096,0.9999901402796915,45.573250548845465
6.104,0.9999898712691632,45.375185350218054
6.112,0.9999896073874973,45.17706363561895
6.12,0.9999893485887883,44.97888549777827
6.128,0.9999890948270708,44.78065103038317
6.136,0.9999888460563261,44.58236032807618
6.144,0.9999886022304924,44.38401348645337
6.152,0.9999883633034706,44.18561060206269
6.16,0.9999881292291327,43.98715177240215
6.168,0.9999878999613291,43.78863709591809
6.176,0.9999876754538969,43.590066672003324
6.184,0.9999874556606655,43.39144060099539
6.192,0.9999872405354652,43.19275898417465
6.2,0.999987030032135,42.99402192376249
6.208,0.9999868241045269,42.7952295229195
6.216,0.9999866227065166,42.59638188574344
6.224,0.9999864257920074,42.397479117267586
6.232,0.9999862333149385,42.19852132345859
6.24,0.9999860452292906,41.99950861121469
6.248,0.9999858614890945,41.800441088363705
6.256,0.999985682048435,41.601318863661135
6.264,0.9999855068614595,41.402142046788114
6.272,0.9999853358823833,41.20291074834949
6.28,0.9999851690654958,41.003625079871725
6.288,0.9999850063651673,40.80428515380099
6.296,0.9999848477358549,40.604891083501045
6.304,0.9999846931321074,40.40544298325116
6.312,0.9999845425085732,40.205940968244136
6.32,0.9999843958200041,40.006385154584095
6.328,0.9999842530212626,39.806775659284526
6.336,0.9999841140673267,39.60711260026597
6.344,0.9999839789132957,39.40739609635408
6.352,0.9999838475143953,39.20762626727731
6.36,0.999983719825984,39.00780323366481
6.368,0.9999835958035568,38.80792711704427
6.376,0.9999834754027522,38.60799803983963
6.384,0.999983358579356,38.40801612536891
6.392,0.9999832452893074,38.20798149784201
6.4,0.9999831354887024,38.00789428235834
6.408,0.9999830291338004,37.80775460490468
6.416,0.9999829261810282,37.607562592352814
6.424,0.9999828265869849,37.407318372457205
6.432,0.9999827303084461,37.20702207385277
6.44,0.9999826373023687,37.00667382605246
6.448,0.9999825475258962,36.80627375944494
6.456,0.9999824609363622,36.605822005292175
6.464,0.9999823774912944,36.40531869572712
6.472,0.9999822971484198,36.20476396375128
6.48,0.9999822198656679,36.00415794323224
6.4879999999999995,0.9999821456011763,35.80350076890131
6.496,0.9999820743132926,35.60279257635098
6.504,0.99998200596058,35.402033502032616
6.5120000000000005,0.9999819405018204,35.20122368325371
6.52,0.9999818778960186,35.00036325817572
6.5280000000000005,0.9999818181024058,34.79945236581112
6.536,0.9999817610804426,34.59849114602137
6.5440000000000005,0.9999817067898237,34.397479739513855
6.552,0.9999816551904804,34.19641828783978
6.5600000000000005,0.9999816062425851,33.99530693339116
6.568,0.9999815599065526,33.79414581939861
6.5760000000000005,0.9999815161430461,33.59293508992837
6.584,0.9999814749129777,33.39167488988002
6.592,0.999981436177514,33.19036536498348
6.6,0.9999813998980762,32.98900666179661
6.608,0.9999813660363466,32.78759892770239
6.616,0.9999813345542682,32.58614231090631
6.624,0.9999813054140494,32.384636960433554
6.632,0.9999812785781665,32.18308302612634
6.64,0.9999812540093658,31.981480658641136
6.648,0.9999812316706667,31.779830009445902
6.656,0.9999812115253636,31.57813123081735
6.664,0.9999811935370296,31.376384475838044
6.672,0.9999811776695173,31.17458989839371
6.68,0.9999811638869633,30.97274765317033
6.688,0.9999811521537872,30.770857895651282
6.696,0.9999811424346975,30.568920782114553
6.704,0.9999811346946907,30.366936469629778
6.712,0.9999811288990551,30.16490511605541
6.72,0.9999811250133721,29.962826880035784
6.728,0.9999811230035186,29.760701920998155
6.736,0.9999811228356682,29.558530399149806
6.744,0.9999811244762936,29.35631247547507
6.752,0.9999811278921676,29.154048311732375
6.76,0.9999811330503663,28.951738070451203
6.768,0.9999811399182685,28.749381914929156
6.776,0.999981148463559,28.546980009228832
6.784,0.9999811586542294,28.344532518174894
6.792,0.9999811704585795,28.142039607350977
6.8,0.999981183845219,27.939501443096574
6.808,0.9999811987830681,27.736918192504007
6.816,0.9999812152413593,27.534290023415327
6.824,0.9999812331896388,27.33161710441913
6.832,0.9999812525977668,27.12889960484752
6.84,0.9999812734359192,26.926137694772873
6.848,0.9999812956745886,26.723331545004744
6.856,0.9999813192845843,26.520481327086653
6.864,0.9999813442370344,26.317587213292885
6.872,0.9999813705033869,26.114649376625298
6.88,0.9999813980554082,25.911667990810088
6.888,0.9999814268651861,25.708643230294573
6.896,0.9999814569051293,25.505575270243902
6.904,0.9999814881479686,25.302464286537806
6.912,0.9999815205667573,25.099310455767288
6.92,0.9999815541348709,24.89611395523139
6.928,0.9999815888260092,24.692874962933775
6.936,0.999981624614194,24.489593657579512
6.944,0.9999816614737728,24.286270218571612
6.952,0.9999816993794161,24.082904826007773
6.96,0.9999817383061194,23.87949766067693
6.968,0.9999817782292025,23.67604890405591
6.976,0.9999818191243103,23.472558738306
6.984,0.999981860967412,23.269027346269556
6.992,0.9999819037348016,23.06545491146655
7.0,0.999981947403098,22.861841618091116
7.008,0.9999819919492443,22.658187651008124
7.016,0.9999820373505092,22.454493195749645
7.024,0.9999820835844838,22.25075843851151
7.032,0.9999821306290851,22.0469835661498
7.04,0.9999821784625522,21.843168766177307
7.048,0.9999822270634493,21.63931422675998
7.056,0.9999822764106618,21.435420136713446
7.064,0.999982326483399,21.231486685499394
7.072,0.9999823772611919,21.027514063222007
7.08,0.9999824287238928,20.823502460624397
7.088,0.9999824808516748,20.619452069084986
7.096,0.9999825336250328,20.415363080613854
7.104,0.9999825870247796,20.211235687849197
7.112,0.9999826410320476,20.00707008405359
7.12,0.999982695628288,19.80286646311039
7.128,0.9999827507952692,19.598625019520046
7.136,0.999982806515076,19.394345948396392
7.144,0.999982862770109,19.190029445463015
7.152,0.9999829195430836,18.985675707049463
7.16,0.9999829768170293,18.78128493008759
7.168,0.9999830345752886,18.576857312107784
7.176,0.9999830928015152,18.37239305123522
7.184,0.9999831514796741,18.167892346186093
7.192,0.9999832105940399,17.96335539626389
7.2,0.9999832701291955,17.758782401355518
7.208,0.9999833300700304,17.55417356192759
7.216,0.9999833904017419,17.349529079022567
7.224,0.9999834511098303,17.14484915425493
7.232,0.9999835121801003,16.940133989807364
7.24,0.9999835735986583,16.73538378842688
7.248,0.9999836353519115,16.530598753421
7.256,0.9999836974265668,16.32577908865383
7.264,0.9999837598096278,16.12092499854222
7.272,0.9999838224883962,15.916036688051797
7.28,0.9999838854504668,15.711114362693184
7.288,0.9999839486837289,15.506158228517926
7.296,0.9999840121763623,15.301168492114668
7.304,0.9999840759168381,15.09614536060515
7.312,0.9999841398939153,14.891089041640289
7.32,0.9999842040966394,14.685999743396188
7.328,0.9999842685143406,14.480877674570179
7.336,0.9999843331366333,14.275723044376795
7.344,0.9999843979534128,14.070536062543816
7.352,0.9999844629548537,13.865316939308235
7.36,0.9999845281314086,13.660065885412232
7.368,0.9999845934738062,13.45478311209914
7.376,0.9999846589730498,13.249468831109406
7.384,0.9999847246204137,13.044123254676563
7.392,0.9999847904074426,12.838746595523098
7.4,0.9999848563259498,12.633339066856466
7.4079999999999995,0.9999849223680142,12.427900882364943
7.416,0.9999849885259795,12.222432256213462
7.4239999999999995,0.9999850547924511,12.01693340303976
7.432,0.999985121160294,11.811404537949905
7.4399999999999995,0.9999851876226316,11.605845876514532
7.448,0.9999852541728426,11.400257634764365
7.4559999999999995,0.9999853208045594,11.194640029186422
7.464,0.9999853875116655,10.988993276719484
7.4719999999999995,0.9999854542882946,10.783317594750331
7.48,0.9999855211288258,10.57761320110916
7.4879999999999995,0.9999855880278835,10.371880314065814
7.496,0.9999856549803352,10.16611915232518
7.504,0.9999857219812874,9.960329935023399
7.5120000000000005,0.999985789026085,9.754512881723256
7.52,0.9999858561103084,9.54866821241034
7.5280000000000005,0.9999859232297702,9.342796147488462
7.536,0.9999859903805149,9.136896907775768
7.5440000000000005,0.9999860575588143,8.930970714500152
7.552,0.999986124761167,8.725017789295334
7.5600000000000005,0.9999861919842946,8.519038354196287
7.568,0.9999862592251391,8.313032631635282
7.5760000000000005,0.9999863264808619,8.107000844437282
7.584,0.9999863937488405,7.900943215816011
7.5920000000000005,0.9999864610266652,7.6948599693692845
7.6,0.999986528312138,7.488751329075122
7.6080000000000005,0.9999865956032685,7.282617519287008
7.616,0.9999866628982735,7.07645876473
7.6240000000000006,0.9999867301955724,6.8702752904960125
7.632,0.999986797493785,6.6640673220398705
7.640000000000001,0.9999868647917308,6.457835085174594
7.648,0.9999869320884232,6.251578806067431
7.656000000000001,0.9999869993830695,6.045298711235145
7.664,0.9999870666750673,5.8389950275400215
7.672,0.9999871339640019,5.632667982185157
7.68,0.9999872012496432,5.426317802710359
7.688,0.9999872685319441,5.21994471698764
7.696,0.9999873358110368,5.013548953216875
7.704,0.9999874030872313,4.807130739921398
7.712,0.9999874703610109,4.600690305943625
7.72,0.9999875376330312,4.394227880440643
7.728,0.9999876049041164,4.187743692879828
7.736,0.9999876721752572,3.9812379730344025
7.744,0.9999877394476075,3.7747109509790557
7.752,0.9999878067224821,3.5681628570854915
7.76,0.9999878740013541,3.361593922018027
7.768,0.9999879412858511,3.1550043767291576
7.776,0.9999880085777537,2.948394452455111
7.784,0.9999880758789921,2.7417643807114227
7.792,0.9999881431916438,2.5351143932884748
7.8,0.9999882105179295,2.3284447222470708
7.808,0.9999882778602125,2.1217555999139583
7.816,0.9999883452209941,1.9150472588773855
7.824,0.9999884126029109,1.708319931982635
7.832,0.9999884800087342,1.5015738523275646
7.84,0.9999885474413635,1.2948092532581272
7.848,0.9999886149038272,1.0880263683639109
7.856,0.9999886823992775,0.8812254314736505
7.864,0.9999887499309892,0.6744066766507552
7.872,0.9999888175023555,0.4675703381888269
7.88,0.999988885116886,0.26071665060716515
7.888,0.999988952778204,0.053845848646287005
7.896,0.9999890204900435,-0.15304183273656927
7.904,0.9999890882562457,-0.35994615837194077
7.912,0.999989156080757,-0.566866892882634
7.92,0.999989223967627,-0.773803800688226
7.928,0.9999892919210033,-0.9807566460095675
7.936,0.9999893599451309,-1.187725192873289
7.944,0.9999894280443486,-1.3947092051163061
7.952,0.999989496223086,-1.601708446390325
7.96,0.9999895644858608,-1.8087226801663578
7.968,0.9999896328372772,-2.0157516697392337
7.976,0.9999897012820206,-2.2227951782321123
7.984,0.9999897698248569,-2.429852968600997
7.992,0.9999898384706292,-2.6369248036392543
8.0,0.9999899072242548,-2.8440104459821294
8.008,0.9999899760907228,-3.051109658111245
8.016,0.999990045075091,-3.258222202359228
8.024000000000001,0.9999901141824826,-3.4653478409140357
8.032,0.9999901834180852,-3.672486335823578
8.04,0.9999902527871461,-3.879637449000339
8.048,0.9999903222949704,-4.086800942225806
8.056000000000001,0.999990391946919,-4.293976577154893
8.064,0.9999904617484042,-4.501164115320566
8.072,0.9999905317048892,-4.708363318138442
8.08,0.999990601821882,-4.915573946911238
8.088000000000001,0.9999906721049376,-5.122795762833172
8.096,0.9999907425596505,-5.330028526994611
8.104,0.9999908131916545,-5.53727200038665
8.112,0.9999908840066198,-5.744525943905564
8.120000000000001,0.9999909550102506,-5.951790118357217
8.128,0.9999910262082808,-6.159064284461683
8.136,0.9999910976064736,-6.3663482028578455
8.144,0.9999911692106174,-6.573641634107829
8.152000000000001,0.9999912410265235,-6.780944338701414
8.16,0.9999913130600236,-6.988256077060642
8.168,0.9999913853169677,-7.195576609544418
8.176,0.9999914578032199,-7.40290569645293
8.184000000000001,0.9999915305246582,-7.610243098032054
8.192,0.9999916034871699,-7.817588574477964
8.2,0.9999916766966501,-8.02494188594171
8.208,0.9999917501589987,-8.232302792533638
8.216000000000001,0.9999918238801179,-8.439671054327796
8.224,0.999991897865911,-8.647046431366496
8.232,0.9999919721222774,-8.854428683664935
8.24,0.9999920466551125,-9.061817571215556
8.248000000000001,0.9999921214703037,-9.26921285399247
8.256,0.9999921965737283,-9.476614291956011
8.264,0.9999922719712524,-9.684021645057307
8.272,0.9999923476687262,-9.891434673242678
8.280000000000001,0.9999924236719832,-10.098853136458006
8.288,0.9999924999868374,-10.306276794653291
8.296,0.9999925766190813,-10.513705407787198
8.304,0.9999926535744822,-10.72113873583147
8.312,0.9999927308587822,-10.928576538775173
8.32,0.9999928084776931,-11.136018576629546
8.328,0.9999928864368967,-11.34346460943202
8.336,0.9999929647420406,-11.55091439725106
8.344,0.999993043398737,-11.758367700190218
8.352,0.9999931224125607,-11.965824278392944
8.36,0.9999932017890449,-12.173283892046653
8.368,0.9999932815336819,-12.380746301387498
8.376,0.9999933616519187,-12.588211266704427
8.384,0.9999934421491556,-12.795678548343956
8.392,0.9999935230307443,-13.003147906714224
8.4,0.999993604301985,-13.210619102289753
8.408,0.9999936859681254,-13.41809189561547
8.416,0.999993768034358,-13.625566047311457
8.424,0.9999938505058173,-13.833041318076997
8.432,0.9999939333875791,-14.040517468695285
8.44,0.999994016684658,-14.247994260037446
8.448,0.9999941004020048,-14.455471453067272
8.456,0.999994184544505,-14.6629488088452
8.464,0.9999942691169773,-14.870426088533039
8.472,0.9999943541241707,-15.077903053397936
8.48,0.9999944395707631,-15.285379464817092
8.488,0.9999945254613599,-15.49285508428172
8.496,0.9999946118004905,-15.700329673401743
8.504,0.9999946985926093,-15.90780299390971
8.512,0.9999947858420897,-16.115274807665543
8.52,0.999994873553227,-16.322744876660366
8.528,0.9999949617302332,-16.530212963021256
8.536,0.999995050377236,-16.737678829015127
8.544,0.9999951394982787,-16.945142237053364
8.552,0.9999952290973158,-17.15260294969573
8.56,0.9999953191782135,-17.36006072965501
8.568,0.9999954097447474,-17.56751533980087
8.576,0.9999955008006002,-17.774966543164517
8.584,0.9999955923493608,-17.982414102942474
8.592,0.9999956843945227,-18.189857782501278
8.6,0.9999957769394818,-18.39729734538128
8.608,0.9999958699875361,-18.604732555301197
8.616,0.9999959635418824,-18.812163176162016
8.624,0.9999960576056165,-19.01958897205146
8.632,0.9999961521817303,-19.2270097072479
8.64,0.9999962472731122,-19.434425146224783
8.648,0.9999963428825429,-19.64183505365457
8.656,0.9999964390126973,-19.849239194413105
8.664,0.9999965356661403,-20.056637333583485
8.672,0.9999966328453281,-20.264029236460527
8.68,0.9999967305526033,-20.47141466855454
8.688,0.9999968287901972,-20.678793395595818
8.696,0.999996927560227,-20.88616518353831
8.704,0.9999970268646944,-21.093529798564134
8.712,0.9999971267054844,-21.300887007087304
8.72,0.9999972270843646,-21.508236575758133
8.728,0.9999973280029837,-21.715578271466917
8.736,0.9999974294628704,-21.922911861348407
8.744,0.9999975314654326,-22.130237112785412
8.752,0.9999976340119556,-22.33755379341325
8.76,0.9999977371036018,-22.54486167112336
8.768,0.9999978407414096,-22.752160514067718
8.776,0.9999979449262915,-22.959450090662386
8.784,0.9999980496590343,-23.166730169591954
8.792,0.9999981549402974,-23.37400051981308
8.8,0.9999982607706128,-23.581260910558814
8.808,0.9999983671503825,-23.788511111342252
8.815999999999999,0.9999984740798793,-23.99575089196069
8.824,0.9999985815592456,-24.202980022499485
8.832,0.9999986895884916,-24.41019827333585
8.84,0.9999987981674957,-24.617405415142834
8.847999999999999,0.9999989072960033,-24.82460121889331
8.856,0.9999990169736259,-25.031785455863762
8.864,0.9999991271998409,-25.238957897638038
8.872,0.9999992379739902,-25.446118316111324
8.879999999999999,0.9999993492952803,-25.653266483494036
8.888,0.9999994611627809,-25.86040217231557
8.896,0.999999573575425,-26.067525155428026
8.904,0.9999996865320084,-26.274635206010068
8.911999999999999,0.9999998000311882,-26.481732097570838
8.92,0.9999999140714836,-26.68881560395362
8.928,0.9999999999999999,-26.895885499339492
8.936,1.0,-27.102941558251192
8.943999999999999,1.0,-27.3099835555569
8.952,1.0,-27.5170112664739
8.96,1.0,-27.72402446657218
8.968,1.0,-27.93102293177821
8.975999999999999,1.0,-28.138006438378714
8.984,1.0,-28.344974763024236
8.992,1.0,-28.55192768273269
9.0,1.0000000000000002,-28.758864974893118
9.008,0.9999999999999998,-28.965786417269356
9.016,1.0000000000000002,-29.17269178800357
9.024000000000001,0.9999999999999998,-29.379580865619772
9.032,1.0,-29.58645342902745
9.04,0.9999999999999999,-29.793309257525255
9.048,1.0000000000000002,-30.00014813080442
9.056000000000001,1.0,-30.20696982895227
9.064,1.0,-30.413774132455735
9.072,0.9999999999999999,-30.62056082220502
9.08,1.0,-30.827329679496987
9.088000000000001,0.9999999999999999,-31.034080486038498
9.096,1.0,-31.240813023949976
9.104,1.0,-31.447527075769045
9.112,0.9999999999999999,-31.654222424453653
9.120000000000001,1.0,-31.860898853385603
9.128,1.0,-32.06755614637389
9.136,1.0,-32.27419408765826
9.144,0.9999999999999999,-32.48081246191247
9.152000000000001,0.9999999999999999,-32.68741105424751
9.16,1.0,-32.89398965021508
9.168,1.0000000000000002,-33.10054803581093
9.176,1.0,-33.30708599747814
9.184000000000001,1.0,-33.51360332211026
9.192,1.0,-33.72009979705473
9.2,1.0,-33.926575210116155
9.208,0.9999999999999999,-34.13302934955953
9.216000000000001,1.0,-34.33946200411328
9.224,0.9999999999999999,-34.54587296297266
9.232,0.9999999999999999,-34.75226201580291
9.24,1.0,-34.95862895274246
9.248000000000001,1.0,-35.16497356440593
9.256,1.0,-35.37129564188732
9.264,1.0,-35.577594976763365
9.272,0.9999999999999999,-35.78387136109637
9.280000000000001,0.9999999999999999,-35.990124587437364
9.288,1.0,-36.19635444882914
9.296,1.0,-36.402560738809505
9.304,1.0,-36.60874325141415
9.312000000000001,1.0,-36.814901781179636
9.32,1.0,-37.02103612314643
9.328,1.0,-37.22714607286205
9.336,0.9999999999999999,-37.433231426383905
9.344,0.9999999999999999,-37.63929198028214
9.352,1.0,-37.84532753164281
9.36,0.9999999999999999,-38.051337878070555
9.368,0.9999999999999999,-38.257322817691794
9.376,1.0,-38.463282149157244
9.384,1.0,-38.669215671645155
9.392,1.0,-38.87512318486385
9.4,1.0000000000000002,-39.08100448905483
9.408,1.0,-39.2868593849953
9.416,1.0,-39.49268767400125
9.424,1.0,-39.69848915793002
9.432,0.9999999999999999,-39.9042636391832
9.44,1.0,-40.11001092070922
9.448,0.9999999999999999,-40.315730806006336
9.456,1.0,-40.52142309912498
9.464,0.9999999999999999,-40.727087604670835
9.472,1.0,-40.932724127807134
9.48,1.0,-41.13833247425769
9.488,0.9999999999999999,-41.34391245030914
9.496,1.0,-41.54946386281396
9.504,0.9999999999999999,-41.754986519192684
9.512,0.9999999999999999,-41.96048022743684
9.52,1.0,-42.1659447961112
9.528,1.0,-42.371380034356605
9.536,1.0,-42.576785751892196
9.544,0.9999999999999999,-42.78216175901833
9.552,1.0,-42.987507866618564
9.56,0.9999999999999999,-43.192823886162614
9.568,1.0,-43.39810962970839
9.576,0.9999999999999998,-43.60336490990484
9.584,1.0,-43.80858953999401
9.592,1.0,-44.01378333381369
9.6,1.0,-44.2189461057996
9.608,0.9999999999999999,-44.424077670988
9.616,1.0,-44.629177845017736
9.624,0.9999999999999999,-44.83424644413289
9.632,1.0,-45.03928328518472
9.64,1.0,-45.24428818563438
9.648,0.9999999999999999,-45.44926096355473
9.656,1.0000000000000002,-45.65420143763304
9.664,1.0,-45.85910942717278
9.672,0.9999999999999999,-46.06398475209633
9.68,1.0,-46.268827232946634
9.688,0.9999999999999998,-46.47363669088987
9.696,0.9999999999999999,-46.67841294771723
9.704,1.0,-46.883155825847396
9.712,1.0,-47.08786514832829
