freq,mag,phase
6.0,1.0011996508062895,148.99887422277664
6.002285568,1.0014308758218826,148.82105960359752
6.004571648,1.001573564059244,148.6405412344719
6.006857216,1.0016175195739347,148.4587130459531
6.009142784,1.0015597777067866,148.27701439223563
6.011428352,1.0014039477042191,148.0968550376909
6.013714432,1.0011596617000744,147.91962254919665
6.016,1.000842446401974,147.74651016320067
6.018285568,1.0004723930354407,147.5783744497693
6.020571648,1.0000725501848344,147.41586635381398
6.022857216,0.9996683879177695,147.25918282293725
6.025142784,0.999285387998426,147.1082780519213
6.027428352,0.9989476920242528,146.96266618816625
6.029714432,0.998676837764515,146.821506283882
6.032,0.9984901018780006,146.68369375894662
6.034285568,0.9983992961091304,146.54796557773722
6.036571648,0.9984100115925431,146.412822184498
6.038857216,0.9985217750203017,146.27684129266893
6.041142784,0.998727724672151,146.13857261137923
6.043428352,0.9990145206950625,145.99674514666597
6.045714432,0.9993640642926596,145.8503103841325
6.048,0.9997542543098372,145.69853563986604
6.050285568,1.00016043141015,145.54100094741813
6.052571648,1.000556926956799,145.37767151551506
6.054857216,1.0009185052318392,145.20885186169463
6.057142784,1.0012225771563548,145.03525142558323
6.059428352,1.0014499767404381,144.85787113674016
6.061714432,1.0015860972157247,144.67782998146822
6.064,1.001622593980242,144.49658737174352
6.066285568,1.00155707452676,144.31560971098662
6.068571648,1.0013936361219002,144.13628197748662
6.070857216,1.0011425058863241,143.95999175246362
6.073142784,1.00081932951621,143.78786878693737
6.075428352,1.0004448425202905,143.62082766595745
6.077714432,1.0000421655512943,143.45947068885363
6.08,0.9996371537851307,143.30400564691854
6.082285568,0.9992552693418109,143.1542821565022
6.084571648,0.9989206168478686,143.00977813595543
6.086857216,0.9986545359175583,142.86968684525797
6.089142784,0.9984738539311788,142.73290831266928
6.091428352,0.9983900957873165,142.59808651710222
6.093714432,0.9984087329672057,142.4637611412288
6.096,0.9985283133223957,142.32848097957768
6.098285568,0.9987417198613272,142.19077444913646
6.100571648,0.9990350945671135,142.04941040919013
6.102857216,0.9993898341898261,141.90337236448937
6.105142784,0.9997837097017049,141.7519197911785
6.107428352,1.0001915663118646,141.59466184757807
6.109714432,1.0005877265783651,141.43162699060713
6.112,1.0009471478700254,141.26312124071256
6.114285568,1.001247260641653,141.08988976969502
6.116571648,1.0014688909195224,140.91285425306367
6.118857216,1.0015982767302225,140.73335789847624
6.121142784,1.0016272501570747,140.55273037321828
6.123428352,1.0015537359444953,140.37244632363078
6.125714432,1.0013824338579225,140.19394946119317
6.128,1.0011243231911287,140.01860458658865
6.130285568,1.0007953183137586,139.84751717218924
6.132571648,1.0004162800021907,139.6816059065493
6.134857216,1.0000109502532142,139.52138095676256
6.137142784,0.999605353647735,139.36707612634603
6.139428352,0.9992247038084605,139.2185191232265
6.141714432,0.9988933174712116,139.07518761187208
6.144,0.99863226389768,138.9361944975904
6.146285568,0.9984579522062315,138.80042829621377
6.148571648,0.9983816764440755,138.66648856645193
6.150857216,0.9984081605640371,138.53297196015438
6.153142784,0.9985358308097034,138.398368776433
6.155428352,0.9987566356719223,138.261237632501
6.157714432,0.9990565540356702,138.12034339729314
6.16,0.9994165427379818,137.97466256032143
6.162285568,0.9998138639792716,137.82353735940174
6.164571648,1.0002233108322907,137.6665544756597
6.166857216,1.0006191095898767,137.50377799364486
6.169142784,1.000976228834924,137.33555723216
6.171428352,1.0012719742976883,137.1626328813831
6.173714432,1.0014879283527138,136.9860465888586
6.176,1.0016101769909518,136.80703991377786
6.178285568,1.001631322404871,136.62700236000816
6.180571648,1.001549832959933,136.44745515405828
6.182857216,1.001370832899609,136.26980140236662
6.185142784,1.0011054764092908,136.0953679653078
6.187428352,1.0007704919346232,135.9253277612819
6.189714432,1.000387056060356,135.76051498571582
6.192,0.999979344359325,135.60147473354274
6.194285568,0.999573000523156,135.4483679553307
6.196571648,0.9991938892785531,135.30100950668776
6.198857216,0.9988659820054947,135.1588229977625
6.201142784,0.998609962137941,135.020927085318
6.203428352,0.9984422678515062,134.8861465567622
6.205714432,0.9983735744366347,134.75311291334674
6.208,0.9984082636495837,134.62037470924454
6.210285568,0.9985439725345511,134.48639681608412
6.212571648,0.9987724013505855,134.34983354531823
6.214857216,0.9990788914385422,134.2093995558526
6.217142784,0.9994440918493963,134.06408257754555
6.219428352,0.9998448074450587,133.91324188330108
6.221714432,1.0002558148266474,133.75651444390638
6.224,1.0006509418239486,133.59400858216844
6.226285568,1.001005474544738,133.42605130927168
6.228571648,1.0012968809899008,133.253454567231
6.230857216,1.001506634997722,133.07726114799772
6.233142784,1.0016218621435609,132.8987587022905
6.235428352,1.0016348992516264,132.71933726312534
6.237714432,1.0015451473658743,132.54050703995313
6.24,1.0013581092545645,132.36369630584767
6.242285568,1.001085602131825,132.19023947382252
6.244571648,1.0007446015244776,132.0212568037523
6.246857216,1.0003568297590462,131.85754616293428
6.249142784,0.9999466023838683,131.69968257692508
6.251428352,0.9995399917902165,131.54775431625518
6.253714432,0.9991625119767344,131.40158069636828
6.256,0.9988382225882372,131.2605485924969
6.258285568,0.9985876558602805,131.12372230586087
6.260571648,0.9984268252216921,130.98993776005713
6.262857216,0.9983658976030303,130.8578083017716
6.265142784,0.9984088519092117,130.7258169810815
6.267428352,0.9985529386893726,130.59251263708362
6.269714432,0.9987889818470869,130.45646454666218
6.272,0.9991020736189815,130.31642734294672
6.274285568,0.9994725330844269,130.1714730381825
6.276571648,0.9998766777477076,130.0209158284151
6.278857216,1.0002890565999467,129.86442126905825
6.281142784,1.0006834308732606,129.70213443824176
6.283428352,1.0010351066361327,129.5344769731925
6.285714432,1.0013217975144304,129.36219062458238
6.288,1.0015253350426434,129.1863945940133
6.290285568,1.0016329929027852,129.00838156817773
6.292571648,1.0016379263107031,128.82956079013096
6.294857216,1.0015397558452093,128.65147099248117
6.297142784,1.0013446859090944,128.4755194135848
6.299428352,1.0010649308025545,128.30299945348673
6.301714432,1.0007180274700564,128.13506015684771
6.304,1.0003258941975663,127.97248250197781
6.306285568,0.9999134569737208,127.8157953487624
6.308571648,0.9995063988146012,127.66508125687687
6.310857216,0.999130831793346,127.52011036949449
6.313142784,0.9988105322314634,127.38020468291718
6.315428352,0.9985656470742607,127.24444093726756
6.317714432,0.9984118403763939,127.11164752429247
6.32,0.9983589604551697,126.98035374716802
6.322285568,0.9984103500730955,126.84913501594625
6.324571648,0.9985628776538793,126.71644163354826
6.326857216,0.9988066750341217,126.58092349722669
6.329142784,0.9991265178453467,126.44129441756314
6.331428352,0.9995019838908619,126.29665286635945
6.333714432,0.9999093495695868,126.14631888639627
6.336,1.0003229198896317,125.99010665895939
6.338285568,1.0007164833741624,125.82800748238456
6.340571648,1.0010650020097256,125.66059490985171
6.342857216,1.0013467551740938,125.48863217293125
6.345142784,1.001543911660789,125.31321962562683
6.347428352,1.0016438464400588,125.13568221711596
6.349714432,1.0016403472844013,124.95750691636243
6.352,1.0015336240808808,124.78008582321694
6.354285568,1.0013303449294488,124.60500059761881
6.356571648,1.0010432623078331,124.43344717620961
6.358857216,1.0006904723398464,124.2665515711286
6.361142784,1.0002941282684146,124.1051288794786
6.363428352,0.9998794213250464,123.94962142258443
6.365714432,0.9994723177671876,123.8000871945129
6.368,0.9990987926671024,123.65627210812778
6.370285568,0.998782489138818,123.51752310460097
6.372571648,0.9985436349660729,123.38283277427911
6.374857216,0.9983970496334207,123.25099936937445
6.377142784,0.9983523937611555,123.12058647105793
6.379428352,0.9984124518019217,122.99009194945464
6.381714432,0.9985734033296172,122.85802476929327
6.384,0.9988252042218989,122.72296121663064
6.386285568,0.9991515933527262,122.58370768405501
6.388571648,0.9995322241002091,122.43938354685754
6.390857216,0.999942741811886,122.28926310060413
6.393142784,1.0003574258080932,122.13321966756033
6.395428352,1.0007497015662796,121.9713688263531
6.397714432,1.001095056206223,121.80415271305951
6.4,1.0013716952957432,121.6324937647889
6.402285568,1.0015619729617724,121.45748495507495
6.404571648,1.0016540004724273,121.28041911101448
6.406857216,1.0016419812324349,121.10285251660765
6.409142784,1.001526597301646,120.92617843494445
6.411428352,1.0013149923873443,120.75194204788242
6.413714432,1.0010205219873298,120.58134388873621
6.416,1.0006617976004464,120.41552664913976
6.418285568,1.0002614655033066,120.25522630583417
6.420571648,0.9998445756250905,120.10088739750373
6.422857216,0.9994376945594584,119.95255313863039
6.425142784,0.9990664831049273,119.80993520165633
6.427428352,0.9987544102434308,119.67228807280954
6.429714432,0.9985216293948119,119.53864369545387
6.432,0.9983826371711194,119.40776171369747
6.434285568,0.9983463447007955,119.27819165631314
6.436571648,0.9984153830054314,119.14841303601503
6.438857216,0.9985849732950546,119.01691205494882
6.441142784,0.9988446271888548,118.88233337971505
6.443428352,0.9991778136787668,118.7434304360955
6.445714432,0.9995634054748747,118.59934291311994
6.448,0.9999770851069425,118.44946888960632
6.450285568,1.0003924295081785,118.29361014680497
6.452571648,1.0007835925143451,118.13191043803045
6.454857216,1.0011254443122701,117.964943434082
6.457142784,1.0013966417214317,117.7935380637103
6.459428352,1.0015799484985242,117.61890536678804
6.461714432,1.0016638641614959,117.44233838256763
6.464,1.0016430974514274,117.2653488402231
6.466285568,1.0015187776736387,117.08940554200655
6.468571648,1.0012988968822965,116.9159750623459
6.470857216,1.0009970310849334,116.74638294401242
6.473142784,1.000632417006753,116.5816238671744
6.475428352,1.0002280098805205,116.42243742797778
6.477714432,0.9998091097372807,116.26929583245278
6.48,0.9994024822075797,116.1221681793999
6.482285568,0.9990338342092474,115.98069173866
6.484571648,0.9987264860198547,115.84416044906776
6.486857216,0.9985000331449672,115.71158322028953
6.489142784,0.9983687950796932,115.58163173100479
6.491428352,0.9983412401559185,115.45284762225444
6.493714432,0.998419116648392,115.32376414711473
6.496,0.9985974973996123,115.19282833719502
6.498285568,0.9988651080955445,115.05866168491198
6.500571648,0.9992049423747837,114.92011130368051
6.502857216,0.99959558596177,114.77627590876634
6.505142784,1.0000121731599372,114.62655261309762
6.507428352,1.0004282541200002,114.47085818975427
6.509714432,1.0008177877048599,114.30932914164003
6.512,1.0011560592463211,114.14253615863267
6.514285568,1.0014215408870115,113.97142728118205
6.516571648,1.001597623840971,113.79712088909113
6.518857216,1.0016731265675538,113.62103534661527
6.521142784,1.0016433642962908,113.44462793060553
6.523428352,1.0015101446358041,113.26942959460732
6.525714432,1.0012817468741435,113.09687815942317
6.528,1.0009725333226533,112.92822437305041
6.530285568,1.0006021102367242,112.76452048242727
6.532571648,1.0001936460613337,112.60649034966819
6.534857216,0.9997730633035934,112.45449510555811
6.537142784,0.9993669017461252,112.30855436278507
6.539428352,0.9990009595186755,112.1682322617635
6.541714432,0.998698487362428,112.03283003920015
6.544,0.99847861506607,111.90125251149627
6.546285568,0.9983553443813009,111.77222817037122
6.548571648,0.9983366454885216,111.64425556972608
6.550857216,0.9984237234904775,111.51581470257369
6.553142784,0.9986109934454808,111.38540698902749
6.555428352,0.9988867331558118,111.25162943231724
6.557714432,0.9992332536780212,111.11337813456997
6.56,0.9996286485393068,110.969740473915
6.562285568,1.000048069208843,110.82022592138898
6.564571648,1.0004648422990652,110.66461548153593
6.566857216,1.0008525231287448,110.50324262129845
6.569142784,1.0011868113103368,110.33663074224204
6.571428352,1.00144644026164,110.16576960876785
6.573714432,1.0016150836253774,109.99180942302058
6.576,1.0016820154008583,109.816179100258
6.578285568,1.0016431534735346,109.64035724499614
6.580571648,1.0015006835487932,109.46588313910262
6.582857216,1.0012637452980373,109.29415838845811
6.585142784,1.0009470918155745,109.12649614935486
6.587428352,1.0005708278443768,108.96384555706557
6.589714432,1.0001585068306902,108.80693392787289
6.592,0.9997362091402999,108.65611081127186
6.594285568,0.9993308410129333,108.51136254259677
6.596571648,0.9989678284443138,108.37217955657621
6.598857216,0.9986704646279884,108.23788053087308
6.601142784,0.9984574981167611,108.10730279860091
6.603428352,0.998342489230918,107.97915742761155
6.605714432,0.9983328635735438,107.8519668382736
6.608,0.9984291579322442,107.72415720534418
6.610285568,0.9986254225637676,107.59424952369935
6.612571648,0.9989091431083201,107.46085612569567
6.614857216,0.9992624077897078,107.32285844072965
6.617142784,0.9996626064634216,107.17938995639908
6.619428352,1.0000848143223309,107.03000535902228
6.621714432,1.0005018457889885,106.87450310166328
6.624,1.0008875683254697,106.71324309911373
6.626285568,1.0012175568106965,106.54679512419457
6.628571648,1.0014710239711673,106.37615754274898
6.630857216,1.0016319056049492,106.20253330755719
6.633142784,1.0016901515161996,106.02735799048568
6.635428352,1.0016418779660774,105.8521393393
6.637714432,1.001490194138892,105.6783726973502
6.64,1.0012446994753599,105.50749488633775
6.642285568,1.0009205153957894,105.34077402824002
6.644571648,1.0005384724579578,105.17918540532175
6.646857216,1.0001223701597575,105.02340426100066
6.649142784,0.999698723470802,104.87374652256908
6.651428352,0.999294184705981,104.7301506905585
6.653714432,0.9989345023760268,104.59213059358112
6.656,0.9986423224803636,104.45888052699857
6.658285568,0.9984365428400368,104.3293076696628
6.660571648,0.9983299301122901,104.20203619633911
6.662857216,0.998329578091163,104.07556890432471
6.665142784,0.9984354371206567,103.94836685049148
6.667428352,0.99864081182012,103.81893187216068
6.669714432,0.9989325666150867,103.68586674203807
6.672,0.99929242385303,103.54810939201293
6.674285568,0.9996974289571146,103.40481827578911
6.676571648,1.0001220982293988,103.25549640865134
6.678857216,1.0005392711906973,103.10010841982185
6.681142784,1.0009228056471167,102.9389059379556
6.683428352,1.001248392583945,102.77260448165352
6.685714432,1.0014954603718123,102.60218412980929
6.688,1.0016484490595878,102.42889578959027
6.690285568,1.0016975762800375,102.25416878499337
6.692571648,1.0016398087521365,102.07948496234958
6.694857216,1.0014787520039803,101.90644392247351
6.697142784,1.0012245534617479,101.73641605949071
6.699428352,1.0008930125612239,101.57063800519758
6.701714432,1.0005052034550919,101.41011395276875
6.704,1.0000855184937234,101.25547196455352
6.706285568,0.9996605457035757,101.10696132948713
6.708571648,0.9992571732466444,100.96449151912083
6.710857216,0.9989008763976553,100.8276210215606
6.713142784,0.9986144134841678,100.69543172667142
6.715428352,0.9984159103181963,100.56682363525023
6.717714432,0.9983181479775572,100.44037674581531
6.72,0.99832718087314,100.3146413194442
6.722285568,0.9984426978485567,100.18801823276378
6.724571648,0.9986572115483601,100.05901343970196
6.726857216,0.9989572026434801,99.9262568719096
6.729142784,0.9993236372247755,99.78869505357059
6.731428352,0.9997332578291392,99.64552961853704
6.733714432,1.0001602330392672,99.49627479120329
6.736,1.0005774435959347,99.34090684982684
6.738285568,1.0009584911821172,99.1797968970216
6.740571648,1.0012792654827531,99.01361455440185
6.742857216,1.0015196631581293,98.84339330699973
6.745142784,1.0016644996101158,98.67039572690734
6.747428352,1.001704483767489,98.496081481886
6.749714432,1.0016370449985081,98.32201400157409
6.752,1.0014663574230824,98.14964968431195
6.754285568,1.0012035519452613,97.98046787043103
6.756571648,1.0008644800183586,97.81564527942277
6.758857216,1.0004711078848751,97.65615342932587
6.761142784,1.0000479565646667,97.50262329943983
6.763428352,0.9996219152540861,97.35527370269519
6.765714432,0.9992198684525418,97.21395968711857
6.768,0.9988673305894745,97.07816798319168
6.770285568,0.9985867098630624,96.94703914992152
6.772571648,0.9983958458382001,96.81935398691226
6.774857216,0.9983069590558585,96.6937512557384
6.777142784,0.9983256901739412,96.56868608814392
6.779428352,0.9984509567482135,96.44258321566163
6.781714432,0.9986747002069598,96.31397918431212
6.784,0.9989828452911799,96.1815263952184
6.786285568,0.9993558742766078,96.04411123269861
6.788571648,0.9997700471074209,95.90101297490178
6.790857216,1.0001991620989437,95.75178270195053
6.793142784,1.0006160745748693,95.5964574638032
6.795428352,1.0009943802413745,95.43537659781913
6.797714432,1.0013102648673535,95.26930017765751
6.8,1.0015437675729306,95.09925903359492
6.802285568,1.0016800623074942,94.92655110606744
6.804571648,1.0017105244117697,94.75267403786346
6.806857216,1.0016332869260638,94.57913357527937
6.809142784,1.0014531102301767,94.40749142848925
6.811428352,1.0011812863786427,94.23912167586762
6.813714432,1.0008350246590794,94.07525131765985
6.816,1.000435996989166,93.91680332694936
6.818285568,1.000009612356842,93.76436397650511
6.820571648,0.9995825691400301,93.61815427047087
6.822857216,0.9991820551066087,93.47797671979905
6.825142784,0.9988335355857916,93.34329670897922
6.827428352,0.9985591436244767,93.21317581395294
6.829714432,0.9983761448040479,93.08640238142351
6.832,0.9982964075581022,92.9615839163908
6.834285568,0.998325073083714,92.83716541647001
6.836571648,0.9984601156235295,92.71158535170457
6.838857216,0.9986932344764946,92.58334061392281
6.841142784,0.9990095886962208,92.45111103599292
6.843428352,0.9993890929530992,92.31384870762169
6.845714432,0.9998075666766241,92.17076934726788
6.848,1.0002387423917787,92.02157938927334
6.850285568,1.000655096114116,91.86622521485629
6.852571648,1.0010305050911787,91.70517569773222
6.854857216,1.0013411758365172,91.53914271922888
6.857142784,1.0015673740200024,91.36925980846594
6.859428352,1.0016949428997626,91.19684836295163
6.861714432,1.0017158180610022,91.0233666609847
6.864,1.001628570991275,90.85039031083411
6.866285568,1.001438691627703,90.6794181614274
6.868571648,1.001158021328747,90.51190147483587
6.870857216,1.0008043899025647,90.34896284971403
6.873142784,1.0003999353232416,90.19155588329532
6.875428352,0.9999703248291156,90.04021887142201
6.877714432,0.9995426594857533,89.89511203662325
6.88,0.9991439533004883,89.75606680432593
6.882285568,0.998799671050014,89.62244196911182
6.884571648,0.9985315824906497,89.49332105604424
6.886857216,0.998356803166406,89.36745297452191
6.889142784,0.9982864426411461,89.24339182121865
6.891428352,0.9983251313366432,89.11958069443334
6.893714432,0.9984702820750174,88.99447889450627
6.896,0.9987126871516029,88.86655520873059
6.898285568,0.9990372637788855,88.7345373598302
6.900571648,0.999423168879935,88.5973314897745
6.902857216,0.9998459113236315,88.45429999286914
6.905142784,1.0002789166484283,88.30506398774143
6.907428352,1.0006946263107113,88.14968165993174
6.909714432,1.0010668150620132,87.98859011725756
6.912,1.0013718399808211,87.82263937583225
6.914285568,1.0015906885930808,87.6529016782791
6.916571648,1.0017092752982772,87.4807379218413
6.918857216,1.0017203782846418,87.30766003292142
6.921142784,1.001622853667377,87.13522544613922
6.923428352,1.0014231415076629,86.9649501231771
6.925714432,1.0011336872196304,86.7982391598513
6.928,1.0007727281965024,86.63623434599006
6.930285568,1.000362972205106,86.47984750000136
6.932571648,0.9999302967773668,86.32960301531098
6.934857216,0.9995021421124088,86.18561978411148
6.937142784,0.999105556009006,86.04767669372245
6.939428352,0.9987657709863988,85.91511498186348
