freq,mag,phase
6.0,1.0001435424582068,-82.43803921999557
6.005319168,1.0001614052609533,-82.6778824802076
6.010638336,1.0001694779128112,-82.91787295751374
6.015957504,1.0001680612444095,-83.15792313756393
6.021276672,1.0001570641605166,-83.39785860595973
6.02659584,1.0001370497737354,-83.63766587911667
6.031915008,1.0001092405281866,-83.87710404092738
6.037234176,1.0000753861991187,-84.116131029652
6.042553344,1.0000372087197005,-84.3546420584922
6.047872512,0.9999972278228356,-84.59264489659748
6.05319168,0.9999574921314519,-84.83006524537377
6.058510848,0.9999204280261362,-85.06699846202046
6.063830016,0.9998882050291316,-85.3034021407328
6.069149184,0.9998626076953151,-85.53946179435277
6.07446784,0.9998453140814029,-85.77520727916696
6.079787008,0.9998371571097753,-86.01082864121406
6.085106176,0.9998385578774485,-86.246349059588
6.090425344,0.9998498140668641,-86.48196879533643
6.095744512,0.9998696774005655,-86.71787996341561
6.10106368,0.9998976841104523,-86.95406984480942
6.106382848,0.9999317202765554,-87.1907074763741
6.111702016,0.9999698415474428,-87.42788684272449
6.117021184,1.0000100492217396,-87.66556773424348
6.122340352,1.0000498224413397,-87.90385819260746
6.12765952,1.0000870196103302,-88.1426760871975
6.132978688,1.0001192246427326,-88.38196599232768
6.138297856,1.0001448799081338,-88.62172122731401
6.143617024,1.000162373533713,-88.86174205377928
6.148936192,1.0001704170230963,-89.10195706220519
6.15425536,1.000169031348944,-89.342196053422
6.159574528,1.0001578159957616,-89.58238888272078
6.164893696,1.0001376057526168,-89.82236558917307
6.170212864,1.0001097815731355,-90.0620172044627
6.175532032,1.0000758119093343,-90.30124792220413
6.1808512,1.0000373219281729,-90.54000201994721
6.186170368,0.9999971033755826,-90.77818584242458
6.191489536,0.9999571198075751,-91.01581345596381
6.196808704,0.9999200050071833,-91.25292474982295
6.202127872,0.9998876277015942,-91.48955406079331
6.20744704,0.9998619115921481,-91.7258193221497
6.212766208,0.9998445387777565,-91.96177425707653
6.218084864,0.9998363744619602,-92.1975634997873
6.223404032,0.9998379432834537,-92.43329748517563
6.2287232,0.9998491104828192,-92.66911598057541
6.234042368,0.9998693223681071,-92.90517879446108
6.239361536,0.9998973550208925,-93.14158328779898
6.244680704,0.999931536010655,-93.37842830622589
6.249999872,0.9999699705929641,-93.61580278801304
6.25531904,1.000010321160494,-93.85370324366434
6.260638208,1.000050355571683,-94.09216546709709
6.265957376,1.000087736100869,-94.33118469722648
6.271276544,1.0001201468936347,-94.57073224779506
6.276595712,1.0001457593949248,-94.81067139754579
6.28191488,1.0001631706307457,-95.0508979038935
6.287234048,1.0001714146074625,-95.29133946029997
6.292553216,1.0001697938147727,-95.5318133488779
6.297872384,1.0001585128304438,-95.7722045153879
6.303191552,1.0001383042838417,-96.0123780023154
6.30851072,1.0001102300680689,-96.25223487646001
6.313829888,1.0000759877158514,-96.4916781047681
6.319149056,1.0000374482982253,-96.73062006322986
6.324468224,0.9999969141120747,-96.96898871052827
6.329787392,0.9999568423926112,-97.20681689803851
6.33510656,0.9999195107041234,-97.44413132981911
6.340425728,0.9998869298298868,-97.68096766819193
6.345744896,0.9998612513807302,-97.91736376574336
6.351064064,0.9998436784468848,-98.1535254633302
6.356383232,0.99983560039232,-98.38947251987126
6.361701888,0.9998372873287783,-98.62539034324733
6.367021056,0.999848433807123,-98.86141005511351
6.372340224,0.9998688104528444,-99.09765492038117
6.377659392,0.9998971460761958,-99.33425163745359
6.38297856,0.9999313769296707,-99.57127203954862
6.388297728,0.999970090907444,-99.80881834129582
6.393616896,1.0000106104974247,-100.04692749137867
6.398936064,1.0000508053838848,-100.28561696953382
6.404255232,1.000088317987841,-100.5248159109624
6.4095744,1.000120783475898,-100.76455122669684
6.414893568,1.0001466210587993,-101.00470523606462
6.420212736,1.00016421562955,-101.24512704519627
6.425531904,1.0001722740286778,-101.48575370793874
6.430851072,1.0001706358752738,-101.72643837638023
6.43617024,1.000159332350948,-101.96701581817088
6.441489408,1.000138918183859,-102.20740799499127
6.446808576,1.00011076319495,-102.44745313740701
6.452127744,1.0000762349878776,-102.68707764972748
6.457446912,1.000037528639679,-102.92620502359667
6.46276608,0.9999968293263551,-103.16477481976915
6.468085248,0.999956474097962,-103.40278005340488
6.473404416,0.9999189944798115,-103.64025792038082
6.478723584,0.9998863555691436,-103.87729443109899
6.484042752,0.999860509447278,-104.11389500253263
6.48936192,0.9998429098759234,-104.3501991931418
6.494681088,0.9998347895420486,-104.58631465375505
6.499999744,0.9998364232725301,-104.82242733696833
6.505318912,0.9998478249331583,-105.05861635293995
6.51063808,0.9998683517424553,-105.29502544682849
6.515957248,0.9998965862622023,-105.53178360216125
6.521276416,0.9999312475710237,-105.76901599062558
6.526595584,0.9999701644140544,-106.00673810785987
6.531914752,1.0000109452056751,-106.2450086597809
6.53723392,1.0000513535492013,-106.48387920682524
6.542553088,1.0000889022586377,-106.72331715033516
6.547872256,1.000121738339093,-106.96320256261384
6.553191424,1.0001475431840348,-107.20353403992627
6.558510592,1.0001651200269897,-107.44415267449402
6.56382976,1.0001733530209918,-107.68495757923881
6.569148928,1.0001716485393213,-107.92586924929552
6.574468096,1.0001601860495999,-108.16661949348713
6.579787264,1.0001395905971764,-108.40719263990397
6.585106432,1.0001112084822865,-108.64745021217266
6.5904256,1.0000765668151435,-108.88722637945592
6.595744768,1.0000375640760155,-109.12651710572655
6.601063936,0.9999967691902135,-109.36526130165883
6.606383104,0.9999562127565078,-109.60344403485908
6.611702272,0.9999184670030876,-109.84113511841629
6.61702144,0.9998856374138665,-110.07829570412792
6.622340608,0.9998597289781692,-110.31505798141038
6.627659776,0.9998420910297062,-110.55154341281555
6.632978944,0.9998339737031049,-110.78784221004067
6.638298112,0.9998356072541249,-111.02406826247599
6.643616768,0.9998471522794978,-111.26042365223773
6.648935936,0.9998677092020579,-111.497003385736
6.654255104,0.9998962393831385,-111.73396228458154
6.659574272,0.999931043853203,-111.97129199751745
6.66489344,0.9999700642250411,-112.2092247344035
6.670212608,1.000011096494988,-112.44769670749812
6.675531776,1.000051725056453,-112.68670830443492
6.680850944,1.0000895736735786,-112.92631138664872
6.686170112,1.0001224003438622,-113.16639380609192
6.69148928,1.000148483151573,-113.40686729228477
6.696808448,1.0001659903737827,-113.6476939946882
6.702127616,1.0001741406104787,-113.88869703918944
6.707446784,1.0001725079555663,-114.12976097054222
6.712765952,1.0001610224900077,-114.37070439251667
6.71808512,1.0001402377823951,-114.61143897993081
6.723404288,1.000111674739985,-114.85186074638044
6.728723456,1.0000768328078964,-115.09184129934286
6.734042624,1.0000376787501777,-115.33128803059262
6.739361792,0.999996508346688,-115.57020449135665
6.74468096,0.9999558584312375,-115.80858910113318
6.750000128,0.9999178499107209,-116.04636579707513
6.755319296,0.9998849480026599,-116.28369177480741
6.760638464,0.9998588520782377,-116.52060572827415
6.765957632,0.9998411728357405,-116.75725471354451
6.7712768,0.9998329906970262,-116.99368213710804
6.776595968,0.9998347789356826,-117.23009271019765
6.781915136,0.9998463514871034,-117.46659660082263
6.787233792,0.999867057407063,-117.70333067745443
6.79255296,0.9998957681606916,-117.94040561889443
6.797872128,0.9999307612221775,-118.17796015322561
6.803191296,0.9999700548970122,-118.41598085452647
6.808510464,1.000011252386567,-118.6546053256706
6.813829632,1.0000520888816198,-118.89382041090843
6.8191488,1.000090115138794,-119.13355450412662
6.824467968,1.0001231487346058,-119.3738094807496
6.829787136,1.0001492780970616,-119.61447845250103
6.835106304,1.0001669517403098,-119.85546128560713
6.840425472,1.0001751185438585,-120.09664376795057
6.84574464,1.00017336276966,-120.33785666331075
6.851063808,1.00016178443356,-120.5789794057293
6.856382976,1.0001409928032836,-120.81991044296576
6.861702144,1.0001122378380392,-121.06045267747358
6.867021312,1.0000770564594739,-121.30059153458583
6.87234048,1.0000377941258933,-121.54023019521715
6.877659648,0.9999964923243226,-121.77931543643297
6.882978816,0.9999555557219079,-122.01782676323421
6.888297984,0.9999173587630171,-122.2557583454607
6.893617152,0.9998842430510313,-122.49323275552364
6.89893632,0.9998580201056514,-122.73026933304605
6.904255488,0.9998403248178336,-122.96703901746542
6.909574656,0.9998321618740181,-123.20361421295817
6.914893824,0.9998339718343261,-123.44015810269751
6.920212992,0.999845631441883,-123.67679931915134
6.92553216,0.9998664446399687,-123.91368188794901
6.930850816,0.9998954020614612,-124.15089001283799
6.936169984,0.9999305901254558,-124.38857012970736
6.941489152,0.9999700309366779,-124.62678343098173
6.94680832,1.0000115561902292,-124.86556389336894
6.952127488,1.0000526203308235,-125.10489225530945
6.957446656,1.0000908493839733,-125.3448073631545
6.962765824,1.0001240240819351,-125.58519756757002
6.968084992,1.000150302571076,-125.82605018273934
6.97340416,1.0001679637336092,-126.0671844079248
6.978723328,1.0001762559898164,-126.30850098197939
6.984042496,1.0001744345785308,-126.54988708911752
6.989361664,1.000162734706761,-126.79118293824446
6.994680832,1.0001418323955753,-127.03223731387668
7.0,1.000112867448623,-127.27297050985682
7.005319168,1.0000775629741951,-127.51324049693181
7.010638336,1.0000380344634232,-127.75301379768464
7.015957504,0.9999963339869763,-127.9922398682157
7.021276672,0.999955204863298,-128.23087336985085
7.02659584,0.9999168776708343,-128.46896753029128
7.031915008,0.9998836076486022,-128.70656860232646
7.037234176,0.9998573231836717,-128.94376716127613
7.042553344,0.9998395016627012,-129.18063456841577
7.047872512,0.9998312555182282,-129.41734295059754
7.05319168,0.9998330863067156,-129.6540015941841
7.058510848,0.9998448042481505,-129.89077620857555
7.063830016,0.999865833158768,-130.1277553944808
7.069149184,0.9998948784183411,-130.3651362888959
7.07446784,0.9999302570679273,-130.60294571770928
7.079787008,0.9999699752282591,-130.84126406469562
7.085106176,1.000011709347961,-131.0801867635658
7.090425344,1.0000530008793769,-131.31965603076569
7.095744512,1.0000914367883098,-131.5597183220944
7.10106368,1.000124822096583,-131.80025625831837
7.106382848,1.0001511500026805,-132.0412351117269
7.111702016,1.0001690121773443,-132.28254888696887
7.117021184,1.0001773119345025,-132.52397304251505
7.122340352,1.0001754857021241,-132.76551745945977
7.12765952,1.0001636612684517,-133.00695961479053
7.132978688,1.0001425732006253,-133.24815776704872
7.138297856,1.0001134329702517,-133.48903060839191
7.143617024,1.000077943777047,-133.72946729027103
7.148936192,1.0000382012188358,-133.9693412117083
7.15425536,0.9999963516839729,-134.20868073394652
7.159574528,0.9999549387500197,-134.44745193696306
7.164893696,0.9999163216754261,-134.6856763161242
7.170212864,0.9998829078917612,-134.92338031639204
7.175532032,0.9998564017255718,-135.16070168081586
7.1808512,0.9998385784271748,-135.39768229748032
7.186170368,0.9998303266427749,-135.6345078442945
7.191489536,0.9998321070600836,-135.87129350347826
7.196808704,0.9998439945146473,-136.10815930099895
7.202127872,0.9998651940087435,-136.34527954163497
7.20744704,0.9998943849094656,-136.5827697735175
7.212766208,0.9999299959454447,-136.820689321127
7.218084864,0.9999699428959165,-137.05912669014523
7.223404032,1.0000119084924683,-137.29816331673933
7.2287232,1.000053444615248,-137.53779142612873
7.234042368,1.0000921167627113,-137.77797418322916
7.239361536,1.0001257056066168,-138.0186474712292
7.244680704,1.000152195124377,-138.25976075928762
7.249999872,1.0001701240151515,-138.5011667821012
7.25531904,1.0001784002542764,-138.74278596324223
7.260638208,1.0001765078072242,-138.9844430457167
7.265957376,1.0001646636993207,-139.22601566173648
7.271276544,1.0001434283204969,-139.46735046785167
7.276595712,1.0001140845429015,-139.70835776132458
7.28191488,1.000078380940558,-139.94888109213298
7.287234048,1.0000383546982903,-140.18892054201686
7.292553216,0.9999962943100438,-140.42837091766435
7.297872384,0.9999546439982954,-140.6672571707367
7.303191552,0.9999158780946291,-140.90556772866682
7.30851072,0.9998821798688654,-141.14342883755097
7.313829888,0.9998556368276241,-141.38078807228783
7.319149056,0.9998376134201858,-141.61791178813056
7.324468224,0.9998293363919081,-141.8548208047397
7.329787392,0.9998312268291583,-142.0917279649073
7.33510656,0.9998431300409577,-142.32867505899367
7.340425728,0.9998644733333619,-142.5659216985164
7.345744896,0.9998938895810858,-142.80348862937603
7.351064064,0.9999296941135689,-143.04149077689166
7.356383232,0.9999699277390158,-143.28007408390158
7.361701888,1.0000121435163813,-143.5192322067185
7.367021056,1.000053841889614,-143.75894210264278
7.372340224,1.0000927451726191,-143.99923490197094
7.377659392,1.0001265637374033,-144.24004632966034
7.38297856,1.0001531964665995,-144.48126835449742
7.388297728,1.000171142486794,-144.7228206964739
7.393616896,1.0001795512195641,-144.96455161699475
7.398936064,1.0001776050560813,-145.20632171206444
7.404255232,1.0001656439593076,-145.4480190035417
7.4095744,1.0001443094557256,-145.68950298147607
7.414893568,1.000114782538957,-145.9306014593217
7.420212736,1.0000789156172345,-146.17123871040553
7.425531904,1.0000385234294966,-146.41140630072317
7.430851072,0.9999962276254084,-146.65093647732095
7.43617024,0.9999544007361295,-146.88993277007964
7.441489408,0.9999153436246533,-147.1283543656393
7.446808576,0.9998814452071122,-147.36626326304474
7.452127744,0.9998547022531246,-147.60376895126535
7.457446912,0.9998366389712234,-147.8409608125861
7.46276608,0.9998283522231514,-148.0779749528623
7.468085248,0.9998302449070846,-148.31493651462884
7.473404416,0.9998422507920671,-148.55200455718756
7.478723584,0.9998636351583017,-148.7893333179125
7.484042752,0.999893300022609,-149.02700390435294
7.48936192,0.9999293644419801,-149.2651027511298
7.494681088,0.9999698066515805,-149.50376795200629
7.500000256,1.0000122982455717,-149.74299744848332
7.505318912,1.0000543376079987,-149.9828291112084
7.51063808,1.000093398402339,-150.22321749112135
7.515957248,1.000127340345409,-150.4641208352741
7.521276416,1.0001542502932794,-150.70546808378634
7.526595584,1.0001723412268355,-150.9471186368628
7.531914752,1.0001806677868195,-151.1889479133976
7.53723392,1.0001787181247297,-151.43086838823717
7.542553088,1.0001667113631263,-151.67264773354313
7.547872256,1.0001451992871278,-151.91422053309418
7.553191424,1.0001155840450942,-152.15544096679002
7.558510592,1.0000793610339378,-152.39619097587814
7.56382976,1.0000387828326063,-152.6364341039614
7.569148928,0.9999961798139257,-152.87607672538687
7.574468096,0.9999540814263134,-153.11515585862549
7.579787264,0.9999148284494258,-153.3536754787779
7.585106432,0.9998807509908745,-153.59166935397258
7.5904256,0.9998538632851578,-153.8292302224422
7.595744768,0.9998357100452766,-154.06649960295724
7.601063936,0.9998273124325758,-154.30359815514996
7.606383104,0.9998291863383358,-154.54062323193824
7.611702272,0.9998412983220547,-154.777790109229
7.61702144,0.9998628968226425,-155.01515943676276
7.622340608,0.9998926667164171,-155.25289755110396
7.627659776,0.999928981026207,-155.49108564434397
7.632978944,0.9999697172860257,-155.72986421461326
7.638298112,1.0000123993996735,-155.9691749971691
7.643616768,1.0000547471211478,-156.2090869495807
7.648935936,1.0000940649074068,-156.44957470138047
7.654255104,1.0001282579928448,-156.6905692124713
7.659574272,1.0001551922924687,-156.93202350357777
7.66489344,1.0001734591960267,-157.1737568331056
7.670212608,1.000181833345581,-157.4157083547173
7.675531776,1.0001798988359665,-157.6576939900455
7.680850944,1.0001678003117875,-157.89957022876447
7.686170112,1.0001461801513787,-158.1412444933472
7.69148928,1.0001162465015598,-158.38256543017224
7.696808448,1.0000798518688279,-158.62341061504102
7.702127616,1.0000390112005915,-158.86371144549378
7.707446784,0.9999961210090365,-159.10345180534728
7.712765952,0.9999538029297272,-159.34260723816524
7.71808512,0.9999143241894289,-159.58119433525087
7.723404288,0.9998800263932568,-159.81925622819796
7.728723456,0.9998529388061684,-160.05690513883204
7.734042624,0.999834661212066,-160.294203745489
7.739361792,0.9998262288623766,-160.53135896434645
7.74468096,0.9998281393169419,-160.7684779263665
7.750000128,0.9998403836176759,-161.00567291504936
7.755319296,0.9998620276708152,-161.2431223250381
7.760638464,0.999892144994148,-161.48091630410062
7.765957632,0.9999286692416807,-161.71918493803472
7.7712768,0.9999695649126683,-161.95799547911878
7.776595968,1.0000125968100144,-162.19740054391627
7.781915136,1.0000551126605515,-162.43738618261898
7.787233792,1.0000947660427304,-162.67796447230978
7.79255296,1.000129134588116,-162.919048392191
7.797872128,1.0001562715465444,-163.16057631407773
7.803191296,1.0001745678828173,-163.40238420671034
7.808510464,1.0001830392021676,-163.6444206437401
7.813829632,1.0001811587892528,-163.8864919950614
7.8191488,1.0001688670152997,-164.12847408429872
7.824467968,1.0001471359852263,-164.3702138435152
7.829787136,1.0001171158819948,-164.61162629909023
7.835106304,1.0000803714725615,-164.85251894847698
7.840425472,1.0000392448415993,-165.0929295412024
7.84574464,0.999996105640989,-165.3327278525153
7.851063808,0.9999534841660233,-165.57192882884357
7.856382976,0.9999136683962323,-165.81055897566947
7.861702144,0.9998792299642764,-166.04869224111636
7.867021312,0.9998519598938234,-166.28640117216455
7.87234048,0.9998335640289925,-166.52376741300432
7.877659648,0.9998250522446571,-166.7609568753255
7.882978816,0.9998270787304215,-166.99811336546307
7.888297984,0.9998393286502445,-167.23537304947652
7.893617152,0.9998611749793193,-167.47285301724267
7.89893632,0.9998913945459433,-167.71070850782695
7.904255488,0.9999281876401633,-167.94901757362607
7.909574656,0.9999694470489704,-168.18788393594951
7.914893824,1.0000126544373897,-168.42734976506011
7.920212992,1.0000555530189061,-168.66742335704936
7.92553216,1.0000954334226257,-168.9080353058715
7.930850816,1.0001300636911468,-169.14918781506182
7.936169984,1.0001573694274484,-169.39080015088456
7.941489152,1.0001758511264522,-169.63268193359409
7.94680832,1.0001843142323057,-169.87478069381365
7.952127488,1.0001823625843598,-170.1169363255506
7.957446656,1.0001701002454766,-170.35898755564693
7.962765824,1.0001481070472316,-170.60080048488516
7.968084992,1.0001177785441488,-170.84225804663689
7.97340416,1.0000809294406277,-171.08325191276066
7.978723328,1.0000395484813067,-171.3237074284049
7.984042496,0.9999961236056437,-171.56355583842011
7.989361664,0.9999532003760597,-171.80281455795296
7.994680832,0.9999131582585334,-172.04149454698472
8.0,0.9998784349802402,-172.27965743073344
8.005319168,0.9998509950420867,-172.51739322322365
8.010638336,0.9998325477852656,-172.75480864780084
8.015957504,0.9998239985087134,-172.99203429920354
8.021276672,0.9998259563135897,-173.22921653447273
8.02659584,0.9998382383252278,-173.46649864040975
8.031915008,0.999860326356786,-173.7040332681365
8.037234176,0.9998907083431667,-173.94191956705825
8.042553344,0.9999276937147055,-174.1802740692654
8.047872512,0.9999692041395687,-174.41918166777134
8.05319168,1.0000128684085714,-174.65866752831704
8.058510848,1.000055934969445,-174.89881628662624
8.063830016,1.0000960859394168,-175.13948035654587
8.069149184,1.0001310208310543,-175.38068348954758
8.07446784,1.0001584811389062,-175.62233587004584
8.079787008,1.000177011153657,-175.86430803257224
8.085106176,1.0001855928151393,-176.10647300475986
8.090425344,1.0001835652260873,-176.34867123499458
8.095744512,1.0001712568043324,-176.59077945219605
8.10106368,1.0001491941297036,-176.83267695226198
8.106382848,1.0001186685822092,-177.07414654310062
8.111702016,1.0000814784590413,-177.31521846802158
