freq,mag,phase
6.0,1.000130183890547,-125.42171261104029
6.003917824,1.0001572526710616,-125.64265823062306
6.007835648,1.0001743356476978,-125.86397339618154
6.01175296,1.000180865965624,-126.08546669979656
6.015670784,1.0001766858046781,-126.30696599405987
6.019588608,1.0001615950349008,-126.52836280758571
6.023506432,1.0001368073209276,-126.74949984251708
6.027424256,1.0001037682632212,-126.97026237650735
6.031341568,1.000064354951605,-127.19051850122032
6.035259392,1.000020884628531,-127.4102039973735
6.039177216,0.9999761554507243,-127.62929519555482
6.04309504,0.999932765255093,-127.84779616078792
6.047012864,0.9998933332503079,-128.065699047292
6.050930688,0.9998604887421337,-128.28313238146333
6.054848,0.999835819355246,-128.50014486016704
6.058765824,0.9998211612794807,-128.71692620024834
6.062683648,0.9998172883736528,-128.93360186873952
6.066601472,0.9998244008389919,-129.1502809432922
6.070519296,0.9998422486250425,-129.36717881506462
6.074436608,0.999869675732088,-129.5844281950472
6.078354432,0.9999050203223093,-129.80213085638928
6.082272256,0.9999461518573401,-130.020382684306
6.08619008,0.9999905670729815,-130.23926498170417
6.090107904,1.0000357291458766,-130.4588101357191
6.094025216,1.0000787989258548,-130.67900060312445
6.09794304,1.0001171702250513,-130.899800595843
6.101860864,1.0001485088117827,-131.12111729881954
6.105778688,1.0001709689036467,-131.34281596621912
6.109696512,1.0001830337173552,-131.56477692502517
6.113614336,1.000184039273676,-131.7868823419628
6.117531648,1.0001739303247936,-132.00891297289948
6.121449472,1.0001533033827947,-132.2307555511049
6.125367296,1.000123425790447,-132.45231496830965
6.12928512,1.000085920107365,-132.6733725950294
6.133202944,1.0000431889410155,-132.89384538097755
6.137120256,0.9999977656491762,-133.1137474327409
6.14103808,0.9999524568669006,-133.33305719255313
6.144955904,0.9999098600498854,-133.55173337823217
6.148873728,0.9998727407571509,-133.76981715372943
6.152791552,0.9998431464214396,-133.98752525062642
6.156708864,0.9998231091601132,-134.20485273399913
6.160626688,0.9998136590831807,-134.421973465625
6.164544512,0.9998154901834116,-134.63909165788874
6.168462336,0.99982851140206,-134.85633832095172
6.17238016,0.9998519079465373,-135.07382043146822
6.176297984,0.9998843131556059,-135.291747265874
6.180215296,0.9999238042524625,-135.51018466394603
6.18413312,0.999967939173574,-135.7292464287226
6.188050944,1.0000141133530158,-135.9489617446903
6.191968768,1.0000595054038688,-136.1693213282838
6.195886592,1.0001013164512336,-136.3903763752907
6.199803904,1.0001371314199627,-136.61198919707257
6.203721728,1.000164758793455,-136.83403836613303
6.207639552,1.0001823409383086,-137.0564520537294
6.211557376,1.0001889640040298,-137.27902989119656
6.2154752,1.0001841094521469,-137.501665505952
6.219392512,1.0001682190729997,-137.7241753782742
6.223310336,1.0001420550142246,-137.9464131785356
6.22722816,1.0001072153375734,-138.16822182858178
6.231145984,1.0000659133791623,-138.389508264373
6.235063808,1.0000204684370397,-138.61022046636174
6.238981632,0.9999737291158465,-138.83029978953655
6.242898944,0.9999284524570773,-139.049726476562
6.246816768,0.9998874529467723,-139.26852646082176
6.250734592,0.9998532260342543,-139.48685545813257
6.254652416,0.9998277506180133,-139.70477268064823
6.25857024,0.999812741538822,-139.92240243628018
6.262487552,0.9998089544050566,-140.1399090200297
6.266405376,0.9998167091286362,-140.35747318788324
6.2703232,0.9998356294253226,-140.5752358815137
6.274241024,0.9998644596006087,-140.793370388493
6.278158848,0.9999015673014552,-141.0120050528799
6.28207616,0.9999446131598948,-141.23119167796835
6.285993984,0.9999911166694929,-141.45105561693887
6.289911808,1.0000383183012458,-141.6715709132642
6.293829632,1.0000831247760071,-141.89276015100052
6.297747456,1.000123134277159,-142.11459271313132
6.30166528,1.0001556055774055,-142.33693065679125
6.305582592,1.0001787758196314,-142.55969174389296
6.309500416,1.0001911379734214,-142.7827517778953
6.31341824,1.0001919648118998,-143.00588632697364
6.317336064,1.0001811258635256,-143.22898085184144
6.321253888,1.0001593489511214,-143.45188650261395
6.3251712,1.0001278596765952,-143.67440019486452
6.329089024,1.0000885646504214,-143.896462615883
6.333006848,1.000043762394597,-144.11794534786588
6.336924672,0.9999963792528898,-144.33877034266092
6.340842496,0.9999490322402681,-144.55896252363297
6.344759808,0.9999046715419658,-144.7784824089337
6.348677632,0.9998659677615935,-144.997464710402
6.352595456,0.999835339584234,-145.2159637628041
6.35651328,0.9998145933561189,-145.43408995883084
6.360431104,0.9998049911837302,-145.65201235786594
6.364348928,0.9998072245258083,-145.86993273880262
6.36826624,0.9998210702196597,-146.08795730623638
6.372184064,0.9998457554270185,-146.30629759590607
6.376101888,0.9998797953997638,-146.52503427558145
6.380019712,0.9999211271854013,-146.74433292615817
6.383937536,0.9999673709426402,-146.96428631967285
6.387854848,1.000015593908676,-147.1849273171481
6.391772672,1.0000629527852243,-147.406233534704
6.395690496,1.000106512875999,-147.62821844107592
6.39960832,1.0001437152344819,-147.85077444651998
6.403526144,1.0001723580297457,-148.07383829392452
6.407443456,1.0001905096788035,-148.29725060508173
6.41136128,1.0001972059131368,-148.52085726347147
6.415279104,1.0001918596740116,-148.74449172667534
6.419196928,1.0001750335574748,-148.96797344506186
6.423114752,1.0001474463034545,-149.19116817209027
6.427032576,1.000110933496034,-149.41393644385155
6.430949888,1.0000676480967756,-149.6361292697281
6.434867712,1.00002012253062,-149.85772417792376
6.438785536,0.9999713434122075,-150.07865049838242
6.44270336,0.9999241604583073,-150.2988880171531
6.446621184,0.9998814719304385,-150.5185334025742
6.450538496,0.9998458155227574,-150.73761547061338
6.45445632,0.9998195029553208,-150.95627640660615
6.458374144,0.9998040201293934,-151.17463300049462
6.462291968,0.9998002996878372,-151.39290500642014
6.466209792,0.9998086884974584,-151.61120012709512
6.470127104,0.9998286558216876,-151.82970833959516
6.474044928,0.9998589530291895,-152.04857926224906
6.477962752,0.9998978423202414,-152.26799199136636
6.481880576,0.9999429827509521,-152.48798443950315
6.4857984,0.9999916328316983,-152.70864975580787
6.489715712,1.0000408321744567,-152.9300284178465
6.493633536,1.0000876218025612,-153.15212691467704
6.49755136,1.0001292067254866,-153.37485212843154
6.501469184,1.0001629409268773,-153.5981318273993
6.505387008,1.0001869509128458,-153.82183484852573
6.509304832,1.000199619397292,-154.045828565102
6.513222144,1.0002002888296675,-154.26991842605813
6.517139968,1.0001887492307804,-154.49393747361898
6.521057792,1.0001657991541115,-154.71775882980617
6.524975616,1.0001326955910292,-154.94117011424024
6.52889344,1.0000915998600965,-155.16409054581928
6.532810752,1.0000447980658973,-155.386394268968
6.536728576,0.9999952261025452,-155.6080404666585
6.5406464,0.9999458805570729,-155.82899311218472
6.544564224,0.9998996334777815,-156.04928715476802
6.548482048,0.999859414414152,-156.26894871042055
6.55239936,0.9998275299594882,-156.4881271175736
6.556317184,0.9998060685907778,-156.7069781713701
6.560235008,0.9997962887079688,-156.92556398840637
6.564152832,0.9997988749146961,-157.1441314661267
6.568070656,0.9998135839191148,-157.36283279600735
6.57198848,0.9998395178396149,-157.58187226192447
6.575905792,0.9998752540418504,-157.80131037554884
6.579823616,0.9999185281742529,-158.02133082877324
6.58374144,0.9999668481026329,-158.24202099195625
6.587659264,1.000017189454602,-158.46343032359314
6.591577088,1.000066586620725,-158.68553868205603
6.5954944,1.000112001959393,-158.9083765551643
6.599412224,1.000150661823768,-159.13178545477257
6.603330048,1.0001803532363363,-159.35572104003552
6.607247872,1.000199201742402,-159.5800282952014
6.611165696,1.0002059134188446,-159.80451618677532
6.615083008,1.0002001696078349,-160.02899270534238
6.619000832,1.0001823831901901,-160.25335304305437
6.622918656,1.0001534584625726,-160.4773975400233
6.62683648,1.0001151453087624,-160.70097451823918
6.630754304,1.0000698305376678,-160.9239748358595
6.634672128,1.0000201992270905,-161.1462953751602
6.63858944,0.999969260062612,-161.36793104891888
6.642507264,0.9999200579038842,-161.58888914977572
6.646425088,0.999875575263035,-161.8091963785882
6.650342912,0.9998385967382108,-162.02889090235897
6.654260736,0.9998112156210884,-162.2481676844125
6.658178048,0.9997952788846672,-162.46716069105838
6.662095872,0.9997916064896457,-162.68597968284928
6.666013696,0.9998006194049065,-162.90490659874982
6.66993152,0.9998215607646318,-163.12402448939886
6.673849344,0.9998534185436533,-163.34352993718488
6.677766656,0.9998941770654733,-163.5635722380612
6.68168448,0.9999413267691859,-163.78423661704184
6.685602304,0.999992111750623,-164.00561496122788
6.689520128,1.0000435117001654,-164.22773482027628
6.693437952,1.0000922787953974,-164.4505730978099
6.697355776,1.0001355162034913,-164.6740480031818
6.701273088,1.0001706085791682,-164.8981470216686
6.705190912,1.0001953978542912,-165.1226409830098
6.709108736,1.0002085588052165,-165.3474573584141
6.71302656,1.000208927138253,-165.57233365038942
6.716944384,1.0001966947766587,-165.79718591457316
6.720861696,1.0001725035905151,-166.0217784617546
6.72477952,1.0001378631500404,-166.24597245734287
6.728697344,1.0000948407647798,-166.46963149072107
6.732615168,1.0000459158531663,-166.69262683114485
6.736532992,0.9999941244080747,-166.9149378836002
6.740450304,0.9999426707522782,-167.13654355418083
6.744368128,0.9998943783517097,-167.35742201937504
6.748285952,0.9998525454129064,-167.57770973027428
6.752203776,0.9998195199452482,-167.79743012006432
6.7561216,0.9997973229201463,-168.0167933997065
6.760039424,0.9997873324594858,-168.23593247762312
6.763956736,0.9997900832140066,-168.4550210390783
6.76787456,0.9998055547992623,-168.67428284846022
6.771792384,0.9998328498829746,-168.89380753734895
6.775710208,0.9998703492049849,-169.11385379511813
6.779628032,0.9999155980654435,-169.33445904084877
6.783545344,0.9999660280741428,-169.55577702104748
6.787463168,1.000018576693616,-169.77782633890112
6.791380992,1.00007014409577,-170.00062272644308
6.795298816,1.0001174878306716,-170.22411311837078
6.79921664,1.0001577819440022,-170.44826544270754
6.803133952,1.000188605462404,-170.67292698690488
6.807051776,1.0002079729412692,-170.8979707312297
6.8109696,1.0002148021641608,-171.12319267394042
6.814887424,1.0002087024867081,-171.34842573632645
6.818805248,1.0001898540280025,-171.5735205402862
6.822723072,1.0001595972360842,-171.798256393346
6.826640384,1.0001194970162435,-172.02254036020642
6.830558208,1.000072123601267,-172.24619819815695
6.834476032,1.000020284571737,-172.46916394220807
6.838393856,0.9999671297990298,-172.6913957860477
6.84231168,0.9999158432797602,-172.91288335407936
6.846228992,0.9998695500651353,-173.1336972816982
6.850146816,0.9998310117106859,-173.35391660243627
6.85406464,0.9998026019276007,-173.57367368270508
6.857982464,0.9997861049332296,-173.79311249798653
6.861900288,0.9997824748539281,-174.01242474418208
6.8658176,0.9997919836327245,-174.23177598395867
6.869735424,0.9998140842054604,-174.45138204692753
6.873653248,0.9998474350281675,-174.6713581658322
6.877571072,0.999890071438148,-174.8918953909692
6.881488896,0.9999394532232442,-175.1130861321424
6.88540672,0.9999924114477518,-175.33502284349615
6.889324032,1.000046030498083,-175.55772132837558
6.893241856,1.000096828934704,-175.78117922697155
6.89715968,1.0001419454427407,-176.0053296801764
6.901077504,1.0001783848280126,-176.23005331114234
6.904995328,1.0002042303533316,-176.45525502450883
6.90891264,1.0002177159535435,-176.6807252132877
6.912830464,1.0002179577602532,-176.9063343011969
6.916748288,1.0002049908423354,-177.13181591706052
6.920666112,1.0001796576028235,-177.35706792863877
6.924583936,1.000143356896745,-177.5819209031096
6.928501248,1.0000982557718912,-177.8061435115517
6.932419072,1.0000472159731477,-178.0297283261064
6.936336896,0.9999931332818192,-178.2525961498629
6.94025472,0.9999395302937555,-178.4746805177436
6.944172544,0.9998892045382286,-178.69604065362753
6.948089856,0.9998455593850264,-178.9167531082903
6.95200768,0.9998112946073401,-179.13692658529177
6.955925504,0.9997881249676915,-179.3566747455593
6.959843328,0.9997779615808943,-179.5762155878232
6.963761152,0.9997809921535531,-179.79567462562963
6.967678976,0.9997973203850791,179.98467100398904
6.971596288,0.9998259801846466,179.76471752864197
6.975514112,0.9998650903628717,179.5442901425665
6.979431936,0.9999124595239214,179.3232153273982
6.98334976,0.9999651925642774,179.1014499629654
6.987267584,1.0000200708719733,178.87888543875553
6.991184896,1.0000737256120438,178.6555600425562
6.99510272,1.0001230281191673,178.4314850771269
6.999020544,1.0001650304660936,178.2067696339248
7.002938368,1.0001970076684,177.98149674009937
7.006856192,1.0002170927088498,177.7558538064362
7.010773504,1.0002241572787434,177.5300057706881
7.014691328,1.0002175883560003,177.30415880666922
7.018609152,1.0001978432000094,177.07845770374814
7.022526976,1.0001660335058733,176.85313130096205
7.0264448,1.0001241490689847,176.62830599728446
7.030362624,1.0000747144102524,176.40413435671655
7.034279936,1.0000204879115582,176.1806878699376
7.03819776,0.9999650347123983,175.9580000714731
7.042115584,0.9999115786262383,175.73608728636572
7.046033408,0.9998633193878547,175.51489587711447
7.049951232,0.9998231921631793,175.29431978412742
7.053868544,0.9997936695862133,175.07422442052876
7.057786368,0.9997766468247352,174.85444935480584
7.061704192,0.999772985563789,174.63483561001104
7.065622016,0.999783039902431,174.41516183078727
7.06953984,0.9998062412117926,174.19525449272334
7.073457152,0.9998412627834522,173.9749214195272
7.077374976,0.9998857041893958,173.75402537363826
7.0812928,0.9999372807906917,173.5324180706174
7.085210624,0.9999926382307956,173.31008144082577
7.089128448,1.0000485114974582,173.0869266036344
7.093046272,1.000101483563719,172.8629976840621
7.096963584,1.000148491004543,172.63836030396365
7.100881408,1.0001865106554422,172.41307809934906
7.104799232,1.0002132404587778,172.18735553437432
7.108717056,1.0002270751480422,171.96133330170602
7.11263488,1.0002272888034625,171.73519185115143
7.116552192,1.000213689050244,171.50914095563746
7.120470016,1.000187114071913,171.2833885544217
7.12438784,1.0001491442510657,171.05804949910785
7.128305664,1.0001020549139263,170.8333246882731
7.132223488,1.00004872159532,170.6092944521851
7.1361408,0.9999923323461748,170.38605111280006
7.140058624,0.9999361944930251,170.16360212117198
7.143976448,0.9998839793794546,169.9418983640155
7.147894272,0.9998384761856115,169.72088993473486
7.151812096,0.9998028073467946,169.50044944510967
7.15572992,0.999778839325042,169.28045739435117
7.159647232,0.9997682377280115,169.06066722919326
7.163565056,0.9997715875840834,168.84092013335035
7.16748288,0.9997887599737325,168.62108305852
7.171400704,0.9998187407747777,168.40083854653008
7.175318528,0.999859705147659,168.18013060973823
7.17923584,0.9999091176923774,167.9587530819226
7.183153664,0.9999641314163962,167.7366590126509
7.187071488,1.0000213982298871,167.51372678539897
7.190989312,1.0000774716769536,167.29000509974594
7.194907136,1.0001288171441158,167.06549732071457
7.198824448,1.0001724861976213,166.84032975499005
7.202742272,1.0002057599639926,166.6145918004348
7.206660096,1.0002267376060217,166.38849000887615
7.21057792,1.0002339138968077,166.1621379255987
7.214495744,1.0002269349157162,165.9358265705908
7.218413568,1.0002061594460163,165.70966794173387
7.22233088,1.000172893240907,165.48389824718205
7.226248704,1.000129137763761,165.25865608464198
7.230166528,1.0000774503991954,165.03407338470015
7.234084352,1.0000209540534744,164.81028765998016
7.238002176,0.9999630304104684,164.58730054438374
7.241919488,0.9999072636954519,164.36510052564714
7.245837312,0.999857003221158,164.14365238822106
7.249755136,0.9998153166027272,163.92284624076558
7.25367296,0.9997845231304912,163.70258145409267
7.257590784,0.9997669365678103,163.48262171815787
7.261508096,0.9997632808729991,163.26283446162412
7.26542592,0.9997738127849867,163.04299503868955
7.269343744,0.9997981269974054,162.8228859116139
7.273261568,0.9998346782595643,162.6023714924648
7.277179392,0.9998812043012991,162.3812366199867
7.281097216,0.9999350096503546,162.1594075794305
7.285014528,0.999992823110947,161.93678094160242
7.288932352,1.0000510847061073,161.71330547323996
7.292850176,1.0001063504107244,161.48903847810647
7.296768,1.0001552271242018,161.26403354940874
7.300685824,1.0001947564421483,161.03836079032268
7.304603136,1.0002226918964843,160.81222682221755
7.30852096,1.0002370696005636,160.58580134644777
7.312438784,1.0002370885105505,160.3592407012143
7.316356608,1.000222883728477,160.13278609851892
7.320274432,1.0001949877238105,159.9066159086493
7.324191744,1.0001552237556828,159.68093748284778
7.328109568,1.000106144666075,159.45587836122488
7.332027392,1.000050396918152,159.23155851894344
7.335945216,0.999991580881433,159.0080197046734
7.33986304,0.9999329815555528,158.78534236165976
7.343780352,0.9998785292887314,158.56343782471177
7.347698176,0.9998312287674397,158.34226550257924
7.351616,0.9997939988437118,158.1216913955717
7.355533824,0.9997691211852562,157.90157025740066
7.359451648,0.9997582869085079,157.6816849504919
7.363369472,0.9997618513386333,157.46186987714592
7.367286784,0.9997798145980348,157.24189087205554
7.371204608,0.9998111266458587,157.02153311473043
7.375122432,0.9998539549260105,156.80068472750162
7.379040256,0.999905614782042,156.57916005957142
7.38295808,0.9999630510851804,156.35685187470264
7.386875392,1.0000228352618363,156.13371093563723
7.390793216,1.0000811818329223,155.9097408521851
7.39471104,1.0001347764668609,155.68494834518316
7.398628864,1.0001803398492677,155.45943935843476
7.402546688,1.000214917616208,155.23340319007613
7.406464,1.000236692034093,155.0069205943028
7.410381824,1.000244068527571,154.78024895033383
7.414299648,1.0002366404237133,154.55354801473848
7.418217472,1.0002149647333287,154.32706176868476
7.422135296,1.0001801865568147,154.10098846877713
7.42605312,1.0001344124943627,153.8754628888212
7.429970432,1.0000804041692888,153.65062622874032
7.433888256,1.0000214166881916,153.42662228849662
7.43780608,0.9999610894409785,153.20344374221503
7.441723904,0.9999029688963228,152.9810972506465
7.445641728,0.9998505579246934,152.75953767886085
7.44955904,0.9998070185252628,152.53865092149073
7.453476864,0.9997751166326798,152.31832826794349
7.457394688,0.9997566738247191,152.09833532558437
7.461312512,0.9997530516287446,151.87853172017694
7.465230336,0.9997641701148432,151.65865491498442
7.469147648,0.9997895508974365,151.43851324027662
7.473065472,0.9998277784795815,151.21791856034986
7.476983296,0.9998763955407965,150.99671708490249
7.48090112,0.9999325611764207,150.77476856445674
7.484818944,0.9999928222989208,150.55200329604352
7.488736768,1.0000537239422367,150.32835758402302
7.49265408,1.0001113147753256,150.10386383727973
7.496571904,1.0001623672780844,149.87861462235966
7.500489728,1.0002034329509981,149.65271862477886
7.504407552,1.000232419803698,149.42629450668068
7.508325376,1.0002473456041172,149.19956517111697
7.512242688,1.0002473716255644,148.97274935764773
7.516160512,1.00023230844479,148.74599786245142
7.520078336,1.0002032127172755,148.51958260432758
7.52399616,1.0001617238574843,148.29366338422068
7.527913984,1.0001103955352615,148.06837145787668
7.531831296,1.0000521969081693,147.84388906221545
7.53574912,0.9999908457715304,147.6202078537628
7.539666944,0.9999298334603212,147.39743211112528
7.543584768,0.9998730041718484,147.17548425051024
7.547502592,0.9998235589138671,146.95427352969034
7.551420416,0.9997848405909606,146.73372054795928
7.555337728,0.9997590647574864,146.51360699480026
7.559255552,0.9997476134868409,146.29376861056915
7.563173376,0.9997514722601989,146.0739759373752
7.5670912,0.9997704438326985,145.85403868490556
