freq,mag,phase
6.0,0.999320255751258,-174.1501403908501
6.002286592,0.9992539481937053,-174.2910449716009
6.004572672,0.9992358938296004,-174.4313401463071
6.006859264,0.9992661879530865,-174.5717317320892
6.009145344,0.9993428942203199,-174.7128878186922
6.011431936,0.9994610928920439,-174.85546980379507
6.013718016,0.9996134239475262,-174.9999749934956
6.016004608,0.9997902356267773,-175.14689828289636
6.018290688,0.9999803196481144,-175.2964735162113
6.02057728,1.0001717402849761,-175.44881190094895
6.022863872,1.0003522637575877,-175.60382968483844
6.025149952,1.0005104573585666,-175.7613333444672
6.027436544,1.0006365010903693,-175.9208726304785
6.029722624,1.000722250317179,-176.08193207225264
6.032009216,1.0007623682332498,-176.24391470659654
6.034295296,1.0007543131384802,-176.40613026514413
6.036581888,1.0006984854511913,-176.56785663723883
6.03886848,1.0005986153234507,-176.72847919274292
6.04115456,1.0004606118472095,-176.88734612129142
6.043441152,1.000293698818594,-177.04402279791418
6.045727232,1.000107812670188,-177.19811708553013
6.048013824,0.9999150872629574,-177.3494522824664
6.050299904,0.9997277250094754,-177.49803200524013
6.052586496,0.9995572850167761,-177.644011063365
6.054872576,0.9994149056340514,-177.78768182351823
6.057159168,0.9993094373850357,-177.929549783555
6.05944576,0.9992475530602618,-178.07022332367293
6.06173184,0.9992332924831784,-178.21030236095828
6.064018432,0.9992675071044678,-178.35052985411045
6.066304512,0.9993479847757782,-178.49158823652445
6.068591104,0.9994697966726166,-178.6340988186375
6.070877184,0.9996251733560676,-178.77860655316567
6.073163776,0.9998042140790022,-178.9255581973362
6.075450368,0.9999956711832169,-179.07520329695473
6.077736448,1.0001874409954257,-179.2276077740766
6.08002304,1.000367404505026,-179.38271601382542
6.08230912,1.000524068569117,-179.54024400426903
6.084595712,1.0006476881678588,-179.69981923225512
6.086881792,1.000730485286212,-179.86085641321478
6.089168384,1.0007668332294488,179.97722271660857
6.091454464,1.0007549164788427,179.81513195926658
6.093741056,1.0006951624055356,179.65356744731832
6.096027648,1.000591561596464,179.49318095063313
6.098313728,1.0004502475326666,179.33459443948053
6.10060032,1.0002806125924328,179.17827206569393
6.1028864,1.0000929623685522,179.0245314975146
6.105172992,0.9998993174916685,178.87357699322075
6.107459072,0.99971211201351,178.72539576300557
6.109745664,0.9995428594347792,178.5797885722681
6.112032256,0.9994024991322141,178.43647922191218
6.114318336,0.9992998543391717,178.29489825191718
6.116604928,0.9992412965220709,178.15456923660193
6.118891008,0.9992309163253127,178.01468957022473
6.1211776,0.9992691257204079,177.87464333094758
6.12346368,0.9993534198088111,177.73370162807345
6.125750272,0.999478772921442,177.59124747152597
6.128036352,0.9996371515034921,177.4467585952137
6.130322944,0.9998184278803174,177.29976076026352
6.132609536,1.0000112189394617,177.15008834713964
6.134895616,1.0002032269692733,176.99763150644233
6.137182208,1.000382577541253,176.8424825132857
6.139468288,1.000537737960548,176.6849091787549
6.14175488,1.000658746824029,176.5253358559105
6.14404096,1.0007383453739216,176.36431027327293
6.146327552,1.000771139965867,176.20247765776196
6.148614144,1.0007551817292368,176.04053858088477
6.150900224,1.0006915298533765,175.87915968839087
6.153186816,1.0005840886482353,175.71906197069504
6.155472896,1.0004396463812522,175.5607659862183
6.157759488,1.0002672743017813,175.40480358399046
6.160045568,1.00007785138525,175.25142963404622
6.16233216,0.9998833933791292,175.1008773687626
6.16461824,0.9996963950087939,174.9530919433862
6.166904832,0.9995283100587052,174.8079003389641
6.169191424,0.9993900401693654,174.66494660727304
6.171477504,0.9992901539366316,174.5237407851129
6.173764096,0.9992352449137216,174.38367356750163
6.176050176,0.9992286958082521,174.2440497794098
6.178336768,0.9992708454138652,174.104202768203
6.180622848,0.9993591721173346,173.96338974927042
6.18290944,0.9994880796016966,173.82100819415845
6.18519552,0.9996492882766179,173.67653195591691
6.187482112,0.9998327862785334,173.52953706083883
6.189768704,1.0000269620371192,173.37983230770777
6.192054784,1.000219295508888,173.2273311162818
6.194341376,1.0003979037667634,173.07213137957567
6.196627456,1.0005512647960648,172.9145391658927
6.198914048,1.0006698246746177,172.75497057997063
6.201200128,1.0007460492137874,172.59402302624977
6.20348672,1.0007752145030415,172.43229689751703
6.205773312,1.000755289052772,172.27049706969538
6.208059392,1.0006875611021755,172.1093639626661
6.210345984,1.0005764267985238,171.94953967911948
6.212632064,1.0004286913470508,171.79157168526302
6.214918656,1.0002538470050353,171.63595751258416
6.217204736,1.0000626868161533,171.48299151149698
6.219491328,0.9998675644406111,171.3328684077106
6.221777408,0.9996806989921636,171.18551756647946
6.224064,0.9995138136839797,171.04075588511787
6.226350592,0.9993777793521251,170.8981857644826
6.228636672,0.999280874330657,170.757312530257
6.230923264,0.9992295137959926,170.61754750029314
6.233209344,0.9992268521667282,170.47819486794629
6.235495936,0.9992730384883144,170.3385134703316
6.237782016,0.9993653975015255,170.19785888196571
6.240068608,0.9994977695044476,170.0555746143395
6.2423552,0.9996619483834351,169.91113282031756
6.24464128,0.9998476008842656,169.764150389148
6.246927872,1.000042800965285,169.61443816958698
6.249213952,1.0002354209273459,169.46189390607256
6.251500544,1.000413147187329,169.306674870623
6.253786624,1.000564750389731,169.14907102068486
6.256073216,1.0006808215705896,168.9895288695615
6.258359296,1.0007537436682277,168.82861376743136
6.260645888,1.0007790673058676,168.66704320663416
6.26293248,1.0007550813939974,168.50543958740798
6.26521856,1.0006833423573855,168.344513005003
6.267505152,1.0005684083681554,168.18496457746545
6.269791232,1.000417402017508,168.02736167336167
6.272077824,1.000239954542569,167.87213192983657
6.274363904,1.0000471706772551,167.71962249591598
6.276650496,0.9998513100259371,167.56993572823797
6.278937088,0.9996647971143477,167.42301064251015
6.281223168,0.9994993953802845,167.27868668030106
6.28350976,0.9993654945113676,167.13651883592138
6.28579584,0.9992716728667413,166.99602137498803
6.288082432,0.9992239404837414,166.85658344591215
6.290368512,0.9992252107489049,166.71748270208718
6.292655104,0.9992755751153733,166.5780142085973
6.294941184,0.9993716677737011,166.43749321443542
6.297227776,0.9995077321344628,166.29531892388104
6.299514368,0.9996747319571867,166.15093330010737
6.301800448,0.9998625515100995,166.0039610765727
6.30408704,1.000058980957534,165.85423504159755
6.30637312,1.000251751225967,165.7016719699917
6.308659712,1.000428614250054,165.54642783823482
6.310945792,1.0005783269616615,165.38883082902595
6.313232384,1.000691669198001,165.22935190879065
6.315518464,1.0007611213209262,165.06854809057543
6.317805056,1.0007825817221552,164.90708723512364
6.320091648,1.0007545710823633,164.7456913463508
6.322377728,1.000678766599708,164.5850379879489
6.32466432,1.0005600577575875,164.42579224596574
6.3269504,1.0004058923171124,164.2685422135213
6.329236992,1.0002258797293806,164.113735733168
6.331523072,1.0000315755893,163.96164581618143
6.333809664,0.9998350319866167,163.81242162869415
6.336096256,0.9996488110105874,163.6659582182059
6.338382336,0.9994849113695466,163.52205530021877
6.340668928,0.9993532995817728,163.38033213487435
6.342955008,0.9992625643389945,163.24021500875924
6.3452416,0.9992184943346913,163.10111788077214
6.34752768,0.9992238303494088,162.9622771095654
6.349814272,0.9992783390387034,162.82304358221978
6.352100352,0.9993784382394906,162.6826813482325
6.354386944,0.9995178915160071,162.54057294336286
6.356673536,0.99968793698007,162.39625797695442
6.358959616,0.9998775852072359,162.24933859516258
6.361246208,1.0000751918973805,162.099596645541
6.363532288,1.0002681023126463,161.94702630678373
6.36581888,1.0004439286623714,161.79179845036273
6.36810496,1.0005917876713792,161.63422356865152
6.370391552,1.0007022630405908,161.47479579410214
6.372678144,1.000768269815455,161.31409269334867
6.374964224,1.0007858188619632,161.15280345735408
6.377250816,1.000753677373567,160.99161547651647
6.379536896,1.0006739313576372,160.83122814736123
6.381823488,1.0005514101352366,160.6723154688856
6.384109568,1.0003939669127302,160.51547428829295
6.38639616,1.0002115141484154,160.36109061246148
6.38868224,1.000015554844126,160.20946451948438
6.390968832,0.9998184556073358,160.06067922308122
6.393255424,0.9996328986524708,159.91472504901827
6.395541504,0.9994703775955351,159.77127216966358
6.397828096,0.9993412746836848,159.62999198066802
6.400114176,0.9992536305376484,159.49027618064238
6.402400768,0.9992133825778657,159.35149822840765
6.404686848,0.9992227269053287,159.212970843393
6.40697344,0.9992814754603536,159.0739237646556
6.409260032,0.9993855483756331,158.93375803518936
6.411546112,0.9995285049054979,158.79176491476662
6.413832704,0.9997013669771847,158.64750134909005
6.416118784,0.9998931774125749,158.50059617604236
6.418405376,1.0000917456487333,158.3508887653368
6.420691456,1.0002845200263262,158.19831441241337
6.422978048,1.0004593519049036,158.04312970532578
6.425264128,1.0006051898981154,157.8855949337244
6.42755072,1.0007127739179964,157.726201309413
6.429837312,1.000775344550569,157.56564606560735
6.432123392,1.0007890037631129,157.40449330448794
6.434409984,1.0007525600900704,157.24354592625085
6.436696064,1.0006685896112666,157.08345108260733
6.438982656,1.0005423366933264,156.92492620000874
6.441268736,1.0003816911806327,156.7684510254984
6.443555328,1.0001967253423958,156.61452826897172
6.44584192,0.9999993162829551,156.46334994160534
6.448128,0.9998018236589573,156.31509133938087
6.450414592,0.999616714134683,156.1695970087999
6.452700672,0.9994557997230822,156.02660568788974
6.454987264,0.9993291752332476,155.88577965626675
6.457273344,0.9992449035298752,155.74646236363535
6.459559936,0.9992084506435314,155.608054536032
6.461846016,0.999222060682985,155.46980119691756
6.464132608,0.9992848748191182,155.3310326999327
6.4664192,0.9993929443780091,155.19102060845458
6.46870528,0.9995394020423451,155.04915900469445
6.470991872,0.9997151172350031,154.90495994912166
6.473277952,0.9999089106340218,154.75811099218825
6.475564544,1.0001083618498878,154.60841121941274
6.477850624,1.0003010985745922,154.45583421652918
6.480137216,1.0004747020093325,154.30067570475424
6.482423296,1.000618617002922,154.14319277701344
6.484709888,1.0007231548604527,153.98390183414335
6.48699648,1.0007820632294016,153.82344223056865
6.48928256,1.0007916478506993,153.66250761728563
6.491569152,1.0007510758945095,153.50180403640306
6.493855232,1.0006629860407106,153.342028252706
6.496141824,1.0005330131115324,153.18385705039148
6.498427904,1.0003691039991836,153.02783205192935
6.500714496,1.0001818921815804,152.87433121526698
6.503001088,0.9999829706164439,152.72367788795418
6.505287168,0.9997851032315572,152.57590462610122
6.50757376,0.9996006055968376,152.43090916540265
6.50985984,0.999441364080007,152.28844749532138
6.512146432,0.9993173059136913,152.14803177129738
6.514432512,0.9992364758968519,152.00914425017592
6.516719104,0.9992039318380769,151.8710721562351
6.519005184,0.9992216408273724,151.7331302980747
6.521291776,0.9992887153074513,151.59458320197112
6.523578368,0.9994007650931465,151.45474154552167
6.525864448,0.9995508915058292,151.31304005037435
6.52815104,0.999729289343852,151.1689400978631
6.53043712,0.9999249394959441,151.0221258195533
6.532723712,1.000125366416815,150.8724457229582
6.535009792,1.0003178522105594,150.71991603542568
6.537296384,1.0004903172009503,150.56475166455536
6.539582976,1.0006318828140839,150.40732525137878
6.541869056,1.0007335254964458,150.24818072279203
6.544155648,1.0007888240180023,150.0878599924188
6.546441728,1.0007941654321553,149.92710928416602
6.54872832,1.0007492576653112,149.76666354454392
6.5510144,1.0006571131786084,149.60723109776947
6.553300992,1.0005233087685066,149.44944165138395
6.555587072,1.0003563686459773,149.29382709676892
6.557873664,1.0001666571347467,149.1408327522311
6.560160256,0.9999663746716574,148.9906622531062
6.562446336,0.9997680663711321,148.8433924101832
6.564732928,0.9995843710854901,148.69892720640837
6.567019008,0.9994268792610894,148.55696397041092
6.5693056,0.9993055287575551,148.4170134699018
6.57159168,0.9992280047642375,148.27854867014477
6.573878272,0.9991994989942162,148.14085756871563
6.576164864,0.999221559417781,148.00320865565064
6.578450944,0.9992927861575254,147.86491399951595
6.580737536,0.9994089901667512,147.72529313275254
6.583023616,0.9995625403495252,147.58369208563906
6.585310208,0.9997436497228558,147.43967007040703
6.587596288,0.9999411693910515,147.29292296017726
6.58988288,1.0001423601785713,147.1432745259219
6.59216896,1.0003346720006303,146.99077866172993
6.594455552,1.0005058971422511,146.83566958878006
6.596742144,1.0006450792400652,146.67831586265166
6.599028224,1.000743636544355,146.51924449404146
6.601314816,1.000795071169589,146.35909638542543
6.603600896,1.0007962286923773,146.19859138725414
6.605887488,1.0007471708463893,146.03841203224334
6.608173568,1.0006507733142607,145.87931423825137
6.61046016,1.0005131767855613,145.72192101276502
6.612746752,1.000343034143033,145.56677293831834
6.615032832,1.0001510448538948,145.4142444836627
6.617319424,0.9999494804268634,145.26461206005052
6.619605504,0.9997508667096292,145.11788458117155
6.621892096,0.9995679907273212,144.9739385233404
6.624178176,0.9994124339635863,144.8324613881817
6.626464768,0.9992939028896154,144.69301375458932
6.628750848,0.9992199749733284,144.55496182883132
6.63103744,0.9991954006593935,144.41763484030315
6.633324032,0.9992218886186607,144.2803057713004
6.635610112,0.9992974158554498,144.14227436360767
6.637896704,0.9994174936650421,144.00284595861834
6.640182784,0.999574522958046,143.8613749122003
6.642469376,0.999758448944146,143.7174301607482
6.644755456,0.9999577713600791,143.57074012542037
6.647042048,1.0001598524930233,143.42114198646138
6.649328128,1.000351792026759,143.26868267235807
6.65161472,1.0005214865937915,143.1136358416977
6.653901312,1.0006584043413842,142.95635401901976
6.656187392,1.0007535717385285,142.7974156645695
6.658473984,1.0008010833853904,142.63742437894712
6.660760064,1.0007981742762244,142.47713991709452
6.663046656,1.0007446708751835,142.31727313137597
6.665332736,1.0006440854560643,142.1585366127587
6.667619328,1.000502658836771,142.0015574702723
6.66990592,1.0003293539360458,141.84686530788343
6.672192,1.0001350779095775,141.69485357039886
6.674478592,0.9999322498034906,141.54573769612728
6.676764672,0.9997335875137008,141.39954201857716
6.679051264,0.9995515646482547,141.25614689042004
6.681337344,0.9993979275444825,141.1151939817707
6.683623936,0.9992821930232787,140.976233131667
6.685910016,0.9992120212052148,140.8385873487923
6.688196608,0.9991914985449533,140.701653066194
6.6904832,0.9992222171666283,140.56467081033915
6.69276928,0.9993022494269673,140.42687764469514
6.695055872,0.999426358772067,140.28760830918327
6.697341952,0.9995869276696921,140.14630276576804
6.699628544,0.9997735050712322,140.00247032428285
6.701914624,0.9999746571896918,139.85583107881862
6.704201216,1.0001772934756687,139.70628862661022
6.706487808,1.0003689183739544,139.55387424080263
6.708773888,1.0005371808786074,139.39887454559985
6.71106048,1.0006715319865798,139.2416907055549
6.71334656,1.000763385897971,139.08285817188306
6.715633152,1.0008070884255493,138.92307569541
6.717919232,1.0007997141135756,138.76303193031987
6.720205824,1.000741808694371,138.60346817140953
6.722491904,1.0006369484794437,138.4450959861999
6.724778496,1.0004918297051046,138.2885537889291
6.727065088,1.000315516370827,138.1343514796523
6.729351168,1.0001190186846252,137.98283492166988
6.73163776,0.9999149048476845,137.8342754204141
6.73392384,0.9997161613594971,137.68863909622908
6.736210432,0.9995351820443223,137.5457706687407
6.738496512,0.9993834222348399,137.40534509779033
6.740783104,0.9992707971986522,137.26686072200758
6.743069696,0.9992042729015804,137.12968701013975
6.745355776,0.9991879811496159,136.99314218687917
6.747642368,0.9992231252903474,136.85645785349573
6.749928448,0.9993074431618002,136.71892574692893
6.75221504,0.999435648700363,136.57987317780578
6.75450112,0.9995996534277114,136.43869705679174
6.756787712,0.9997889300664161,136.29495809872026
6.759073792,0.9999917046276906,136.14838465491331
6.761360384,1.0001950559021724,135.99889779480645
6.763646976,1.0003860752809508,135.84653403268138
6.765933056,1.0005527969823793,135.69158900112365
6.768219648,1.00068453950879,135.53451608049042
6.770505728,1.0007729902722775,135.37582298055608
6.77279232,1.0008127479083877,135.21624482677046
6.7750784,1.0008010479243332,135.05644506510268
6.777364992,1.0007386159973217,134.8971869437152
6.779651584,1.0006296107104349,134.73922329495022
6.781937664,1.0004806000358104,134.58309887056527
6.784224256,1.0003011239483763,134.42937231044763
6.786510336,1.0001025151170178,134.27842687830733
6.788796928,0.9998972848245653,134.13041298883874
6.791083008,0.9996984346698305,133.9853372022899
6.7933696,0.9995186161017935,133.84302964826082
6.79565568,0.9993691613385607,133.70313228921884
6.797942272,0.9992594764038543,133.5651281005429
6.800228864,0.9991966572808246,133.42841385659972
6.802514944,0.9991846881730857,133.29224884586006
6.804801536,0.9992243844387146,133.15590273995937
6.807087616,0.9993130620072974,133.01863859540063
6.809374208,0.999445310728723,132.87975834387314
6.811660288,0.999612767753656,132.73873841160324
6.81394688,0.9998047245348676,132.59510097538907
6.81623296,1.0000091200035657,132.44859112903836
6.818519552,1.0002129663977588,132.29916458106263
6.820806144,1.0004033813294977,132.14686136249176
6.823092224,1.0005683606898843,131.9919987583197
6.825378816,1.0006974370786068,131.8349876569783
6.827664896,1.0007824871359507,131.67646926631906
6.829951488,1.000818007133407,131.51708120529858
6.832237568,1.0008018394657987,131.35756405461035
6.83452416,1.0007349997442683,131.19863567168454
6.836810752,1.0006215793957691,131.04104452250016
6.839096832,1.0004688984191388,130.88537955719153
6.841383424,1.000286400154384,130.73217446764937
6.843669504,1.000085701813865,130.58175930868356
6.845956096,0.9998794153275059,130.4342949348847
6.848242176,0.9996806358841686,130.2898045908257
6.850528768,0.9995019406376405,130.1480717364499
6.852814848,0.9993547189925014,130.00869614435024
6.85510144,0.9992483041430236,129.87121178029594
6.857388032,0.9991893773049338,129.73493643087383
6.859674112,0.9991817848844605,129.5991580626243
6.861960704,0.9992259721203262,129.46312026385476
6.864246784,0.9993191738691942,129.32613543760866
6.866533376,0.9994553976338837,129.18744199294613
6.868819456,0.999626275447153,129.04655954855414
6.871106048,0.9998208304803669,128.90304066204328
6.87339264,1.0000267526984306,128.75662013642997
6.87567872,1.000231105225268,128.6072232030487
6.877965312,1.0004208117552018,128.4549752471924
6.880251392,1.0005840888804025,128.30020379117994
6.882537984,1.0007102387910698,128.14331158000172
6.884824064,1.0007916717084107,127.98493266343868
6.887110656,1.0008230959073274,127.82577378194014
6.889396736,1.0008023876586687,127.66650382374637
6.891683328,1.0007310169761288,127.50794484656006
6.89396992,1.0006133064629084,127.35074125768833
6.896256,1.0004567110669729,127.19556639656906
6.898542592,1.000271300673511,127.04286513826807
6.900828672,1.0000684835753446,126.89299849628975
6.903115264,0.9998612609321529,126.74611939799472
6.905401344,0.9996626291142892,126.60220091350561
6.907687936,0.999485287167702,126.46103282850427
6.909974528,0.9993404585298423,126.32222982489125
6.912260608,0.9992372342386836,126.18523371823578
6.9145472,0.9991822918564576,126.04942644052893
6.91683328,0.9991790897662819,125.91402311050892
6.919119872,0.9992278634489606,125.7783244070494
6.921405952,0.9993255273399662,125.64157923366177
