freq,mag,phase
6.0,0.9999966082180779,157.16518405982197
6.008,0.9999966797981023,156.7347891131678
6.016,0.9999967428982591,156.30404888528804
6.024,0.9999967976859212,155.8729583702694
6.032,0.9999968443272117,155.44151254538465
6.04,0.9999968829870027,155.00970637129294
6.048,0.9999969138289179,154.57753479224323
6.056,0.9999969370153322,154.1449927362801
6.064,0.9999969527073715,153.7120751154525
6.072,0.9999969610649168,153.27877682602514
6.08,0.9999969622466008,152.84509274869296
6.088,0.9999969564098138,152.4110177487986
6.096,0.9999969437106997,151.9765466765527
6.104,0.9999969243041613,151.54167436725774
6.112,0.9999968983438601,151.10639564153473
6.12,0.9999968659822157,150.6707053055535
6.128,0.9999968273704111,150.23459815126623
6.136,0.9999967826583911,149.79806895664458
6.144,0.9999967319948644,149.3611124859203
6.152,0.9999966755273052,148.9237234898296
6.16,0.9999966134019566,148.48589670586108
6.168,0.9999965457638291,148.0476268585078
6.176,0.9999964727567041,147.60890865952302
6.184,0.9999963945231353,147.16973680818003
6.192,0.9999963112044505,146.73010599153622
6.2,0.9999962229407552,146.29001088470122
6.208,0.9999961298709297,145.84944615110916
6.216,0.999996032132635,145.4084064427959
6.224,0.999995929862315,144.96688640068015
6.232,0.9999958231951958,144.52488065484937
6.24,0.9999957122652883,144.08238382485064
6.248,0.9999955972053918,143.6393905199857
6.256,0.999995478147095,143.19589533961175
6.264,0.9999953552207771,142.75189287344605
6.272,0.999995228555612,142.30737770187702
6.28,0.9999950982795668,141.86234439627898
6.288,0.9999949645194075,141.4167875193337
6.296,0.9999948274007003,140.97070162535613
6.304,0.9999946870478124,140.52408126062636
6.312,0.9999945435839129,140.07692096372662
6.32,0.9999943971309779,139.62921526588465
6.328,0.9999942478097936,139.18095869132225
6.336,0.9999940957399513,138.73214575761003
6.344,0.9999939410398572,138.28277097602825
6.352,0.9999937838267308,137.83282885193358
6.36,0.9999936242166076,137.38231388513236
6.368,0.9999934623243412,136.93122057025977
6.376,0.9999932982636044,136.47954339716605
6.384,0.9999931321468924,136.0272768513088
6.392,0.999992964085526,135.57441541415224
6.4,0.9999927941896491,135.1209535635729
6.408,0.9999926225682355,134.66688577427277
6.416,0.9999924493290886,134.21220651819894
6.424,0.9999922745788433,133.7569102649706
6.432,0.9999920984229684,133.30099148231326
6.44,0.9999919209657686,132.84444463650016
6.448,0.9999917423103842,132.38726419280144
6.456,0.9999915625587987,131.9294446159406
6.464,0.9999913818118322,131.47098037055864
6.472,0.9999912001691496,131.0118659216862
6.48,0.9999910177292614,130.55209573522353
6.4879999999999995,0.9999908345895229,130.09166427842834
6.496,0.9999906508461371,129.6305660204117
6.504,0.9999904665941582,129.1687954326428
6.5120000000000005,0.9999902819274892,128.70634698946105
6.52,0.9999900969388879,128.2432151685979
6.5280000000000005,0.9999899117199652,127.77939445170561
6.536,0.9999897263611882,127.31487932489658
6.5440000000000005,0.9999895409518806,126.84966427928971
6.552,0.9999893555802263,126.3837438115672
6.5600000000000005,0.999989170333266,125.91711242453871
6.568,0.9999889852969048,125.44976462771676
6.5760000000000005,0.9999888005559098,124.98169493789888
6.584,0.9999886161939101,124.51289787976137
6.592,0.9999884322934015,124.04336798646081
6.6,0.9999882489357462,123.57309980024613
6.608,0.9999880662011715,123.10208787307985
6.616,0.9999878841687763,122.63032676726925
6.624,0.9999877029165264,122.15781105610715
6.632,0.999987522521258,121.68453532452307
6.64,0.9999873430586804,121.21049416974382
6.648,0.9999871646033744,120.73568220196486
6.656,0.9999869872287923,120.26009404503132
6.664,0.999986811007263,119.78372433712984
6.672,0.9999866360099876,119.30656773149038
6.68,0.999986462307044,118.82861889709882
6.688,0.9999862899673861,118.34987251942009
6.696,0.9999861190588436,117.87032330113179
6.704,0.999985949648124,117.38996596286883
6.712,0.999985781800813,116.90879524397862
6.72,0.9999856155813739,116.42680590328743
6.728,0.999985451053149,115.94399271987749
6.736,0.9999852882783602,115.46035049387524
6.744,0.9999851273181081,114.9758740472508
6.752,0.9999849682323741,114.49055822462827
6.76,0.9999848110800197,114.00439789410778
6.768,0.9999846559187864,113.51738794809825
6.776,0.9999845028052966,113.02952330416205
6.784,0.9999843517950537,112.5407989058707
6.792,0.9999842029424423,112.05120972367199
6.8,0.9999840563007276,111.56075075576896
6.808,0.9999839119220568,111.06941702900994
6.816,0.9999837698574584,110.57720359979047
6.824,0.9999836301568414,110.08410555496664
6.832,0.9999834928689969,109.59011801278011
6.84,0.9999833580415973,109.09523612379478
6.848,0.9999832257211964,108.59945507184494
6.856,0.9999830959532287,108.10277007499543
6.864,0.9999829687820101,107.60517638651295
6.872,0.9999828442507381,107.10666929584953
6.88,0.9999827224014904,106.60724412963728
6.888,0.9999826032752258,106.106896252695
6.896,0.9999824869117838,105.60562106904632
6.904,0.9999823733498846,105.1034140229494
6.912,0.999982262627128,104.60027059993824
6.92,0.9999821547799942,104.0961863278756
6.928,0.9999820498438445,103.59115677801715
6.936,0.9999819478529183,103.08517756608735
6.944,0.9999818488403355,102.57824435336641
6.952,0.9999817528380964,102.07035284778887
6.96,0.9999816598770785,101.56149880505308
6.968,0.999981569987041,101.05167802974208
6.976,0.99998148319662,100.54088637645536
6.984,0.9999813995333322,100.02911975095176
6.992,0.9999813190235719,99.51637411130307
7.0,0.9999812416926137,99.00264546905845
7.008,0.9999811675646112,98.48792989041948
7.016,0.9999810966625942,97.97222349742565
7.024,0.9999810290084745,97.4555224691502
7.032,0.9999809646230413,96.93782304290626
7.04,0.9999809035259634,96.41912151546289
7.048,0.9999808457357896,95.89941424427109
7.056,0.9999807912699465,95.37869764869947
7.064,0.9999807401447426,94.85696821127938
7.072,0.999980692375365,94.33422247895948
7.08,0.9999806479758829,93.81045706436926
7.088,0.999980606959246,93.28566864709153
7.096,0.9999805693372857,92.75985397494345
7.104,0.9999805351207153,92.23300986526618
7.112,0.9999805043191327,91.70513320622247
7.12,0.9999804769410177,91.1762209581022
7.128,0.9999804529937373,90.64627015463567
7.136,0.9999804324835422,90.11527790431398
7.144,0.9999804154155717,89.58324139171665
7.152,0.9999804017938533,89.0501578788459
7.16,0.999980391621302,88.51602470646723
7.168,0.9999803848997265,87.98083929545629
7.176,0.9999803816298275,87.44459914815127
7.184,0.9999803818111984,86.9073018497107
7.192,0.9999803854423317,86.3689450694763
7.2,0.9999803925206152,85.82952656234032
7.208,0.9999804030423397,85.28904417011738
7.216,0.9999804170026965,84.74749582291956
7.224,0.9999804343957831,84.20487954053557
7.232,0.9999804552146048,83.66119343381217
7.24,0.9999804794510775,83.11643570603871
7.248,0.9999805070960306,82.57060465433322
7.256,0.99998053813921,82.02369867103023
7.264,0.9999805725692815,81.4757162450697
7.272,0.9999806103738342,80.9266559633866
7.28,0.9999806515393863,80.37651651230021
7.288,0.9999806960513844,79.82529667890331
7.296,0.9999807438942127,79.27299535245014
7.304,0.9999807950511941,78.71961152574282
7.312,0.9999808495045958,78.16514429651558
7.32,0.9999809072356349,77.60959286881655
7.328,0.9999809682244812,77.05295655438564
7.336,0.999981032450266,76.4952347740292
7.344,0.9999810998910833,75.93642705898954
7.352,0.9999811705239995,75.3765330523096
7.36,0.9999812443250569,74.81555251019157
7.368,0.9999813212692817,74.25348530334932
7.376,0.9999814013306882,73.6903314183533
7.384,0.9999814844822895,73.12609095896772
7.392,0.9999815706961012,72.5607641474794
7.4,0.9999816599431481,71.9943513260169
7.4079999999999995,0.9999817521934778,71.4268529578603
7.416,0.9999818474161609,70.8582696287393
7.4239999999999995,0.9999819455793045,70.28860204812128
7.432,0.9999820466500591,69.71785105048532
7.4399999999999995,0.9999821505946282,69.14601759658532
7.448,0.9999822573782766,68.57310277469709
7.4559999999999995,0.9999823669653395,67.99910780185324
7.464,0.9999824793192352,67.42403402506041
7.4719999999999995,0.9999825944024717,66.84788292250252
7.48,0.9999827121766592,66.27065610472503
7.4879999999999995,0.9999828326025216,65.69235531580343
7.496,0.9999829556399048,65.11298243449077
7.504,0.9999830812477914,64.53253947534839
7.5120000000000005,0.9999832093843117,63.95102858985367
7.52,0.9999833400067542,63.368452067488874
7.5280000000000005,0.9999834730715802,62.784812336806134
7.536,0.9999836085344368,62.200111966471134
7.5440000000000005,0.999983746350168,61.61435366628141
7.552,0.9999838864728309,61.02754028816164
7.5600000000000005,0.9999840288557083,60.43967482713173
7.568,0.9999841734513233,59.850760422250204
7.5760000000000005,0.9999843202114544,59.26080035752852
7.584,0.9999844690871502,58.669798062818835
7.5920000000000005,0.9999846200287451,58.07775711467121
7.6,0.999984772985875,57.484681237162306
7.6080000000000005,0.9999849279074935,56.89057430269146
7.616,0.9999850847418892,56.29544033274705
7.6240000000000006,0.9999852434367007,55.699283498637904
7.632,0.9999854039389365,55.10210812219355
7.640000000000001,0.9999855661949906,54.503918676427745
7.648,0.9999857301506618,53.9047197861688
7.656000000000001,0.9999858957511715,53.30451622865158
7.664,0.9999860629411814,52.70331293407467
7.672,0.9999862316648158,52.101114986117516
7.68,0.9999864018656774,51.49792762242037
7.688,0.9999865734868691,50.89375623502364
7.696,0.9999867464710146,50.288606370767184
7.704,0.9999869207602757,49.682483731648134
7.712,0.9999870962963786,49.07539417513666
7.72,0.999987273020629,48.46734371444869
7.728,0.999987450873939,47.858338518774964
7.736,0.9999876297968446,47.24838491346561
7.744,0.9999878097295302,46.637489380169235
7.752,0.9999879906118506,46.02565855692616
7.76,0.9999881723833537,45.41289923821478
7.768,0.9999883549833025,44.79921837495043
7.776,0.9999885383507007,44.184623074436004
7.784,0.9999887224243132,43.56912060026383
7.792,0.9999889071426936,42.95271837216774
7.8,0.9999890924442042,42.335423965825235
7.808,0.999989278267044,41.717245112608644
7.816,0.999989464549271,41.09818969928493
7.824,0.999989651228828,40.47826576766363
7.832,0.999989838243567,39.857481514192024
7.84,0.9999900255312762,39.23584528949759
7.848,0.9999902130297025,38.61336559787669
7.856,0.9999904006765791,37.990051096729324
7.864,0.999990588409651,37.365910595939575
7.872,0.9999907761667013,36.740953057200976
7.88,0.9999909638855767,36.115187593286954
7.888,0.9999911515042128,35.488623467265526
7.896,0.9999913389606628,34.86127009165811
7.904,0.9999915261931218,34.233137027542476
7.912,0.9999917131399542,33.60423398359889
7.92,0.9999918997397206,32.97457081510006
7.928,0.9999920859312036,32.34415752284406
7.936,0.9999922716534351,31.713004252030444
7.944,0.9999924568457234,31.08112129107937
7.952,0.9999926414476782,30.44851907039362
7.96,0.9999928253992398,29.815208161063477
7.968,0.9999930086407033,29.181199273514693
7.976,0.9999931911127474,28.546503256099196
7.984,0.99999337275646,27.911131093629034
7.992,0.9999935535133637,27.275093905853478
8.0,0.9999937333254445,26.638402945879402
8.008,0.9999939121351762,26.001069598535445
8.016,0.9999940898855472,25.36310537867949
8.024000000000001,0.9999942665200869,24.724521929451313
8.032,0.9999944419828914,24.085331020468704
8.04,0.9999946162186486,23.445544545968485
8.048,0.9999947891726644,22.805174522893413
8.056000000000001,0.9999949607908873,22.164233088924824
8.064,0.999995131019934,21.522732500460858
8.072,0.9999952998071147,20.880685130541647
8.08,0.9999954671004553,20.238103466722308
8.088000000000001,0.9999956328487246,19.595000108894062
8.096,0.999995797001456,18.951387767053443
8.104,0.9999959595089717,18.307279259020913
8.112,0.9999961203224065,17.66268750811026
8.120000000000001,0.99999627939373,17.01762554074899
8.128,0.9999964366757688,16.37210648404987
8.136,0.9999965921222286,15.726143563335377
8.144,0.9999967456877179,15.079750099616138
8.152000000000001,0.9999968973277653,14.432939507024068
8.16,0.9999970469988442,13.7857252902006
8.168,0.9999971946583894,13.138121041641394
8.176,0.9999973402648216,12.490140438999473
8.184000000000001,0.9999974837775606,11.841797242347145
8.192,0.9999976251570497,11.193105291397337
8.2,0.9999977643647706,10.54407850268607
8.208,0.999997901363262,9.89473086671799
8.216000000000001,0.9999980361161379,9.245076445075505
8.224,0.9999981685881016,8.595129367492227
8.232,0.9999982987449644,7.944903828892816
8.24,0.9999984265536589,7.2944140864008755
8.248000000000001,0.9999985519822546,6.643674456315933
8.256,0.9999986749999722,5.992699311060223
8.264,0.9999987955771965,5.341503076097285
8.272,0.9999989136854904,4.690100226824489
8.280000000000001,0.9999990292976053,4.0385052854402925
8.288,0.9999991423874943,3.3867328177872986
8.296,0.9999992529303219,2.7347974301730464
8.304,0.9999993609024738,2.0827137661708797
8.312,0.9999994662815681,1.4304965034018113
8.32,0.9999995690464625,0.7781603502975799
8.328,0.9999996691772625,0.12572004284996818
8.336,0.9999997666553296,-0.5268096586563923
8.344,0.9999998614632865,-1.179413972921475
8.352,0.9999999535850239,-1.8320781009205753
8.36,0.9999999999999999,-2.484787229202032
8.368,0.9999999999999999,-3.137526533194826
8.376,1.0,-3.7902811805198557
8.384,1.0,-4.443036334307759
8.392,0.9999999999999999,-5.095777156517017
8.4,1.0,-5.748488811255334
8.408,1.0,-6.401156468097753
8.416,1.0,-7.053765305404817
8.424,0.9999999999999999,-7.7063005136341305
8.432,1.0,-8.358747298648442
8.44,1.0,-9.011090885013918
8.448,0.9999999999999999,-9.663316519291556
8.456,1.0,-10.315409473315452
8.464,0.9999999999999999,-10.967355047460902
8.472,1.0,-11.619138573896146
8.48,0.9999999999999999,-12.27074541982065
8.488,1.0,-12.922160990683658
8.496,1.0,-13.573370733386398
8.504,1.0,-14.224360139461119
8.512,1.0,-14.875114748230805
8.52,1.0,-15.525620149942617
8.528,0.9999999999999999,-16.17586198887882
8.536,1.0,-16.825825966438785
8.544,1.0,-17.475497844195164
8.552,0.9999999999999998,-18.124863446918447
8.56,1.0,-18.773908665572826
8.568,1.0,-19.422619460277588
8.576,1.0,-20.07098186323715
8.584,0.9999999999999999,-20.718981981634006
8.592,1.0,-21.366606000487558
8.6,1.0,-22.013840185473374
8.608,1.0,-22.66067088570605
8.616,1.0,-23.307084536479767
8.624,0.9999999999999999,-23.953067661970326
8.632,1.0,-24.598606877892614
8.64,0.9999999999999998,-25.24368889411728
8.648,1.0,-25.88830051724078
8.656,0.9999999999999999,-26.532428653112532
8.664,0.9999999999999999,-27.176060309313595
8.672,1.0,-27.819182597590444
8.68,1.0,-28.461782736238575
8.688,0.9999999999999999,-29.103848052439428
8.696,0.9999999999999999,-29.745365984545465
8.704,1.0,-30.38632408431714
8.712,1.0,-31.026710019106467
8.72,1.0,-31.666511573991
8.728,1.0,-32.3057166538533
8.736,1.0000000000000002,-32.9443132854095
8.744,1.0000000000000002,-33.58228961918212
8.752,0.9999999999999999,-34.219633931421114
8.76,1.0,-34.8563346259681
8.768,1.0000000000000002,-35.492380236067945
8.776,1.0,-36.127759426122715
8.784,1.0,-36.76246099339237
8.792,1.0,-37.39647386963707
8.8,1.0,-38.02978712270574
8.808,1.0,-38.66238995806587
8.815999999999999,1.0,-39.294271720278836
8.824,0.9999999999999998,-39.92542189441716
8.832,0.9999999999999998,-40.55583010742516
8.84,1.0,-41.18548612942327
8.847999999999999,0.9999999999999999,-41.81437987495547
8.856,1.0,-42.442501404179474
8.864,1.0,-43.06984092400001
8.872,1.0,-43.696388789146184
8.879999999999999,1.0,-44.32213550319212
8.888,0.9999999999999999,-44.94707171952097
8.896,0.9999999999999999,-45.57118824223264
8.904,1.0,-46.19447602699618
8.911999999999999,1.0,-46.81692618184679
8.92,1.0,-47.438529967926726
8.928,0.9999999629823002,-48.0592788001716
8.936,0.9999998948343359,-48.67916424794231
8.943999999999999,0.9999998258255971,-49.29817803560324
8.952,0.9999997560054674,-49.91631204304588
8.96,0.9999996854234275,-50.53355830615934
8.968,0.9999996141290325,-51.1499090172488
8.975999999999999,0.9999995421718901,-51.76535652540155
8.984,0.9999994696016383,-52.379893336800855
8.992,0.9999993964679244,-52.99351211498894
9.0,0.9999993228203807,-53.60620568107966
9.008,0.9999992487086076,-54.21796701392168
9.016,0.999999174182149,-54.828789250211614
9.024000000000001,0.9999990992904723,-55.43866568455868
9.032,0.9999990240829498,-56.047589769502125
9.04,0.9999989486088363,-56.65555511548128
9.048,0.9999988729172509,-57.26255549075875
9.056000000000001,0.9999987970571561,-57.86858482129797
9.064,0.9999987210773398,-58.473637190596094
9.072,0.9999986450263956,-59.07770683947291
9.08,0.9999985689527049,-59.68078816581583
9.088000000000001,0.9999984929044186,-60.28287572428208
9.096,0.9999984169294386,-60.8839642259599
9.104,0.9999983410754014,-61.484048537988606
9.112,0.9999982653896601,-62.083123683138
9.120000000000001,0.9999981899192677,-62.68118483934864
9.128,0.9999981147109617,-63.27822733923405
9.136,0.9999980398111464,-63.87424666954553
9.144,0.9999979652658788,-64.4692384705995
9.152000000000001,0.9999978911208522,-65.06319853566933
9.16,0.9999978174213819,-65.65612281034241
9.168,0.9999977442123907,-66.24800739184361
9.176,0.9999976715383938,-66.83884852832458
9.184000000000001,0.9999975994434875,-67.42864261812103
9.192,0.9999975279713319,-68.01738620897919
9.2,0.9999974571651408,-68.60507599725159
9.208,0.999997387067669,-69.19170882706294
9.216000000000001,0.9999973177211989,-69.77728168944714
9.224,0.9999972491675294,-70.36179172145714
9.232,0.9999971814479633,-70.94523620524782
9.24,0.9999971146032984,-71.52761256713235
9.248000000000001,0.9999970486738147,-72.1089183766134
9.256,0.9999969836992639,-72.68915134539073
9.264,0.9999969197188624,-73.26830932634527
9.272,0.9999968567712783,-73.84639031250029
9.280000000000001,0.9999967948946232,-74.42339243596092
9.288,0.9999967341264449,-74.99931396683351
9.296,0.999996674503717,-75.57415331212496
9.304,0.9999966160628317,-76.14790901462253
9.312000000000001,0.9999965588395919,-76.72057975175558
9.32,0.9999965028692037,-77.29216433444043
9.328,0.9999964481862692,-77.8626617059084
9.336,0.9999963948247811,-78.43207094051806
9.344,0.9999963428181138,-79.00039124255211
9.352,0.999996292199021,-79.56762194500178
9.36,0.9999962429996256,-80.1337625083354
9.368,0.9999961952514186,-80.6988125192572
9.376,0.9999961489852517,-81.26277168945194
9.384,0.9999961042313334,-81.82563985432039
9.392,0.9999960610192242,-82.38741697170296
9.4,0.9999960193778331,-82.94810312059549
9.408,0.9999959793354128,-83.50769849985443
9.416,0.9999959409195597,-84.06620342689581
9.424,0.9999959041572049,-84.6236183363849
9.432,0.9999958690746173,-85.17994377892123
9.44,0.9999958356973977,-85.73518041971543
9.448,0.9999958040504772,-86.2893290372629
9.456,0.9999957741581152,-86.84239052201069
9.464,0.9999957460438992,-87.3943658750223
9.472,0.9999957197307405,-87.94525620663705
9.48,0.9999956952408765,-88.49506273512874
9.488,0.9999956725958667,-89.04378678535987
9.496,0.9999956518165938,-89.59142978743643
9.504,0.9999956329232629,-90.13799327535943
9.512,0.999995615935402,-90.6834788856782
9.52,0.9999956008718601,-91.22788835614125
9.528,0.9999955877508104,-91.77122352435028
9.536,0.9999955765897481,-92.31348632641283
9.544,0.9999955674054931,-92.85467879559867
9.552,0.99999556021419,-93.39480306099641
9.56,0.9999955550313099,-93.93386134617437
9.568,0.99999555187165,-94.47185596784283
9.576,0.9999955507493392,-95.00878933452138
9.584,0.9999955516778348,-95.54466394520863
9.592,0.9999955546699277,-96.07948238805785
9.6,0.999995559737745,-96.6132473390557
9.608,0.9999955668927485,-97.1459615607078
9.616,0.9999955761457417,-97.67762790072823
9.624,0.9999955875068699,-98.2082492907366
9.632,0.9999956009856241,-98.73782874495957
9.64,0.9999956165908425,-99.26636935894112
9.648,0.9999956343307139,-99.79387430825757
9.656,0.999995654212784,-100.32034684724196
9.664,0.9999956762439541,-100.8457903077142
9.672,0.9999957004304874,-101.370208097721
9.68,0.9999957267780125,-101.89360370028199
9.688,0.9999957552915256,-102.4159806721464
9.696,0.9999957859753977,-102.93734264255652
