freq,mag,phase
6.0,1.0,143.1301601858418
6.008,1.0,143.07869828219407
6.016,1.0,143.02722720869713
6.024,1.0,142.97574695040217
6.032,0.9999999295922588,142.92425749236432
6.04,0.999999390117845,142.87275881964263
6.048,0.9999988575176767,142.82125091729984
6.056,0.9999983317529832,142.76973377040255
6.064,0.999997812785075,142.71820736402114
6.072,0.9999973005753438,142.66667168322965
6.08,0.9999967950852624,142.61512671310587
6.088,0.9999962962763851,142.56357243873128
6.096,0.999995804110348,142.5120088451909
6.104,0.9999953185488687,142.46043591757345
6.112,0.9999948395537471,142.40885364097116
6.12,0.9999943670868655,142.3572620004799
6.128,0.9999939011101882,142.3056609811989
6.136,0.9999934415857616,142.2540505682311
6.144,0.9999929884757153,142.20243074668267
6.152,0.9999925417422618,142.15080150166338
6.16,0.9999921013476959,142.09916281828623
6.168,0.9999916672543967,142.04751468166774
6.176,0.9999912394248252,141.9958570769277
6.184,0.9999908178215272,141.9441899891892
6.192,0.9999904024071308,141.89251340357862
6.2,0.9999899931443494,141.84082730522556
6.208,0.9999895899959793,141.78913167926285
6.216,0.9999891929249011,141.73742651082654
6.224,0.9999888018940797,141.68571178505582
6.232,0.9999884168665644,141.63398748709292
6.24,0.9999880378054894,141.5822536020833
6.248,0.9999876646740732,141.53051011517542
6.256,0.9999872974356194,141.47875701152077
6.264,0.9999869360535167,141.4269942762738
6.272,0.999986580491239,141.37522189459207
6.28,0.999986230712345,141.32343985163595
6.288,0.99998588668048,141.2716481325688
6.296,0.9999855483593739,141.21984672255687
6.304,0.9999852157128428,141.1680356067692
6.312,0.9999848887047893,141.1162147703777
6.32,0.999984567299201,141.0643841985571
6.328,0.9999842514601525,141.01254387648487
6.336,0.9999839411518046,140.96069378934124
6.344,0.9999836363384048,140.90883392230907
6.352,0.9999833369842869,140.85696426057402
6.36,0.9999830430538718,140.80508478932427
6.368,0.9999827545116675,140.7531954937507
6.376,0.9999824713222689,140.70129635904675
6.384,0.9999821934503582,140.64938737040845
6.392,0.9999819208607048,140.59746851303427
6.4,0.9999816535181663,140.54553977212535
6.408,0.999981391387687,140.49360113288512
6.416,0.9999811344342998,140.4416525805195
6.424,0.9999808826231257,140.38969410023688
6.432,0.9999806359193727,140.337725677248
6.44,0.9999803942883383,140.2857472967659
6.448,0.9999801576954074,140.23375894400598
6.456,0.9999799261060541,140.18176060418602
6.464,0.9999796994858406,140.12975226252587
6.472,0.9999794778004182,140.07773390424776
6.48,0.9999792610155271,140.0257055145761
6.4879999999999995,0.9999790490969963,139.9736670787374
6.496,0.9999788420107446,139.9216185819604
6.504,0.9999786397227789,139.86956000947595
6.5120000000000005,0.9999784421991966,139.81749134651687
6.52,0.9999782494061843,139.76541257831823
6.5280000000000005,0.9999780613100183,139.71332369011697
6.536,0.9999778778770645,139.66122466715203
6.5440000000000005,0.9999776990737791,139.60911549466437
6.552,0.9999775248667082,139.55699615789695
6.5600000000000005,0.999977355222488,139.50486664209444
6.568,0.9999771901078451,139.45272693250365
6.5760000000000005,0.9999770294895967,139.40057701437303
6.584,0.9999768733346504,139.3484168729529
6.592,0.9999767216100037,139.29624649349543
6.6,0.9999765742827468,139.24406586125448
6.608,0.9999764313200588,139.19187496148575
6.616,0.9999762926892113,139.13967377944647
6.624,0.9999761583575664,139.08746230039569
6.632,0.9999760282925771,139.03524050959408
6.64,0.9999759024617889,138.98300839230382
6.648,0.9999757808328377,138.93076593378882
6.656,0.9999756633734518,138.87851311931448
6.664,0.9999755500514506,138.8262499341477
6.672,0.9999754408347457,138.7739763635569
6.68,0.9999753356913413,138.721692392812
6.688,0.9999752345893321,138.66939800718433
6.696,0.9999751374969067,138.61709319194662
6.704,0.9999750443823446,138.56477793237298
6.712,0.9999749552140188,138.5124522137389
6.72,0.9999748699603943,138.46011602132117
6.728,0.9999747885900289,138.40776934039795
6.736,0.9999747110715723,138.35541215624852
6.744,0.9999746373737686,138.30304445415345
6.752,0.9999745674654537,138.25066621939462
6.76,0.9999745013155563,138.19827743725494
6.768,0.9999744388930997,138.1458780930186
6.776,0.9999743801671994,138.09346817197076
6.784,0.9999743251070643,138.04104765939783
6.792,0.9999742736819964,137.98861654058717
6.8,0.999974225861393,137.93617480082722
6.808,0.9999741816147425,137.8837224254074
6.816,0.9999741409116294,137.83125939961812
6.824,0.9999741037217305,137.77878570875072
6.832,0.9999740700148173,137.72630133809747
6.84,0.9999740397607552,137.6738062729516
6.848,0.9999740129295038,137.621300498607
6.856,0.9999739894911168,137.56878400035862
6.864,0.9999739694157426,137.516256763502
6.872,0.9999739526736233,137.4637187733337
6.88,0.9999739392350964,137.41117001515076
6.888,0.9999739290705936,137.35861047425112
6.896,0.9999739221506413,137.3060401359333
6.904,0.9999739184458606,137.25345898549654
6.912,0.9999739179269678,137.2008670082407
6.92,0.9999739205647742,137.14826418946623
6.928,0.9999739263301854,137.09565051447413
6.936,0.9999739351942035,137.04302596856598
6.944,0.9999739471279246,136.99039053704382
6.952,0.9999739621025411,136.93774420521027
6.96,0.9999739800893397,136.8850869583683
6.968,0.9999740010597036,136.83241878182133
6.976,0.9999740249851112,136.77973966087325
6.984,0.9999740518371371,136.72704958082826
6.992,0.9999740815874504,136.67434852699094
7.0,0.9999741142078168,136.62163648466608
7.008,0.9999741496700982,136.5689134391589
7.016,0.9999741879462521,136.5161793757748
7.024,0.9999742290083319,136.4634342798194
7.032,0.9999742728284876,136.41067813659853
7.04,0.9999743193789649,136.35791093141825
7.048,0.9999743686321065,136.30513264958455
7.056,0.9999744205603504,136.25234327640388
7.064,0.9999744751362323,136.1995427971825
7.072,0.9999745323323832,136.1467311972268
7.08,0.9999745921215314,136.09390846184323
7.088,0.9999746544765022,136.0410745763382
7.096,0.9999747193702164,135.98822952601813
7.104,0.999974786775693,135.93537329618934
7.112,0.9999748566660465,135.8825058721581
7.12,0.9999749290144896,135.82962723923058
7.128,0.9999750037943316,135.77673738271275
7.136,0.9999750809789779,135.72383628791044
7.144,0.9999751605419324,135.6709239401293
7.152,0.9999752424567954,135.61800032467474
7.16,0.9999753266972646,135.56506542685185
7.168,0.9999754132371356,135.51211923196558
7.176,0.9999755020503004,135.45916172532046
7.184,0.999975593110749,135.40619289222062
7.192,0.999975686392569,135.35321271797005
7.2,0.9999757818699452,135.3002211878721
7.208,0.9999758795171603,135.2472182872298
7.216,0.9999759793085949,135.19420400134575
7.224,0.9999760812187263,135.14117831552207
7.232,0.999976185222131,135.08814121506026
7.24,0.9999762912934825,135.0350926852614
7.248,0.9999763994075526,134.982032711426
7.256,0.9999765095392102,134.92896127885393
7.264,0.9999766216634235,134.87587837284443
7.272,0.9999767357552579,134.82278397869615
7.28,0.9999768517898769,134.76967808170704
7.288,0.9999769697425427,134.71656066717426
7.296,0.9999770895886155,134.66343172039436
7.304,0.9999772113035532,134.6102912266631
7.312,0.9999773348629128,134.55713917127537
7.32,0.9999774602423493,134.50397553952533
7.328,0.9999775874176159,134.4508003167063
7.336,0.9999777163645647,134.3976134881106
7.344,0.9999778470591457,134.34441503902983
7.352,0.9999779794774082,134.29120495475453
7.36,0.9999781135954997,134.23798322057436
7.368,0.9999782493896655,134.18474982177796
7.376,0.9999783868362512,134.1315047436529
7.384,0.9999785259116997,134.07824797148578
7.392,0.9999786665925532,134.0249794905622
7.4,0.9999788088554529,133.97169928616654
7.4079999999999995,0.9999789526771381,133.91840734358203
7.416,0.9999790980344476,133.86510364809092
7.4239999999999995,0.9999792449043188,133.81178818497412
7.432,0.9999793932637879,133.75846093951145
7.4399999999999995,0.9999795430899906,133.7051218969814
7.448,0.9999796943601605,133.65177104266124
7.4559999999999995,0.9999798470516317,133.59840836182696
7.464,0.9999800011418357,133.54503383975322
7.4719999999999995,0.9999801566083042,133.4916474617133
7.48,0.9999803134286682,133.43824921297923
7.4879999999999995,0.9999804715806565,133.38483907882144
7.496,0.9999806310420979,133.33141704450915
7.504,0.9999807917909209,133.27798309530996
7.5120000000000005,0.9999809538051525,133.22453721649006
7.52,0.9999811170629187,133.17107939331416
7.5280000000000005,0.9999812815424453,133.11760961104534
7.536,0.9999814472220572,133.06412785494518
7.5440000000000005,0.9999816140801784,133.01063411027363
7.552,0.999981782095333,132.95712836228913
7.5600000000000005,0.9999819512461434,132.90361059624828
7.568,0.9999821215113317,132.85008079740618
7.5760000000000005,0.9999822928697194,132.79653895101612
7.584,0.9999824653002282,132.74298504232974
7.5920000000000005,0.9999826387818773,132.68941905659685
7.6,0.9999828132937875,132.6358409790655
7.6080000000000005,0.9999829888151774,132.58225079498197
7.616,0.9999831653253659,132.52864848959067
7.6240000000000006,0.9999833428037711,132.4750340481341
7.632,0.9999835212299105,132.42140745585297
7.640000000000001,0.9999837005834017,132.36776869798598
7.648,0.9999838808439604,132.3141177597699
7.656000000000001,0.9999840619914031,132.26045462643955
7.664,0.9999842440056456,132.20677928322777
7.672,0.9999844268667027,132.15309171536526
7.68,0.9999846105546891,132.0993919080808
7.688,0.9999847950498192,132.04567984660105
7.696,0.9999849803324062,131.99195551615045
7.704,0.9999851663828638,131.93821890195144
7.712,0.9999853531817043,131.8844699892243
7.72,0.9999855407095405,131.83070876318698
7.728,0.9999857289470837,131.7769352090553
7.736,0.9999859178751456,131.7231493120429
7.744,0.9999861074746369,131.66935105736098
7.752,0.9999862977265686,131.6155404302186
7.76,0.9999864886120499,131.56171741582244
7.768,0.9999866801122904,131.5078819993768
7.776,0.9999868722085998,131.45403416608363
7.784,0.999987064882386,131.40017390114247
7.792,0.9999872581151572,131.34630118975033
7.8,0.9999874518885211,131.29241601710197
7.808,0.9999876461841845,131.2385183683895
7.816,0.999987840983954,131.18460822880252
7.824,0.9999880362697354,131.13068558352813
7.832,0.9999882320235347,131.07675041775093
7.84,0.9999884282274561,131.0228027166528
7.848,0.9999886248637044,130.96884246541302
7.856,0.9999888219145828,130.9148696492083
7.864,0.9999890193624954,130.86088425321262
7.872,0.9999892171899437,130.80688626259726
7.88,0.99998941537953,130.7528756625308
7.888,0.9999896139139554,130.69885243817907
7.896,0.9999898127760207,130.64481657470503
7.904,0.9999900119486252,130.59076805726895
7.912,0.9999902114147691,130.53670687102817
7.92,0.9999904111575497,130.48263300113726
7.928,0.9999906111601653,130.42854643274785
7.936,0.9999908114059124,130.37444715100864
7.944,0.9999910118781871,130.32033514106544
7.952,0.9999912125604851,130.26621038806107
7.96,0.9999914134364,130.21207287713534
7.968,0.9999916144896256,130.15792259342507
7.976,0.9999918157039545,130.103759522064
7.984,0.9999920170632781,130.04958364818285
7.992,0.9999922185515875,129.9953949569092
8.0,0.9999924201529716,129.94119343336752
8.008,0.9999926218516193,129.8869790626791
8.016,0.9999928236318175,129.83275182996212
8.024000000000001,0.9999930254779535,129.7785117203315
8.032,0.9999932273745118,129.72425871889897
8.04,0.9999934293060765,129.66999281077295
8.048,0.9999936312573303,129.6157139810586
8.056000000000001,0.9999938332130545,129.56142221485786
8.064,0.9999940351581296,129.50711749726918
8.072,0.9999942370775342,129.4527998133878
8.08,0.9999944389563457,129.39846914830542
8.088000000000001,0.9999946407797401,129.34412548711046
8.096,0.9999948425329921,129.28976881488788
8.104,0.9999950442014741,129.23539911671912
8.112,0.9999952457706582,129.18101637768217
8.120000000000001,0.9999954472261133,129.12662058285144
8.128,0.9999956485535082,129.072211717298
8.136,0.999995849738609,129.01778976608907
8.144,0.9999960507672803,128.9633547142884
8.152000000000001,0.9999962516254847,128.90890654695625
8.16,0.9999964522992835,128.85444524914902
8.168,0.9999966527748352,128.7999708059196
8.176,0.999996853038397,128.74548320231705
8.184000000000001,0.999997053076324,128.69098242338683
8.192,0.9999972528750688,128.63646845417063
8.2,0.9999974524211822,128.58194127970626
8.208,0.9999976517013125,128.52740088502784
8.216000000000001,0.9999978507022061,128.47284725516562
8.224,0.9999980494107068,128.41828037514603
8.232,0.9999982478137561,128.3637002299916
8.24,0.9999984458983932,128.3091068047209
8.248000000000001,0.9999986436517543,128.2545000843487
8.256,0.9999988410610733,128.19988005388578
8.264,0.9999990381136818,128.1452466983388
8.272,0.999999234797008,128.09060000271066
8.280000000000001,0.9999994310985781,128.03593995199998
8.288,0.9999996270060144,127.98126653120151
8.296,0.9999998225070376,127.92657972530581
8.304,1.0,127.87187951929943
8.312,1.0,127.81716589816467
8.32,1.0,127.76243884687977
8.328,1.0,127.70769835041878
8.336,1.0,127.65294439375148
8.344,1.0000000000000002,127.59817696184349
8.352,1.0,127.5433960396561
8.36,1.0,127.4886016121464
8.368,1.0,127.43379366426709
8.376,1.0,127.37897218096658
8.384,0.9999999999999999,127.32413714718894
8.392,0.9999999999999999,127.26928854787383
8.4,0.9999999999999998,127.21442636795646
8.408,1.0,127.15955059236774
8.416,1.0,127.10466120603395
8.424,1.0,127.04975819387701
8.432,1.0,126.99484154081429
8.44,1.0,126.93991123175861
8.448,1.0,126.88496725161828
8.456,1.0,126.83000958529695
8.464,0.9999999999999999,126.77503821769375
8.472,0.9999999999999999,126.72005313370315
8.48,1.0,126.6650543182149
8.488,0.9999999999999999,126.61004175611416
8.496,0.9999999999999999,126.5550154322813
8.504,1.0,126.49997533159201
8.512,1.0,126.44492143891725
8.52,0.9999999999999999,126.3898537391231
8.528,1.0,126.33477221707095
8.536,1.0000000000000002,126.27967685761728
8.544,1.0,126.2245676456137
8.552,1.0,126.16944456590707
8.56,1.0,126.11430760333918
8.568,1.0,126.05915674274699
8.576,0.9999999999999999,126.0039919689625
8.584,0.9999999999999999,125.9488132668127
8.592,1.0,125.89362062111961
8.6,1.0,125.8384140167002
8.608,0.9999999999999999,125.78319343836641
8.616,0.9999999999999999,125.7279588709251
8.624,1.0,125.67271029917798
8.632,1.0,125.61744770792176
8.64,1.0,125.56217108194787
8.648,1.0,125.50688040604264
8.656,1.0,125.45157566498719
8.664,1.0,125.39625684355741
8.672,0.9999999999999999,125.340923926524
8.68,1.0,125.2855768986523
8.688,1.0,125.23021574470238
8.696,1.0,125.17484044942913
8.704,1.0,125.11945099758184
8.712,1.0,125.06404737390471
8.72,1.0,125.00862956313635
8.728,1.0,124.9531975500101
8.736,1.0,124.89775131925376
8.744,1.0,124.84229085558971
8.752,1.0,124.78681614373484
8.76,1.0,124.73132716840061
8.768,1.0,124.67582391429279
8.776,1.0,124.62030636611176
8.784,0.9999999999999999,124.56477450855218
8.792,1.0,124.50922832630324
8.8,1.0,124.45366780404844
8.808,1.0,124.39809292646557
8.815999999999999,0.9999999999999999,124.34250367822688
8.824,0.9999999999999999,124.28690004399884
8.832,1.0,124.23128200844218
8.84,1.0,124.17564955621195
8.847999999999999,1.0,124.12000267195744
8.856,1.0,124.06434134032206
8.864,0.9999999999999999,124.00866554594351
8.872,0.9999999999999999,123.95297527345359
8.879999999999999,1.0,123.89727050747828
8.888,0.9999999999999999,123.84155123263766
8.896,0.9999999999999999,123.78581743354587
8.904,1.0,123.7300690948112
8.911999999999999,1.0,123.6743062010359
8.92,1.0,123.61852873681633
8.928,1.0,123.56273668674278
8.936,1.0,123.50693003539958
8.943999999999999,1.0,123.45110876736496
8.952,1.0,123.3952728672111
8.96,0.9999999999999999,123.33942231950411
8.968,0.9999999999999999,123.28355710880399
8.975999999999999,1.0,123.2276772196646
8.984,1.0,123.17178263663358
8.992,0.9999999999999999,123.11587334425252
9.0,0.9999999999999999,123.05994932705667
9.008,1.0,123.00401056957512
9.016,0.9999999999999999,122.94805705633068
9.024000000000001,1.0,122.89208877183997
9.032,0.9999999999999999,122.83610570061323
9.04,1.0,122.78010782715438
9.048,0.9999999999999999,122.72409513596106
9.056000000000001,0.9999999999999999,122.66806761152448
9.064,1.0,122.61202523832957
9.072,1.0,122.55596800085472
9.08,0.9999999999999999,122.499895883572
9.088000000000001,0.9999999999999999,122.44380887094695
9.096,1.0,122.3877069474387
9.104,1.0,122.33159009749986
9.112,0.9999999999999999,122.27545830557648
9.120000000000001,1.0,122.21931155610814
9.128,1.0,122.16314983352778
9.136,0.9999999999999998,122.10697312226188
9.144,1.0,122.05078140673015
9.152000000000001,1.0,121.99457467134577
9.16,1.0,121.9383529005153
9.168,1.0,121.88211607863852
9.176,1.0,121.8258641901086
9.184000000000001,0.9999999999999999,121.769597219312
9.192,1.0,121.71331515062836
9.2,1.0,121.65701796843064
9.208,1.0,121.60070565708494
9.216000000000001,1.0,121.54437820095066
9.224,1.0,121.48803558438027
9.232,1.0,121.43167779171952
9.24,0.9999999999999999,121.3753048073071
9.248000000000001,1.0,121.31891661547499
9.256,0.9999999999999999,121.2625132005482
9.264,1.0,121.20609454684474
9.272,0.9999999999999999,121.14966063867575
9.280000000000001,1.0,121.09321146034539
9.288,1.0,121.03674699615075
9.296,0.9999999999999999,120.98026723038203
9.304,1.0,120.92377214732221
9.312000000000001,0.9999999999999999,120.86726173124735
9.32,0.9999999999999999,120.81073596642639
9.328,1.0,120.75419483712115
9.336,0.9999999999999998,120.69763832758635
9.344,1.0,120.6410664220695
9.352,1.0,120.58447910481107
9.36,1.0,120.52787636004419
9.368,1.0,120.4712581719949
9.376,1.0,120.41462452488196
9.384,1.0,120.35797540291686
9.392,0.9999999999999999,120.30131079030386
9.4,1.0,120.24463067123992
9.408,0.9999999999999999,120.18793502991466
9.416,1.0,120.13122385051035
9.424,1.0,120.07449711720203
9.432,1.0,120.01775481415716
9.44,0.9999999999999999,119.96099692553601
9.448,1.0,119.90422343549128
9.456,1.0000000000000002,119.84743432816832
9.464,0.9999999999999998,119.79062958770498
9.472,1.0,119.73380919823167
9.48,1.0,119.67697314387125
9.488,0.9999999999999999,119.6201214087391
9.496,1.0,119.56325397694307
9.504,1.0,119.50637083258344
9.512,1.0,119.44947195975283
9.52,0.9999999999999999,119.39255734253643
9.528,1.0,119.33562696501166
9.536,1.0,119.27868081124836
9.544,1.0,119.22171886530874
9.552,1.0,119.16474111124724
9.56,0.9999999999999998,119.10774753311068
9.568,1.0000000000000002,119.05073811493817
9.576,1.0,118.99371284076098
9.584,0.9999999999999999,118.93667169460277
9.592,1.0,118.87961466047923
9.6,1.0,118.82254172239848
9.608,1.0,118.76545286436064
9.616,0.9999999999999999,118.70834807035804
9.624,0.9999999999999999,118.65122732437523
9.632,0.9999999999999999,118.59409061038873
9.64,1.0,118.53693791236734
9.648,1.0,118.47976921427177
9.656,1.0,118.42258450005495
9.664,1.0,118.36538375366177
9.672,1.0,118.30816695902917
9.68,0.9999999999999999,118.25093410008606
9.688,1.0,118.19368516075338
9.696,1.0,118.13642012494404
9.704,1.0,118.07913897656286
9.712,1.0,118.02184169950664
9.72,1.0,117.964528277664
9.728,1.0,117.90719869491564
9.736,0.9999999999999999,117.84985293513388
9.744,1.0,117.7924909821831
9.752,1.0,117.73511281991941
9.76,1.0,117.67771843219076
9.768,0.9999999999999999,117.62030780283692
9.776,1.0,117.5628809156894
9.784,1.0,117.5054377545715
9.792,0.9999999999999999,117.44797830329827
9.8,0.9999999999999999,117.39050254567644
9.808,1.0,117.33301046550449
9.816,1.0,117.27550204657251
9.824,1.0,117.21797727266241
9.832,1.0,117.16043612754756
9.84,0.9999999999999999,117.10287859499309
9.847999999999999,1.0,117.0453046587557
9.856,0.9999999999999999,116.98771430258367
9.864,1.0,116.93010751021687
9.872,1.0,116.87248426538679
9.879999999999999,0.9999999999999999,116.81484455181632
9.888,1.0,116.75718835321997
9.896,0.9999999999999999,116.69951565330375
9.904,1.0,116.64182643576517
9.911999999999999,1.0,116.58412068429311
9.92,1.0,116.52639838256796
9.928,1.0,116.46865951426159
9.936,1.0,116.41090406303724
9.943999999999999,0.9999999999999999,116.35313201254951
9.952,1.0,116.29534334644441
