freq,mag,phase
6.0,0.9999984705789262,111.9247315166904
6.008,0.9999982982205332,111.83306196670038
6.016,0.999998128698861,111.74138913896712
6.024,0.9999979620011701,111.64971302978293
6.032,0.9999977981146886,111.55803363543971
6.04,0.9999976370266161,111.4663509522288
6.048,0.9999974787241214,111.37466497644111
6.056,0.9999973231943443,111.28297570436717
6.064,0.9999971704243965,111.19128313229703
6.072,0.9999970204013605,111.09958725652042
6.08,0.9999968731122911,111.00788807332668
6.088,0.9999967285442166,110.91618557900486
6.096,0.9999965866841374,110.82447976984369
6.104,0.9999964475190276,110.73277064213164
6.112,0.9999963110358356,110.6410581921569
6.12,0.9999961772214843,110.54934241620747
6.128,0.9999960460628708,110.45762331057114
6.136,0.9999959175468686,110.36590087153552
6.144,0.9999957916603264,110.2741750953881
6.152,0.9999956683900685,110.18244597841621
6.16,0.9999955477228972,110.09071351690713
6.168,0.9999954296455912,109.99897770714803
6.176,0.9999953141449069,109.90723854542607
6.184,0.999995201207579,109.81549602802836
6.192,0.99999509082032,109.72375015124202
6.2,0.9999949829698221,109.63200091135423
6.208,0.999994877642757,109.5402483046522
6.216,0.9999947748257751,109.44849232742324
6.224,0.9999946745055083,109.35673297595474
6.232,0.9999945766685687,109.26497024653426
6.24,0.9999944813015494,109.17320413544952
6.248,0.9999943883910253,109.08143463898836
6.256,0.9999942979235532,108.98966175343891
6.264,0.9999942098856729,108.89788547508948
6.272,0.9999941242639062,108.80610580022866
6.28,0.9999940410447592,108.71432272514534
6.288,0.999993960214721,108.62253624612869
6.296,0.9999938817602652,108.53074635946821
6.304,0.9999938056678503,108.43895306145382
6.312,0.9999937319239196,108.34715634837573
6.32,0.9999936605149019,108.25535621652467
6.328,0.9999935914272122,108.16355266219172
6.336,0.9999935246472517,108.07174568166845
6.344,0.9999934601614082,107.97993527124692
6.352,0.9999933979560574,107.88812142721967
6.36,0.9999933380175617,107.79630414587984
6.368,0.9999932803322726,107.70448342352108
6.376,0.9999932248865291,107.61265925643764
6.384,0.9999931716666601,107.52083164092436
6.392,0.999993120658983,107.42900057327675
6.4,0.9999930718498059,107.33716604979097
6.408,0.9999930252254262,107.24532806676383
6.416,0.9999929807721322,107.15348662049293
6.424,0.9999929384762036,107.0616417072765
6.432,0.9999928983239114,106.9697933234136
6.44,0.9999928603015182,106.87794146520407
6.448,0.999992824395279,106.78608612894854
6.456,0.999992790591442,106.6942273109485
6.464,0.9999927588762475,106.60236500750626
6.472,0.9999927292359301,106.51049921492503
6.48,0.9999927016567184,106.41862992950895
6.4879999999999995,0.9999926761248351,106.32675714756307
6.496,0.9999926526264975,106.23488086539338
6.504,0.999992631147918,106.14300107930691
6.5120000000000005,0.9999926116753057,106.05111778561165
6.52,0.9999925941948641,105.95923098061664
6.5280000000000005,0.9999925786927942,105.86734066063194
6.536,0.9999925651552931,105.77544682196876
6.5440000000000005,0.9999925535685555,105.68354946093937
6.552,0.9999925439187739,105.59164857385716
6.5600000000000005,0.9999925361921378,105.49974415703669
6.568,0.9999925303748367,105.40783620679373
6.5760000000000005,0.9999925264530576,105.31592471944518
6.584,0.9999925244129872,105.22400969130925
6.592,0.9999925242408118,105.13209111870535
6.6,0.999992525922717,105.04016899795417
6.608,0.9999925294448903,104.94824332537772
6.616,0.9999925347935187,104.85631409729932
6.624,0.9999925419547908,104.76438131004367
6.632,0.9999925509148964,104.67244495993681
6.64,0.9999925616600283,104.58050504330619
6.648,0.9999925741763803,104.48856155648068
6.656,0.9999925884501496,104.39661449579062
6.664,0.9999926044675368,104.30466385756776
6.672,0.9999926222147454,104.21270963814543
6.68,0.9999926416779834,104.12075183385844
6.688,0.9999926628434624,104.02879044104311
6.696,0.9999926856973992,103.9368254560374
6.704,0.9999927102260154,103.8448568751808
6.712,0.9999927364155381,103.75288469481445
6.72,0.9999927642522003,103.66090891128113
6.728,0.9999927937222406,103.56892952092528
6.736,0.999992824811905,103.47694652009302
6.744,0.9999928575074462,103.3849599051322
6.752,0.9999928917951236,103.2929696723924
6.76,0.9999929276612045,103.20097581822498
6.768,0.9999929650919652,103.10897833898302
6.776,0.999993004073689,103.01697723102151
6.784,0.999993044592669,102.92497249069721
6.792,0.999993086635207,102.83296411436874
6.8,0.9999931301876147,102.7409520983966
6.808,0.9999931752362133,102.64893643914324
6.816,0.9999932217673342,102.55691713297298
6.824,0.9999932697673198,102.46489417625214
6.832,0.9999933192225232,102.37286756534903
6.84,0.9999933701193092,102.28083729663388
6.848,0.9999934224440539,102.18880336647901
6.856,0.9999934761831455,102.09676577125882
6.864,0.9999935313229852,102.00472450734969
6.872,0.9999935878499862,101.91267957113018
6.88,0.9999936457505751,101.82063095898096
6.888,0.9999937050111923,101.72857866728476
6.896,0.9999937656182915,101.63652269242662
6.904,0.9999938275583413,101.54446303079364
6.912,0.9999938908178242,101.45239967877524
6.92,0.9999939553832383,101.36033263276299
6.928,0.9999940212410957,101.26826188915079
6.936,0.9999940883779259,101.17618744433481
6.944,0.9999941567802726,101.08410929471353
6.952,0.9999942264346967,100.99202743668775
6.96,0.9999942973277758,100.89994186666063
6.968,0.9999943694461044,100.80785258103775
6.976,0.9999944427762935,100.71575957622706
6.984,0.9999945173049727,100.62366284863893
6.992,0.9999945930187893,100.53156239468623
7.0,0.9999946699044093,100.43945821078427
7.008,0.9999947479485166,100.34735029335087
7.016,0.9999948271378146,100.25523863880636
7.024,0.9999949074590259,100.16312324357365
7.032,0.9999949888988929,100.07100410407818
7.04,0.9999950714441777,99.97888121674804
7.048,0.9999951550816631,99.88675457801388
7.056,0.9999952397981526,99.79462418430901
7.064,0.9999953255804698,99.70249003206943
7.072,0.999995412415461,99.61035211773381
7.08,0.9999955002899931,99.51821043774352
7.088,0.9999955891909549,99.42606498854269
7.096,0.9999956791052588,99.3339157665782
7.104,0.9999957700198379,99.24176276829968
7.112,0.9999958619216499,99.14960599015961
7.12,0.9999959547976747,99.0574454286133
7.128,0.9999960486349159,98.96528108011888
7.136,0.9999961434204017,98.87311294113738
7.144,0.9999962391411831,98.7809410081327
7.152,0.9999963357843374,98.68876527757169
7.16,0.9999964333369653,98.59658574592417
7.168,0.9999965317861931,98.50440240966287
7.176,0.9999966311191727,98.41221526526351
7.184,0.9999967313230809,98.32002430920492
7.192,0.9999968323851223,98.22782953796886
7.2,0.9999969342925263,98.1356309480402
7.208,0.9999970370325489,98.04342853590691
7.216,0.9999971405924744,97.95122229806002
7.224,0.9999972449596126,97.85901223099374
7.232,0.9999973501213033,97.76679833120541
7.24,0.9999974560649111,97.67458059519555
7.248,0.9999975627778316,97.5823590194679
7.256,0.9999976702474868,97.49013360052938
7.264,0.9999977784613285,97.39790433489019
7.272,0.9999978874068373,97.30567121906383
7.28,0.9999979970715229,97.21343424956699
7.288,0.9999981074429256,97.12119342291982
7.296,0.999998218508614,97.02894873564568
7.304,0.9999983302561883,96.9367001842714
7.312,0.9999984426732785,96.84444776532709
7.32,0.9999985557475458,96.75219147534634
7.328,0.9999986694666817,96.65993131086616
7.336,0.9999987838184101,96.56766726842699
7.344,0.9999988987904856,96.47539934457279
7.352,0.9999990143706955,96.38312753585097
7.36,0.9999991305468584,96.2908518388125
7.368,0.9999992473068259,96.19857225001189
7.376,0.9999993646384825,96.10628876600721
7.384,0.999999482529746,96.01400138336012
7.392,0.9999996009685658,95.92171009863591
7.4,0.9999997199429268,95.8294149084035
7.4079999999999995,0.9999998394408466,95.73711580923549
7.416,0.9999999594503776,95.64481279770808
7.4239999999999995,0.9999999999999999,95.55250587040132
7.432,1.0,95.46019502389883
7.4399999999999995,1.0,95.36788025478816
7.448,1.0,95.27556155966046
7.4559999999999995,1.0,95.18323893511078
7.464,1.0,95.09091237773798
7.4719999999999995,0.9999999999999999,94.99858188414473
7.48,1.0,94.90624745093758
7.4879999999999995,1.0,94.81390907472702
7.496,0.9999999999999999,94.72156675212733
7.504,0.9999999999999999,94.6292204797569
7.5120000000000005,1.0,94.5368702542379
7.52,0.9999999999999999,94.44451607219659
7.5280000000000005,1.0,94.35215793026317
7.536,1.0,94.25979582507196
7.5440000000000005,0.9999999999999999,94.16742975326119
7.552,0.9999999999999999,94.07505971147329
7.5600000000000005,1.0,93.9826856963547
7.568,1.0,93.89030770455601
7.5760000000000005,0.9999999999999999,93.79792573273193
7.584,1.0,93.70553977754138
7.5920000000000005,0.9999999999999999,93.61314983564738
7.6,0.9999999999999999,93.52075590371723
7.6080000000000005,1.0,93.4283579784224
7.616,1.0,93.33595605643872
7.6240000000000006,0.9999999999999999,93.24355013444611
7.632,1.0,93.15114020912898
7.640000000000001,0.9999999999999998,93.05872627717592
7.648,1.0,92.96630833527996
7.656000000000001,1.0,92.87388638013842
7.664,1.0,92.78146040845303
7.672,1.0,92.68903041692994
7.68,1.0,92.59659640227972
7.688,0.9999999999999999,92.50415836121739
7.696,1.0,92.41171629046248
7.704,1.0,92.31927018673899
7.712,1.0,92.22682004677543
7.72,1.0,92.13436586730488
7.728,1.0,92.04190764506497
7.736,1.0,91.94944537679794
7.744,0.9999999999999999,91.85697905925059
7.752,0.9999999999999999,91.7645086891744
7.76,0.9999999999999999,91.67203426332554
7.768,1.0,91.57955577846475
7.776,1.0,91.48707323135757
7.784,1.0,91.39458661877421
7.792,0.9999999999999999,91.30209593748964
7.8,1.0,91.2096011842836
7.808,1.0,91.11710235594062
7.816,1.0,91.02459944925003
7.824,0.9999999999999998,90.93209246100602
7.832,0.9999999999999999,90.83958138800762
7.84,0.9999999999999999,90.74706622705872
7.848,1.0,90.65454697496816
7.856,0.9999999999999999,90.56202362854964
7.864,1.0,90.46949618462186
7.872,0.9999999999999999,90.37696464000847
7.88,1.0,90.2844289915381
7.888,0.9999999999999999,90.1918892360444
7.896,0.9999999999999999,90.09934537036608
7.904,0.9999999999999999,90.00679739134684
7.912,0.9999999999999999,89.91424529583554
7.92,1.0,89.82168908068607
7.928,0.9999999999999999,89.7291287427575
7.936,1.0,89.63656427891401
7.944,1.0,89.54399568602497
7.952,1.0,89.4514229609649
7.96,1.0,89.3588461006136
7.968,0.9999999999999999,89.26626510185605
7.976,0.9999999999999999,89.1736799615825
7.984,0.9999999999999999,89.08109067668848
7.992,1.0,88.98849724407481
8.0,1.0,88.89589966064767
8.008,1.0,88.80329792331854
8.016,1.0,88.71069202900428
8.024000000000001,0.9999999999999998,88.61808197462715
8.032,1.0,88.52546775711484
8.04,1.0,88.43284937340043
8.048,1.0,88.34022682042246
8.056000000000001,1.0,88.24760009512495
8.064,1.0,88.1549691944575
8.072,1.0,88.0623341153751
8.08,0.9999999999999999,87.96969485483832
8.088000000000001,1.0,87.87705140981339
8.096,0.9999999999999999,87.78440377727205
8.104,1.0,87.69175195419163
8.112,0.9999999999999999,87.59909593755509
8.120000000000001,1.0,87.50643572435112
8.128,1.0,87.41377131157404
8.136,1.0,87.32110269622386
8.144,0.9999999999999999,87.22842987530629
8.152000000000001,1.0,87.1357528458328
8.16,1.0,87.04307160482068
8.168,1.0,86.95038614929292
8.176,1.0,86.85769647627833
8.184000000000001,0.9999999999999999,86.76500258281162
8.192,1.0,86.67230446593328
8.2,1.0,86.57960212268969
8.208,1.0,86.48689555013313
8.216000000000001,1.0,86.3941847453218
8.224,1.0,86.30146970531985
8.232,0.9999999999999999,86.20875042719736
8.24,1.0,86.1160269080304
8.248000000000001,1.0,86.02329914490107
8.256,1.0,85.93056713489749
8.264,0.9999999999999999,85.83783087511381
8.272,1.0,85.74509036265023
8.280000000000001,1.0,85.6523455946131
8.288,0.9999999999999999,85.55959656811487
8.296,1.0,85.46684328027408
8.304,1.0,85.37408572821545
8.312,1.0,85.28132390906994
8.32,1.0,85.18855781997459
8.328,0.9999999999999999,85.0957874580728
8.336,1.0,85.0030128205141
8.344,0.9999999999999998,84.91023390445434
8.352,1.0,84.81745070705567
8.36,0.9999999999999999,84.72466322548654
8.368,1.0,84.63187145692169
8.376,1.0,84.5390753985423
8.384,1.0,84.4462750475358
8.392,0.9999999999999999,84.35347040109619
8.4,1.0,84.2606614564237
8.408,1.0,84.16784821072518
8.416,1.0000000000000002,84.0750306612138
8.424,1.0000000000000002,83.9822088051093
8.432,1.0000000000000002,83.88938263963786
8.44,0.9999999999999999,83.79655216203228
8.448,1.0,83.70371736953183
8.456,1.0,83.6108782593824
8.464,0.9999999999999999,83.51803482883642
8.472,1.0,83.42518707515302
8.48,0.9999999999999999,83.33233499559788
8.488,1.0,83.23947858744339
8.496,0.9999999999999999,83.14661784796857
8.504,0.9999999999999999,83.05375277445926
8.512,1.0,82.96088336420786
8.52,1.0,82.86800961451365
8.528,0.9999999999999999,82.77513152268263
8.536,0.9999999999999999,82.68224908602757
8.544,0.9999999999999999,82.58936230186806
8.552,0.9999999999999999,82.49647116753056
8.56,1.0,82.40357568034834
8.568,1.0,82.31067583766158
8.576,1.0,82.21777163681732
8.584,1.0,82.12486307516957
8.592,0.9999999999999999,82.03195015007921
8.6,1.0,81.93903285891419
8.608,1.0,81.8461111990493
8.616,1.0,81.75318516786652
8.624,1.0,81.66025476275466
8.632,0.9999999999999999,81.56731998110976
8.64,0.9999999999999999,81.47438082033479
8.648,1.0,81.38143727783991
8.656,0.9999999999999999,81.28848935104233
8.664,1.0,81.19553703736645
8.672,0.9999999999999999,81.10258033424378
8.68,1.0,81.00961923911309
8.688,1.0,80.91665374942022
8.696,1.0,80.82368386261838
8.704,1.0,80.73070957616791
8.712,1.0,80.63773088753649
8.72,0.9999999999999998,80.54474779419905
8.728,1.0,80.45176029363788
8.736,1.0,80.3587683833425
8.744,0.9999999999999999,80.2657720608099
8.752,0.9999999999999999,80.17277132354437
8.76,0.9999999999999999,80.07976616905765
8.768,0.9999999999999998,79.98675659486885
8.776,1.0,79.89374259850453
8.784,0.9999999999999999,79.80072417749876
8.792,0.9999999999999999,79.70770132939305
8.8,1.0,79.6146740517364
8.808,1.0,79.52164234208539
8.815999999999999,1.0,79.42860619800413
8.824,0.9999999999999999,79.33556561706423
8.832,0.9999999999999999,79.24252059684501
8.84,0.9999999999999999,79.14947113493336
8.847999999999999,1.0,79.05641722892375
8.856,1.0,78.96335887641838
8.864,1.0,78.87029607502706
8.872,0.9999999999999999,78.77722882236742
8.879999999999999,1.0,78.68415711606468
8.888,1.0,78.59108095375184
8.896,0.9999999999999999,78.49800033306971
8.904,1.0,78.40491525166689
8.911999999999999,1.0,78.31182570719973
8.92,1.0,78.21873169733243
8.928,1.0,78.12563321973707
8.936,1.0,78.0325302720936
8.943999999999999,1.0,77.93942285208985
8.952,1.0000000000000002,77.84631095742154
8.96,1.0,77.75319458579239
8.968,0.9999999999999999,77.66007373491408
8.975999999999999,0.9999999999999999,77.5669484025062
8.984,0.9999999999999999,77.47381858629639
8.992,1.0,77.38068428402033
9.0,1.0,77.28754549342175
9.008,1.0,77.19440221225241
9.016,0.9999999999999999,77.10125443827219
9.024000000000001,0.9999999999999999,77.00810216924907
9.032,0.9999999999999999,76.91494540295919
9.04,1.0,76.82178413718681
9.048,0.9999999999999998,76.72861836972439
9.056000000000001,0.9999999999999999,76.63544809837258
9.064,1.0,76.54227332094028
9.072,0.9999999999999999,76.44909403524458
9.08,1.0,76.35591023911088
9.088000000000001,1.0,76.26272193037283
9.096,0.9999999999999999,76.16952910687247
9.104,0.9999999999999999,76.07633176646006
9.112,0.9999999999999999,75.98312990699424
9.120000000000001,0.9999999999999999,75.88992352634207
9.128,0.9999999999999999,75.79671262237902
9.136,1.0,75.70349719298886
9.144,1.0,75.61027723606392
9.152000000000001,0.9999999999999999,75.51705274950494
9.16,1.0,75.42382373122115
9.168,1.0,75.3305901791303
9.176,1.0,75.2373520911586
9.184000000000001,0.9999999999999999,75.14410946524085
9.192,1.0,75.05086229932049
9.2,1.0,74.95761059134945
9.208,1.0,74.86435433928827
9.216000000000001,1.0,74.7710935411062
9.224,0.9999999999999999,74.67782819478111
9.232,0.9999999999999999,74.58455829829956
9.24,1.0,74.49128384965674
9.248000000000001,1.0,74.39800484685665
9.256,1.0,74.30472128791202
9.264,1.0,74.2114331708443
9.272,0.9999999999999999,74.11814049368377
9.280000000000001,1.0,74.02484325446946
9.288,1.0,73.93154145124934
9.296,0.9999999999999999,73.83823508208012
9.304,0.9999999999999999,73.74492414502744
9.312000000000001,0.9999999999999999,73.6516086381658
9.32,1.0,73.55828855957868
9.328,0.9999999999999998,73.4649639073585
9.336,1.0,73.3716346796065
9.344,1.0,73.27830087443309
9.352,1.0,73.18496248995757
9.36,1.0,73.09161952430831
9.368,1.0,72.99827197562273
9.376,1.0,72.90491984204732
9.384,0.9999999999999999,72.8115631217376
9.392,1.0,72.71820181285835
9.4,1.0,72.62483591358333
9.408,1.0,72.53146542209555
9.416,1.0,72.43809033658718
9.424,1.0,72.34471065525958
9.432,1.0,72.25132637632333
9.44,0.9999999999999999,72.15793749799832
9.448,0.9999999999999999,72.06454401851362
9.456,1.0,71.97114593610763
9.464,1.0,71.87774324902807
9.472,1.0,71.78433595553201
9.48,0.9999999999999999,71.69092405388584
9.488,0.9999999999999999,71.59750754236534
9.496,1.0,71.50408641925567
9.504,1.0,71.41066068285149
9.512,1.0,71.3172303314568
9.52,1.0,71.22379536338515
9.528,1.0,71.13035577695953
9.536,1.0,71.0369115705125
9.544,1.0,70.94346274238605
9.552,1.0,70.85000929093184
9.56,0.9999999999999998,70.75655121451099
9.568,0.9999999999999999,70.66308851149438
9.576,0.9999999999999999,70.56962118026232
9.584,1.0,70.47614921920493
9.592,1.0,70.38267262672187
9.6,0.9999999999999999,70.2891914012226
9.608,1.0,70.19570554112617
9.616,1.0,70.1022150448615
9.624,1.0,70.00871991086711
9.632,1.0,69.91522013759146
9.64,1.0,69.82171572349267
9.648,1.0,69.72820666703878
9.656,1.0,69.6346929667076
9.664,0.9999999999999999,69.54117462098688
9.672,0.9999999999999999,69.44765162837416
9.68,0.9999999999999999,69.35412398737702
9.688,1.0,69.26059169651286
9.696,0.9999999999999999,69.1670547543091
9.704,0.9999999999999999,69.07351315930309
9.712,1.0,68.97996691004225
9.72,0.9999999999999999,68.88641600508394
9.728,0.9999999999999999,68.79286044299565
9.736,1.0,68.69930022235485
9.744,1.0,68.6057353417492
9.752,1.0,68.51216579977635
9.76,0.9999999999999999,68.4185915950442
9.768,1.0,68.32501272617075
9.776,0.9999999999999999,68.23142919178423
9.784,0.9999999999999998,68.13784099052296
9.792,1.0,68.04424812103565
9.8,1.0,67.9506505819811
9.808,0.9999999999999999,67.85704837202852
9.816,1.0,67.76344148985726
9.824,0.9999999999999999,67.66982993415715
9.832,1.0,67.57621370362826
9.84,1.0,67.48259279698107
9.847999999999999,1.0,67.38896721293636
9.856,0.9999999999999999,67.29533695022542
9.864,1.0,67.20170200758994
9.872,1.0,67.10806238378207
9.879999999999999,1.0,67.01441807756439
9.888,1.0,66.92076908770999
9.896,0.9999999999999998,66.82711541300255
9.904,1.0,66.73345705223623
9.911999999999999,1.0,66.63979400421582
9.92,1.0000000000000002,66.54612626775659
9.928,1.0,66.45245384168454
9.936,1.0,66.3587767248363
9.943999999999999,1.0,66.2650949160591
9.952,1.0,66.17140841421084
9.96,0.9999999999999999,66.07771721816023
9.968,1.0,65.98402132678665
9.975999999999999,0.9999999999999999,65.89032073898022
9.984,1.0,65.79661545364186
9.992,1.0,65.70290546968329
10.0,1.0,65.6091907860271
10.008,1.0,65.51547140160665
10.016,1.0,65.42174731536619
10.024000000000001,1.0,65.32801852626089
10.032,1.0,65.2342850332569
10.04,1.0,65.14054683533122
10.048,0.9999999999999999,65.0468039314718
10.056000000000001,1.0,64.95305632067769
10.064,0.9999999999999999,64.85930400195889
10.072,1.0,64.76554697433644
10.08,1.0,64.67178523684244
10.088000000000001,0.9999999999999999,64.57801878852011
10.096,1.0,64.4842476284238
10.104,1.0,64.39047175561892
10.112,0.9999999999999999,64.29669116918207
10.120000000000001,0.9999999999999998,64.20290586820107
10.128,0.9999999999999999,64.10911585177497
10.136,1.0,64.01532111901399
10.144,1.0,63.921521669039606
10.152000000000001,0.9999999999999999,63.82771750098464
10.16,1.0,63.73390861399322
10.168,1.0000000000000002,63.64009500722076
10.176,0.9999999999999999,63.54627667983403
10.184000000000001,0.9999999999999999,63.45245363101125
