freq,mag,phase
6.0,0.9994209934669731,-46.627906432311775
6.008072704,0.9995278491922938,-46.953785618504035
6.016145408,0.9996608305253744,-47.28134423258276
6.024218112,0.9998131122111726,-47.61094096793152
6.032290816,0.9999761115814952,-47.942743449411815
6.04036352,1.0001412843056987,-48.27685112079383
6.048435712,1.0002994980519972,-48.61322021981788
6.056508416,1.0004422600285676,-48.95173014423294
6.06458112,1.0005621167829573,-49.29206937151297
6.072653824,1.0006522076876312,-49.63390981861665
6.080726528,1.0007076810813722,-49.976871996995555
6.088799232,1.0007259186098783,-50.32041828801419
6.096871936,1.0007053725277435,-50.66405868154857
6.10494464,1.000647479529438,-51.00724737870763
6.113017344,1.0005550955494735,-51.34954734640546
6.121090048,1.0004334753296902,-51.69053874578302
6.12916224,1.0002886460990568,-52.029862655962766
6.137234944,1.0001285984359167,-52.36722324573379
6.145307648,0.9999622234144236,-52.70249531374702
6.153380352,0.99979799828962,-53.03568797618393
6.161453056,0.9996452429511012,-53.36684282235281
6.16952576,0.9995118010352018,-53.696163213328525
6.177598464,0.9994052447627731,-54.023974959888015
6.185671168,0.9993312410488675,-54.35068664867168
6.193743872,0.9992937924838465,-54.6767590590407
6.201816576,0.999295005263558,-55.002651638526224
6.209888768,0.999334950427003,-55.328903184828775
6.217961472,0.9994113359641901,-55.656075153825206
6.226034176,0.9995199527536851,-55.98455379084959
6.23410688,0.9996554645576898,-56.31476758319578
6.242179584,0.9998103548506128,-56.647021853932124
6.250252288,0.9999759571879929,-56.9815066786228
6.258324992,1.0001439046703404,-57.31836678243812
6.266397696,1.000304636026256,-57.657547036733966
6.2744704,1.0004497539890282,-57.99882676034912
6.282543104,1.0005714004910071,-58.342023727127874
6.290615296,1.0006629838763101,-58.686742420324734
6.298688,1.0007195526849846,-59.03252412307095
6.306760704,1.000737861392991,-59.37895448333325
6.314833408,1.0007170392666376,-59.72548832050782
6.322906112,1.0006582320679367,-60.071555825981406
6.330978816,1.0005642802836723,-60.41674879021167
6.33905152,1.0004402332355427,-60.76057092700771
6.347124224,1.0002929574425943,-61.10266065252016
6.355196928,1.000130344938959,-61.442786135051
6.363269632,0.9999611093832067,-61.78080799363132
6.371341824,0.9997940352048581,-62.11668462765954
6.379414528,0.9996386678406578,-62.4504836314501
6.387487232,0.9995029460201256,-62.782449490099346
6.395559936,0.9993944684358467,-63.112851025541296
6.40363264,0.9993191881400378,-63.44214108380093
6.411705344,0.9992810973829989,-63.77074400877509
6.419778048,0.9992822695491806,-64.09920102139739
6.427850752,0.9993227541350032,-64.42802675960606
6.435923456,0.9994004215905523,-64.75772195162337
6.44399616,0.9995110646812942,-65.08880434329362
6.452068864,0.9996486940040861,-65.4216449588765
6.460141056,0.9998061791417059,-65.75653844417486
6.46821376,0.9999747445168697,-66.09374009927497
6.476286464,1.0001455496145932,-66.43329286172683
6.484359168,1.0003092159065534,-66.77519734907744
6.492431872,1.0004569979163358,-67.11927708771147
6.500504576,1.0005809181632965,-67.46527935905753
6.50857728,1.0006742457244469,-67.81284568101997
6.516649984,1.0007317780368028,-68.16154325895079
6.524722688,1.0007506798812453,-68.5108362310328
6.532795392,1.0007296762021456,-68.86021103132258
6.540867584,1.0006698979010242,-69.20919143787576
6.548940288,1.0005744569399078,-69.55719702613575
6.557012992,1.0004484941453264,-69.90384132826641
6.565085696,1.0002986114930248,-70.24877277818787
6.5731584,1.0001332579816467,-70.59168483443626
6.581231104,0.9999608672661834,-70.93243796454506
6.589303808,0.9997908896144964,-71.27097532187824
6.597376512,0.9996325859323589,-71.60740717387894
6.605449216,0.9994943854409434,-71.94196371371346
6.61352192,0.9993838079591404,-72.27495466946914
6.621594112,0.9993068567148906,-72.60677547299822
6.629666816,0.9992677295900492,-72.93790224861057
6.63773952,0.9992685897494904,-73.26886340999599
6.645812224,0.9993095457976691,-73.60022796530606
6.653884928,0.9993882940137414,-73.93246214348864
6.661957632,0.9995006017109236,-74.26608939635382
6.670030336,0.999640650928383,-74.60146113613705
6.67810304,0.999800896725423,-74.93898166058108
6.686175744,0.9999724600600001,-75.27881654370614
6.694248448,1.0001464170387186,-75.6210333740485
6.70232064,1.0003131023630434,-75.96565104834053
6.710393344,1.0004637847537705,-76.31248593686114
6.718466048,1.0005901516633118,-76.66130739821351
6.726538752,1.0006854798511815,-77.01169102972166
6.734611456,1.0007446024715245,-77.36316818714317
6.74268416,1.0007641133943685,-77.71535429283732
6.750756864,1.0007431349561358,-78.06758361776936
6.758829568,1.0006825572151714,-78.41939726019271
6.766902272,1.0005858167428145,-78.77025925089374
6.774974976,1.0004579254997668,-79.11973872319285
6.78304768,1.0003056304621043,-79.46740118976558
6.791119872,1.0001370443961457,-79.81307819165224
6.799192576,0.9999616218785637,-80.15650115413317
6.80726528,0.9997883966127867,-80.49769999013328
6.815337984,0.9996269539551592,-80.83675818838203
6.823410688,0.9994858826931661,-81.1738827939453
6.831483392,0.9993728278128349,-81.5094114307333
6.839556096,0.9992939271986594,-81.84372950714734
6.8476288,0.9992536889817342,-82.1773346503226
6.855701504,0.9992540935747399,-82.510758151049
6.863774208,0.9992952186583163,-82.84459376845733
6.8718464,0.99937486382257,-83.17926488003434
6.879919104,0.9994890405746457,-83.51537344610534
6.887991808,0.9996313502062472,-83.85328572531384
6.896064512,0.9997942444163619,-84.19333785599846
6.904137216,0.9999689972270314,-84.53573803535639
6.91220992,1.0001462628733786,-84.88059013050717
6.920282624,1.0003162624621271,-85.22785133658111
6.928355328,1.0004701280373651,-85.57738502027918
6.936428032,1.0005994795861526,-85.92891941488372
6.944500736,1.000696993331402,-86.28205705833669
6.952572928,1.0007577767400804,-86.6363746087428
6.960645632,1.000778409331089,-86.99133713943935
6.968718336,1.0007576724795524,-87.34642033112844
6.97679104,1.00069661139056,-87.70102260827207
6.984863744,1.0005986002048863,-88.05468200936596
6.992936448,1.0004686045317919,-88.40690628011906
7.001009152,1.0003136957339807,-88.75735118865839
7.009081856,1.0001422092645391,-89.10570987207387
7.01715456,0.9999633339676355,-89.45181849420554
7.025227264,0.9997867177496496,-89.79561816673011
7.033299456,0.9996216955755572,-90.13723183369731
7.04137216,0.9994774308782074,-90.47685371212928
7.049444864,0.9993616141986543,-90.81487285136171
7.057517568,0.9992806533081842,-91.15161721301045
7.065590272,0.9992387085426541,-91.48766249458085
7.073662976,0.9992383871421697,-91.82346018776542
7.08173568,0.9992795114144027,-92.1596486147845
7.089808384,0.9993600536287949,-92.49674728448555
7.097881088,0.9994758515803175,-92.83524527231697
7.105953792,0.9996204883922722,-93.17555710962387
7.114025984,0.9997862947863428,-93.51804966012809
7.122098688,0.9999643776068128,-93.86293733374681
7.130171392,1.0001451704299613,-94.2103106397792
7.138244096,1.0003188359062856,-94.56017459158986
7.1463168,1.0004760862504702,-94.91235105368578
7.154389504,1.0006084648065174,-95.26653097622514
7.162462208,1.0007088902978027,-95.62239005777776
7.170534912,1.0007715774980508,-95.97941937684946
7.178607616,1.0007936035097709,-96.33713551945155
7.18668032,1.0007732291244191,-96.69495417416768
7.194753024,1.0007119554125352,-97.05230417038976
7.202825216,1.0006125420452523,-97.40872508292424
7.21089792,1.0004806909032096,-97.76363620914252
7.218970624,1.0003230801928207,-98.1167995744086
7.227043328,1.0001485205362812,-98.46778607105794
7.235116032,0.9999660952821493,-98.81647927631852
7.243188736,0.9997857078086327,-99.1628226409714
7.25126144,0.9996170312112065,-99.50694303080128
7.259334144,0.9994693201027428,-99.84901647493743
7.267406848,0.9993504163339674,-100.18938731347153
7.275479552,0.9992667006496009,-100.52850974677145
7.283551744,0.9992230113547412,-100.86685454260011
7.291624448,0.9992215972124534,-101.20495766941451
7.299697152,0.9992626354037876,-101.54344079551623
7.307769856,0.9993438934300789,-101.88281068796528
7.31584256,0.9994612893329392,-102.2235946547486
7.323915264,0.9996082108370459,-102.56624405265488
7.331987968,0.9997769722434806,-102.9110692292417
7.340060672,0.9999585466393062,-103.25832855149906
7.348133376,1.000142971847042,-103.60817409370708
7.35620608,1.000320528527297,-103.96048571421561
7.364278272,1.0004816217806103,-104.31515433843389
7.372350976,1.0006174649079516,-104.6719482014867
7.38042368,1.000720902219559,-105.0303865783381
7.388496384,1.0007860477314785,-105.39008994454488
7.396569088,1.0008095019058698,-105.7504359399258
7.404641792,1.0007899382480212,-106.1109303736255
7.412714496,1.0007284211980165,-106.47097458993073
7.4207872,1.000628018336654,-106.83003401617044
7.428859904,1.0004941434032886,-107.18762156524808
7.436932608,1.0003340231716704,-107.54334984721268
7.4450048,1.0001560457219998,-107.89689070023071
7.453077504,0.9999698747681303,-108.24810650584796
7.461150208,0.9997854673044163,-108.59693761212912
7.469222912,0.9996128199871234,-108.9434151828511
7.477295616,0.9994611319298554,-109.287867500541
7.48536832,0.9993388654943747,-109.63055002172706
7.493441024,0.9992523748127157,-109.97189646018536
7.501513728,0.999206459759105,-110.31243625587827
7.509586432,0.9992038179832836,-110.65273532775406
7.517659136,0.9992443891760182,-110.99335592869969
7.52573184,0.9993263134159845,-111.33488936376713
7.533804032,0.9994450232261707,-111.67781645467736
7.541876736,0.9995943155903119,-112.0226630498936
7.54994944,0.9997661070790036,-112.36972299930193
7.558022144,0.999951273833903,-112.71925539801407
7.566094848,1.0001398171673277,-113.07136343519669
7.574167552,1.000321553803999,-113.42606461442176
7.582240256,1.0004868187597062,-113.78314379606884
7.59031296,1.0006264838160248,-114.14234711590316
7.598385664,1.000733202030548,-114.50331045840849
7.606458368,1.0008011446128091,-114.86552389559236
7.61453056,1.0008264744677051,-115.22846082533435
7.622603264,1.000807967732158,-115.59149982968782
7.630675968,1.0007463335368956,-115.95412667139676
7.638748672,1.0006450184963882,-116.31576260502791
7.646821376,1.0005092443794477,-116.67590410377657
7.65489408,1.0003463226612035,-117.03414210097726
7.662966784,1.0001648737108775,-117.39016945957823
7.671039488,0.9999748320573401,-117.74373593598001
7.679112192,0.9997861662158994,-118.09493985743566
7.687184896,0.9996091471016874,-118.44373458309296
7.695257088,0.9994533434656587,-118.7903844142212
7.703329792,0.9993271464339366,-119.13522462721056
7.711402496,0.9992373629198487,-119.47868800651578
7.7194752,0.9991890023020458,-119.8213361496645
7.727547904,0.9991846530067002,-120.16365833830817
7.735620608,0.9992247174201089,-120.50629064757246
7.743693312,0.999306958852555,-120.84984867897758
7.751766016,0.999427105270169,-121.19477898351664
7.75983872,0.9995788144998771,-121.54166155250792
7.767911424,0.9997538620570922,-121.89079083507154
7.775983616,0.9999428100629774,-122.24242046534127
7.78405632,1.000135645658008,-122.5967171851422
7.792129024,1.0003218655854513,-122.95361088013476
7.800201728,1.0004915482016496,-123.31296311936619
7.808274432,1.000635460133849,-123.67448689622888
7.816347136,1.0007459669902932,-124.03780586560828
7.82441984,1.0008169103397533,-124.40244583125587
7.832492544,1.0008445079721267,-124.76778543818219
7.840565248,1.0008271714633352,-125.13332239658345
7.848637952,1.0007658918290043,-125.49838337786711
7.856710144,1.0006636227566523,-125.86245620450521
7.864782848,1.0005259944167684,-126.22504968968722
7.872855552,1.0003602332149784,-126.5856669730736
7.880928256,1.0001752517886042,-126.94400794048087
7.88900096,0.9999809605902527,-127.29994541182612
7.897073664,0.9997877624725237,-127.65333890619686
7.905146368,0.9996060490187061,-128.0043078999367
7.913219072,0.9994456650183908,-128.35302339889842
7.921291776,0.9993152708600459,-128.6999018917595
7.92936448,0.9992218913313179,-129.0453223806547
7.937437184,0.999170661040231,-129.38986601381902
7.945509376,0.9991643942646075,-129.73410055324587
7.95358208,0.9992035788456938,-130.07858436464952
7.961654784,0.9992861858106553,-130.42397377712254
7.969727488,0.9994076316214933,-130.77077011976212
7.977800192,0.9995617427818095,-131.1195124001251
7.985872896,0.9997399824421749,-131.47053774868812
7.9939456,0.9999329849006355,-131.82412183432226
8.002018304,1.0001303232133314,-132.18041727601963
8.010091008,1.000321424622985,-132.53932554848856
8.018163712,1.000495902674052,-132.90081283280858
8.026235904,1.0006444789963482,-133.26450095753205
8.034308608,1.0007590176215873,-133.63002098794954
8.042381312,1.0008334416980031,-133.9969033807922
8.050454016,1.0008635907354033,-134.36455471630748
8.05852672,1.0008478093657913,-134.73239396969646
8.066599424,1.0007868658700034,-135.09981363887115
8.074672128,1.0006838995388363,-135.46621099250464
8.082744832,1.0005443148953652,-135.83104849060555
8.090817536,1.0003757328077185,-136.1939532001417
8.09889024,1.0001869858758379,-136.5545259569669
8.106962432,0.999988201353747,-136.91256845520536
8.115035136,0.9997900814419806,-137.26803226816344
8.12310784,0.999603388547708,-137.6210052118763
8.131180544,0.9994380261379656,-137.97168312248687
8.139253248,0.999302940441031,-138.3204230684712
8.147325952,0.9992055630661983,-138.6676217645752
8.155398656,0.9991510993097316,-139.0139127316863
8.16347136,0.9991427484410111,-139.35982803426765
8.171544064,0.999180797020672,-139.70600222160877
8.179616768,0.99926342825224,-140.0530351713053
8.18768896,0.999386265064245,-140.40153694098737
8.195761664,0.9995427189192339,-140.751940865574
8.203834368,0.999724424833576,-141.10467696510233
8.211907072,0.9999216346271764,-141.46000988866933
8.219979776,1.000123853263195,-141.81810499202845
8.22805248,1.0003200994312362,-142.17888430961105
8.236125184,1.0004998307738222,-142.54228538525223
8.244197888,1.0006534563233713,-142.9079618649291
8.252270592,1.0007725665268004,-143.27557151000613
8.260343296,1.000850737444091,-143.64453265223628
8.268415488,1.0008837619330413,-144.01433954245405
8.276488192,1.0008698251774972,-144.38429485182573
8.284560896,1.0008094216204484,-144.75389867908075
8.2926336,1.0007057929235392,-145.12244083954172
8.300706304,1.0005644793968957,-145.48946266805106
8.308779008,1.0003928446783443,-145.85445204450772
8.316851712,1.000200226234376,-146.21707654982347
8.324924416,0.9999968118651381,-146.57711298384652
8.33299712,0.999793569923266,-146.9345142989796
8.341069824,0.9996013576343294,-147.2892948511595
8.349142528,0.9994305871311004,-147.6417560911847
8.35721472,0.9992904667206688,-147.9921527243255
8.365287424,0.9991886610664827,-148.34098501060475
8.373360128,0.9991307179826056,-148.6888050629263
8.381432832,0.9991198104540981,-149.03623467492864
8.389505536,0.9991565817005359,-149.38388742438048
8.39757824,0.9992391420337837,-149.73237302302903
8.405650944,0.9993631794713085,-150.08229746787936
8.413723648,0.9995220657606718,-150.43418039257432
8.421796352,0.9997073355330232,-150.78840566528646
8.429869056,0.9999089693596784,-151.14530837215872
8.437941248,1.0001163497195937,-151.50498122067546
8.446013952,1.0003181367005414,-151.86747791515285
8.454086656,1.0005035733894005,-152.2325675904978
8.46215936,1.0006625561555362,-152.60007189660064
8.470232064,1.0007867081570079,-152.96950573819527
8.478304768,1.0008691502204556,-153.34040699405372
8.486377472,1.0009053995977222,-153.71216843789043
8.494450176,1.0008934658327953,-154.08415187899962
8.50252288,1.000833833501393,-154.455737941066
8.510595584,1.0007297951970948,-154.82629754770036
8.518667776,1.0005865599126038,-155.1952717331424
8.52674048,1.0004119005325371,-155.56217404268406
8.534813184,1.0002150886448755,-155.92668617160174
8.542885888,1.000006785424014,-156.2885381115394
8.550958592,0.9997979404544064,-156.64765628368355
8.559031296,0.999599938435098,-157.00413264475347
8.567104,0.9994233596033383,-157.35815911783476
8.575176704,0.9992778150488424,-157.71003341328475
8.583249408,0.9991711033755071,-158.06029865627147
8.591322112,0.9991091697913488,-158.40946533942193
8.599394304,0.9990953506892419,-158.7581613695969
8.60746752,0.9991305942694897,-159.10706503074564
8.615539712,0.9992130344405077,-159.4567642655081
8.623612928,0.9993382229156257,-159.8079458923663
8.63168512,0.999499662761147,-160.161052161372
8.639757312,0.9996885725432164,-160.51655797488317
8.647830528,0.9998949889494646,-160.87479602127087
8.65590272,1.0001077268399137,-161.23586816157896
8.663975936,1.0003154488437944,-161.59977728364737
8.672048128,1.000506908381597,-161.96643010324166
8.680121344,1.0006718982765694,-162.33551252681428
8.688193536,1.000801332031853,-162.70660986367213
8.696266752,1.0008884131792413,-163.07924233454466
8.704338944,1.000928336332659,-163.4527780011263
8.71241216,1.0009188069176143,-163.8265774268132
8.720484352,1.000860154295952,-164.19995138900458
8.728556544,1.0007556208724795,-164.57235865105858
8.73662976,1.0006105596641792,-164.9431159754744
8.744701952,1.0004327484657105,-165.3117930252391
8.752775168,1.0002316563531712,-165.67799133312877
8.76084736,1.000017997628069,-166.04147783622082
8.768920576,0.9998032943824982,-166.40214991021082
8.776992768,0.9995990155626007,-166.7600540520547
8.785065984,0.9994161301594373,-167.11544338172814
8.793138176,0.9992646342011071,-167.46859995174708
8.801211392,0.9991527228522001,-167.82006145814267
8.809283584,0.9990864076187126,-168.17033378798115
8.817355776,0.9990694190433348,-168.52010676098826
8.825428992,0.9991029277504556,-168.8700317303952
8.833501184,0.9991849089757201,-169.22072885321174
8.8415744,0.9993112520431315,-169.57287662039417
8.849646592,0.9994752388218373,-169.92702328352726
8.857719808,0.9996680639375456,-170.2835567489431
8.865792,0.999879390731537,-170.6428636122089
8.873865216,1.000097952803566,-171.00507061763034
8.881937408,1.0003120615167749,-171.37023318373085
8.8900096,1.0005101208223375,-171.7381878122066
8.898082816,1.0006813713787466,-172.10866452610003
8.906155008,1.0008167476857026,-172.4812237643633
8.914228224,1.0009089925200623,-172.85537314685757
8.922300416,1.0009527234885394,-173.23045596023996
8.930373632,1.0009459219547296,-173.60584675555106
8.938445824,1.000888491439074,-173.9808885040534
8.94651904,1.0007835806642627,-174.35490884768012
8.954591232,1.0006366436206209,-174.72727190855514
8.962664448,1.0004555250008527,-175.09753267781244
8.97073664,1.0002499743202662,-175.46521731860412
8.978808832,1.000030700675823,-175.8301323393154
8.986882048,0.9998095897998482,-176.1921622196709
8.99495424,0.9995985564045252,-176.55132656464644
9.003027456,0.9994090335401317,-176.9078364067633
9.011099648,0.9992510909776678,-177.26206546166503
9.019172864,0.9991333445191031,-177.61447318021968
9.027245056,0.9990623761586214,-177.96565693942037
9.035318272,0.9990418560826072,-178.3162363461471
9.043390464,0.9990732573304321,-178.6668916455826
9.05146368,0.9991547554035177,-179.01837117047066
9.059535872,0.999282265961669,-179.37125876927198
9.067608064,0.9994488103987544,-179.72611706607148
9.07568128,0.9996457578928146,179.9165148563581
9.083753472,0.9998623637516324,179.55636422686362
9.091826688,1.0000871584676672,179.19323961919457
9.09989888,1.0003080555463844,178.82709662879157
9.107972096,1.0005130783595275,178.4580840673387
9.116044288,1.0006913083834874,178.08646038704325
9.124117504,1.000833092559496,177.712626440762
9.132189696,1.0009306800585973,177.33718949565716
9.140261888,1.0009789329217715,176.96070858871715
9.148335104,1.000974889581314,176.5839097082427
9.156407296,1.0009189686727094,176.2074414700979
9.164480512,1.0008137277629672,175.8319986656097
9.172552704,1.000664930618413,175.45822916883432
9.18062592,1.0004802931280448,175.08659987117082
9.188698112,1.0002698799444731,174.71759278506298
9.196771328,1.0000446638281826,174.35146758864445
9.20484352,0.999816900646144,173.98829371136395
9.212916736,0.9995986602892666,173.6281170228296
9.220988928,0.9994017808191044,173.27066966180712
