freq,mag,phase
6.0,0.9994937391251494,-22.843704837186596
6.014953472,0.9993945503185684,-23.36525108304345
6.029906432,0.9993222369067791,-23.885893639109987
6.044859904,0.9992793529636902,-24.406079091231806
6.059812864,0.9992681409842427,-24.926036357228597
6.074766336,0.999288974962647,-25.446286830059808
6.089719808,0.9993411273774148,-25.96706418348453
6.104672768,0.9994223711643956,-26.48879599864538
6.11962624,0.9995292353811172,-27.01187078439413
6.1345792,0.9996570457252579,-27.536568135115274
6.149532672,0.9998003311980808,-28.062977514193783
6.164486144,0.9999530758869661,-28.591379020947873
6.179439104,1.0001083447981667,-29.12181203041579
6.194392576,1.0002595149737952,-29.65424966696021
6.209346048,1.000400017919607,-30.18861270679134
6.224299008,1.0005237739956057,-30.724729317713386
6.23925248,1.0006253081521257,-31.262378874738385
6.25420544,1.000699955836556,-31.80133952975232
6.269158912,1.000744707000321,-32.34112475399894
6.284112384,1.0007573340983857,-32.88146189644176
6.299065344,1.0007374179956359,-33.42195463921019
6.314018816,1.0006855248383495,-33.9621877623457
6.328971776,1.0006039693730804,-34.50180097879371
6.343925248,1.0004959969024974,-35.04051425036422
6.35887872,1.0003666954439774,-35.57798120521065
6.37383168,1.0002212311193983,-36.11392734984667
6.388785152,1.000066023496762,-36.64829804026853
6.403738112,0.999907780772839,-37.180953500230665
6.418691584,0.9997533292053763,-37.711944862254356
6.433645056,0.9996094327284442,-38.24126836143897
6.448598016,0.9994825416521349,-38.76917782190316
6.463551488,0.9993781069496578,-39.29582598923429
6.478504448,0.9993006201942015,-39.82159556416867
6.49345792,0.9992536057119505,-40.34679304523295
6.508411392,0.999239312377527,-40.8717498340465
6.523364352,0.9992583174412915,-41.396938053203044
6.538317824,0.9993098141983835,-41.92274568553124
6.553270784,0.999391952149213,-42.44950090802241
6.568224256,0.9995008966092531,-42.97755550505505
6.583177728,0.9996321638807857,-43.50727053467491
6.598130688,0.9997799739494166,-44.038802702354275
6.61308416,0.9999378464070213,-44.57239608119267
6.628037632,1.0000992045395105,-45.10804362141549
6.642990592,1.000257025647701,-45.64584784824879
6.657944064,1.000404081530085,-46.185638032715836
6.672897024,1.000534442473775,-46.72730389058877
6.687850496,1.0006419469636683,-47.27059267581934
6.702803968,1.0007223322697174,-47.81518085409986
6.717756928,1.0007714154244973,-48.36077133466445
6.7327104,1.0007875893320146,-48.906940508330514
6.74766336,1.0007697880322077,-49.45330162223366
6.762616832,1.0007187394113395,-49.99944576405103
6.777570304,1.0006365802886985,-50.54502092927832
6.792523264,1.0005266435077396,-51.08961034010567
6.807476736,1.000393798331561,-51.632942414910445
6.822429696,1.0002437576966337,-52.1747850475154
6.837383168,1.0000828480155197,-52.714991483565875
6.85233664,0.9999183919460339,-53.253400841075965
6.8672896,0.999756908466838,-53.79003949039762
6.882243072,0.9996059951667169,-54.3250385403599
6.897196032,0.9994719115872789,-54.85846729268037
6.912149504,0.9993609148333149,-55.3906074732422
6.927102976,0.9992774399269676,-55.921781084616036
6.942055936,0.999225358581594,-56.45231171292435
6.957009408,0.9992072366321733,-56.98259216094488
6.971962368,0.9992238172224465,-57.51305085711048
6.98691584,0.9992742785456902,-58.04408442646982
7.001869312,0.999356947275927,-58.57612397991314
7.016822272,0.9994678415855448,-59.1094870944198
7.031775744,0.9996025311584013,-59.64454490069194
7.046729216,0.9997550531328517,-60.18149949687443
7.061682176,0.9999190583436277,-60.72054347970694
7.076635648,1.0000871463183816,-61.2617803967289
7.091588608,1.000252264292955,-61.80520750278958
7.10654208,1.000407014272665,-62.35075119124447
7.121495552,1.0005447163692418,-62.89829167295978
7.136448512,1.0006595616615896,-63.44750849933907
7.151401984,1.000746190676003,-63.998156207013324
7.166354944,1.0008010549845137,-64.54986592459261
7.181308416,1.0008214657078873,-65.10224386165063
7.196261888,1.0008065857657011,-65.65485554147202
7.211214848,1.000756741602537,-66.20728767933139
7.22616832,1.0006742729955898,-66.75916303035189
7.24112128,1.000562578735457,-67.31009223232746
7.256074752,1.0004262375376403,-67.85971578438341
7.271028224,1.000271333771254,-68.40783377703467
7.285981184,1.0001041994651072,-68.95420059410604
7.300934656,0.9999324270896197,-69.4987834484483
7.315887616,0.9997633193234495,-70.0414921135573
7.330841088,0.9996042079769435,-70.58242973169901
7.34579456,0.9994620142687053,-71.12177268240042
7.36074752,0.9993430771837708,-71.65969359524274
7.375700992,0.9992525521388173,-72.19660508674433
7.390653952,0.9991945736464409,-72.73279023256384
7.405607424,0.9991716771555612,-73.26865079476697
7.420560896,0.9991847876706991,-73.80467242676315
7.435513856,0.999233685327519,-74.34125982076735
7.450467328,0.9993163485133303,-74.8788264973905
7.4654208,0.9994291575260519,-75.41775689138547
7.48037376,0.9995673046279081,-75.95841014260031
7.495327232,0.9997250135001857,-76.50100752571325
7.510280192,0.9998953212335734,-77.04579808707409
7.525233664,1.0000709924538507,-77.5928610203848
7.540187136,1.0002442879073266,-78.14222981574653
7.555140096,1.000407650466823,-78.69384139734909
7.570093568,1.0005542794629096,-79.24748235350556
7.585046528,1.000677457142068,-79.8029583788788
7.6,1.0007718375607788,-80.36000859884899
7.614953472,1.000833313008925,-80.91817490430876
7.629906432,1.000858983997576,-81.47713422745493
7.644859904,1.000847893081167,-82.03634038942552
7.659812864,1.000800134595017,-82.59548363190083
7.674766336,1.0007178103674998,-83.15404061961101
7.689719808,1.0006042936466517,-83.71164984433204
7.704672768,1.0004644184828877,-84.26797697607351
7.71962624,1.000304240746671,-84.82272743765134
7.7345792,1.000130597031452,-85.37568672842448
7.749532672,0.9999509756075764,-85.92673780100046
7.764486144,0.9997729935066009,-86.47587332932187
7.779439104,0.9996047549931503,-87.02310727871712
7.794392576,0.9994530549645287,-87.56867770079428
7.809346048,0.9993250611585852,-88.11274285610381
7.824299008,0.9992262405598504,-88.65563660832032
7.83925248,0.9991608948617827,-89.19776359576353
7.85420544,0.9991318743950804,-89.73948823074863
7.869158912,0.9991408629190297,-90.2813308889255
7.884112384,0.9991873041752322,-90.82368341379457
7.899065344,0.9992695087901168,-91.36700208539436
7.914018816,0.9993838257954748,-91.91172888089382
7.928971776,0.9995255756402489,-92.4582034680445
7.943925248,0.9996886271553223,-93.00668951641535
7.95887872,0.9998659440899949,-93.55744778511183
7.97383168,1.000049891735901,-94.11055944186091
7.988785152,1.0002325402875227,-94.66608312551118
8.003738112,1.0004058059319847,-95.22397314130967
8.018691584,1.000562417775325,-95.78407174273215
8.033645056,1.0006954342915273,-96.34612818682314
8.048598016,1.0007987705961696,-96.90983354299247
8.063551488,1.000868271821587,-97.4747876830775
8.078504448,1.0009006324897354,-98.0406032339511
8.09345792,1.0008942947067874,-98.60680736246375
8.108411392,1.0008493519773718,-99.17293713679466
8.123364352,1.0007677014592264,-99.73858296000323
8.138317824,1.000652842020294,-100.30324753751474
8.153270784,1.0005095352326558,-100.86662348347443
8.168224256,1.0003438416281016,-101.42834524145239
8.183177728,1.0001629015143574,-101.98826646917641
8.198130688,0.9999744941912133,-102.5461518183501
8.21308416,0.9997867604482334,-103.10204523374506
8.228037632,0.9996079091956274,-103.65595398399232
8.242990592,0.9994455493121501,-104.20802279708246
8.257944064,0.9993069954021123,-104.75849499654262
8.272897024,0.9991981360552983,-105.30771679705131
8.287850496,0.9991239426679883,-105.85601301202435
8.302803968,0.9990877311205988,-106.40386332353813
8.317756928,0.9990912867288254,-106.95170614270468
8.3327104,0.9991343356473033,-107.5000345177084
8.34766336,0.9992154679236828,-108.0493353165441
8.362616832,0.9993310374948916,-108.60003446262768
8.377570304,0.9994763290522451,-109.15246478126745
8.392523264,0.9996449677993581,-109.7070105290321
8.407476736,0.9998298198675039,-110.26391024810057
8.422429696,1.000022957919555,-110.82328307865255
8.437383168,1.000216009493242,-111.38520748810795
8.45233664,1.0004005860548166,-111.94960714897373
8.4672896,1.0005686785447665,-112.51637912489069
8.482243072,1.0007130024650468,-113.08522607885067
8.497196032,1.0008272647876804,-113.65587423750553
8.512149504,1.0009062872568968,-114.22789342432131
8.527102976,1.0009465413421632,-114.80091622453837
8.542055936,1.0009462683237098,-115.3743947053984
8.557009408,1.0009053439510986,-115.9478710637895
8.571962368,1.0008251953007705,-116.52090043538547
8.58691584,1.0007093917553174,-117.09300580191037
8.601869312,1.0005626589128482,-117.66375014460257
8.616822784,1.0003912509448658,-118.23286182570209
8.631775232,1.0002023751184241,-118.80002671674606
8.646728704,1.000004384551051,-119.36514456399348
8.661682176,0.9998055459734743,-119.92809485867042
8.676635648,0.9996147193606465,-120.4889656752766
8.69158912,0.9994400107980315,-121.04783991521904
8.706541568,0.9992891902509066,-121.60497968406463
8.72149504,0.9991686607651596,-122.1607190117037
8.736448512,0.9990840146423893,-122.7154357322366
8.751401984,0.9990389960769738,-123.26959054517204
8.766355456,0.9990355395221213,-123.82365559535017
8.781307904,0.9990741996693757,-124.37813653386547
8.796261376,0.9991533041388729,-124.93352836995899
8.811214848,0.9992695633069312,-125.49033032874273
8.82616832,0.9994182052951952,-126.04890998401679
8.841121792,0.9995927927458977,-126.60965141132966
8.856075264,0.9997858318287548,-127.17283569806149
8.871027712,0.9999891368070334,-127.73861133779918
8.885981184,1.0001938535656836,-128.30705126107486
8.900934656,1.0003911878580374,-128.87815770963115
8.915888128,1.000572544076443,-129.45176423004725
8.9308416,1.0007300925283389,-130.02764329850487
8.945794048,1.0008569051704754,-130.60544940864227
8.96074752,1.0009474239760696,-131.18483229354467
8.975700992,1.0009974955569871,-131.76529745099418
8.990654464,1.00100490416688,-132.34636525749465
9.005607936,1.0009691244497032,-132.92749893394026
9.020560384,1.0008915705986197,-133.5082658957802
9.035513856,1.000775374670264,-134.0880921536661
9.050467328,1.0006254413644966,-134.6665824932029
9.0654208,1.0004480536902878,-135.2433965497938
9.080374272,1.0002508317044403,-135.81819619973598
9.09532672,1.000042175471367,-136.39079436319847
9.110280192,0.9998310231999068,-136.9611461615428
9.125233664,0.9996265582802223,-137.52923249311823
9.140187136,0.9994376644338862,-138.09520890398568
9.155140608,0.9992725371862851,-138.6592561821293
9.170093056,0.999138381176533,-139.22175124021894
9.185046528,0.9990412371164669,-139.78306087144233
9.2,0.9989853973623116,-140.34368200775936
9.214953472,0.9989735220118973,-140.90410592345003
9.229906944,0.9990061560268326,-141.46487976277692
9.244859392,0.9990821550237754,-142.02649072972548
9.259812864,0.9991984493235799,-142.58949208697678
9.274766336,0.999350195896992,-143.15430788169115
9.289719808,0.999530779000583,-143.72132797848064
9.30467328,0.9997326459340035,-144.29090297720518
9.319625728,0.9999470965706143,-144.86317756015356
9.3345792,1.0001649126625198,-145.43826767997547
9.349532672,1.0003767926604095,-146.0162105610969
9.364486144,1.0005733918540767,-146.59680638102714
9.379439616,1.0007462885191152,-147.17985366235803
9.394392064,1.0008879396910852,-147.7650406079206
9.409345536,1.000992004150397,-148.35197385971833
9.424299008,1.0010539329652053,-148.94017011193154
9.43925248,1.0010708333395422,-149.5290884349717
9.454205952,1.0010418643795667,-150.11820263243985
9.4691584,1.0009679670888596,-150.70696000628993
9.484111872,1.000852212521234,-151.29485701338086
9.499065344,1.0006993950001222,-151.88142996151382
9.514018816,1.0005159552258045,-152.4662399927037
9.528972288,1.0003096089919503,-153.04898817032176
9.543924736,1.0000892638658399,-153.62945190766473
9.558878208,0.9998642565316976,-154.20747897070498
9.57383168,0.9996444411684141,-154.7830886268025
9.588785152,0.9994390932809266,-155.35637340318436
9.603738624,0.9992573803713607,-155.9275841977688
9.618692096,0.9991071511462488,-156.49703561871712
9.633644544,0.9989951252578683,-157.06512804218818
9.648598016,0.9989261762441396,-157.63235451984087
9.663551488,0.9989036715937993,-158.19924220068438
9.67850496,0.9989286545875428,-158.76635992104121
9.693458432,0.999000297517586,-159.3342718974434
9.70841088,0.999115656588966,-159.90352186719653
9.723364352,0.9992699803463091,-160.47462794519276
9.738317824,0.9994567066784749,-161.047969367158
9.753271296,0.999668116430901,-161.62396190867042
9.768224768,0.9998948378259004,-162.202786547384
9.783177216,1.0001274023269981,-162.7846106731912
9.798130688,1.0003555618464706,-163.36942966711806
9.81308416,1.0005698434890864,-163.95714791157081
9.828037632,1.0007605729230322,-164.5475293323627
9.842991104,1.0009196229161037,-165.1402834589842
9.857943552,1.0010398547679005,-165.73496472198727
9.872897024,1.0011162449527022,-166.33110128739997
9.887850496,1.001144825673128,-166.92812382128844
9.902803968,1.0011245678509486,-167.52548107027906
9.91775744,1.0010559324235182,-168.12259607931134
9.932709888,1.0009415786132259,-168.7188770436792
9.94766336,1.0007863578462854,-169.31383664956653
9.962616832,1.0005968185030074,-169.9070032791582
9.977570304,1.000380770965073,-170.49800960684513
9.992523776,1.000147524303692,-171.08660604442971
10.007476224,0.9999069865111528,-171.67262950487662
10.022429696,0.9996695492883841,-172.25603713249998
10.037383168,0.9994454309651036,-172.83693006175446
10.05233664,0.9992444531672428,-173.41549553179647
10.067290112,0.999075257628053,-173.99208997024468
10.08224256,0.9989454517111007,-174.5671053952904
10.097196032,0.9988608082397014,-175.14105406131185
10.112149504,0.9988250592349357,-175.71449683515044
10.127102976,0.998840325275279,-176.28802852105224
10.142056448,0.9989057927450473,-176.86226524415116
10.157008896,0.9990190371798269,-177.4377917202494
10.171962368,0.9991753956529071,-178.01517535204573
10.18691584,0.9993684184132042,-178.59486065879108
10.201869312,0.9995896840821757,-179.17723993426867
10.216822784,0.9998300627565827,-179.7626524420431
10.231775232,1.0000791094619803,179.64877982531826
10.246728704,1.0003260958417957,179.057004483916
10.261682176,1.0005604458220627,178.46209678181137
10.276635648,1.0007719711831542,177.86425098711788
10.29158912,1.0009516202643598,177.26381029916777
10.306541568,1.0010911729615262,176.66118678364748
10.32149504,1.0011847518416348,176.05688447836437
10.336448512,1.00122797725466,175.45148469736156
10.351401984,1.0012187754565156,174.84558032302633
10.366355456,1.0011573191366248,174.239840922222
10.381307904,1.0010457926119118,173.63482581572106
10.396261376,1.0008889443459212,173.03111769648154
10.411214848,1.0006932187114808,172.42923141972878
10.42616832,1.0004668149095703,171.82960039562585
10.441121792,1.000219365591899,171.23250928215586
10.456075264,0.9999613642160583,170.63818082918746
10.471027712,0.9997040137371584,170.04667263940644
10.485981184,0.9994581524128234,169.45794232962774
10.500934656,0.9992346111406297,168.8717540711378
10.515888128,0.9990431921578445,168.28782609909192
10.5308416,0.9988921147145657,167.7057295706032
10.545794048,0.9987883197503419,167.12493391774845
10.56074752,0.998736508486657,166.54485062277675
10.575700992,0.9987391272092416,165.96485705003312
10.590654464,0.998796378216481,165.38428128092593
10.605607936,0.9989059926003182,164.80246631660177
10.620560384,0.9990636346957723,164.21886690113257
10.635513856,0.9992627553045904,163.63288268805744
10.650467328,0.999494826945755,163.0440858996326
10.6654208,0.9997500137916816,162.45213282438857
10.680374272,1.0000175872455672,161.85682596481098
10.69532672,1.0002860007675491,161.25803169888493
10.710280192,1.0005436274888273,160.6558651254256
10.725233664,1.0007795606291339,160.05045456123307
10.740187136,1.000983292944102,159.44216305874312
10.755140608,1.001145973834601,158.83139723861794
10.770093056,1.0012605404917194,158.21869585519562
10.785046528,1.0013216316023228,157.60462991039986
10.8,1.0013263935953876,156.9898774676638
10.814953472,1.0012743394651635,156.37510867499014
10.829906944,1.0011674554535357,155.7609726051742
10.844859392,1.001009957414784,155.14811409902995
10.859812864,1.000808365146031,154.53710225018244
10.874766336,1.0005710321447026,153.92842490291596
10.889719808,1.0003079543612161,153.3224353229453
10.90467328,1.00003031173416,152.71940138263875
10.919625728,0.9997500341013325,152.119427535859
10.9345792,0.9994790489261162,151.52249638855488
10.949532672,0.9992292443701605,150.92843577480753
10.964486144,0.9990113355982392,150.33692331803647
10.979439616,0.9988349491424411,149.7475495823854
10.994392064,0.9987080951914761,149.1597733638979
11.009345536,0.998636291594107,148.57295149947555
11.024299008,0.9986232046552035,147.98642324082223
11.03925248,0.9986693864379025,147.39947360852602
11.054205952,0.9987734311700038,146.81140211342827
11.0691584,0.998931203209467,146.22158196874037
11.084111872,0.9991360295848417,145.62933317750367
11.099065344,0.9993794981858126,145.0341572882673
11.114018816,0.99965121662039,144.435660932832
11.128972288,0.9999397548565588,143.833571488441
11.143924736,1.0002325997692163,143.22776163634265
11.158878208,1.0005173031208394,142.6182156821405
11.17383168,1.0007817372310794,142.0051235238716
11.188785152,1.0010142481805215,141.38876197516285
11.203738624,1.0012045230085467,140.7696115576352
11.218692096,1.0013444876335555,140.1481780249975
11.233644544,1.0014276546376961,139.5251090280342
11.248598016,1.001450209045251,138.90106680396508
11.263551488,1.0014107813294957,138.27683246108234
11.27850496,1.0013106887536136,137.653084524811
11.293458432,1.0011537829851014,137.03055402377075
11.30841088,1.0009466264511129,136.4098668114159
11.323364352,1.0006976388666777,135.79159005267448
11.338317824,1.0004172875814379,135.17617360749318
11.353271296,1.0001174593565774,134.56391304357243
11.368224768,0.9998108483871697,133.9549967749084
11.383177216,0.9995106853633495,133.34944005398347
11.398130688,0.9992298117701585,132.74709335633403
11.41308416,0.9989806123059162,132.1476665662789
11.428037632,0.998773774990853,131.55071491577897
11.442991104,0.9986187857896945,130.95569770081582
11.457943552,0.9985222844909174,130.36197818592072
11.472897024,0.9984891361833401,129.76881254868678
11.487850496,0.9985209161913,129.175419889781
11.502803968,0.9986168780776237,128.58106085806767
11.51775744,0.9987731278527472,127.98494434899027
11.532709888,0.998983300352578,127.3864054803313
11.54766336,0.9992387335518119,126.78485097478813
11.562616832,0.999528728864047,126.17978859528166
11.577570304,0.999840989296919,125.57085690637012
11.592523776,1.0001621116684238,124.95788193488467
11.607476224,1.0004786138833903,124.34081678770296
11.622429696,1.0007765702837863,123.71979431905369
11.637383168,1.0010432785100731,123.09511263403779
11.65233664,1.0012670175989917,122.46718806607802
11.667290112,1.0014380122856568,121.83657529531827
11.68224256,1.0015485029106275,121.20396196379555
11.697196032,1.0015934498825159,120.57006380907718
11.712149504,1.00157050973857,119.93570465567929
11.727102976,1.0014801093271015,119.3016853492072
11.742056448,1.0013257907345676,118.66874307672843
11.757008896,1.0011136805953835,118.03763683796713
11.771962368,1.0008524824389071,117.40902417281208
11.78691584,1.000552942822637,116.78341248247568
11.801869312,1.0002278868644772,116.16119807958962
11.816822784,0.9998908340864224,115.54263470463779
11.831775232,0.9995563704674468,114.92777324312735
11.846728704,0.9992388325406836,114.31652838775189
11.861682176,0.9989519470801888,113.70862832012169
11.876635648,0.9987083132914979,113.10364793046317
11.89158912,0.9985187264914305,112.50100585687686
11.906541568,0.998391681348132,111.90004894570333
11.92149504,0.998333126799105,111.29996013882393
11.936448512,0.9983459976824184,110.69989747980252
11.951401984,0.9984303884242897,110.09904720995732
