freq,mag,phase
6.0,0.9999962071529337,85.09943087050421
6.008,0.9999968198137714,84.9589165348023
6.016,0.9999974070759918,84.8183529107862
6.024,0.9999979694004473,84.67773997523246
6.032,0.9999985072451217,84.53707770505935
6.04,0.999999021065113,84.39636607732821
6.048,0.9999995113126159,84.25560506924461
6.056,0.9999999784369038,84.11479465815951
6.064,1.0,83.97393482157062
6.072,1.0,83.83302553712353
6.08,1.0,83.69206678261308
6.088,1.0,83.55105853598465
6.096,0.9999999999999999,83.41000077533536
6.104,1.0,83.26889347891557
6.112,1.0,83.12773662513003
6.12,1.0,82.98653019253936
6.128,1.0,82.84527415986142
6.136,0.9999999999999999,82.70396850597267
6.144,1.0,82.56261320990951
6.152,1.0,82.42120825086995
6.16,1.0,82.27975360821476
6.168,1.0,82.13824926146918
6.176,1.0,81.99669519032423
6.184,0.9999999999999999,81.85509137463838
6.192,1.0,81.71343779443896
6.2,0.9999999999999999,81.57173442992375
6.208,1.0,81.42998126146259
6.216,0.9999999999999999,81.28817826959889
6.224,0.9999999999999999,81.1463254350513
6.232,0.9999999999999999,81.00442273871538
6.24,1.0,80.86247016166519
6.248,1.0,80.72046768515496
6.256,0.9999999999999999,80.57841529062087
6.264,1.0,80.43631295968271
6.272,0.9999999999999999,80.29416067414569
6.28,1.0,80.1519584160021
6.288,1.0,80.00970616743327
6.296,0.9999999999999999,79.86740391081123
6.304,1.0,79.72505162870068
6.312,0.9999999999999999,79.58264930386075
6.32,0.9999999999999998,79.44019691924697
6.328,1.0,79.29769445801318
6.336,1.0,79.15514190351347
6.344,1.0,79.01253923930409
6.352,1.0,78.86988644914553
6.36,1.0,78.72718351700446
6.368,0.9999999999999999,78.58443042705588
6.376,1.0,78.44162716368508
6.384,0.9999999999999999,78.29877371148982
6.392,0.9999999999999999,78.15587005528239
6.4,1.0,78.01291618009184
6.408,1.0,77.86991207116604
6.416,1.0,77.72685771397404
6.424,0.9999999999999999,77.58375309420818
6.432,1.0,77.44059819778634
6.44,1.0,77.29739301085438
6.448,1.0,77.15413751978825
6.456,1.0000000000000002,77.01083171119645
6.464,0.9999999999999998,76.86747557192241
6.472,1.0,76.7240690890468
6.48,1.0,76.58061224989001
6.4879999999999995,0.9999999999999999,76.43710504201461
6.496,1.0,76.29354745322773
6.504,0.9999999999999999,76.14993947158378
6.5120000000000005,0.9999999999999999,76.00628108538665
6.52,0.9999999999999999,75.86257228319262
6.5280000000000005,0.9999999999999999,75.71881305381261
6.536,1.0,75.57500338631516
6.5440000000000005,1.0,75.43114327002866
6.552,1.0,75.28723269454434
6.5600000000000005,0.9999999999999998,75.14327164971881
6.568,0.9999999081772974,74.99926012567683
6.5760000000000005,0.9999996812110978,74.8551981128139
6.584,0.9999994534050233,74.71108560179933
6.592,0.9999992249719972,74.5669225835787
6.6,0.9999989961209035,74.42270904937693
6.608,0.9999987670565792,74.27844499070099
6.616,0.9999985379798063,74.1341303993428
6.624,0.9999983090873052,73.9897652673821
6.632,0.9999980805717292,73.84534958718942
6.64,0.9999978526216563,73.70088335142896
6.648,0.9999976254215874,73.55636655306155
6.656,0.9999973991519387,73.41179918534773
6.664,0.9999971739890404,73.26718124185058
6.672,0.9999969501051306,73.1225127164389
6.68,0.9999967276683555,72.97779360329018
6.688,0.9999965068427656,72.8330238968937
6.696,0.9999962877883148,72.68820359205357
6.704,0.9999960706608605,72.54333268389188
6.712,0.9999958556121629,72.39841116785179
6.72,0.9999956427898856,72.25343903970074
6.728,0.9999954323375992,72.10841629553347
6.736,0.999995224394781,71.96334293177539
6.744,0.9999950190968199,71.8182189451855
6.752,0.9999948165750192,71.67304433285992
6.76,0.9999946169566024,71.5278190922348
6.768,0.9999944203647179,71.38254322108973
6.776,0.9999942269184454,71.237216717551
6.784,0.9999940367328034,71.09183958009469
6.792,0.9999938499187571,70.94641180755012
6.8,0.9999936665832261,70.80093339910297
6.808,0.999993486829097,70.65540435429871
6.816,0.9999933107552306,70.50982467304571
6.824,0.9999931384564754,70.36419435561875
6.832,0.99999297002368,70.2185134026621
6.84,0.9999928055437053,70.07278181519297
6.848,0.9999926450994401,69.9269995946048
6.856,0.9999924887698151,69.7811667426705
6.864,0.9999923366298196,69.63528326154584
6.872,0.9999921887505187,69.48934915377272
6.88,0.9999920451990706,69.34336442228248
6.888,0.9999919060387468,69.1973290703992
6.896,0.9999917713289505,69.05124310184304
6.904,0.9999916411252391,68.90510652073345
6.912,0.9999915154793455,68.75891933159258
6.92,0.9999913944392005,68.61268153934846
6.928,0.9999912780489578,68.46639314933832
6.936,0.9999911663490177,68.32005416731181
6.944,0.9999910593760548,68.17366459943433
6.952,0.9999909571630431,68.02722445229016
6.96,0.9999908597392851,67.88073373288577
6.968,0.9999907671304405,67.73419244865296
6.976,0.9999906793585567,67.5876006074521
6.984,0.9999905964420989,67.44095821757523
6.992,0.999990518395983,67.29426528774927
7.0,0.9999904452316086,67.14752182713913
7.008,0.9999903769568925,67.00072784535077
7.016,0.9999903135763052,66.85388335243432
7.024,0.9999902550909051,66.70698835888709
7.032,0.9999902014983776,66.5600428756566
7.04,0.999990152793072,66.41304691414364
7.048,0.999990108966042,66.2660004862051
7.056,0.9999900700050844,66.11890360415698
7.064,0.999990035894781,65.97175628077724
7.072,0.9999900066165412,65.82455852930872
7.08,0.9999899821486447,65.67731036346184
7.088,0.9999899624662859,65.53001179741752
7.096,0.9999899475416185,65.38266284582976
7.104,0.9999899373438024,65.23526352382848
7.112,0.9999899318390499,65.08781384702206
7.12,0.9999899309906747,64.94031383150003
7.128,0.9999899347591392,64.79276349383554
7.136,0.999989943102106,64.64516285108793
7.144,0.9999899559744876,64.49751192080515
7.152,0.9999899733284975,64.3498107210262
7.16,0.999989995113704,64.20205927028351
7.168,0.9999900212770829,64.05425758760512
7.176,0.9999900517630703,63.90640569251705
7.184,0.99999008651362,63.758503605045426
7.192,0.9999901254682568,63.61055134571861
7.2,0.9999901685641343,63.46254893556929
7.208,0.9999902157360914,63.31449639613644
7.216,0.9999902669167113,63.166393749467304
7.224,0.9999903220363794,63.01824101811927
7.232,0.9999903810233424,62.87003822516162
7.24,0.9999904438037682,62.72178539417739
7.248,0.9999905103018084,62.57348254926494
7.256,0.9999905804396566,62.4251297150396
7.264,0.9999906541376125,62.27672691663525
7.272,0.9999907313141435,62.12827417970569
7.28,0.9999908118859481,61.97977153042613
7.288,0.9999908957680179,61.83121899549442
7.296,0.9999909828737035,61.682616602132406
7.304,0.9999910731147776,61.53396437808699
7.312,0.9999911664015001,61.385262351631276
7.32,0.9999912626426826,61.23651055156557
7.328,0.999991361745756,61.08770900721831
7.336,0.9999914636168337,60.93885774844697
7.344,0.9999915681607794,60.78995680563879
7.352,0.9999916752812736,60.64100620971146
7.36,0.9999917848808786,60.492005992113796
7.368,0.9999918968611076,60.342956184826214
7.376,0.9999920111224897,60.19385682036121
7.384,0.9999921275646382,60.044707931763774
7.392,0.9999922460863174,59.89550955261156
7.4,0.9999923665855098,59.74626171701519
7.4079999999999995,0.9999924889594842,59.59696445961837
7.416,0.9999926131048611,59.44761781559784
7.4239999999999995,0.999992738917682,59.298221820663436
7.432,0.9999928662934758,59.148776511057854
7.4399999999999995,0.9999929951273251,58.999281923556545
7.448,0.9999931253139339,58.84973809546724
7.4559999999999995,0.9999932567476941,58.700145064629815
7.464,0.9999933893227518,58.55050286941553
7.4719999999999995,0.9999935229330744,58.40081154872676
7.48,0.9999936574725142,58.25107114199607
7.4879999999999995,0.9999937928348765,58.1012816891858
7.496,0.999993928913984,57.95144323078693
7.504,0.99999406560374,57.80155580781848
7.5120000000000005,0.9999942027981955,57.651619461826364
7.52,0.9999943403916106,57.50163423488243
7.5280000000000005,0.9999944782785195,57.351600169583214
7.536,0.9999946163537916,57.20151730904891
7.5440000000000005,0.9999947545126958,57.05138569692183
7.552,0.9999948926509606,56.90120537736531
7.5600000000000005,0.9999950306648352,56.75097639506195
7.568,0.9999951684511502,56.60069879521242
7.5760000000000005,0.999995305907377,56.45037262353351
7.584,0.999995442931686,56.29999792625679
7.5920000000000005,0.9999955794230054,56.14957475012652
7.6,0.9999957152810781,55.99910314239815
7.6080000000000005,0.9999958504065177,55.84858315083612
7.616,0.9999959847008639,55.698014823712114
7.6240000000000006,0.9999961180666378,55.5473982098029
7.632,0.9999962504073947,55.396733358388275
7.640000000000001,0.9999963816277772,55.2460203192488
7.648,0.9999965116335664,55.09525914266374
7.656000000000001,0.9999966403317327,54.94444987940853
7.664,0.9999967676304857,54.79359258075262
7.672,0.9999968934393222,54.642687298456906
7.68,0.9999970176690733,54.491734084771274
7.688,0.9999971402319519,54.340732992432095
7.696,0.9999972610415964,54.1896840746596
7.704,0.999997380013116,54.03858738515525
7.712,0.9999974970631317,53.88744297809895
7.72,0.9999976121098197,53.736250908146395
7.728,0.9999977250729508,53.58501123042619
7.736,0.9999978358739291,53.43372400053704
7.744,0.9999979444358307,53.28238927454482
7.752,0.9999980506834395,53.131007108979674
7.76,0.999998154543283,52.979577560833015
7.768,0.9999982559436655,52.82810068755445
7.776,0.9999983548147018,52.67657654704883
7.784,0.9999984510883471,52.52500519767309
7.792,0.9999985446984279,52.37338669823309
7.8,0.9999986355806698,52.22172110798056
7.808,0.999998723672726,52.0700084866098
7.816,0.999998808914201,51.918248894254575
7.824,0.9999988912466774,51.76644239148478
7.832,0.999998970613737,51.61458903930326
7.84,0.9999990469609836,51.462688899142485
7.848,0.9999991202360622,51.310742032861214
7.856,0.9999991903886797,51.1587485027413
7.864,0.9999992573706199,51.00670837148424
7.872,0.9999993211357612,50.85462170220782
7.88,0.9999993816400915,50.70248855844296
7.888,0.9999994388417198,50.55030900413007
7.896,0.99999949270089,50.39808310361589
7.904,0.9999995431799893,50.24581092165004
7.912,0.9999995902435593,50.09349252338164
7.92,0.9999996338583025,49.941127974355986
7.928,0.9999996739930888,49.78871734051112
7.936,0.999999710618961,49.636260688174474
7.944,0.9999997437091371,49.483758084059545
7.952,0.9999997732390141,49.33120959526252
7.96,0.9999997991861685,49.17861528925891
7.968,0.999999821530355,49.02597523390023
7.976,0.9999998402535055,48.873289497410745
7.984,0.9999998553397268,48.72055814838401
7.992,0.9999998667752942,48.56778125577975
8.0,0.9999998745486482,48.414958888920495
8.008,0.9999998786503869,48.26209111748839
8.016,0.9999998790732566,48.10917801152187
8.024000000000001,0.999999875812145,47.95621964141257
8.032,0.9999998688640692,47.80321607790216
8.04,0.9999998582281637,47.65016739207908
8.048,0.9999998439056685,47.497073655375424
8.056000000000001,0.9999998258999151,47.34393493956403
8.064,0.9999998042163111,47.190751316755296
8.072,0.9999997788623239,47.03752285939409
8.08,0.9999997498474639,46.8842496402568
8.088000000000001,0.9999997171832657,46.73093173244854
8.096,0.9999996808832698,46.57756920940007
8.104,0.999999640963001,46.42416214486487
8.112,0.9999995974399477,46.27071061291641
8.120000000000001,0.99999955033354,46.117214687945385
8.128,0.999999499665126,45.9636744446569
8.136,0.999999445457948,45.81008995806768
8.144,0.9999993877371173,45.65646130350347
8.152000000000001,0.9999993265295886,45.50278855659649
8.16,0.9999992618641331,45.34907179328277
8.168,0.9999991937713126,45.19531108979956
8.176,0.999999122283448,45.04150652268294
8.184000000000001,0.9999990474345942,44.88765816876537
8.192,0.9999989692605075,44.73376610517331
8.2,0.9999988877986171,44.579830409324806
8.208,0.9999988030879932,44.42585115892723
8.216000000000001,0.9999987151693155,44.27182843197513
8.224,0.9999986240848415,44.11776230674798
8.232,0.9999985298783735,43.96365286180794
8.24,0.999998432595224,43.80950017599796
8.248000000000001,0.9999983322821844,43.65530432843965
8.256,0.9999982289874885,43.50106539853134
8.264,0.9999981227607783,43.34678346594604
8.272,0.9999980136530694,43.19245861062972
8.280000000000001,0.9999979017167149,43.03809091279942
8.288,0.9999977870053689,42.88368045294155
8.296,0.9999976695739512,42.72922731181003
8.304,0.9999975494786094,42.574731570424746
8.312,0.9999974267766835,42.42019331006998
8.32,0.9999973015266671,42.26561261229272
8.328,0.9999971737881709,42.11098955890141
8.336,0.9999970436218845,41.95632423196412
8.344,0.999996911089539,41.801616713807604
8.352,0.9999967762538686,41.64686708701556
8.36,0.9999966391785731,41.49207543442772
8.368,0.9999964999282782,41.3372418391382
8.376,0.9999963585684987,41.182366384494784
8.384,0.999996215165599,41.027449154097404
8.392,0.9999960697867558,40.87249023179732
8.4,0.9999959224999182,40.717489701695904
8.408,0.9999957733737707,40.56244764814389
8.416,0.9999956224776928,40.40736415574017
8.424,0.9999954698817238,40.25223930933125
8.432,0.9999953156565213,40.097073194010086
8.44,0.999995159873325,39.94186589511564
8.448,0.9999950026039177,39.7866174982318
8.456,0.9999948439205882,39.631328089187065
8.464,0.9999946838960928,39.47599775405359
8.472,0.9999945226036181,39.32062657914684
8.48,0.9999943601167438,39.16521465102486
8.488,0.9999941965094055,39.00976205648801
8.496,0.9999940318558579,38.85426888257817
8.504,0.9999938662306377,38.69873521657871
8.512,0.9999936997085275,38.543161146013766
8.52,0.9999935323645203,38.38754675864828
8.528,0.9999933642737832,38.23189214248731
8.536,0.9999931955116219,38.0761973857762
8.544,0.9999930261534462,37.92046257699997
8.552,0.9999928562747349,37.7646878048835
8.56,0.9999926859510011,37.60887315839112
8.568,0.9999925152577593,37.453018726726754
8.576,0.9999923442704907,37.29712459933361
8.584,0.9999921730646107,37.141190865894416
8.592,0.9999920017154361,36.98521761633116
8.6,0.9999918302981526,36.829204940805454
8.608,0.9999916588877834,36.67315292971821
8.616,0.9999914875591571,36.51706167371015
8.624,0.999991316386877,36.36093126366159
8.632,0.9999911454452918,36.2047617906929
8.64,0.9999909748084632,36.04855334616445
8.648,0.999990804550139,35.892306021676994
8.656,0.9999906347437229,35.73601990907182
8.664,0.999990465462245,35.57969510043114
8.672,0.9999902967783364,35.42333168807814
8.68,0.9999901287641993,35.266929764577654
8.688,0.9999899614915819,35.11048942273612
8.696,0.9999897950317502,34.95401075560229
8.704,0.9999896294554642,34.79749385646734
8.712,0.999989464832951,34.64093881886549
8.72,0.9999893012338809,34.48434573657419
8.728,0.9999891387273425,34.32771470361483
8.736,0.9999889773818207,34.17104581425292
8.744,0.999988817265171,34.01433916299884
8.752,0.9999886584445992,33.85759484460798
8.76,0.9999885009866382,33.7008129540817
8.768,0.9999883449571272,33.54399358666734
8.776,0.999988190421191,33.38713683785917
8.784,0.9999880374432188,33.230242803398625
8.792,0.9999878860868457,33.07331157927509
8.8,0.9999877364149328,32.91634326172621
8.808,0.9999875884895479,32.759337947238755
8.815999999999999,0.9999874423719499,32.602295732548875
8.824,0.9999872981225689,32.44521671464288
8.832,0.9999871558009901,32.28810099075788
8.84,0.9999870154659383,32.13094865838221
8.847999999999999,0.9999868771752608,31.97375981525608
8.856,0.9999867409859138,31.816534559372215
8.864,0.9999866069539456,31.659272988976475
8.872,0.9999864751344849,31.501975202568463
8.879999999999999,0.9999863455817252,31.34464129890203
8.888,0.9999862183489137,31.187271376985993
8.896,0.9999860934883366,31.029865536084717
8.904,0.9999859710513099,30.872423875718827
8.911999999999999,0.9999858510881658,30.714946495665522
8.92,0.9999857336482431,30.557433495959497
8.928,0.9999856187798752,30.399884976893457
8.936,0.9999855065303839,30.24230103901865
8.943999999999999,0.9999853969460657,30.084681783145534
8.952,0.9999852900721867,29.927027310344222
8.96,0.9999851859529718,29.76933772194539
8.968,0.9999850846315984,29.61161311954062
8.975999999999999,0.9999849861501894,29.453853604982932
8.984,0.999984890549805,29.296059280387464
8.992,0.9999847978704375,29.138230248132125
9.0,0.9999847081510058,28.980366610857995
9.008,0.9999846214293496,28.8224684714699
9.016,0.9999845377422237,28.664535933136964
9.024000000000001,0.9999844571252962,28.506569099293202
9.032,0.9999843796131413,28.34856807363804
9.04,0.9999843052392386,28.19053296013666
9.048,0.9999842340359691,28.032463863020638
9.056000000000001,0.9999841660346118,27.874360886788452
9.064,0.9999841012653431,27.716224136205966
9.072,0.9999840397572342,27.558053716306727
9.08,0.9999839815382493,27.399849732392568
9.088000000000001,0.9999839266352463,27.24161229003406
9.096,0.9999838750739749,27.08334149507089
9.104,0.9999838268790772,26.925037453612248
9.112,0.9999837820740877,26.766700272037202
9.120000000000001,0.9999837406814345,26.608330056995232
9.128,0.9999837027224397,26.44992691540651
9.136,0.9999836682173214,26.29149095446215
9.144,0.9999836371851952,26.13302228162468
9.152000000000001,0.9999836096440767,25.97452100462839
9.16,0.9999835856108839,25.815987231479557
9.168,0.9999835651014388,25.65742107045676
9.176,0.9999835481304737,25.49882263011111
9.184000000000001,0.9999835347116315,25.34019201926664
9.192,0.9999835248574711,25.18152934702051
9.2,0.9999835185794709,25.02283472274309
9.208,0.9999835158880349,24.864108256078296
9.216000000000001,0.9999835167924949,24.705350056943843
9.224,0.9999835213011175,24.546560235531327
9.232,0.9999835294211085,24.387738902306342
9.24,0.9999835411586193,24.228886168008675
9.248000000000001,0.9999835565187523,24.07000214365249
9.256,0.9999835755055665,23.911086940526395
9.264,0.9999835981220851,23.75214067019342
9.272,0.9999836243703017,23.593163444491193
9.280000000000001,0.9999836542511865,23.434155375532015
9.288,0.9999836877646946,23.275116575702853
9.296,0.9999837249097726,23.116047157665285
9.304,0.9999837656843662,22.956947234355546
9.312000000000001,0.9999838100854291,22.797816918984587
9.32,0.9999838581089292,22.63865632503794
9.328,0.9999839097498587,22.47946556627561
9.336,0.9999839650022414,22.320244756732055
9.344,0.9999840238591411,22.160994010716195
9.352,0.999984086312672,22.001713442811017
9.36,0.999984152354006,21.842403167873773
9.368,0.9999842219733827,21.683063301035492
9.376,0.9999842951601188,21.523693957701088
9.384,0.9999843719026168,21.36429525354893
9.392,0.9999844521883762,21.204867304530854
9.4,0.999984536004002,21.045410226871663
9.408,0.9999846233352147,20.885924137069168
9.416,0.9999847141668615,20.726409151893627
9.424,0.9999848084829251,20.566865388387736
9.432,0.9999849062665355,20.407292963866027
9.44,0.9999850074999798,20.24769199591484
9.448,0.9999851121647116,20.08806260239166
9.456,0.9999852202413644,19.92840490142509
9.464,0.9999853317097601,19.768719011414085
9.472,0.9999854465489215,19.609005051027953
9.48,0.999985564737082,19.44926313920554
9.488,0.9999856862516977,19.28949339515514
9.496,0.9999858110694579,19.1296959383537
9.504,0.9999859391662976,18.96987088854667
9.512,0.9999860705174071,18.810018365747183
9.52,0.9999862050972452,18.65013849023586
9.528,0.9999863428795496,18.490231382559926
9.536,0.9999864838373487,18.330297163533043
9.544,0.9999866279429734,18.170335954234336
9.552,0.9999867751680694,18.01034787600817
9.56,0.9999869254836076,17.85033305046324
9.568,0.9999870788598967,17.69029159947222
9.576,0.9999872352665955,17.530223645170803
9.584,0.9999873946727241,17.37012930995742
9.592,0.9999875570466757,17.21000871649216
9.6,0.9999877223562296,17.049861987696424
9.608,0.9999878905685612,16.88968924675196
9.616,0.999988061650257,16.729490617100296
9.624,0.9999882355673233,16.569266222441843
9.632,0.9999884122852014,16.409016186735318
9.64,0.9999885917687767,16.248740634196746
9.648,0.9999887739823932,16.088439689298866
9.656,0.999988958889864,15.928113476770132
9.664,0.9999891464544851,15.767762121594057
9.672,0.9999893366390451,15.607385749008165
9.68,0.9999895294058395,15.446984484503364
9.688,0.9999897247166813,15.28655845382281
9.696,0.9999899225329141,15.126107782961244
9.704,0.9999901228154238,14.965632598163868
9.712,0.9999903255246505,14.80513302592563
9.72,0.9999905306206006,14.644609192990043
