freq,mag,phase
6.0,0.9999898804706883,-130.97946131747958
6.008,0.9999889434625427,-131.41179821607105
6.016,0.999988049756227,-131.8439232734914
6.024,0.9999871983891969,-132.27583663664808
6.032,0.9999863884097192,-132.7075384691797
6.04,0.9999856188768595,-133.13902895133958
6.048,0.9999848888604703,-133.57030827987842
6.056,0.9999841974411752,-134.001376667927
6.064,0.9999835437103516,-134.43223434487828
6.072,0.9999829267701158,-134.8628815562694
6.08,0.9999823457333002,-135.29331856366278
6.088,0.9999817997234349,-135.7235456445276
6.096,0.999981287874724,-136.15356309212066
6.104,0.9999808093320213,-136.58337121536692
6.112,0.9999803632508059,-137.0129703387399
6.12,0.9999799487971561,-137.44236080214176
6.128,0.9999795651477188,-137.87154296078322
6.136,0.9999792114896832,-138.3005171850635
6.144,0.9999788870207467,-138.72928386044956
6.152,0.9999785909490879,-139.15784338735568
6.16,0.9999783224933264,-139.5861961810227
6.168,0.999978080882494,-140.01434267139712
6.176,0.9999778653559942,-140.44228330301013
6.184,0.9999776751635716,-140.87001853485657
6.192,0.9999775095652652,-141.2975488402738
6.2,0.9999773678313768,-141.72487470682046
6.208,0.9999772492424248,-142.15199663615536
6.216,0.9999771530891056,-142.57891514391605
6.224,0.9999770786722523,-143.0056307595978
6.232,0.9999770253027854,-143.43214402643227
6.24,0.9999769923016718,-143.8584555012661
6.248,0.9999769789998815,-144.28456575443997
6.256,0.9999769847383349,-144.71047536966745
6.264,0.9999770088678568,-145.13618494391383
6.272,0.9999770507491335,-145.56169508727513
6.28,0.9999771097526544,-145.98700642285738
6.288,0.9999771852586653,-146.41211958665573
6.296,0.999977276657118,-146.8370352274338
6.304,0.9999773833476191,-147.2617540066032
6.312,0.9999775047393706,-147.68627659810306
6.32,0.9999776402511208,-148.11060368828018
6.328,0.9999777893111134,-148.53473597576834
6.336,0.9999779513570219,-148.95867417136918
6.344,0.9999781258359015,-149.38241899793204
6.352,0.9999783122041298,-149.80597119023486
6.36,0.9999785099273453,-150.22933149486474
6.368,0.9999787184803979,-150.65250067009885
6.376,0.9999789373472802,-151.07547948578622
6.384,0.9999791660210727,-151.49826872322856
6.392,0.9999794040038847,-151.92086917506248
6.4,0.9999796508067897,-152.3432816451415
6.408,0.9999799059497653,-152.7655069484182
6.416,0.9999801689616343,-153.18754591082686
6.424,0.9999804393799966,-153.60939936916662
6.432,0.9999807167511687,-154.0310681709844
6.44,0.9999810006301225,-154.45255317445876
6.448,0.9999812905804167,-154.87385524828346
6.456,0.9999815861741354,-155.29497527155198
6.464,0.9999818869918202,-155.71591413364186
6.472,0.9999821926224102,-156.13667273409973
6.48,0.9999825026631685,-156.5572519825266
6.4879999999999995,0.9999828167196223,-156.9776527984634
6.496,0.999983134405493,-157.3978761112773
6.504,0.9999834553426286,-157.81792286004756
6.5120000000000005,0.9999837791609408,-158.237793993453
6.52,0.9999841054983307,-158.65749046965857
6.5280000000000005,0.9999844340006271,-159.0770132562035
6.536,0.999984764321513,-159.4963633298888
6.5440000000000005,0.9999850961224614,-159.91554167666612
6.552,0.999985429072663,-160.33454929152623
6.5600000000000005,0.9999857628489593,-160.75338717838872
6.568,0.999986097135772,-161.17205634999104
6.5760000000000005,0.9999864316250338,-161.59055782777952
6.584,0.9999867660161198,-162.00889264179898
6.592,0.999987100015776,-162.42706183058465
6.6,0.9999874333380494,-162.84506644105304
6.608,0.9999877657042174,-163.26290752839415
6.616,0.9999880968427213,-163.68058615596382
6.624,0.9999884264890883,-164.0981033951765
6.632,0.9999887543858687,-164.51546032539886
6.64,0.9999890802825593,-164.9326580338432
6.648,0.9999894039355355,-165.34969761546205
6.656,0.9999897251079805,-165.7665801728427
6.664,0.999990043569812,-166.18330681610274
6.672,0.9999903590976141,-166.59987866278541
6.68,0.999990671474564,-167.01629683775616
6.688,0.9999909804903616,-167.43256247309907
6.696,0.9999912859411596,-167.8486767080144
6.704,0.9999915876294897,-168.2646406887159
6.712,0.9999918853641946,-168.68045556832925
6.72,0.9999921789603542,-169.09612250679075
6.728,0.9999924682392164,-169.51164267074637
6.736,0.9999927530281256,-169.92701723345166
6.744,0.9999930331604501,-170.3422473746718
6.752,0.9999933084755152,-170.75733428058234
6.76,0.9999935788185276,-171.1722791436705
6.768,0.9999938440405082,-171.58708316263682
6.776,0.9999941039982193,-172.00174754229752
6.784,0.9999943585540957,-172.41627349348713
6.792,0.9999946075761732,-172.83066223296177
6.8,0.9999948509380177,-173.2449149833031
6.808,0.9999950885186578,-173.65903297282233
6.816,0.9999953202025109,-174.07301743546537
6.824,0.9999955458793163,-174.48686961071783
6.832,0.9999957654440647,-174.90059074351106
6.84,0.9999959787969277,-175.31418208412845
6.848,0.9999961858431897,-175.72764488811228
6.856,0.9999963864931775,-176.14098041617103
6.864,0.9999965806621918,-176.55418993408753
6.872,0.9999967682704397,-176.967274712627
6.88,0.9999969492429633,-177.38023602744624
6.888,0.9999971235095737,-177.79307515900302
6.896,0.9999972910047819,-178.20579339246592
6.904,0.9999974516677305,-178.61839201762473
6.912,0.9999976054421266,-179.03087232880173
6.92,0.9999977522761744,-179.44323562476282
6.928,0.9999978921225067,-179.85548320862955
6.936,0.9999980249381205,179.7323836122083
6.944,0.9999981506843072,179.32036352617968
6.952,0.9999982693265878,178.90845521761898
6.96,0.9999983808346465,178.496657366852
6.968,0.9999984851822665,178.0849686502813
6.976,0.9999985823472595,177.6733877404714
6.984,0.9999986723114058,177.26191330623328
6.992,0.9999987550603865,176.8505440127083
7.0,0.999998830583719,176.43927852145188
7.008,0.9999988988746922,176.0281154905164
7.016,0.999998959930304,175.61705357453394
7.024,0.9999990137511955,175.20609142479822
7.032,0.9999990603415888,174.79522768934623
7.04,0.9999990997092231,174.38446101303933
7.048,0.9999991318652922,173.97379003764405
7.056,0.9999991568243817,173.56321340191192
7.064,0.999999174604407,173.1527297416595
7.072,0.9999991852265516,172.7423376898474
7.08,0.9999991887152048,172.3320358766591
7.088,0.999999185097902,171.92182292957918
7.096,0.9999991744052611,171.51169747347132
7.104,0.9999991566709261,171.1016581306554
7.112,0.9999991319315026,170.69170352098467
7.12,0.999999100226502,170.28183226192195
7.128,0.9999990615982786,169.87204296861597
7.136,0.9999990160919732,169.4623342539766
7.144,0.9999989637554526,169.05270472875014
7.152,0.999998904639253,168.6431530015941
7.16,0.9999988387965201,168.2336776791511
7.168,0.9999987662829537,167.8242773661231
7.176,0.9999986871567479,167.41495066534452
7.184,0.9999986014785367,167.00569617785513
7.192,0.9999985093113374,166.5965125029729
7.2,0.9999984107204921,166.18739823836577
7.208,0.9999983057736157,165.7783519801235
7.216,0.9999981945405366,165.36937232282887
7.224,0.9999980770932446,164.96045785962878
7.232,0.9999979535058373,164.55160718230434
7.24,0.9999978238544619,164.14281888134124
7.248,0.999997688217266,163.73409154599923
7.256,0.9999975466743416,163.32542376438155
7.264,0.999997399307672,162.9168141235036
7.272,0.9999972462010825,162.5082612093616
7.28,0.9999970874401842,162.09976360700065
7.288,0.9999969231123241,161.69131990058236
7.296,0.9999967533065347,161.28292867345235
7.304,0.9999965781134819,160.8745885082071
7.312,0.999996397625414,160.46629798676062
7.32,0.9999962119361148,160.05805569041073
7.328,0.9999960211408488,159.6498601999048
7.336,0.9999958253363157,159.24171009550534
7.344,0.9999956246206019,158.83360395705535
7.352,0.9999954190931288,158.42554036404283
7.36,0.9999952088546078,158.01751789566552
7.368,0.9999949940069907,157.60953513089478
7.376,0.999994774653424,157.20159064853976
7.384,0.9999945508982017,156.79368302731032
7.392,0.9999943228467171,156.3858108458808
7.4,0.9999940906054203,155.97797268295233
7.4079999999999995,0.9999938542817688,155.57016711731558
7.416,0.9999936139841857,155.16239272791265
7.4239999999999995,0.9999933698220121,154.75464809389945
7.432,0.9999931219054656,154.34693179470656
7.4399999999999995,0.9999928703455931,153.93924241010126
7.448,0.9999926152542311,153.53157852024756
7.4559999999999995,0.9999923567439588,153.12393870576767
7.464,0.9999920949280582,152.71632154780175
7.4719999999999995,0.9999918299204705,152.30872562806854
7.48,0.9999915618357548,151.90114952892438
7.4879999999999995,0.999991290789046,151.49359183342352
7.496,0.9999910168960144,151.08605112537657
7.504,0.9999907402728254,150.6785259894102
7.5120000000000005,0.9999904610360978,150.27101501102496
7.52,0.9999901793028659,149.8635167766546
7.5280000000000005,0.9999898951905384,149.45602987372328
7.536,0.9999896088168609,149.04855289070431
7.5440000000000005,0.9999893202998767,148.641084417177
7.552,0.9999890297578873,148.2336230438848
7.5600000000000005,0.9999887373094178,147.82616736279164
7.568,0.9999884430731761,147.4187159671396
7.5760000000000005,0.999988147168019,147.01126745150475
7.584,0.9999878497129135,146.60382041185446
7.5920000000000005,0.9999875508269014,146.19637344560255
7.6,0.9999872506290636,145.7889251516663
7.6080000000000005,0.9999869492384857,145.3814741305212
7.616,0.9999866467742216,144.97401898425738
7.6240000000000006,0.9999863433552597,144.566558316634
7.632,0.999986039100489,144.15909073313517
7.640000000000001,0.9999857341286653,143.75161484102404
7.648,0.9999854285583771,143.34412924939818
7.656000000000001,0.9999851225080151,142.9366325692434
7.664,0.9999848160957364,142.52912341348858
7.672,0.9999845094394354,142.12160039705924
7.68,0.9999842026567101,141.71406213693172
7.688,0.9999838958648319,141.30650725218695
7.696,0.9999835891807148,140.8989343640635
7.704,0.9999832827208837,140.4913420960115
7.712,0.9999829766014457,140.08372907374525
7.72,0.9999826709380604,139.67609392529658
7.728,0.9999823658459092,139.2684352810675
7.736,0.9999820614396675,138.8607517738827
7.744,0.9999817578334766,138.45304203904232
7.752,0.9999814551409144,138.045304714374
7.76,0.999981153474969,137.63753844028517
7.768,0.9999808529480092,137.22974185981502
7.776,0.9999805536717609,136.82191361868635
7.784,0.9999802557572774,136.41405236535718
7.792,0.9999799593149151,136.0061567510725
7.8,0.9999796644543067,135.5982254299155
7.808,0.999979371284337,135.19025705885892
7.816,0.999979079913116,134.78225029781626
7.824,0.9999787904479566,134.37420380969266
7.832,0.9999785029953483,133.9661162604358
7.84,0.9999782176609352,133.5579863190868
7.848,0.9999779345494905,133.14981265783064
7.856,0.9999776537648952,132.7415939520468
7.864,0.9999773754101142,132.3333288803596
7.872,0.9999770995871751,131.92501612468857
7.88,0.9999768263971448,131.51665437029837
7.888,0.999976555940109,131.10824230584913
7.896,0.9999762883151507,130.69977862344626
7.904,0.9999760236203297,130.29126201869022
7.912,0.999975761952661,129.88269119072638
7.92,0.9999755034080958,129.47406484229458
7.928,0.999975248081502,129.0653816797787
7.936,0.9999749960666431,128.6566404132561
7.944,0.9999747474561622,128.24783975654697
7.952,0.9999745023415599,127.83897842726351
7.96,0.9999742608131788,127.43005514685935
7.968,0.9999740229601841,127.02106864067828
7.976,0.9999737888705474,126.61201763800354
7.984,0.9999735586310277,126.2029008721066
7.992,0.999973332327156,125.793717080296
8.0,0.9999731100432193,125.38446500396626
8.008,0.9999728918622426,124.97514338864634
8.016,0.9999726778659751,124.56575098404832
8.024000000000001,0.999972468134874,124.15628654411614
8.032,0.9999722627480893,123.74674882707392
8.04,0.9999720617834505,123.33713659547415
8.048,0.9999718653174496,122.92744861624631
8.056000000000001,0.9999716734252311,122.51768366074518
8.064,0.9999714861805745,122.10784050479896
8.072,0.9999713036558835,121.69791792875715
8.08,0.9999711259221727,121.28791471753887
8.088000000000001,0.9999709530490547,120.87782966068113
8.096,0.9999707851047283,120.46766155238645
8.104,0.9999706221559658,120.05740919157073
8.112,0.9999704642681033,119.64707138191125
8.120000000000001,0.9999703115050278,119.23664693189457
8.128,0.9999701639291678,118.82613465486419
8.136,0.9999700216014817,118.41553336906809
8.144,0.9999698845814489,118.00484189770647
8.152000000000001,0.9999697529270588,117.59405906897949
8.16,0.9999696266948026,117.18318371613482
8.168,0.9999695059396634,116.77221467751475
8.176,0.9999693907151079,116.36115079660397
8.184000000000001,0.9999692810730785,115.94999092207702
8.192,0.9999691770639836,115.53873390784567
8.2,0.9999690787366922,115.12737861310576
8.208,0.9999689861385244,114.71592390238496
8.216000000000001,0.9999688993152467,114.30436864558995
8.224,0.999968818311062,113.8927117180535
8.232,0.9999687431686071,113.48095200058151
8.24,0.9999686739289434,113.06908837950003
8.248000000000001,0.9999686106315538,112.65711974670283
8.256,0.9999685533143354,112.24504499969794
8.264,0.9999685020135954,111.83286304165462
8.272,0.9999684567640464,111.42057278145035
8.280000000000001,0.9999684175988015,111.00817313371797
8.288,0.9999683845493711,110.59566301889231
8.296,0.999968357645658,110.18304136325672
8.304,0.9999683369159553,109.77030709899016
8.312,0.9999683223869428,109.35745916421406
8.32,0.9999683140836836,108.94449650303844
8.328,0.999968312029623,108.53141806560912
8.336,0.9999683162465853,108.11822280815372
8.344,0.9999683267547717,107.70490969302885
8.352,0.9999683435727608,107.29147768876587
8.36,0.9999683667175051,106.87792577011804
8.368,0.9999683962043324,106.46425291810623
8.376,0.9999684320469421,106.05045812006597
8.384,0.9999684742574093,105.63654036969301
8.392,0.9999685228461804,105.22249866709029
8.4,0.9999685778220784,104.80833201881346
8.408,0.9999686391922983,104.39403943791764
8.416,0.9999687069624122,103.97961994400296
8.424,0.9999687811363692,103.56507256326113
8.432,0.9999688617164971,103.15039632852081
8.44,0.999968948703504,102.73559027929427
8.448,0.9999690420964815,102.32065346182246
8.456,0.9999691418929063,101.90558492912163
8.464,0.9999692480886437,101.49038374102824
8.472,0.999969360677951,101.07504896424547
8.48,0.9999694796534803,100.65957967238806
8.488,0.9999696050062822,100.24397494602864
8.496,0.9999697367258109,99.82823387274242
8.504,0.9999698747999279,99.41235554715335
8.512,0.9999700192149067,98.99633907097879
8.52,0.9999701699554373,98.58018355307544
8.528,0.9999703270046331,98.16388810948384
8.536,0.9999704903440345,97.74745186347418
8.544,0.9999706599536153,97.33087394559065
8.552,0.9999708358117904,96.91415349369711
8.56,0.99997101789542,96.49728965302118
8.568,0.9999712061798177,96.08028157619978
8.576,0.9999714006387569,95.66312842332309
8.584,0.9999716012444789,95.2458293619799
8.592,0.9999718079676996,94.82838356730129
8.6,0.9999720207776169,94.41079022200584
8.608,0.9999722396419208,93.99304851644322
8.616,0.9999724645267998,93.57515764863899
8.624,0.9999726953969508,93.15711682433809
8.632,0.999972932215588,92.73892525704946
8.64,0.9999731749444514,92.32058216808919
8.648,0.9999734235438165,91.90208678662508
8.656,0.9999736779725046,91.48343834971939
8.664,0.999973938187894,91.06463610237319
8.672,0.9999742041459266,90.64567929756893
8.68,0.9999744758011224,90.22656719631452
8.688,0.9999747531065888,89.80729906768558
8.696,0.9999750360140313,89.38787418886926
8.704,0.9999753244737656,88.96829184520628
8.712,0.9999756184347295,88.54855133023437
8.72,0.9999759178444936,88.12865194573008
8.728,0.9999762226492745,87.70859300175191
8.736,0.9999765327939477,87.28837381668184
8.744,0.9999768482220586,86.86799371726804
8.752,0.9999771688758369,86.44745203866616
8.76,0.9999774946962088,86.02674812448176
8.768,0.999977825622812,85.60588132681109
8.776,0.9999781615940071,85.18485100628332
8.784,0.9999785025468939,84.76365653210097
8.792,0.9999788484173231,84.3422972820816
8.8,0.9999791991399134,83.92077264269807
8.808,0.9999795546480639,83.4990820091197
8.815999999999999,0.9999799148739704,83.07722478525231
8.824,0.9999802797486396,82.65520038377852
8.832,0.9999806492019051,82.23300822619812
8.84,0.9999810231624425,81.81064774286756
8.847999999999999,0.999981401557786,81.38811837303953
8.856,0.9999817843143434,80.9654195649023
8.864,0.9999821713574132,80.54255077561929
8.872,0.9999825626112004,80.11951147136762
8.879999999999999,0.9999829579988342,79.69630112737664
8.888,0.9999833574423835,79.27291922796663
8.896,0.9999837608628759,78.84936526658703
8.904,0.9999841681803128,78.42563874585427
8.911999999999999,0.9999845793136887,78.00173917758923
8.92,0.9999849941810091,77.57766608285483
8.928,0.9999854126993064,77.15341899199333
8.936,0.9999858347846605,76.72899744466307
8.943999999999999,0.9999862603522163,76.3044009898747
8.952,0.9999866893162014,75.87962918602781
8.96,0.9999871215899462,75.45468160094711
8.968,0.9999875570859015,75.02955781191777
8.975999999999999,0.9999879957156594,74.60425740572082
8.984,0.9999884373899716,74.17877997866833
8.992,0.9999888820187675,73.75312513663835
9.0,0.9999893295111775,73.32729249510918
9.008,0.9999897797755489,72.90128167919332
9.016,0.999990232719469,72.47509232367143
9.024000000000001,0.9999906882497838,72.04872407302595
9.032,0.9999911462726186,71.62217658147402
9.04,0.9999916066933989,71.19544951299999
9.048,0.9999920694168707,70.76854254138807
9.056000000000001,0.9999925343471217,70.34145535025448
9.064,0.9999930013876026,69.91418763307894
9.072,0.9999934704411467,69.48673909323571
9.08,0.9999939414099946,69.05910944402476
9.088000000000001,0.9999944141958113,68.63129840870234
9.096,0.9999948886997118,68.20330572051095
9.104,0.9999953648222804,67.77513112270893
9.112,0.9999958424635935,67.34677436859971
9.120000000000001,0.9999963215232412,66.91823522156116
9.128,0.9999968019003512,66.4895134550736
9.136,0.9999972834936081,66.06060885274783
9.144,0.9999977662012778,65.63152120835272
9.152000000000001,0.9999982499212304,65.20225032584273
9.16,0.9999987345509621,64.77279601938424
9.168,0.9999992199876168,64.3431581133817
9.176,0.9999997061280117,63.913336442503606
9.184000000000001,1.0,63.4833308517079
9.192,1.0000000000000002,63.05314119626669
9.2,1.0,62.62276734179038
9.208,1.0,62.192209164251736
9.216000000000001,0.9999999999999999,61.761466550009374
9.224,1.0,61.330539395830506
9.232,0.9999999999999999,60.89942760891301
9.24,1.0000000000000002,60.46813110690752
9.248000000000001,1.0,60.03664981793888
9.256,1.0,59.604983680626745
9.264,1.0,59.17313264410561
9.272,1.0,58.741096668044676
9.280000000000001,0.9999999999999999,58.3088757226672
9.288,0.9999999999999999,57.87646978876891
9.296,0.9999999999999999,57.44387885773572
9.304,1.0,57.011102931561524
9.312000000000001,1.0,56.57814202286509
9.32,1.0,56.14499615490624
9.328,1.0,55.711665361601305
9.336,1.0,55.2781496875384
9.344,0.9999999999999999,54.844449187992154
9.352,0.9999999999999999,54.410563928936995
9.36,0.9999999999999999,53.976493987061026
9.368,1.0,53.542239449777966
9.376,0.9999999999999999,53.10780041523986
9.384,0.9999999999999999,52.673176992347614
9.392,1.0,52.238369300762564
9.4,1.0,51.803377470915564
9.408,1.0,51.368201644017276
9.416,0.9999999999999999,50.932841972066015
9.424,1.0,50.497298617856636
9.432,1.0,50.06157175498699
9.44,1.0,49.62566156786543
9.448,0.9999999999999999,49.18956825171604
9.456,1.0,48.75329201258458
9.464,0.9999999999999999,48.316833067342245
9.472,1.0000000000000002,47.88019164369047
9.48,1.0,47.44336798016306
9.488,1.0000000000000002,47.006362326129455
9.496,1.0,46.56917494179562
9.504,1.0,46.13180609820571
9.512,1.0,45.694256077241484
9.52,1.0,45.256525171622485
9.528,1.0,44.81861368490396
9.536,1.0,44.38052193147552
9.544,0.9999999999999999,43.94225023655751
9.552,1.0,43.50379893619807
9.56,1.0,43.065168377268044
9.568,1.0,42.62635891745645
9.576,1.0,42.18737092526371
9.584,1.0,41.74820477999566
9.592,1.0,41.30886087175514
9.6,0.9999999999999999,40.869339601434326
9.608,1.0,40.429641380704716
9.616,0.9999999999999999,39.98976663200792
9.624,1.0,39.54971578854391
9.632,1.0,39.10948929426009
9.64,0.9999999999999999,38.66908760383801
9.648,1.0,38.228511182680755
9.656,0.9999999999999999,37.78776050689786
9.664,1.0,37.34683606329106
9.672,1.0,36.90573834933756
