freq,mag,phase
6.0,0.9998200239921822,101.8716078048208
6.002287616,0.9995975220614239,101.72716832319003
6.004575232,0.9994009775730093,101.5858334900481
6.006862848,0.9992421833145153,101.44712574035619
6.009150464,0.99913152758911,101.31040657009022
6.011438592,0.9990760875227621,101.17493048503208
6.013726208,0.9990792615462875,101.03988988989258
6.016013824,0.9991408383944161,100.9043940382744
6.01830144,0.9992571361857491,100.76766837433449
6.020589056,0.9994206641753882,100.62890030711857
6.022876672,0.9996209380700549,100.48754190228055
6.025164288,0.9998455024337026,100.34313136318197
6.027451904,1.0000799408610268,100.19541508174608
6.029740032,1.000309398040435,100.04436259812739
6.032027648,1.000519353477607,99.89013822269581
6.034315264,1.0006966029751232,99.73310089603449
6.03660288,1.0008295183308806,99.57390985687717
6.038890496,1.000910025896591,99.41312997045345
6.041178112,1.0009330541797707,99.25169208336703
6.043465728,1.0008967748367952,99.09032429151785
6.045753344,1.000803655163556,98.92996485499023
6.04804096,1.0006595368431759,98.77133108260668
6.050329088,1.0004735005004097,98.61514580107459
6.052616704,1.0002572797199212,98.46191300922864
6.05490432,1.0000247101541926,98.31194115318225
6.057191936,0.9997903471246864,98.16544570708882
6.059479552,0.9995691434221523,98.02226126634376
6.061767168,0.9993752353201562,97.88215051174889
6.064054784,0.9992208553591273,97.7446176998936
6.0663424,0.9991159019599211,97.60898386532732
6.068630016,0.9990670449120755,97.47453087773513
6.070918144,0.999077357213261,97.34038675588256
6.07320576,0.9991463752976261,97.20570084737258
6.075493376,0.9992697475706653,97.06964780647324
6.077780992,0.999439455401774,96.93150250790224
6.080068608,0.9996448400995835,96.79064902407434
6.082356224,0.9998729264628113,96.6466584681852
6.08464384,1.000109262127512,96.49933529071217
6.086931456,1.0003386400678675,96.34865002673723
6.089219584,1.0005467943980988,96.19483024732163
6.0915072,1.0007203620309943,96.0382437229426
6.093794816,1.0008482289063103,95.87950159223817
6.096082432,1.0009224854049747,95.71935762149546
6.098370048,1.0009381922005323,95.55852603586455
6.100657664,1.0008945824237219,95.39797343741282
6.10294528,1.000794155784556,95.23847098486287
6.105232896,1.000643169694832,95.08080508690122
6.107520512,1.0004516102923209,94.92568199299406
6.10980864,1.0002310990949521,94.77354994663277
6.112096256,0.9999957701790234,94.62479378201085
6.114383872,0.9997606075092383,94.47946815587123
6.116671488,0.999540566536671,94.3374792335315
6.118959104,0.9993495501748894,94.19855204519003
6.12124672,0.9991997133848526,94.06211992328134
6.123534336,0.9991006468473296,93.92754087190801
6.125821952,0.9990585702645252,93.79400770688171
6.128109568,0.9990764131440508,93.66069781576414
6.130397696,0.999152923255642,93.52671801378509
6.132685312,0.9992832578923787,93.39125518271341
6.134972928,0.9994592193212729,93.25364480774074
6.137260544,0.9996697307573298,93.11320700812705
6.13954816,0.9999010966770532,92.96958897433463
6.141835776,1.0001389813927728,92.82257396909306
6.144123392,1.0003681893288523,92.67221147985705
6.146411008,1.0005740169485253,92.51871333038045
6.148699136,1.0007436791988524,92.36250204695416
6.150986752,1.0008661731677753,92.20417833944215
6.153274368,1.0009339048559989,92.04452981253444
6.155561984,1.0009424125781958,91.88434737523815
6.1578496,1.0008911639441909,91.72447695111744
6.160137216,1.0007834142442662,91.56580597807717
6.162424832,1.000625757931749,91.40907450052
6.164712448,1.0004285625348817,91.25497437478172
6.167000064,1.0002038880299517,91.10394235431869
6.169288192,0.9999661813113898,90.95627717875213
6.171575808,0.9997304527613355,90.81209586665241
6.173863424,0.9995116529008393,90.67128065398904
6.17615104,0.9993238177171514,90.53340493268095
6.178438656,0.9991787968990857,90.39802948564986
6.180726272,0.99908593108064,90.2643974063507
6.183013888,0.9990509335824151,90.13174181245321
6.185301504,0.9990763665264112,89.9991818740627
6.18758912,0.999160524834194,89.86585524928836
6.189877248,0.9992980285614059,89.73092834183156
6.192164864,0.9994801624939433,89.59371728295733
6.19445248,0.9996953942384735,89.45363427794649
6.196740096,0.9999301103333554,89.31029510281914
6.199027712,1.0001694027145558,89.16354731645778
6.201315328,1.0003980495415832,89.01341148527636
6.203602944,1.0006015270282858,88.86014204032821
6.20589056,1.0007669548565878,88.7042551825879
6.208178688,1.0008838393467856,88.54631679266886
6.210466304,1.0009448133002699,88.38710271738212
6.21275392,1.0009457638996357,88.22748313258467
6.215041536,1.0008868431620057,88.06828636279444
6.217329152,1.0007715943377817,87.9103785628022
6.219616768,1.0006073255234207,87.75454686676248
6.221904384,1.0004043289669626,87.60137847784605
6.224192,1.0001757889808995,87.45137190789552
6.226479616,0.9999357899621523,87.30478046947728
6.228767744,0.999699664714606,87.16169243198077
6.23105536,0.9994824878065421,87.02195841104566
6.233342976,0.9992981666470709,86.88513287889609
6.235630592,0.9991581891567198,86.75071257653578
6.237918208,0.9990716026918824,86.6179896706567
6.240205824,0.9990439725317384,86.48611029893681
6.24249344,0.9990771169698908,86.35422754770433
6.244781056,0.9991690155924456,86.22147338811081
6.247068672,0.9993135772241158,86.08700554570679
6.2493568,0.9995019087204235,85.95013743526867
6.251644416,0.9997220410780046,85.8102949797051
6.253932032,0.9999597344262857,85.66715953573453
6.256219648,1.000200201659881,85.52059139954059
6.258507264,1.000428131312402,85.37062770220496
6.26079488,1.0006289042261833,85.2175622287608
6.263082496,1.0007898537275108,85.06190125792551
6.265370112,1.0009009511800289,84.90427339003352
6.26765824,1.000954823335647,84.74547382461833
6.269945856,1.000948189259532,84.5863312304978
6.272233472,1.0008814465847242,84.4277722328691
6.274521088,1.000758693649212,84.27059370700486
6.276808704,1.000587776002112,84.1155588687273
6.27909632,1.000379395776253,83.96330535101832
6.281383936,1.0001467754964466,83.81429011511514
6.283671552,0.9999047092625876,83.66871677491723
6.285959168,0.9996685867070297,83.5266960681665
6.288247296,0.9994533490475175,83.38794231033633
6.290534912,0.9992726445738589,83.25210571122344
6.292822528,0.9991381235839671,83.11859783698654
6.295110144,0.9990582261451133,82.98667234814697
6.29739776,0.9990380232137847,82.85550856416522
6.299685376,0.999079134080395,82.72422523938381
6.301972992,0.9991786701939711,82.59192551700312
6.304260608,0.9993305518188192,82.45782934459717
6.306548224,0.999524964725881,82.32123824444939
6.308836352,0.9997497248764775,82.18158588651497
6.311123968,0.9999903985923662,82.03859938631255
6.313411584,1.0002317518634127,81.89210151078252
6.3156992,1.0004586542860214,81.74226290501889
6.317986816,1.0006564973143814,81.58929151668522
6.320274432,1.0008128148390294,81.43382014966448
6.322562048,1.0009175982925003,81.27643576703528
6.324849664,1.0009642890470303,81.11798300720385
6.327137792,1.000949844906162,80.95932394136594
6.329425408,1.0008751603908421,80.80131856442695
6.331713024,1.0007447993890977,80.64479569360333
6.33400064,1.0005672236230465,80.49054372254125
6.336288256,1.0003534857978464,80.33916859628596
6.338575872,1.0001171292837783,80.19106474818801
6.340863488,0.9998732160660704,80.04647468547205
6.343151104,0.9996371873950999,79.90538118655323
6.34543872,0.9994240683441529,79.76760468895785
6.347726848,0.9992472776956531,79.63269220114428
6.350014464,0.9991183735491669,79.49999230042373
6.35230208,0.999045353573899,79.3688506074886
6.354589696,0.9990328873123343,79.23831696377937
6.356877312,0.9990819695570339,79.1075351081166
6.359164928,0.9991894185039768,78.97563261934211
6.361452544,0.9993483737876535,78.84182259852874
6.36374016,0.9995489199713566,78.70541050052334
6.366027776,0.9997780778537605,78.56587663959739
6.368315904,1.0000214388851931,78.42293508511229
6.37060352,1.00026366854619,78.27649753797441
6.372891136,1.0004892215288774,78.12663131388585
6.375178752,1.0006838313558024,77.97377073660084
6.377466368,1.000835113856685,77.81838815848029
6.379753984,1.000933537996133,77.66120051354248
6.3820416,1.0009728491741272,77.50304576888885
6.384329216,1.000950385144571,77.34479680899493
6.386617344,1.000867613901068,77.18730373097982
6.38890496,1.0007297042498313,77.03141469252321
6.391192576,1.00054551217532,76.87787830886259
6.393480192,1.0003265039089215,76.72731774895304
6.395767808,1.0000865776885173,76.58007787045375
6.398055424,0.9998410537187128,76.43639514547411
6.40034304,0.9996053396153907,76.29625686534192
6.402630656,0.9993947010802434,76.15935236608496
6.404918272,0.9992221984674677,76.0252786650559
6.4072064,0.9990990575150843,75.89335951621634
6.409494016,0.999033193899628,75.7628500799307
6.411781632,0.9990286392490539,75.63288662189484
6.414069248,0.9990858228767564,75.50253587898848
6.416356864,0.9992011989840689,75.37097288928935
6.41864448,0.9993673028224888,75.23738184735433
6.420932096,0.9995737445086851,75.10105905897252
6.423219712,0.9998073890655127,74.96157931199906
6.425507328,1.0000532676934004,74.81861560938133
6.427795456,1.0002959436726075,74.67211303444672
6.430083072,1.000519885906879,74.5222235620409
6.432370688,1.000711028599126,74.36934338591016
6.434658304,1.0008571072374173,74.21402054263078
6.43694592,1.000948862056442,74.05697994372228
6.439233536,1.0009804935518747,73.89905063579374
6.441521152,1.0009498646664279,73.74114788700295
6.443808768,1.0008590984812202,73.58411993113927
6.446096896,1.000713586644145,73.42880234914006
6.448384512,1.0005227728246708,73.2759560483905
6.450672128,1.000298537546113,73.1261565018993
6.452959744,1.0000553684998466,72.97974930948428
6.45524736,0.9998083167888931,72.83692878847171
6.457534976,0.9995733216589502,72.69761583184116
6.459822592,0.9993653135285341,72.56156392045294
6.462110208,0.999197429671731,72.4282568651344
6.464397824,0.9990805188586213,72.29707287777289
6.466685952,0.9990219220505784,72.16716855365839
6.468973568,0.9990253769473351,72.0376449007477
6.471261184,0.9990908902549206,71.90767951628665
6.4735488,0.9992141741472559,71.77634693881325
6.475836416,0.9993874576966678,71.64287076467828
6.478124032,0.9995997726102736,71.50658963738955
6.480411648,0.9998375499964324,71.36706420098476
6.482699264,1.0000858210143992,71.2239926010525
6.48498688,1.0003287508406564,71.07736784377538
6.487275008,1.0005508945122341,70.92737237853761
6.489562624,1.0007381909844209,70.77444537961131
6.49185024,1.0008787621626205,70.61910163179562
6.494137856,1.0009636472314902,70.46214753974512
6.496425472,1.0009874210552174,70.30440050632681
6.498713088,1.0009485730852588,70.14678174053722
6.501000704,1.0008495177539973,69.9901845252455
6.50328832,1.000696519081819,69.83542160277533
6.505576448,1.0004992022099135,69.68319953530433
6.507864064,1.0002699336060041,69.53407471915381
6.51015168,1.0000234914182173,69.38847280361384
6.512439296,0.9997753520024049,69.24641458729822
6.514726912,0.9995413782790806,69.10794009480927
6.517014528,0.9993362535001851,68.97262717924005
6.519302144,0.9991731507099323,68.84002199827218
6.52158976,0.9990625914555008,68.7094672117785
6.523877376,0.9990115493711185,68.58006807281134
6.526165504,0.9990232733753589,68.4509922255893
6.52845312,0.9990971230272258,68.32128589508324
6.530740736,0.9992283932994594,68.19012133529124
6.533028352,0.9994086617762923,68.05669622404628
6.535315968,0.9996267168989674,67.92037283414372
6.537603584,0.9998685595063934,67.78069880928344
6.5398912,1.0001189393423437,67.63747314235286
6.542178816,1.000361808994172,67.49065671838457
6.544466432,1.0005818295886681,67.340487327515
6.54675456,1.0007650276507518,67.1873986455072
6.549042176,1.0008998956805772,67.0320227242634
6.551329792,1.0009775918120178,66.87508841032597
6.553617408,1.0009934079313356,66.71751802280107
6.555905024,1.000946069880393,66.56011370697115
6.55819264,1.0008388178154692,66.40388305110692
6.560480256,1.0006781927944153,66.24960192574314
6.562767872,1.000474431349304,66.09796774598489
6.565056,1.0002405114500945,65.94951010767849
6.567343616,0.9999909017733131,65.804591047547
6.569631232,0.9997418996168045,65.66331014704045
6.571918848,0.999509029340151,65.52553502679983
6.574206464,0.9993071994435168,65.39096859056791
6.57649408,0.999149255635641,65.25900538910004
6.578781696,0.9990452535364175,65.12898956958416
6.581069312,0.9990019184225596,65.00004566722522
6.583356928,0.9990219887481593,64.87128260440043
6.585645056,0.9991042401985744,64.7417808548522
6.587932672,0.9992434639180485,64.61069745028611
6.590220288,0.9994309006732484,64.47724188289924
6.592507904,0.9996545331745869,64.34078825513957
6.59479552,0.9999002120743891,64.20090862083647
6.597083136,1.0001523529392349,64.05744837191386
6.599370752,1.0003950443379979,63.91038029225967
6.601658368,1.0006125815725164,63.759962140004106
6.603945984,1.0007915171469521,63.60671423002408
6.606234112,1.0009202602282168,63.45118410684286
6.608521728,1.0009906520415244,63.294230406200626
6.610809344,1.0009982885309077,63.13670842266372
6.61309696,1.000942546636956,62.979552934076786
6.615384576,1.000827018599426,62.82363405362898
6.617672192,1.0006588440524669,62.66978498200079
6.619959808,1.000448745804174,62.51867692270692
6.622247424,1.0002099558701456,62.370855756020426
6.624535552,0.9999577068029308,62.226590218643516
6.626823168,0.999708016038714,62.085974823799134
6.629110784,0.9994765832138925,61.9489218468154
6.6313984,0.9992782507479796,61.814954507704584
6.633686016,0.9991257291935628,61.683565659559505
6.635973632,0.9990285669990995,61.554016871715085
6.638261248,0.9989931843782986,61.42545867138974
6.640548864,0.9990217829909983,61.29695245207154
6.64283648,0.9991124973278597,61.16758177519434
6.645124608,0.9992597343773931,61.03649238222711
6.647412224,0.9994540573886055,60.90290820943567
6.64969984,0.9996832802492006,60.766246613555005
6.651987456,0.9999326096813613,60.62611211169752
6.654275072,1.0001863938379962,60.482328299928376
6.656562688,1.000428431387082,60.33492835184626
6.658850304,1.00064342378267,60.18421673357677
6.66113792,1.0008176623893932,60.03068755936757
6.663426048,1.0009401047965074,59.875009485022694
6.665713664,1.0010030127116079,59.71795376105818
6.66800128,1.0010022164950254,59.560509841212195
6.670288896,1.0009378677423528,59.403482043724495
6.672576512,1.0008139689437692,59.247843294384886
6.674864128,1.000638339774843,59.094372981322095
6.677151744,1.0004220107075001,58.943749092289025
6.67943936,1.000178798102236,58.79647502686168
6.681726976,0.9999239467975451,58.6528163288437
6.684015104,0.9996738499431099,58.512865288156505
6.68630272,0.9994441880781688,58.376385587207835
6.688590336,0.9992497420202444,58.243022877575896
6.690877952,0.9991027343487704,58.112134982888456
6.693165568,0.9990127751379787,57.982999625458895
6.695453184,0.9989854692657543,57.85470967844372
6.6977408,0.9990226726928387,57.72638114170434
6.700028416,0.9991220051819069,57.59706081845068
6.702316032,0.999277168841366,57.465881161055854
6.70460416,0.9994784302354103,57.332108727176106
6.706891776,0.9997128699832585,57.195168214588584
6.709179392,0.9999657381824896,57.054687263502295
6.711467008,1.0002208776527757,56.91049141781793
6.713754624,1.0004621542183043,56.762722820913964
6.71604224,1.000674093862878,56.61164120574126
6.718329856,1.000843463881509,56.45779955971598
6.720617472,1.0009593814464777,56.301875939852756
6.7229056,1.0010145494377725,56.1447076462578
6.725193216,1.0010052540280234,55.98721768095194
6.727480832,1.0009321994187732,55.830315392348545
6.729768448,1.000800050033911,55.674890825305816
6.732056064,1.000616921760295,55.521764948409064
6.73434368,1.0003945670774692,55.37158295257408
6.736631296,1.0001469517708261,55.22481247802384
6.738918912,0.9998898316336021,55.081717729155585
6.741206528,0.9996394502353968,54.94230987808297
6.743494656,0.9994118651435785,54.80638808657513
6.745782272,0.9992214455070246,54.67352181834739
6.748069888,0.9990804182037127,54.54308329772912
6.750357504,0.9989977662080184,54.41429582878645
6.75264512,0.9989787064405068,54.28623445219188
6.754932736,0.9990246325925726,54.15797647776635
6.757220352,0.9991325360925704,54.02862195769868
6.759507968,0.999295704918939,53.89728260070762
6.761795584,0.999503742282721,53.76322869433487
6.764083712,0.9997433456895883,53.62593336240176
6.766371328,0.9999993500312777,53.485026755736364
6.768658944,1.0002556331555519,53.34037655250414
6.77094656,1.0004957103319105,53.19213959182859
6.773234176,1.0007045309412395,53.04063591302808
6.775521792,1.0008687185115723,52.886412725392404
6.777809408,1.000977875459976,52.73021032775241
6.780097024,1.0010250027354302,52.57285616684223
6.782385152,1.0010071826470703,52.415299068080316
6.784672768,1.0009253994520257,52.25845116553541
6.786960384,1.0007848515489306,52.10321376428109
6.789248,1.0005943145615415,51.95037869297263
6.791535616,1.000366012792725,51.80055461207645
6.793823232,1.0001142428501726,51.65426164223296
6.796110848,0.9998549855611055,51.5116605693629
6.798398464,0.9996048926083947,51.37277406043904
6.80068608,0.9993795256235343,51.23734688590453
6.802974208,0.9991935192379364,51.10492387422244
6.805261824,0.9990586466044599,50.97483625746529
6.80754944,0.9989834339908749,50.84629436580144
6.809837056,0.9989729038115527,50.71837267261174
6.812124672,0.9990276294299386,50.59013483489831
6.814412288,0.9991441588017348,50.46065578014643
6.816699904,0.9993152920393511,50.329086087212325
6.81898752,0.9995298799571726,50.19468963610943
6.821275136,0.999774465545437,50.05695619552616
6.823563264,1.0000335969713974,49.915553988243076
6.82585088,1.000290671726831,49.770379121917195
6.828138496,1.000529418140002,49.62161941490107
6.830426112,1.000734691040892,49.46961185668131
6.832713728,1.000893451414089,49.31497394402032
6.835001344,1.0009955883459485,49.15841007454834
6.83728896,1.0010345713654563,49.000820006796076
6.839576576,1.001008019982278,48.84314732664699
6.841864704,1.000917430523043,48.68630210755523
6.84415232,1.0007685473967394,48.53118749390553
6.846439936,1.0005707641840706,48.378608892243186
6.848727552,1.0003366733740682,48.22913349244208
6.851015168,1.0000809120631906,48.08323642522954
6.853302784,0.9998198883446002,47.941060906967095
6.8555904,0.999570022549314,47.80264142018044
6.857878016,0.999347343999609,47.66763560676865
6.860165632,0.9991659530315712,47.53558116252169
6.86245376,0.999037422036967,47.4057963907781
6.864741376,0.998970026163748,47.277428556903786
6.867028992,0.9989680096534647,47.14957452115427
6.869316608,0.9990317301815446,47.02129525529731
6.871604224,0.9991569401234234,46.89159835531678
6.87389184,0.9993358257028185,46.75969733423701
6.876179456,0.9995569468399613,46.6248765401968
6.878467072,0.9998064304100941,46.48662946001805
6.880754688,1.0000683099583303,46.344653623176065
6.883042816,1.0003258532150694,46.19889984578901
6.885330432,1.0005630132676142,46.049535344684365
6.887618048,1.0007645152368723,45.89698428871874
6.889905664,1.0009175853994048,45.741841907563575
6.89219328,1.0010124132830565,45.58489030726615
6.894480896,1.0010431869162686,45.4270231972511
6.896768512,1.0010077191872164,45.269186846960295
6.899056128,1.0009082309067414,45.11228940945421
6.901344256,1.0007511495016668,44.95726534103885
6.903631872,1.000546234403747,44.80486909042342
6.905919488,1.0003064137335045,44.6556849535618
6.908207104,1.0000469040454902,44.510119119744374
6.91049472,0.9997842946178834,44.36835913102331
6.912782336,0.9995351382841727,44.23031251239387
6.915069952,0.9993153190450275,44.09567283270932
6.917357568,0.9991388289868768,43.96392200203158
6.919645184,0.9990169923935834,43.8343686491758
6.921933312,0.9989574998376703,43.706106251718715
6.924220928,0.9989642618266086,43.57824287362275
6.926508544,0.9990368688169359,43.44978232244766
6.92879616,0.9991707561829876,43.31983499698836
6.931083776,0.9993574869130375,43.187529140173815
6.933371392,0.999585013359191,43.05220971975679
6.935659008,0.9998390355105369,42.91336134655142
6.937946624,1.000103508603808,42.7707548447946
