freq,mag,phase
6.0,0.9999894474555132,-111.97105368187813
6.008,0.999992191626783,-112.37212670942532
6.016,0.999994843914137,-112.77309232208904
6.024,0.9999974059895642,-113.17395046312404
6.032,0.9999998795069608,-113.57470108197653
6.04,1.0,-113.97534413425645
6.048,0.9999999999999998,-114.37587958170977
6.056,1.0,-114.77630739219055
6.064,0.9999999999999998,-115.17662753963282
6.072,1.0,-115.57684000402263
6.08,0.9999999999999999,-115.97694477136963
6.088,0.9999999999999998,-116.37694183367893
6.096,1.0,-116.77683118892239
6.104,1.0,-117.17661284101038
6.112,1.0,-117.57628679976283
6.12,1.0,-117.9758530808807
6.128,0.9999999999999999,-118.37531170591711
6.136,1.0,-118.77466270224836
6.144,1.0,-119.17390610304497
6.152,0.9999999999999999,-119.57304194724267
6.16,1.0,-119.9720702795131
6.168,1.0,-120.37099115023472
6.176,1.0,-120.76980461546322
6.184,1.0,-121.16851073690265
6.192,1.0,-121.56710958187534
6.2,0.9999999999999999,-121.96560122329296
6.208,0.9999999999999999,-122.36398573962639
6.216,0.9999999999999999,-122.76226321487658
6.224,0.9999999999999999,-123.16043373854447
6.232,0.9999999999999999,-123.55849740560147
6.24,1.0,-123.95645431645949
6.248,1.0,-124.35430457694119
6.256,0.9999999999999999,-124.75204829824999
6.264,0.9999999999999999,-125.14968559694009
6.272,1.0,-125.54721659488658
6.28,1.0000000000000002,-125.94464141925533
6.288,1.0,-126.3419602024729
6.296,0.9999999999999999,-126.73917308219632
6.304,1.0,-127.13628020128316
6.312,1.0,-127.53328170776112
6.32,1.0,-127.93017775479798
6.328,1.0,-128.32696850067117
6.336,1.0,-128.72365410873763
6.344,0.9999999999999999,-129.12023474740357
6.352,1.0,-129.51671059009382
6.36,1.0,-129.91308181522197
6.368,0.9999999999999999,-130.30934860615957
6.376,1.0,-130.70551115120608
6.384,0.9999999999999999,-131.10156964355812
6.392,1.0,-131.4975242812795
6.4,0.9999999999999999,-131.89337526727044
6.408,1.0,-132.2891228092373
6.416,1.0,-132.6847671196622
6.424,1.0,-133.08030841577252
6.432,1.0,-133.4757469195103
6.44,0.9999999999999999,-133.87108285750213
6.448,0.9999999999999999,-134.26631646102845
6.456,1.0,-134.66144796599318
6.464,1.0,-135.05647761289336
6.472,1.0,-135.45140564678857
6.48,0.9999999999999998,-135.8462323172706
6.4879999999999995,1.0,-136.24095787843305
6.496,1.0000000000000002,-136.635582588841
6.504,1.0,-137.03010671150025
6.5120000000000005,1.0,-137.42453051382736
6.52,1.0,-137.81885426761903
6.5280000000000005,1.0,-138.213078249022
6.536,1.0,-138.60720273850222
6.5440000000000005,1.0,-139.00122802081532
6.552,0.9999999999999999,-139.39515438497517
6.5600000000000005,1.0,-139.788982124225
6.568,1.0,-140.18271153600585
6.5760000000000005,0.9999999999999999,-140.57634292192733
6.584,0.9999999999999999,-140.96987658773656
6.592,1.0,-141.3633128432888
6.6,1.0,-141.75665200251672
6.608,1.0,-142.14989438340044
6.616,1.0,-142.54304030793756
6.624,1.0,-142.93609010211293
6.632,1.0,-143.3290440958687
6.64,1.0,-143.72190262307436
6.648,1.0,-144.11466602149653
6.656,0.9999999999999999,-144.5073346327694
6.664,1.0,-144.8999088023646
6.672,0.9999999999999999,-145.29238887956132
6.68,1.0,-145.68477521741661
6.688,1.0,-146.07706817273555
6.696,1.0,-146.46926810604148
6.704,1.0,-146.8613753815463
6.712,0.9999999999999999,-147.25339036712091
6.72,0.9999999999999999,-147.64531343426543
6.728,1.0,-148.03714495807975
6.736,1.0,-148.42888531723392
6.744,1.0,-148.82053489393874
6.752,1.0000000000000002,-149.21209407391626
6.76,1.0,-149.6035632463704
6.768,1.0,-149.99494280395768
6.776,0.9999999999999999,-150.38623314275773
6.784,1.0,-150.77743466224425
6.792,1.0,-151.16854776525562
6.8,0.9999999999999999,-151.55957285796597
6.808,1.0,-151.95051034985588
6.816,1.0,-152.34136065368332
6.824,1.0,-152.73212418545486
6.832,1.0,-153.12280136439648
6.84,1.0,-153.51339261292486
6.848,1.0,-153.9038983566184
6.856,1.0,-154.29431902418847
6.864,1.0,-154.68465504745072
6.872,0.9999999999999999,-155.07490686129637
6.88,0.9999999999999999,-155.46507490366352
6.888,1.0,-155.85515961550868
6.896,1.0,-156.2451614407782
6.904,0.9999999999999999,-156.63508082637972
6.912,1.0,-157.02491822215399
6.92,1.0,-157.41467408084628
6.928,0.9999999999999999,-157.80434885807824
6.936,0.9999999999999999,-158.19394301231958
6.944,1.0,-158.58345700485998
6.952,0.9999999999999999,-158.97289129978083
6.96,0.9999999981482901,-159.36224636392737
6.968,0.999999299560131,-159.75152266688045
6.976,0.9999986062729002,-160.14072068092872
6.984,0.9999979184687221,-160.52984088104085
6.992,0.9999972363235053,-160.91888374483742
7.0,0.9999965600070351,-161.30784975256336
7.008,0.9999958896830662,-161.69673938706015
7.016,0.9999952255094117,-162.08555313373827
7.024,0.9999945676380368,-162.4742914805495
7.032,0.999993916215146,-162.86295491795946
7.04,0.9999932713812749,-163.25154393892
7.048,0.9999926332713772,-163.64005903884203
7.056,0.999992002014916,-164.02850071556787
7.064,0.999991377735948,-164.41686946934422
7.072,0.999990760553214,-164.8051658027948
7.08,0.9999901505802232,-165.19339022089312
7.088,0.9999895479253411,-165.58154323093555
7.096,0.9999889526918727,-165.96962534251398
7.104,0.9999883649781509,-166.35763706748918
7.112,0.999987784877617,-166.74557891996355
7.12,0.9999872124789071,-167.13345141625436
7.128,0.9999866478659338,-167.52125507486707
7.136,0.9999860911179691,-167.90899041646827
7.144,0.9999855423097262,-168.2966579638594
7.152,0.9999850015114404,-168.6842582419496
7.16,0.9999844687889505,-169.0717917777296
7.168,0.9999839442037785,-169.4592591002449
7.176,0.9999834278132076,-169.84666074056952
7.184,0.9999829196703636,-170.23399723177937
7.192,0.99998241982429,-170.6212691089261
7.2,0.9999819283200285,-171.0084769090108
7.208,0.9999814451986924,-171.39562117095764
7.216,0.9999809704975461,-171.78270243558782
7.224,0.9999805042500785,-172.16972124559342
7.232,0.9999800464860791,-172.55667814551146
7.24,0.9999795972317113,-172.94357368169761
7.248,0.9999791565095865,-173.3304084023007
7.256,0.9999787243388366,-173.7171828572364
7.264,0.9999783007351881,-174.10389759816172
7.272,0.999977885711031,-174.49055317844912
7.28,0.9999774792754914,-174.87715015316076
7.288,0.9999770814345023,-175.26368907902292
7.296,0.9999766921908722,-175.65017051440046
7.304,0.9999763115443554,-176.03659501927106
7.312,0.9999759394917177,-176.42296315520016
7.32,0.999975576026809,-176.809275485315
7.328,0.999975221140624,-177.19553257427967
7.336,0.9999748748213753,-177.58173498826963
7.344,0.999974537054554,-177.96788329494643
7.352,0.9999742078229972,-178.3539780634325
7.36,0.9999738871069521,-178.74001986428618
7.368,0.9999735748841406,-179.12600926947638
7.376,0.9999732711298203,-179.51194685235754
7.384,0.9999729758168483,-179.89783318764498
7.392,0.9999726889157435,179.71633114861058
7.4,0.9999724103947479,179.33054557904737
7.4079999999999995,0.9999721402198839,178.94480952501783
7.416,0.9999718783550208,178.559122406613
7.4239999999999995,0.9999716247619254,178.1734836426878
7.432,0.9999713794003283,177.78789265088503
7.4399999999999995,0.9999711422279762,177.4023488476606
7.448,0.9999709132006936,177.01685164830764
7.4559999999999995,0.9999706922724361,176.63140046698152
7.464,0.9999704793953462,176.2459947167238
7.4719999999999995,0.9999702745198111,175.86063380948707
7.48,0.9999700775945166,175.4753171561591
7.4879999999999995,0.9999698885664993,175.0900441665874
7.496,0.9999697073812008,174.70481424960315
7.504,0.9999695339825215,174.31962681304591
7.5120000000000005,0.9999693683128708,173.93448126378726
7.52,0.99996921031322,173.54937700775562
7.5280000000000005,0.9999690599231517,173.1643134499595
7.536,0.999968917080912,172.77928999451254
7.5440000000000005,0.9999687817234563,172.39430604465653
7.552,0.9999686537865021,172.00936100278622
7.5600000000000005,0.9999685332045738,171.62445427047254
7.568,0.9999684199110533,171.23958524848712
7.5760000000000005,0.9999683138382239,170.85475333682544
7.584,0.9999682149173188,170.46995793473138
7.5920000000000005,0.9999681230785654,170.08519844072006
7.6,0.9999680382512309,169.70047425260256
7.6080000000000005,0.9999679603636669,169.3157847675085
7.616,0.9999678893433517,168.93112938191075
7.6240000000000006,0.9999678251169349,168.54650749164796
7.632,0.99996776761028,168.16191849194902
7.640000000000001,0.9999677167485047,167.77736177745572
7.648,0.9999676724560238,167.392836742247
7.656000000000001,0.9999676346565884,167.0083427798616
7.664,0.999967603273327,166.6238792833221
7.672,0.999967578228785,166.23944564515773
7.68,0.9999675594449624,165.85504125742804
7.688,0.9999675468433527,165.47066551174586
7.696,0.9999675403449803,165.0863177993008
7.704,0.999967539870438,164.70199751088225
7.712,0.999967545339922,164.31770403690248
7.72,0.9999675566732703,163.93343676742003
7.728,0.9999675737899941,163.5491950921624
7.736,0.9999675966093163,163.1649784005494
7.744,0.9999676250502034,162.78078608171597
7.752,0.9999676590313983,162.39661752453517
7.76,0.9999676984714547,162.0124721176413
7.768,0.9999677432887696,161.62834924945247
7.776,0.9999677934016131,161.24424830819376
7.784,0.999967848728161,160.86016868191984
7.792,0.9999679091865246,160.47610975853797
7.8,0.9999679746947818,160.09207092583048
7.808,0.9999680451710051,159.70805157147788
7.816,0.9999681205332914,159.32405108308123
7.824,0.9999682006997901,158.94006884818495
7.832,0.9999682855887303,158.5561042542995
7.84,0.9999683751184489,158.17215668892385
7.848,0.9999684692074166,157.78822553956823
7.856,0.9999685677742639,157.40431019377655
7.864,0.9999686707378076,157.02041003914894
7.872,0.9999687780170746,156.6365244633643
7.88,0.9999688895313271,156.2526528542027
7.888,0.9999690052000864,155.86879459956782
7.896,0.9999691249431558,155.48494908750936
7.904,0.9999692486806451,155.10111570624548
7.912,0.9999693763329909,154.717293844185
7.92,0.9999695078209799,154.3334828899499
7.928,0.999969643065769,153.94968223239735
7.936,0.9999697819889078,153.56589126064245
7.944,0.999969924512358,153.18210936407985
7.952,0.9999700705585124,152.79833593240653
7.96,0.9999702200502153,152.41457035564363
7.968,0.9999703729107813,152.0308120241587
7.976,0.9999705290640135,151.64706032868799
7.984,0.9999706884342207,151.26331466035836
7.992,0.9999708509462357,150.87957441070947
8.0,0.9999710165254309,150.49583897171584
8.008,0.9999711850977366,150.11210773580893
8.016,0.9999713565896547,149.72838009589896
8.024000000000001,0.9999715309282766,149.34465544539717
8.032,0.9999717080412952,148.96093317823784
8.04,0.9999718878570218,148.57721268889975
8.048,0.9999720703043999,148.19349337242858
8.056000000000001,0.999972255313017,147.80977462445873
8.064,0.9999724428131197,147.42605584123515
8.072,0.9999726327356261,147.042336419635
8.08,0.9999728250121361,146.65861575718984
8.088000000000001,0.9999730195749467,146.27489325210718
8.096,0.9999732163570596,145.89116830329255
8.104,0.9999734152921949,145.50744031037092
8.112,0.9999736163148,145.1237086737086
8.120000000000001,0.9999738193600608,144.7399727944351
8.128,0.9999740243639109,144.35623207446483
8.136,0.99997423126304,143.9724859165185
8.144,0.9999744399949039,143.588733724145
8.152000000000001,0.9999746504977329,143.20497490174316
8.16,0.9999748627105388,142.82120885458323
8.168,0.9999750765731233,142.43743498882844
8.176,0.9999752920260848,142.0536527115566
8.184000000000001,0.9999755090108261,141.66986143078188
8.192,0.9999757274695593,141.2860605554762
8.2,0.9999759473453135,140.90224949559064
8.208,0.9999761685819384,140.51842766207702
8.216000000000001,0.9999763911241125,140.1345944669096
8.224,0.9999766149173449,139.7507493231064
8.232,0.9999768399079817,139.3668916447505
8.24,0.9999770660432099,138.98302084701157
8.248000000000001,0.999977293271061,138.5991363461675
8.256,0.9999775215404141,138.2152375596256
8.264,0.999977750801,137.8313239059438
8.272,0.9999779810034024,137.4473948048522
8.280000000000001,0.9999782120990619,137.06344967727452
8.288,0.9999784440402772,136.67948794534936
8.296,0.999978676780207,136.29550903245112
8.304,0.9999789102728713,135.91151236321167
8.312,0.9999791444731526,135.5274973635417
8.32,0.9999793793367961,135.14346346065145
8.328,0.9999796148204115,134.75941008307248
8.336,0.9999798508814716,134.37533666067839
8.344,0.9999800874783122,133.99124262470647
8.352,0.9999803245701329,133.60712740777836
8.36,0.9999805621169945,133.22299044392167
8.368,0.9999808000798203,132.83883116859056
8.376,0.999981038420391,132.45464901868746
8.384,0.9999812771013472,132.0704434325835
8.392,0.9999815160861834,131.6862138501401
8.4,0.9999817553392492,131.30195971272963
8.408,0.9999819948257442,130.91768046325672
8.416,0.9999822345117164,130.53337554617886
8.424,0.9999824743640588,130.14904440752795
8.432,0.9999827143505061,129.76468649493046
8.44,0.9999829544396304,129.38030125762927
8.448,0.9999831946008388,128.9958881465036
8.456,0.9999834348043671,128.61144661409094
8.464,0.9999836750212776,128.2269761146068
8.472,0.9999839152234531,127.84247610396656
8.48,0.9999841553835914,127.4579460398054
8.488,0.9999843954752027,127.07338538149996
8.496,0.9999846354726007,126.68879359018817
8.504,0.9999848753509007,126.30417012879091
8.512,0.9999851150860105,125.91951446203191
8.52,0.9999853546546261,125.53482605645915
8.528,0.9999855940342262,125.15010438046485
8.536,0.9999858332030624,124.76534890430676
8.544,0.999986072140157,124.38055910012818
8.552,0.9999863108252924,123.99573444197908
8.56,0.9999865492390055,123.61087440583617
8.568,0.9999867873625806,123.22597846962393
8.576,0.9999870251780419,122.84104611323453
8.584,0.9999872626681445,122.456076818549
8.592,0.9999874998163684,122.07107006945692
8.6,0.9999877366069089,121.68602535187763
8.608,0.9999879730246695,121.30094215377987
8.616,0.9999882090552528,120.91581996520274
8.624,0.999988444684952,120.53065827827557
8.632,0.9999886799007429,120.14545658723868
8.64,0.999988914690273,119.76021438846311
8.648,0.9999891490418554,119.37493118047148
8.656,0.9999893829444575,118.9896064639574
8.664,0.9999896163876909,118.60423974180664
8.672,0.9999898493618051,118.21883051911622
8.68,0.9999900818576741,117.8333783032154
8.688,0.9999903138667898,117.44788260368502
8.696,0.9999905453812497,117.06234293237826
8.704,0.999990776393748,116.67675880343977
8.712,0.9999910068975654,116.29112973332663
8.72,0.9999912368865583,115.90545524082727
8.728,0.999991466355149,115.51973484708218
8.736,0.9999916952983147,115.13396807560311
8.744,0.9999919237115772,114.74815445229349
8.752,0.9999921515909914,114.36229350546752
8.76,0.9999923789331355,113.97638476587059
8.768,0.9999926057350997,113.59042776669826
8.776,0.9999928319944746,113.20442204361662
8.784,0.9999930577093402,112.81836713478114
8.792,0.9999932828782562,112.43226258085699
8.8,0.9999935075002476,112.04610792503777
8.808,0.9999937315747969,111.65990271306573
8.815999999999999,0.9999939551018299,111.27364649325058
8.824,0.9999941780817057,110.88733881648903
8.832,0.9999944005152037,110.50097923628442
8.84,0.999994622403514,110.11456730876569
8.847999999999999,0.9999948437482233,109.7281025927065
8.856,0.9999950645513056,109.34158464954456
8.864,0.999995284815108,108.95501304340091
8.872,0.9999955045423403,108.56838734109887
8.879999999999999,0.9999957237360628,108.18170711218274
8.888,0.9999959423996737,107.79497192893713
8.896,0.9999961605368982,107.40818136640591
8.904,0.9999963781517759,107.02133500241084
8.911999999999999,0.9999965952486478,106.63443241757035
8.92,0.9999968118321462,106.2474731953183
8.928,0.999997027907181,105.8604569219229
8.936,0.9999972434789277,105.47338318650516
8.943999999999999,0.9999974585528159,105.08625158105718
8.952,0.9999976731345175,104.69906170046094
8.96,0.9999978872299324,104.31181314250681
8.968,0.9999981008451795,103.92450550791176
8.975999999999999,0.9999983139865811,103.53713840033753
8.984,0.9999985266606537,103.14971142640898
8.992,0.9999987388740937,102.76222419573246
9.0,0.9999989506337668,102.37467632091371
9.008,0.9999991619466946,101.9870674175757
9.016,0.9999993728200433,101.59939710437689
9.024000000000001,0.9999995832611112,101.21166500302907
9.032,0.999999793277316,100.82387073831516
9.04,1.0,100.43601393810674
9.048,1.0,100.04809423338185
9.056000000000001,0.9999999999999999,99.6601112582428
9.064,1.0,99.27206464993343
9.072,1.0,98.88395404885647
9.08,1.0,98.49577909859097
9.088000000000001,0.9999999999999999,98.10753944590978
9.096,1.0,97.71923474079657
9.104,0.9999999999999999,97.33086463646274
9.112,1.0,96.94242878936463
9.120000000000001,1.0,96.5539268592206
9.128,1.0,96.16535850902768
9.136,1.0,95.77672340507829
9.144,1.0,95.38802121697684
9.152000000000001,1.0,94.99925161765668
9.16,1.0,94.61041428339631
9.168,0.9999999999999999,94.2215088938356
9.176,0.9999999999999999,93.83253513199232
9.184000000000001,1.0000000000000002,93.44349268427843
9.192,1.0,93.05438124051595
9.2,1.0,92.66520049395301
9.208,1.0,92.27595014127962
9.216000000000001,0.9999999999999999,91.88662988264389
9.224,0.9999999999999999,91.49723942166737
9.232,1.0,91.10777846546058
9.24,1.0,90.7182467246386
9.248000000000001,1.0,90.32864391333662
9.256,1.0,89.93896974922498
9.264,0.9999999999999999,89.5492239535243
9.272,1.0,89.15940625102054
9.280000000000001,0.9999999999999999,88.76951637008011
9.288,1.0,88.37955404266461
9.296,0.9999999999999999,87.98951900434524
9.304,1.0,87.59941099431761
9.312000000000001,1.0,87.20922975541633
9.32,0.9999999999999998,86.81897503412921
9.328,1.0,86.42864658061126
9.336,1.0,86.03824414869898
9.344,0.9999999999999999,85.64776749592455
9.352,1.0,85.25721638352911
9.36,1.0,84.86659057647714
9.368,1.0,84.47588984346925
9.376,1.0,84.08511395695649
9.384,1.0,83.69426269315282
9.392,1.0,83.3033358320491
9.4,1.0,82.91233315742531
9.408,1.0,82.52125445686423
9.416,1.0,82.13009952176354
9.424,0.9999999999999999,81.73886814734904
9.432,1.0,81.34756013268651
9.44,0.9999999999999999,80.95617528069471
9.448,1.0,80.56471339815688
9.456,1.0,80.1731742957335
9.464,0.9999999999999999,79.78155778797348
9.472,0.9999999999999999,79.38986369332653
9.48,1.0,78.99809183415422
9.488,1.0,78.60624203674195
9.496,1.0,78.21431413130959
9.504,0.9999999999999999,77.8223079520234
9.512,0.9999999999999999,77.43022333700615
9.52,1.0,77.0380601283487
9.528,1.0,76.64581817212
9.536,1.0,76.2534973183782
9.544,1.0,75.86109742118023
9.552,1.0,75.46861833859282
9.56,0.9999999999999999,75.07605993270165
9.568,0.9999999999999999,74.68342206962187
9.576,1.0,74.29070461950708
9.584,1.0,73.89790745655955
9.592,0.9999999999999999,73.50503045903874
9.6,1.0,73.11207350927113
9.608,0.9999999999999999,72.71903649365852
9.616,0.9999999999999999,72.32591930268747
9.624,1.0,71.93272183093717
9.632,1.0,71.53944397708854
9.64,1.0,71.14608564393178
9.648,1.0,70.75264673837512
9.656,0.9999999999999999,70.35912717145189
9.664,0.9999999999999999,69.96552685832896
9.672,1.0,69.5718457183135
9.68,1.0,69.17808367486083
9.688,1.0,68.78424065558106
9.696,1.0,68.39031659224644
9.704,1.0,67.99631142079741
9.712,0.9999999999999999,67.60222508134994
9.72,1.0,67.20805751820092
9.728,1.0,66.81380867983508
9.736,1.0,66.41947851893016
9.744,1.0,66.02506699236329
9.752,0.9999999999999999,65.63057406121578
9.76,0.9999999999999999,65.23599969077905
9.768,0.9999999999999998,64.84134385055907
9.776,1.0,64.44660651428191
9.784,1.0,64.0517876598976
9.792,0.9999999999999999,63.65688726958535
9.8,0.9999999999999998,63.26190532975704
9.808,1.0,62.866841831061954
9.816,1.0,62.4716967683898
9.824,1.0,62.07647014087499
9.832,1.0,61.68116195189937
9.84,0.9999999999999999,61.28577220909593
9.847999999999999,1.0,60.89030092435115
9.856,1.0,60.49474811380798
9.864,0.9999999999999999,60.099113797868355
9.872,0.9999999999999999,59.70339800119533
9.879999999999999,1.0,59.3076007527149
9.888,1.0,58.911722085617875
9.896,1.0,58.51576203736168
9.904,1.0,58.11972064967138
9.911999999999999,1.0,57.72359796854067
9.92,1.0,57.327394044232825
9.928,0.9999999999999999,56.93110893128143
9.936,1.0,56.534742688490695
9.943999999999999,1.0,56.13829537893528
9.952,0.9999999999999999,55.74176706996037
9.96,1.0,55.34515783318153
9.968,0.9999999999999999,54.94846774448387
