freq,mag,phase
6.0,0.9993473784288195,-134.566411530301
6.002287104,0.9993882674775758,-134.70603469923023
6.004574208,0.9994668295437819,-134.84650099515554
6.006861312,0.9995788723558959,-134.9883169303507
6.009147904,0.999717257943038,-135.13195753188037
6.011435008,0.9998732303394163,-135.2776748741835
6.013722112,1.0000370285986067,-135.42571900575993
6.016009216,1.0001981857210132,-135.5761165824372
6.01829632,1.0003465405813856,-135.72871209684786
6.020583424,1.0004726924218228,-135.88329551596024
6.022870016,1.0005686649718268,-136.039482908827
6.02515712,1.0006283288405067,-136.19672216933145
6.027444224,1.0006479858163384,-136.3545851826434
6.029731328,1.0006264327946408,-136.512386631741
6.032018432,1.000564909940073,-136.66953425775
6.034305536,1.0004672238530135,-136.82555545584682
6.036592128,1.0003397075176885,-136.97990925526662
6.038879232,1.00019031217081,-137.13223012951306
6.041166336,1.000028465843161,-137.28230312290367
6.04345344,0.9998644824684048,-137.4299557180166
6.045740544,0.9997086705009756,-137.5752507675765
6.048027648,0.9995709332720668,-137.71839865690123
6.05031424,0.9994599569269951,-137.85970952212426
6.052601344,0.9993828585314515,-137.99964865752773
6.054888448,0.9993444734171391,-138.1387214591568
6.057175552,0.9993472133699886,-138.2774947944287
6.059462656,0.9993910638797475,-138.41658405174869
6.06174976,0.9994731349653507,-138.55658120541062
6.064036352,0.9995882378937495,-138.69797218893902
6.066323456,0.9997291619318408,-138.84121237818442
6.06861056,0.9998869144500052,-138.9865818213627
6.070897664,1.0000515085151085,-139.13430442224433
6.073184768,1.0002126305378773,-139.2843571655404
6.075471872,1.0003599480168135,-139.43664594475644
6.077758464,1.000484309323751,-139.5908186552124
6.080045568,1.0005775951262035,-139.74661374089692
6.082332672,1.0006342029935245,-139.90342589321568
6.084619776,1.0006503024411482,-140.06077988525834
6.08690688,1.0006249077832101,-140.21805450134934
6.089193984,1.0005597722553283,-140.37459192317309
6.091481088,1.0004588199176014,-140.52996513197115
6.09376768,1.0003284062757571,-140.6836061953937
6.096054784,1.0001768747530926,-140.83519007921674
6.098341888,1.000013827569842,-140.98443408363755
6.100628992,0.9998494446505239,-141.1313150934085
6.102916096,0.9996942595627073,-141.27583319910192
6.1052032,0.99955799734684,-141.41821615965452
6.107489792,0.9994493845413663,-141.5588222020517
6.109776896,0.9993752014146247,-141.6979966388986
6.112064,0.9993402538762072,-141.83640684735192
6.114351104,0.9993467452147722,-141.9745786158518
6.116638208,0.9993943807328125,-142.11311595775774
6.118925312,0.9994799360528337,-142.25259629445605
6.121211904,0.9995982456112834,-142.3935040420488
6.123499008,0.9997415699602235,-142.5363340537639
6.125786112,0.9999010465774472,-142.68130446251564
6.128073216,1.0000665334662708,-142.82863647070045
6.13036032,1.000227337342892,-142.97831318998107
6.132647424,1.0003736495986204,-143.13019998937975
6.134934016,1.0004960505310265,-143.28399437439063
6.13722112,1.0005865862608612,-143.439328671669
6.139508224,1.0006398652852893,-143.59564215883537
6.141795328,1.000652366444322,-143.75243130224774
6.144082432,1.0006232340979633,-143.90908226098236
6.146369536,1.0005542768131541,-144.06500026911976
6.148656128,1.0004499355652199,-144.21963941311927
6.150943232,1.0003167625974265,-144.37253725851113
6.153230336,1.0001632426979825,-144.52331755157462
6.15551744,0.9999988712248242,-144.67175930420655
6.157804544,0.9998341631515588,-144.8177867763324
6.160091648,0.999679651578081,-144.9614942025825
6.162378752,0.9995449556871812,-145.10304071992016
6.164665344,0.9994387424856802,-145.2428114077723
6.166952448,0.9993676244728507,-145.38127304506438
6.169239552,0.9993362611863105,-145.51896236769187
6.171526656,0.9993465827621975,-145.6564687995407
6.17381376,0.9993979599070921,-145.79436799033303
6.176100864,0.9994871100840204,-145.93329821382866
6.178387456,0.9996084922464539,-146.0737337246183
6.18067456,0.9997543867989288,-146.21608109813576
6.182961664,0.9999154275321295,-146.36061546267354
6.185248768,1.0000816007584723,-146.50750445808873
6.187535872,1.0002422328099752,-146.65675219667693
6.189822976,1.0003873112705897,-146.80821840430107
6.192109568,1.0005076332083775,-146.96153955754895
6.194396672,1.0005954528581877,-147.11636180700023
6.196683776,1.0006453295685542,-147.272131720079
6.19897088,1.0006540294360493,-147.42833969724035
6.201257984,1.0006209743448073,-147.58433189132984
6.203545088,1.0005483648449043,-147.73955571960929
6.20583168,1.0004407109060698,-147.8933905979855
6.208118784,1.0003047790396742,-148.04547848892076
6.210405888,1.0001490372688542,-148.19542304021056
6.212692992,0.9999835758476069,-148.34299034445814
6.214980096,0.9998186826400735,-148.4881206802892
6.2172672,0.9996649119962236,-148.63094573437735
6.219553792,0.9995319348684449,-148.77161151866804
6.221840896,0.9994281428028949,-148.91054873595957
6.224128,0.9993603177194228,-149.04822543978878
6.226415104,0.9993325344108615,-149.18515417654677
6.228702208,0.999346684777807,-149.32195103304144
6.230989312,0.9994019121302128,-149.45922583514493
6.233275904,0.9994946549391811,-149.59754570583104
6.235563008,0.9996191197547623,-149.73743703022888
6.237850112,0.9997674068554218,-149.8792649759017
6.240137216,0.9999301369559769,-150.0233200143015
6.24242432,1.000096896450995,-150.16975950838503
6.244711424,1.0002573161338755,-150.31852510112031
6.246998528,1.0004010466095166,-150.46949299967144
6.24928512,1.0005191550321875,-150.6223513554505
6.251572224,1.0006040377181882,-150.77661766529417
6.253859328,1.0006504273394552,-150.9318176673624
6.256146432,1.0006553322268865,-151.08736258215606
6.258433536,1.000618464936046,-151.24264130768793
6.26072064,1.000542008413204,-151.3970847703018
6.263007232,1.000430924963573,-151.55013224192317
6.265294336,1.000292219594582,-151.70134381892635
6.26758144,1.0001345613321793,-151.85036307651356
6.269868544,0.999967953857901,-151.99704834285137
6.272155648,0.9998029991073303,-152.14123572075928
6.274442752,0.9996500604317611,-152.28310160796212
6.276729344,0.9995189137459574,-152.42289243009898
6.279016448,0.9994177484102417,-152.56092593754045
6.281303552,0.9993531843993492,-152.69775599321605
6.283590656,0.999329143677546,-152.83390094359584
6.28587776,0.9993472441686625,-152.96992040782138
6.288164864,0.9994063815567329,-153.1065479485308
6.290451456,0.9995028186917784,-153.24424646709653
6.29273856,0.9996303250807914,-153.38353847627866
6.295025664,0.9997810126851094,-153.52482128517832
6.297312768,0.9999452065619431,-153.66839581714268
6.299599872,1.0001126180502986,-153.814290522305
6.301886976,1.0002725493885471,-153.9625812773975
6.304173568,1.0004149320623288,-154.11301257453985
6.306460672,1.0005306599684958,-154.26530250002082
6.308747776,1.000612595162125,-154.41901290652635
6.31103488,1.0006553800342524,-154.57354203764703
6.313321984,1.0006563895606482,-154.72841029789373
6.315609088,1.0006153919889238,-154.88294085161044
6.317896192,1.0005352470120745,-155.03655404815962
6.320182784,1.00042073067675,-155.18876689579758
6.322469888,1.0002792473949884,-155.33908932856534
6.324756992,1.000119666915471,-155.48714372666228
6.327044096,0.9999520239193381,-155.6328297566961
6.3293312,0.9997870285164246,-155.77605306621425
6.331618304,0.9996350923509848,-155.91695074898573
6.333904896,0.9995058394045383,-156.05575113079556
6.336192,0.9994074822448414,-156.19288344414977
6.338479104,0.9993462674267685,-156.3288185075631
6.340766208,0.9993260730695874,-156.4641325139929
6.343053312,0.9993482746360354,-156.59941716946406
6.345340416,0.9994112585130618,-156.73528586518896
6.347627008,0.9995113578567572,-156.8723462617647
6.349914112,0.9996419884129498,-157.01102092399626
6.352201216,0.999795050574299,-157.15172314898578
6.35448832,0.9999606899682241,-157.29472277419154
6.356775424,1.0001284939187212,-157.44011217910628
6.359062528,1.0002879289100657,-157.5878663372762
6.36134912,1.0004287757113486,-157.73770654476317
6.363636224,1.0005420920959949,-157.88940988391818
6.365923328,1.0006208802229286,-158.04249599098884
6.368210432,1.0006600572829127,-158.19635876713104
6.370497536,1.0006570542380837,-158.3504975741031
6.37278464,1.0006120571572579,-158.50424118910925
6.375071232,1.0005280126830043,-158.6569919216092
6.377358336,1.0004101100293836,-158.8082552681871
6.37964544,1.0002658413493672,-158.9575949446061
6.381932544,1.0001043881525382,-159.1047160596183
6.384219648,0.9999358249903465,-159.24935835574595
6.386506752,0.999770905734815,-159.3915628208868
6.388793344,0.9996200497505268,-159.53143705975359
6.391080448,0.9994928342526672,-159.6692759192394
6.393367552,0.9993972915239528,-159.80545025298056
6.395654656,0.9993395450927105,-159.940467485851
6.39794176,0.9993233362222111,-160.07491162732305
6.400228864,0.9993495269137928,-160.2094051290729
6.402515968,0.9994167270109758,-160.3445416502035
6.40480256,0.9995204100404194,-160.48086588888324
6.407089664,0.9996541447477563,-160.61888973015863
6.409376768,0.9998095062088989,-160.75901405324666
6.411663872,0.9999765757030398,-160.90142315204773
6.413950976,1.0001447801902377,-161.04621187754034
6.41623808,1.00030348529878,-161.1933893572351
6.418524672,1.000442716527591,-161.34265770407904
6.420811776,1.0005535891799742,-161.4937562992695
6.42309888,1.0006290791776933,-161.64613396984947
6.425385984,1.0006643848827044,-161.79932043935335
6.427673088,1.000657305947885,-161.95264045915823
6.429960192,1.0006081743084443,-162.10554832674586
6.432246784,1.000520283868061,-162.25741976139304
6.434533888,1.0003989424110848,-162.40774016542412
6.436820992,1.0002520369458034,-162.55607329459315
6.439108096,1.0000886298908587,-162.70213764910955
6.4413952,0.9999192203993061,-162.84577581873202
6.443682304,0.9997544360162395,-162.98691242188573
6.445968896,0.9996047277175619,-163.12574505517884
6.448256,0.9994798054690027,-163.2625075566345
6.450543104,0.999387226764394,-163.39768361448196
6.452830208,0.999333178604911,-163.5317820520426
6.455117312,0.9993209770403427,-163.66531598958133
6.457404416,0.9993513729642534,-163.79897698009003
6.459691008,0.9994224769515063,-163.93332527083075
6.461978112,0.9995298894516809,-164.06894675157096
6.464265216,0.9996667901253079,-164.20628718574326
6.46655232,0.9998243304550549,-164.34577062511525
6.468839424,0.9999927984089114,-164.48758555246883
6.471126528,1.000161277825066,-164.6317981483714
6.473413632,1.0003192503206428,-164.77834881742032
6.475700224,1.0004566673100599,-164.92703083245968
6.477987328,1.000564913170958,-165.07743488070207
6.480274432,1.0006369793982197,-165.2291139180531
6.482561536,1.0006683007302484,-165.38153108905396
6.48484864,1.0006571063663707,-165.53404298406235
6.487135744,1.0006038501129464,-165.6860469188035
6.489422336,1.000512003045985,-165.8370105052484
6.49170944,1.0003873652545585,-165.98632096404413
6.493996544,1.0002376755281785,-166.13365503880183
6.496283648,1.0000724846523674,-166.27860590694186
6.498570752,0.9999023636235529,-166.421127925715
6.500857856,0.9997378482063453,-166.5611915698915
6.503144448,0.9995895194370137,-166.69891377640715
6.505431552,0.9994667778593642,-166.83467125243723
6.507718656,0.9993774236885383,-166.96880946682973
6.51000576,0.9993270459972469,-167.10191721299145
6.512292864,0.9993189418362012,-167.2345513409341
6.514579968,0.9993536632474685,-167.36732081771856
6.51686656,0.9994289078084956,-167.50085618195163
6.519153664,0.9995399993459803,-167.6357507406862
6.521440768,0.9996798597572386,-167.7724228087411
6.523727872,0.9998397878544873,-167.91122609628297
6.526014976,1.0000093504973477,-168.0523948167556
6.52830208,1.000178134990989,-168.19600891660707
6.530588672,1.0003352509625227,-168.34188699475757
6.532875776,1.0004707569418372,-168.48990489127584
6.53516288,1.0005761413566714,-168.6396532862358
6.537449984,1.000644675072601,-168.7905964765711
6.539737088,1.000672072204414,-168.9422239357821
6.542024192,1.0006565859469383,-169.09389462519908
6.544310784,1.000599140490999,-169.24498682640504
6.546597888,1.0005032719757845,-169.39495243478535
6.548884992,1.0003751260658842,-169.5432459977504
6.551172096,1.0002227544724578,-169.68950699603826
6.5534592,1.0000559567173024,-169.8333717295434
6.555746304,0.9998851044480613,-169.97475591650687
6.558033408,0.9997210239272385,-170.11365527405735
6.56032,0.9995742526873659,-170.2502784273639
6.562607104,0.9994538669033359,-170.38492738184033
6.564894208,0.9993678054354089,-170.51803890391423
6.567181312,0.9993212280869246,-170.65013501392232
6.569468416,0.9993173844671859,-170.78180069019066
6.57175552,0.9993564862451086,-170.9137255598827
6.574042112,0.9994358630079703,-171.0464370489476
6.576329216,0.9995507701096656,-171.18054905511886
6.57861632,0.9996936964339878,-171.31650982909468
6.580903424,0.9998556705402001,-171.4546223704995
6.583190528,1.0000265101081005,-171.59514812173794
6.585477632,1.0001952909172982,-171.7380963765471
6.587764224,1.0003513951084473,-171.88336275187086
6.590051328,1.0004848937798765,-172.03068519411246
6.592338432,1.0005873105104788,-172.17971121518337
6.594625536,1.0006522152663326,-172.32988805041052
6.59691264,1.000675543641227,-172.48069281846236
6.599199744,1.000655627297338,-172.6314595216672
6.601486336,1.0005937725866454,-172.7816161969942
6.60377344,1.0004939839303746,-172.93057064862055
6.606060544,1.0003624558674915,-173.07780483230223
6.608347648,1.0002074922421031,-173.22292144908633
6.610634752,1.000039022802884,-173.36565883423387
6.612921856,0.9998675451155539,-173.50589537602667
6.615208448,0.9997039829908012,-173.64364619594843
6.617495552,0.9995587450753102,-173.77910097779719
6.619782656,0.9994410139772605,-173.9126394474067
6.62206976,0.9993583139246583,-174.0446295068863
6.624356864,0.9993158231293046,-174.17571164495524
6.626643968,0.9993162409404137,-174.30642503105764
6.628931072,0.9993596907923096,-174.43746518294876
6.631217664,0.9994433479427254,-174.56935110253812
6.633504768,0.9995619074108687,-174.7026716640472
6.635791872,0.9997078785593059,-174.83787244801252
6.638078976,0.9998720042977548,-174.97531741141037
6.64036608,1.0000439161204913,-175.11516203068237
6.642653184,1.000212685634911,-175.2574395261935
6.644939776,1.000367630891793,-175.40202222685582
6.64722688,1.0004990160366602,-175.54865201638336
6.649513984,1.000598308221045,-175.69690264274843
6.651801088,1.000659437023084,-175.84633194191952
6.654088192,1.0006785152964102,-175.99626330529023
6.656375296,1.0006542071713747,-176.14613482224323
6.658661888,1.000587935604007,-176.29528313626514
6.660948992,1.0004840877561942,-176.44322637632112
6.663236096,1.00034915797234,-176.58937873301826
6.6655232,1.0001917388512411,-176.73333689375698
6.667810304,1.0000216025373696,-176.87488611669576
6.670097408,0.999849669552829,-177.01395050809694
6.672384,0.9996867037901256,-177.1504818714601
6.674671104,0.9995432271279813,-177.2847880124439
6.676958208,0.9994282072492989,-177.4171700023967
6.679245312,0.9993489913918758,-177.54808823577338
6.681532416,0.9993106551374544,-177.67811497342583
6.68381952,0.9993155869098719,-177.8078742959161
6.686106112,0.9993635566574767,-177.93794930928271
6.688393216,0.9994514683102768,-178.0689868073172
6.69068032,0.9995737110920334,-178.20151856644287
6.692967424,0.9997227201038863,-178.3359917976206
6.695254528,0.9998889942431766,-178.4726998861422
6.697541632,1.0000618797821141,-178.61183398592726
6.699828224,1.000230578132284,-178.75344560874905
6.702115328,1.000384095060968,-178.8973321799061
6.704402432,1.0005132088251087,-179.04324834301727
6.706689536,1.0006093044192903,-179.19074989931164
6.70897664,1.000666511453598,-179.33929483290115
6.711263744,1.0006811229766277,-179.48836878885194
6.713550848,1.000652216093956,-179.6373016001936
6.71583744,1.0005814831884514,-179.7854725678618
6.718124544,1.0004737208906636,-179.9322988306059
6.720411648,1.0003352926049358,179.92269346119758
6.722698752,1.0001753477488942,179.77986823073508
6.724985856,1.0000037612619064,179.63949249480328
6.72727296,0.9998314036364694,179.50168390337845
6.729559552,0.9996691789258909,179.3663183860967
6.731846656,0.9995276048889471,179.23325696984037
6.73413376,0.999415527120897,179.10204324806085
6.736420864,0.9993400204919456,178.9722250433778
6.738707968,0.9993058254231312,178.84325347518651
6.740995072,0.9993152918163157,178.71451749729482
6.743281664,0.9993679132080266,178.58534332362683
6.745568768,0.9994600734991966,178.45517797543678
6.747855872,0.999586227474736,178.32345002971402
6.750142976,0.9997381602613076,178.18973234828817
6.75243008,0.9999063310867298,178.05374199108556
6.754717184,1.0000801123000733,177.91529444061098
6.757003776,1.0002484709286723,177.7744121506145
6.75929088,1.0004007118518459,177.63122456403715
6.761577984,1.0005272649093275,177.4860766180208
6.763865088,1.0006200208450053,177.33934792444614
6.766152192,1.0006731958473567,177.19161663271473
6.768439296,1.000683256278138,177.04342767053453
6.770725888,1.000649693474641,176.8954909986731
6.773012992,1.0005745678859288,176.74832342874384
6.775300096,1.000462708979011,176.60261887456392
6.7775872,1.0003208811379232,176.4587724122873
6.779874304,1.0001584376789288,176.3171579134645
6.782161408,0.9999853563072113,176.17802792729026
6.784448512,0.9998127557193,176.04145608645263
6.786735104,0.9996515707523116,175.90732911646276
6.789022208,0.9995120181098954,175.7754198844068
6.791309312,0.9994028335734024,175.64543759784996
6.793596416,0.999331162735751,175.51672146914976
6.79588352,0.9993014306652117,175.3888383168895
6.798170624,0.9993155874860721,175.26108984505058
6.800457216,0.9993727427654078,175.1328723605744
6.80274432,0.9994693239619595,175.00355943433158
6.805031424,0.9995991889070257,174.8726617165873
6.807318528,0.9997540920229465,174.7397429586105
6.809605632,0.9999242013669137,174.6044629889545
6.811892736,1.0000987951043148,174.4667562010378
6.814179328,1.0002667588633791,174.32658014328297
6.816466432,1.0004173705431607,174.1841108544952
6.818753536,1.0005412330539407,174.0396975412814
6.82104064,1.0006305764511891,173.8937761352108
6.823327744,1.0006795021059436,173.74688797923184
6.825614848,1.0006849641916784,173.59965686119796
6.82790144,1.0006467545401967,173.4526990644027
6.830188544,1.0005669824712007,173.30661666749836
6.832475648,1.0004509365353091,173.1620200233744
6.834762752,1.0003059678626511,173.01932252965867
6.837049856,1.0001409355325561,172.87893476862783
6.83933696,0.9999666210038713,172.74105376836187
6.841623552,0.9997938803973108,172.6057312584745
6.843910656,0.9996337488365684,172.47286785997557
6.84619776,0.999496335670761,172.34223552008177
6.848484864,0.999390417413091,172.2134055213324
6.850771968,0.9993227201720186,172.0858604182443
6.853059072,0.9992975739224478,171.9590415661272
6.855345664,0.9993164243729223,171.83230481652984
6.857632768,0.9993784090563553,171.70505395931295
6.859919872,0.9994793635122873,171.5766076265963
6.862206976,0.9996128370780653,171.44655236692137
6.86449408,0.9997707172519442,171.3143746446775
6.866781184,0.9999426587417587,171.17985715654325
6.869068288,1.0001178497804146,171.042852274352
6.87135488,1.0002852642709874,170.90338066146816
6.873641984,1.000434300814795,170.76164822713218
6.875929088,1.0005553040062134,170.61801850711657
6.878216192,1.0006409328625778,170.4729253943155
6.880503296,1.00068547346746,170.32691672629576
6.8827904,1.0006861256763642,170.18062098311563
6.885076992,1.0006430215075701,170.03467814981448
6.887364096,1.0005587768525979,169.88969081766103
6.8896512,1.0004386262226819,169.74622495785798
6.891938304,1.0002902879045767,169.60476273621376
6.894225408,1.0001229779593646,169.4655850273008
6.896512512,0.9999473242587341,169.32899670864896
6.898799104,0.9997746780908496,169.1949322080128
6.901086208,0.9996158533213515,169.06337033058654
6.903373312,0.9994806884170252,168.9339432550438
6.905660416,0.9993782300363804,168.8063243260242
6.90794752,0.9993145763640184,168.67991964014374
6.910234624,0.9992940549893486,168.55421832281675
