freq,mag,phase
6.0,0.9999941513489815,-140.9293492888998
6.008,0.9999936155278556,-141.22986184807257
6.016,0.999993095968768,-141.52973716167003
6.024,0.9999925922832535,-141.82898091907236
6.032,0.9999921040911927,-142.12759878254525
6.04,0.9999916310206498,-142.4255963874362
6.048,0.9999911727077166,-142.72297934237156
6.056,0.9999907287963584,-143.01975322945492
6.064,0.9999902989382611,-143.31592360446578
6.072,0.9999898827926822,-143.61149599705914
6.08,0.9999894800263045,-143.90647591096612
6.088,0.9999890903130926,-144.20086882419454
6.096,0.9999887133341491,-144.49468018923088
6.104,0.9999883487775779,-144.78791543324206
6.112,0.9999879963383455,-145.0805799582784
6.12,0.9999876557181507,-145.3726791414765
6.128,0.999987326625287,-145.66421833526292
6.136,0.9999870087745143,-145.9552028675581
6.144,0.999986701886937,-146.24563804198053
6.152,0.9999864056898727,-146.53552913805134
6.16,0.9999861199167309,-146.8248814113994
6.168,0.9999858443068937,-147.11370009396617
6.176,0.9999855786055977,-147.401990394211
6.184,0.9999853225638141,-147.68975749731678
6.192,0.9999850759381381,-147.97700656539533
6.2,0.9999848384906748,-148.2637427376933
6.208,0.9999846099889282,-148.5499711307979
6.216,0.9999843902056961,-148.8356968388427
6.224,0.9999841789189604,-149.12092493371364
6.232,0.9999839759117812,-149.4056604652546
6.24,0.9999837809722025,-149.6899084614736
6.248,0.9999835938931398,-149.97367392874824
6.256,0.999983414472292,-150.25696185203154
6.264,0.9999832425120341,-150.53977719505767
6.272,0.9999830778193343,-150.82212490054718
6.28,0.9999829202056464,-151.1040098904123
6.288,0.9999827694868287,-151.3854370659624
6.296,0.9999826254830498,-151.66641130810845
6.304,0.999982488018697,-151.94693747756838
6.312,0.999982356922299,-152.227020415071
6.32,0.9999822320264246,-152.5066649415608
6.328,0.9999821131676175,-152.7858758584016
6.336,0.9999820001862985,-153.0646579475804
6.344,0.9999818929266953,-153.343015971911
6.352,0.9999817912367555,-153.62095467523702
6.36,0.9999816949680744,-153.89847878263464
6.368,0.9999816039758168,-154.17559300061532
6.376,0.9999815181186418,-154.45230201732775
6.384,0.9999814372586289,-154.72861050275975
6.392,0.9999813612612072,-155.0045231089397
6.4,0.9999812899950827,-155.28004447013757
6.408,0.999981223332169,-155.5551792030655
6.416,0.999981161147523,-155.8299319070781
6.424,0.9999811033192727,-156.10430716437236
6.432,0.9999810497285544,-156.37830954018696
6.44,0.9999810002594471,-156.6519435830013
6.448,0.9999809547989099,-156.92521382473407
6.456,0.9999809132367212,-157.19812478094133
6.464,0.9999808754654145,-157.47068095101417
6.472,0.9999808413802215,-157.74288681837604
6.48,0.9999808108790125,-158.01474685067905
6.4879999999999995,0.999980783862241,-158.28626550000087
6.496,0.9999807602328826,-158.55744720304014
6.504,0.9999807398963845,-158.82829638131167
6.5120000000000005,0.9999807227606075,-159.09881744134162
6.52,0.9999807087357775,-159.36901477486154
6.5280000000000005,0.9999806977344268,-159.63889275900243
6.536,0.9999806896713489,-159.90845575648777
6.5440000000000005,0.999980684463545,-160.17770811582693
6.552,0.9999806820301758,-160.44665417150676
6.5600000000000005,0.9999806822925117,-160.7152982441843
6.568,0.9999806851738887,-160.98364464087715
6.5760000000000005,0.9999806905996578,-161.25169765515528
6.584,0.9999806984971435,-161.51946156733047
6.592,0.9999807087955952,-161.7869406446468
6.6,0.9999807214261461,-162.05413914146953
6.608,0.9999807363217689,-162.32106129947402
6.616,0.9999807534172348,-162.58771134783404
6.624,0.9999807726490707,-162.8540935034094
6.632,0.9999807939555196,-163.12021197093324
6.64,0.9999808172765008,-163.38607094319883
6.648,0.9999808425535711,-163.65167460124573
6.656,0.9999808697298854,-163.91702711454542
6.664,0.9999808987501608,-164.18213264118657
6.672,0.9999809295606394,-164.44699532805973
6.68,0.9999809621090519,-164.71161931104146
6.688,0.9999809963445817,-164.97600871517795
6.696,0.9999810322178325,-165.24016765486826
6.704,0.9999810696807927,-165.504100234047
6.712,0.9999811086868021,-165.7678105463663
6.72,0.9999811491905197,-166.03130267537762
6.728,0.999981191147892,-166.29458069471295
6.736,0.9999812345161218,-166.55764866826524
6.744,0.9999812792536368,-166.8205106503688
6.752,0.9999813253200605,-167.08317068597887
6.76,0.9999813726761808,-167.3456328108509
6.768,0.9999814212839244,-167.60790105171904
6.776,0.9999814711063256,-167.8699794264746
6.784,0.9999815221074999,-168.13187194434377
6.792,0.9999815742526165,-168.39358260606483
6.8,0.9999816275078718,-168.6551154040649
6.808,0.9999816818404625,-168.9164743226365
6.816,0.9999817372185621,-169.17766333811326
6.824,0.9999817936112946,-169.43868641904535
6.832,0.9999818509887083,-169.69954752637454
6.84,0.9999819093217549,-169.96025061360865
6.848,0.9999819685822648,-170.22079962699564
6.856,0.9999820287429221,-170.48119850569736
6.864,0.9999820897772455,-170.74145118196253
6.872,0.9999821516595631,-171.00156158129965
6.88,0.9999822143649926,-171.26153362264935
6.888,0.9999822778694196,-171.5213712185562
6.896,0.9999823421494766,-171.78107827534026
6.904,0.9999824071825216,-172.0406586932683
6.912,0.9999824729466223,-172.30011636672415
6.92,0.9999825394205304,-172.5594551843792
6.928,0.9999826065836677,-172.8186790293623
6.936,0.9999826744161047,-173.07779177942896
6.944,0.9999827428985438,-173.33679730713075
6.952,0.9999828120122995,-173.59569947998375
6.96,0.9999828817392826,-173.85450216063697
6.968,0.9999829520619831,-174.11320920704026
6.976,0.9999830229634515,-174.3718244726118
6.984,0.9999830944272841,-174.63035180640549
6.992,0.9999831664376057,-174.88879505327748
7.0,0.9999832389790559,-175.1471580540529
7.008,0.9999833120367708,-175.40544464569194
7.016,0.9999833855963698,-175.66365866145551
7.024,0.9999834596439406,-175.92180393107068
7.032,0.9999835341660253,-176.179884280896
7.04,0.9999836091496028,-176.43790353408596
7.048,0.9999836845820812,-176.69586551075562
7.056,0.9999837604512773,-176.95377402814466
7.064,0.9999838367454091,-177.21163290078124
7.072,0.9999839134530809,-177.4694459406454
7.08,0.999983990563268,-177.72721695733216
7.088,0.9999840680653084,-177.98494975821475
7.096,0.999984145948888,-178.24264814860672
7.104,0.9999842242040305,-178.50031593192463
7.112,0.999984302821084,-178.75795690984972
7.12,0.9999843817907107,-179.01557488248983
7.128,0.9999844611038771,-179.27317364854073
7.136,0.9999845407518404,-179.5307570054474
7.144,0.9999846207261404,-179.78832874956476
7.152,0.9999847010185865,179.95410732368168
7.16,0.9999847816212526,179.6965474196353
7.168,0.9999848625264602,179.4389877442484
7.176,0.9999849437267732,179.1814245039224
7.184,0.9999850252149907,178.9238539053481
7.192,0.9999851069841313,178.66627215534643
7.2,0.9999851890274288,178.40867546070922
7.208,0.9999852713383239,178.15106002804038
7.216,0.9999853539104515,177.8934220635973
7.224,0.9999854367376358,177.63575777313233
7.232,0.9999855198138818,177.37806336173455
7.24,0.9999856031333653,177.1203350336719
7.248,0.9999856866904292,176.86256899223343
7.256,0.9999857704795694,176.60476143957158
7.264,0.9999858544954334,176.3469085765449
7.272,0.9999859387328114,176.08900660256108
7.28,0.999986023186627,175.83105171541982
7.288,0.9999861078519331,175.5730401111561
7.296,0.9999861927239032,175.3149679838838
7.304,0.9999862777978271,175.05683152563918
7.312,0.999986363069101,174.79862692622484
7.32,0.999986448533226,174.54035037305363
7.328,0.9999865341857971,174.2819980509931
7.336,0.999986620022501,174.02356614220957
7.344,0.999986706039108,173.76505082601304
7.352,0.999986792231468,173.50644827870178
7.36,0.9999868785955043,173.2477546734072
7.368,0.9999869651272077,172.98896617993918
7.376,0.9999870518226327,172.73007896463116
7.384,0.9999871386778915,172.4710891901857
7.392,0.9999872256891491,172.21199301552002
7.4,0.9999873128526182,171.9527865956119
7.4079999999999995,0.9999874001645562,171.6934660813456
7.416,0.999987487621259,171.4340276193579
7.4239999999999995,0.9999875752190567,171.17446735188452
7.432,0.9999876629543091,170.91478141660644
7.4399999999999995,0.9999877508234042,170.6549659464968
7.448,0.9999878388227503,170.39501706966723
7.4559999999999995,0.9999879269487754,170.1349309092153
7.464,0.9999880151979209,169.87470358307127
7.4719999999999995,0.9999881035666384,169.6143312038454
7.48,0.9999881920513879,169.3538098786756
7.4879999999999995,0.9999882806486325,169.09313570907494
7.496,0.9999883693548355,168.83230479077923
7.504,0.9999884581664576,168.57131321359535
7.5120000000000005,0.9999885470799522,168.31015706124884
7.52,0.9999886360917648,168.04883241123284
7.5280000000000005,0.9999887251983282,167.78733533465578
7.536,0.9999888143960597,167.52566189609075
7.5440000000000005,0.9999889036813591,167.26380815342358
7.552,0.9999889930506061,167.0017701577026
7.5600000000000005,0.9999890825001562,166.73954395298693
7.568,0.9999891720263402,166.47712557619673
7.5760000000000005,0.9999892616254608,166.2145110569618
7.584,0.9999893512937894,165.95169641747228
7.5920000000000005,0.9999894410275654,165.6886776723276
7.6,0.9999895308229932,165.42545082838743
7.6080000000000005,0.9999896206762409,165.16201188462134
7.616,0.9999897105834363,164.89835683195992
7.6240000000000006,0.9999898005406681,164.63448165314492
7.632,0.9999898905439808,164.3703823225808
7.640000000000001,0.9999899805893758,164.10605480618537
7.648,0.999990070672807,163.84149506124166
7.656000000000001,0.999990160790181,163.57669903624918
7.664,0.9999902509373562,163.3116626707762
7.672,0.9999903411101386,163.04638189531155
7.68,0.9999904313042829,162.78085263111723
7.688,0.9999905215154892,162.51507079008093
7.696,0.9999906117394043,162.24903227456906
7.704,0.999990701971618,161.98273297727997
7.712,0.9999907922076625,161.71616878109745
7.72,0.999990882443013,161.4493355589444
7.728,0.9999909726730842,161.18222917363715
7.736,0.9999910628932314,160.91484547773973
7.744,0.9999911530987479,160.64718031341872
7.752,0.9999912432848657,160.37922951229822
7.76,0.9999913334467537,160.11098889531553
7.768,0.9999914235795175,159.8424542725767
7.776,0.9999915136781984,159.57362144321286
7.784,0.9999916037377731,159.3044861952367
7.792,0.9999916937531522,159.0350443053996
7.8,0.999991783719182,158.76529153904877
7.808,0.9999918736306409,158.49522364998523
7.816,0.999991963482242,158.22483638032207
7.824,0.9999920532686304,157.95412546034294
7.832,0.9999921429843848,157.68308660836155
7.84,0.9999922326240154,157.41171553058098
7.848,0.9999923221819652,157.1400079209542
7.856,0.9999924116526095,156.86795946104436
7.864,0.9999925010302558,156.59556581988647
7.872,0.9999925903091427,156.32282265384873
7.88,0.9999926794834414,156.0497256064952
7.888,0.9999927685472556,155.7762703084487
7.896,0.9999928574946202,155.50245237725414
7.904,0.9999929463195029,155.22826741724307
7.912,0.999993035015804,154.95371101939836
7.92,0.9999931235773559,154.6787787612196
7.928,0.9999932119979248,154.4034662065897
7.936,0.9999933002712095,154.12776890564146
7.944,0.9999933883908422,153.85168239462556
7.952,0.9999934763503905,153.57520219577881
7.96,0.9999935641433545,153.29832381719373
7.968,0.999993651763171,153.02104275268832
7.976,0.9999937392032109,152.74335448167724
7.984,0.9999938264567824,152.46525446904357
7.992,0.9999939135171285,152.18673816501152
8.0,0.9999940003774316,151.9078010050201
8.008,0.9999940870308104,151.6284384095979
8.016,0.999994173470323,151.34864578423839
8.024000000000001,0.9999942596889668,151.068418519277
8.032,0.9999943456796787,150.78775198976854
8.04,0.9999944314353377,150.5066415553661
8.048,0.9999945169487642,150.2250825602009
8.056000000000001,0.999994602212721,149.94307033276354
8.064,0.9999946872199147,149.6606001857863
8.072,0.9999947719629972,149.37766741612649
8.08,0.9999948564345655,149.0942673046512
8.088000000000001,0.9999949406271635,148.81039511612374
8.096,0.9999950245332829,148.52604609909093
8.104,0.9999951081453645,148.2412154857717
8.112,0.9999951914557983,147.95589849194766
8.120000000000001,0.9999952744569273,147.67009031685484
8.128,0.9999953571410453,147.38378614307683
8.136,0.9999954395004006,147.0969811364396
8.144,0.9999955215271963,146.809670445908
8.152000000000001,0.9999956032135922,146.52184920348384
8.16,0.9999956845517053,146.23351252410575
8.168,0.9999957655336121,145.94465550555054
8.176,0.9999958461513495,145.6552732283366
8.184000000000001,0.9999959263969163,145.3653607556292
8.192,0.9999960062622745,145.07491313314773
8.2,0.9999960857393516,144.78392538907423
8.208,0.9999961648200413,144.49239253396487
8.216000000000001,0.9999962434962056,144.20030956066313
8.224,0.9999963217596762,143.90767144421497
8.232,0.9999963996022557,143.61447314178616
8.24,0.9999964770157211,143.32070959258206
8.248000000000001,0.9999965539918231,143.0263757177698
8.256,0.9999966305222889,142.7314664204026
8.264,0.9999967065988244,142.4359765853464
8.272,0.999996782213116,142.13990107920924
8.280000000000001,0.999996857356832,141.84323475027335
8.288,0.9999969320216237,141.54597242842968
8.296,0.9999970061991293,141.24810892511476
8.304,0.9999970798809747,140.9496390332511
8.312,0.999997153058775,140.65055752718985
8.32,0.9999972257241372,140.35085916265675
8.328,0.9999972978686622,140.05053867670082
8.336,0.9999973694839475,139.74959078764616
8.344,0.9999974405615875,139.44801019504726
8.352,0.9999975110931772,139.1457915796468
8.36,0.9999975810703142,138.84292960333792
8.368,0.9999976504846005,138.53941890912853
8.376,0.9999977193276449,138.23525412111027
8.384,0.9999977875910651,137.9304298444304
8.392,0.9999978552664902,137.62494066526764
8.4,0.9999979223455635,137.3187811508116
8.408,0.9999979888199434,137.01194584924627
8.416,0.9999980546813089,136.7044292897371
8.424,0.9999981199213571,136.39622598242278
8.432,0.9999981845318108,136.08733041841018
8.44,0.9999982485044179,135.77773706977473
8.448,0.9999983118309549,135.46744038956402
8.456,0.9999983745032293,135.1564348118067
8.464,0.9999984365130822,134.84471475152526
8.472,0.9999984978523919,134.5322746047543
8.48,0.9999985585130743,134.21910874856255
8.488,0.9999986184870882,133.90521154108083
8.496,0.9999986777664364,133.590577321534
8.504,0.9999987363431686,133.27520041027907
8.512,0.9999987942093859,132.95907510884751
8.52,0.9999988513572406,132.64219569999398
8.528,0.9999989077789422,132.32455644774933
8.536,0.9999989634667584,132.00615159748062
8.544,0.9999990184130189,131.6869753759554
8.552,0.9999990726101169,131.36702199141325
8.56,0.999999126050515,131.04628563364201
8.568,0.9999991787267455,130.72476047406147
8.576,0.9999992306314147,130.4024406658119
8.584,0.9999992817572063,130.0793203438505
8.592,0.9999993320968839,129.7553936250528
8.6,0.999999381643294,129.43065460832233
8.608,0.9999994303893708,129.1050973747058
8.616,0.999999478328137,128.77871598751625
8.624,0.9999995254527092,128.45150449246245
8.632,0.9999995717563005,128.12345691778663
8.64,0.999999617232224,127.79456727440834
8.648,0.9999996618738949,127.46482955607736
8.656,0.999999705674837,127.13423773953299
8.664,0.9999997486286824,126.80278578467248
8.672,0.9999997907291782,126.47046763472633
8.68,0.9999998319701883,126.13727721644322
8.688,0.9999998723456972,125.8032084402818
8.696,0.9999999118498142,125.4682552006126
8.704,0.9999999504767759,125.13241137592736
8.712,0.9999999882209518,124.79567082905855
8.72,0.9999999999999999,124.45802740740669
8.728,1.0,124.11947494317835
8.736,1.0,123.7800072536323
8.744,1.0,123.43961814133657
8.752,1.0000000000000002,123.09830139443423
8.76,1.0,122.75605078692023
8.768,0.9999999999999999,122.41286007892754
8.776,1.0,122.06872301702475
8.784,1.0000000000000002,121.72363333452324
8.792,1.0,121.37758475179615
8.8,0.9999999999999999,121.03057097660748
8.808,1.0,120.68258570445347
8.815999999999999,1.0,120.33362261891423
8.824,1.0,119.98367539201814
8.832,1.0,119.63273768461757
8.84,1.0,119.2808031467767
8.847999999999999,1.0,118.9278654181716
8.856,1.0,118.57391812850304
8.864,1.0,118.21895489792207
8.872,1.0,117.86296933746848
8.879999999999999,0.9999999999999999,117.50595504952197
8.888,1.0,117.14790562826757
8.896,0.9999999999999999,116.78881466017432
8.904,1.0,116.42867572448777
8.911999999999999,1.0,116.06748239373636
8.92,1.0,115.70522823425267
8.928,1.0,115.34190680670902
8.936,0.9999999999999999,114.97751166666782
8.943999999999999,0.9999999999999998,114.61203636514664
8.952,0.9999999999999999,114.24547444919925
8.96,1.0,113.87781946251191
8.968,1.0,113.50906494601522
8.975999999999999,1.0000000000000002,113.13920443851191
8.984,1.0,112.76823147732138
8.992,1.0,112.39613959894044
9.0,1.0,112.02292233972081
9.008,0.9999999999999998,111.64857323656334
9.016,0.9999999999999998,111.27308582762991
9.024000000000001,1.0,110.89645365307278
9.032,0.9999999999999998,110.51867025578136
9.04,1.0,110.13972918214692
9.048,1.0,109.7596239828459
9.056000000000001,0.9999999999999999,109.37834821364166
9.064,0.9999999999999999,108.99589543620453
9.072,1.0,108.612259218951
9.08,1.0,108.22743313790224
9.088000000000001,1.0,107.84141077756222
9.096,0.9999999999999999,107.45418573181507
9.104,1.0,107.06575160484252
9.112,1.0,106.6761020120616
9.120000000000001,1.0,106.28523058108303
9.128,1.0,105.89313095268962
9.136,1.0,105.49979678183583
9.144,1.0,105.10522173866856
9.152000000000001,1.0,104.70939950956934
9.16,1.0,104.31232379821782
9.168,1.0,103.91398832667684
9.176,0.9999999999999999,103.51438683650005
9.184000000000001,0.9999999999999999,103.11351308986166
9.192,0.9999999999999999,102.71136087070816
9.2,1.0,102.30792398593287
9.208,1.0,101.90319626657352
9.216000000000001,1.0,101.49717156903287
9.224,1.0000000000000002,101.08984377632233
9.232,1.0,100.68120679932873
9.24,1.0,100.27125457810526
9.248000000000001,1.0,99.85998108318604
9.256,1.0,99.44738031692432
9.264,1.0,99.0334463148547
9.272,0.9999999999999999,98.61817314707993
9.280000000000001,1.0,98.20155491968218
9.288,1.0,97.78358577615839
9.296,0.9999999999999999,97.36425989888022
9.304,1.0,96.94357151057916
9.312000000000001,0.9999999999999999,96.52151487585658
9.32,1.0,96.09808430271818
9.328,1.0,95.67327414413369
9.336,0.9999999999999999,95.24707879962196
9.344,1.0,94.8194927168613
9.352,1.0,94.39051039332426
9.36,0.9999999850180181,93.96012637793898
9.368,0.9999999521731504,93.52833527277433
9.376,0.9999999188532697,93.0951317347521
9.384,0.9999998850789465,92.66051047738277
9.392,0.999999850871226,92.22446627252812
9.4,0.9999998162516303,91.78699395218788
9.408,0.9999997812421603,91.34808841031284
9.416,0.9999997458652968,90.90774460464176
9.424,0.9999997101440018,90.465957558565
9.432,0.9999996741017201,90.02272236301145
9.44,0.9999996377623783,89.57803417836207
9.448,0.9999996011503887,89.13188823638667
9.456,0.9999995642906464,88.68427984220675
9.464,0.9999995272085321,88.23520437628137
9.472,0.9999994899299107,87.78465729641891
9.48,0.9999994524811321,87.33263413981118
9.488,0.99999941488903,86.87913052509312
9.496,0.9999993771809212,86.4241421544245
9.504,0.9999993393846067,85.96766481559652
9.512,0.9999993015283672,85.5096943841598
9.52,0.9999992636409653,85.0502268255769
9.528,0.9999992257516412,84.58925819739544
9.536,0.9999991878901127,84.12678465144491
9.544,0.9999991500865711,83.66280243605357
9.552,0.9999991123716818,83.1973078982882
9.56,0.9999990747765785,82.73029748621285
9.568,0.9999990373328611,82.26176775116981
9.576,0.9999990000725945,81.79171535007855
9.584,0.9999989630283008,81.32013704775565
9.592,0.9999989262329606,80.84702971925198
9.6,0.9999988897200045,80.37239035220954
9.608,0.9999988535233101,79.89621604923431
9.616,0.9999988176771978,79.41850403028769
9.624,0.9999987822164246,78.93925163509245
9.632,0.9999987471761793,78.45845632555603
9.64,0.9999987125920751,77.97611568820695
9.648,0.9999986785001457,77.49222743664701
9.656,0.9999986449368367,77.00678941401495
9.664,0.9999986119389995,76.51979959546448
9.672,0.9999985795438837,76.031256090652
9.68,0.9999985477891296,75.54115714623686
9.688,0.9999985167127587,75.04950114838957
9.696,0.9999984863531689,74.55628662531068
9.704,0.9999984567491195,74.0615122497556
