freq,mag,phase
6.0,1.0000772887343754,-77.83780571788205
6.005921792,1.0000304744156507,-78.09816368361797
6.011843072,0.999982823908443,-78.35786508748095
6.017764864,0.9999363334891591,-78.616891092304
6.023686144,0.9998934795659964,-78.87534453845974
6.029607936,0.999856881846402,-79.1332381781511
6.035529216,0.9998285787646433,-79.39068692721895
6.041451008,0.9998102792707912,-79.64786136423665
6.047372288,0.9998029500952116,-79.90481633497151
6.05329408,0.9998070285346821,-80.16178656877426
6.05921536,0.9998222337442007,-80.41890598045201
6.065137152,0.9998478967894429,-80.67631162208804
6.071058432,0.9998822601522626,-80.93411443312878
6.076980224,0.9999236032441975,-81.19249369998101
6.082901504,0.999969475619355,-81.45142511541135
6.088823296,1.0000172315746252,-81.7110795192369
6.094744576,1.0000642240610218,-81.97138434594379
6.100666368,1.000107571331242,-82.23225789569541
6.106587648,1.0001449510087763,-82.49378529295676
6.11250944,1.0001742164877303,-82.75571621753323
6.11843072,1.0001935581141856,-83.0180567877603
6.124352512,1.0002022010856553,-83.28054574271815
6.130273792,1.0001991489234887,-83.54308290933749
6.136195584,1.0001849986270968,-83.80556470977454
6.142116864,1.0001603160109092,-84.0677196112513
6.148038656,1.0001265951648055,-84.32955274890074
6.153959936,1.0000857820350508,-84.59083040943142
6.159881728,1.0000400694472187,-84.85153014936215
6.165803008,0.9999922425198204,-85.11158553062472
6.1717248,0.9999450324350502,-85.37103448066567
6.17764608,0.9999010884143634,-85.62980285057209
6.183567872,0.9998628607854014,-85.8880488042228
6.189489152,0.9998326606700154,-86.14583476156093
6.195410944,0.9998121626365036,-86.40327482597684
6.201332224,0.999802421232347,-86.66053966903304
6.207254016,0.9998042821094485,-86.9176977666066
6.213175296,0.9998174175917866,-87.17502706912008
6.219097088,0.9998412296433736,-87.43257774442392
6.225018368,0.9998742060788094,-87.69053665309262
6.23094016,0.9999144658416206,-87.9490146297044
6.23686144,0.999959925142812,-88.20812467170403
6.242783232,1.0000078210133594,-88.46785477512913
6.248704512,1.0000553021499894,-88.72826205337026
6.254626304,1.0000999224844593,-88.98931248202122
6.260547584,1.000138876351259,-89.25093601206048
6.266469376,1.0001699901553809,-89.51307214980203
6.272390656,1.0001916116734322,-89.77558946967046
6.278312448,1.0002025216668424,-90.03830318022577
6.284233728,1.0002016871754673,-90.30112278123197
6.29015552,1.0001897018383583,-90.56389081037005
6.2960768,1.000166966522646,-90.82636507282965
6.301998592,1.0001346546562624,-91.08853463494987
6.307919872,1.0000949164617174,-91.35016577031757
6.313841664,1.0000498110728377,-91.6112346751811
6.319762944,1.0000020175188276,-91.87166730513148
6.325684736,0.9999540830749907,-92.1314968570606
6.331606016,0.9999090508448593,-92.3906018035946
6.337527808,0.9998692034577519,-92.64921948400078
6.343449088,0.9998370978945545,-92.90727109951769
6.34937088,0.9998144667125282,-93.16502150673652
6.35529216,0.9998025867913636,-93.42250290098984
6.361213952,0.999802055679749,-93.67992945426656
6.367135232,0.9998129991823562,-93.93741346283363
6.373057024,0.9998348378112717,-94.19514147150373
6.378978304,0.9998662347566709,-94.45322737093984
6.384900096,0.9999054307415938,-94.71184128331623
6.390821376,0.9999502641256502,-94.97105114253624
6.396743168,0.9999981190512706,-95.23089107188265
6.402664448,1.0000462663050382,-95.4913592003378
6.40858624,1.0000917820216564,-95.75255036320561
6.41450752,1.0001322262667756,-96.01432028810798
6.420429312,1.0001654426807811,-96.2765742656356
6.426351104,1.000189108884198,-96.53927239719764
6.432272384,1.0002022184138706,-96.80223756231307
6.438194176,1.0002039464188481,-97.06526585578534
6.444115456,1.0001941398165102,-97.3282960194946
6.450037248,1.000173227794111,-97.59111294371455
6.455958528,1.0001426163034246,-97.85356128026352
6.46188032,1.0001039449487925,-98.11557451708866
6.4678016,1.0000595044832397,-98.37699495866431
6.473723392,1.000011693069859,-98.63779056781735
6.479644672,0.9999633202674844,-98.89794884741744
6.485566464,0.9999173012277102,-99.15742905693327
6.491487744,0.9998760360329748,-99.4163479180529
6.497409536,0.999842040128136,-99.67474434863934
6.503330816,0.9998172359037353,-99.93275345934158
6.509252608,0.9998028960341483,-100.19049986066152
6.515173888,0.99980009673227,-100.4481275557146
6.52109568,0.9998089064800044,-100.70577257904435
6.52701696,0.9998287260619529,-100.96366574820698
6.532938752,0.9998585861548275,-101.22191031389653
6.538860032,0.9998966223283863,-101.48062307260673
6.544781824,0.9999407003140913,-101.73987147268033
6.550703104,0.9999884633154548,-101.99983990488413
6.556624896,1.0000369481999352,-102.26039500515532
6.562546176,1.0000835826212575,-102.5216757018841
6.568467968,1.0001254505950423,-102.7835713458948
6.574389248,1.000160419487973,-103.04598025206656
6.58031104,1.0001863783993339,-103.30881638137333
6.58623232,1.0002016898537047,-103.57199873205084
6.592154112,1.000205666296086,-103.83524707564953
6.598075392,1.0001980647924993,-104.09854445949993
6.603997184,1.0001792539208465,-104.36162721073642
6.609918464,1.0001503648072532,-104.62439060204763
6.615840256,1.0001128922482718,-104.8867482046268
6.621761536,1.000069090292813,-105.1485174669935
6.627683328,1.0000216402372653,-105.40966598435614
6.633604608,0.9999729674682709,-105.67014642576808
6.6395264,0.9999258660963727,-105.93001088259795
6.64544768,0.9998832378180987,-106.1892162559079
6.651369472,0.9998474698440288,-106.44792071784379
6.657290752,0.999820417082593,-106.70620435263089
6.663212544,0.999803906048599,-106.9641819504155
6.669133824,0.9997987143202054,-107.22199640163443
6.675055616,0.9998052094720129,-107.47986603422821
6.680976896,0.9998229523874025,-107.7378742052233
6.686898688,0.9998510603621654,-107.99624276580805
6.692819968,0.9998878148757556,-108.2550587319693
6.69874176,0.9999311676374643,-108.51440337215685
6.70466304,0.9999785935837385,-108.77441318625394
6.710584832,1.0000274928572253,-109.03509239084431
6.716506112,1.0000748948263425,-109.29642832736405
6.722427904,1.000118212026028,-109.55841271680282
6.728349184,1.0001550173155174,-109.82093509350052
6.734270976,1.0001830168761716,-110.08392411072458
6.740192256,1.0002006340535805,-110.34728791399027
6.746114048,1.0002070400110141,-110.61077371414768
6.752035328,1.0002016978005672,-110.8742530416858
6.75795712,1.0001850113456325,-111.13765858928495
6.7638784,1.0001578427763962,-111.40069359097856
6.769800192,1.0001217082351024,-111.66336289362397
6.775721472,1.0000788341778963,-111.92543243554739
6.781643264,1.000031581208968,-112.1869484768698
6.787564544,0.9999825017929157,-112.44779161233659
6.793486336,0.9999347245693102,-112.70794155541951
6.799407616,0.9998906855408767,-112.96750076480701
6.805329408,0.9998531380845075,-113.2264859047082
6.811250688,0.9998241323239188,-113.48504010736828
6.81717248,0.9998052600042198,-113.74323868647835
6.82309376,0.9997976847607088,-114.00127339227164
6.829015552,0.9998017818019445,-114.25930984982206
6.834936832,0.9998174627800029,-114.51746482773264
6.840858624,0.9998438278607799,-114.77592089142254
6.846780416,0.9998790992979124,-115.03481117899193
6.852701696,0.9999216120359541,-115.29426311002986
6.858623488,0.9999687558715966,-115.5543192943676
6.864544768,1.0000178484412128,-115.81505405294739
6.87046656,1.000066055097037,-116.07647726669441
6.87638784,1.0001106705949994,-116.33851637310795
6.882309632,1.0001491672681975,-116.60117810335619
6.888230912,1.000179123703912,-116.86430240987558
6.894152704,1.000199182457784,-117.1277893222294
6.900073984,1.0002079414023446,-117.39144266852446
6.905995776,1.0002049624938663,-117.65519499934943
6.911917056,1.0001904058567466,-117.91880592068875
6.917838848,1.0001650543768594,-118.18216053347413
6.923760128,1.0001303815088711,-118.44511267382288
6.92968192,1.0000884923643523,-118.7075146315467
6.9356032,1.0000415183762947,-118.9693369698385
6.941524992,0.9999923671511074,-119.23048161202641
6.947446272,0.9999438811037029,-119.49098967117786
6.953368064,0.999898612052609,-119.75083440392591
6.959289344,0.9998593346801776,-120.01010490194288
6.965211136,0.9998281978221504,-120.26891118161132
6.971132416,0.9998070794319746,-120.52731780319085
6.977054208,0.9997971278657357,-120.78556208321064
6.982975488,0.9997989100956706,-121.04377121068154
6.98889728,0.9998123699112048,-121.30207492149334
6.99481856,0.9998367898999908,-121.56061571084322
7.000740352,0.9998707248798469,-121.81958842406038
7.006661632,0.999912095124395,-122.07909348979561
7.012583424,0.9999588504687561,-122.3392012854102
7.018504704,1.0000079900533112,-122.59997949939476
7.024426496,1.0000568951066517,-122.86144909207395
7.030347776,1.0001027822803452,-123.12357502028478
7.036269568,1.0001428933558216,-123.3862911796375
7.042190848,1.0001750273010632,-123.64952881991985
7.04811264,1.0001973006528475,-123.9131221084643
7.05403392,1.0002083976579337,-124.1769780328046
7.059955712,1.0002077800516114,-124.44092772277965
7.065876992,1.0001954187641622,-124.7047597330232
7.071798784,1.0001720050030511,-124.9683810002566
7.077720064,1.0001388995271496,-125.2316066179428
7.083641856,1.0000980106133102,-125.49433436528925
7.089563136,1.000051649548448,-125.75647134722632
7.095484928,1.0000024384949229,-126.0179374673376
7.101406208,0.9999532400360095,-126.27875718783295
7.107328,0.9999067996533075,-126.53888491528612
7.11324928,0.9998658689774316,-126.7984162569377
7.119171072,0.9998328145799531,-127.05747472430303
7.125092352,0.9998093582238171,-127.31614679826119
7.131014144,0.999796948004011,-127.57455630129628
7.136935424,0.9997964487801887,-127.83289650617931
7.142857216,0.9998076194030757,-128.0913297555493
7.148778496,0.9998300978017682,-128.3499785537991
7.154700288,0.9998623974935995,-128.6089971759044
7.160621568,0.9999027195570613,-128.8685537617654
7.16654336,0.9999488264783705,-129.12869158974513
7.17246464,0.9999980609920036,-129.3895120912973
7.178386432,1.0000475835644853,-129.65099223355216
7.184307712,1.0000945421265355,-129.91317019028827
7.190229504,1.0001362286734061,-130.17596911271954
7.196150784,1.0001703588678672,-130.4392663054433
7.202072576,1.0001948633922255,-130.7030371254888
7.207993856,1.0002084648516523,-130.96702040844667
7.213915648,1.0002102117956762,-131.23111284839783
7.219836928,1.0002000930468629,-131.4952083525839
7.22575872,1.000178782296838,-131.75902666256192
7.23168,1.000147338078033,-132.0225517410462
7.237601792,1.0001075769666368,-132.2855557371631
7.243523072,1.0000617481008518,-132.54797681256855
7.249444864,1.000012656295073,-132.80977126679508
7.255366144,0.9999629049666576,-133.07085092934457
7.261287936,0.999915325007058,-133.33128469940647
7.267209728,0.9998729088453965,-133.5911072425947
7.273131008,0.9998377573135138,-133.8503997448763
7.2790528,0.9998121632630245,-134.10925097651386
7.28497408,0.9997973680180245,-134.36788429615558
7.290895872,0.999794367238811,-134.6263428882751
7.296817152,0.9998033211938473,-134.88486685011952
7.302738944,0.9998236620995905,-135.14360682462083
7.308660224,0.9998543196031894,-135.40268767462237
7.314582016,0.9998934743448447,-135.66229143315712
7.320503296,0.9999388634445588,-135.92246479539335
7.326425088,0.9999879457577332,-136.18325960639675
7.332346368,1.0000378964975405,-136.4448129669711
7.33826816,1.0000859322870088,-136.7070161587238
7.34418944,1.0001291916048756,-136.9698312400444
7.350111232,1.0001653366142216,-137.23320527107313
7.356032512,1.0001919898448577,-137.49705893973416
7.361954304,1.0002079848323213,-137.76118160826638
7.367875584,1.000212210229631,-138.0254530544505
7.373797376,1.0002044805730934,-138.2897075742708
7.379718656,1.0001852229247743,-138.55377247030077
7.385640448,1.0001554236411987,-138.8175327153815
7.391561728,1.0001169281461793,-139.0808128460029
7.39748352,1.0000719170066588,-139.3435087334441
7.4034048,1.0000228578386365,-139.6055923198055
7.409326592,0.9999727416539844,-139.8669648236654
7.415247872,0.9999242340392277,-140.12768819978893
7.421169664,0.9998801910636302,-140.3877454196897
7.427090944,0.9998432126864402,-140.647290151209
7.433012736,0.9998153579645207,-140.90635783238315
7.438934016,0.9997981788424952,-141.1651112696352
7.444855808,0.9997927407161425,-141.42376128678976
7.450777088,0.9997993035069315,-141.68236050031942
7.45669888,0.9998175888322015,-141.94117923772558
7.46262016,0.9998463917832414,-142.20031768951915
7.468541952,0.9998842098856203,-142.45991873828655
7.474463232,0.9999288529197653,-142.72008621249194
7.480385024,0.9999776864106019,-142.98095689609417
7.486306304,1.0000280770487686,-143.24245110244695
7.492228096,1.000077063296846,-143.50465329426882
7.498149376,1.0001217548880699,-143.76750901360668
7.504071168,1.000159712421308,-144.030935799852
7.509992448,1.0001886570548346,-144.29484478545518
7.51591424,1.0002070333757767,-144.55907135583846
7.52183552,1.0002137563523603,-144.82349889410887
7.527757312,1.0002084124535244,-145.08792382886676
7.533678592,1.0001911999352273,-145.3521948570836
7.539600384,1.0001633045303344,-145.61617632894772
7.545521664,1.0001262516726948,-145.87969263350973
7.551443456,1.0000819660604023,-146.14267451982477
7.557364736,1.000033257678876,-146.40504011484006
7.563286528,0.9999827912142301,-146.66668370084435
7.569207808,0.999933409480509,-146.92765946900536
7.5751296,0.9998878977260129,-147.18798736163657
7.58105088,0.9998490742300231,-147.44771369286545
7.586972672,0.999819047478767,-147.70700505064272
7.592893952,0.9997994490026668,-147.9659584365064
7.598815744,0.9997914564909092,-148.22468807242998
7.604737024,0.9997956546434111,-148.48340500681934
7.610658816,0.9998117184512791,-148.7422736687518
7.616580096,0.9998387318517535,-149.00146053273875
7.622501888,0.9998751125405971,-149.26106872742756
7.628423168,0.9999188162141865,-149.52123782180234
7.63434496,0.9999674182788567,-149.7820360228882
7.64026624,1.000018093973069,-150.04355561387703
7.646188032,1.0000678322061134,-150.30575507767858
7.652109312,1.0001139804275485,-150.5686140401941
7.658031104,1.0001537246403882,-150.83207487045897
7.663952384,1.0001848747349993,-151.09602339215309
7.669874176,1.000205635777911,-151.3603594559522
7.675795456,1.0002148051518645,-151.62488979768438
7.681717248,1.0002118134511442,-151.88947093887072
7.68763904,1.0001969101918309,-152.15392449494448
7.69356032,1.0001709398573304,-152.41811066377966
7.699482112,1.000135299665133,-152.68188916334418
7.705403392,1.0000920357072192,-152.94510018240152
7.711325184,1.00004367833867,-153.20771770244744
7.717246464,0.9999929472688722,-153.46961366942165
7.723168256,0.9999427377093575,-153.73084792989147
7.729089536,0.9998960825489037,-153.99139314190975
7.735011328,0.9998553608490282,-154.2513582684163
7.740932608,0.9998230584114434,-154.51082522100646
7.7468544,0.9998011761636288,-154.76992745166663
7.75277568,0.9997907386446683,-155.02878417731944
7.758697472,0.9997924691094429,-155.28759669025047
7.764618752,0.9998061762121676,-155.54651559725218
7.770540544,0.9998312853857872,-155.80572175156578
7.776461824,0.9998661902927445,-156.0653184016174
7.782383616,0.9999088517192415,-156.32547145423752
7.788304896,0.999957020305683,-156.58625492053457
7.794226688,1.0000078721418364,-156.8477212248981
7.800147968,1.0000583384803334,-157.10988238286433
7.80606976,1.000105719422203,-157.37275686335715
7.81199104,1.0001472587508036,-157.63621321328915
7.817912832,1.0001804944488861,-157.90019350182578
7.823834112,1.0002037425158126,-158.16459276201877
7.829755904,1.0002154102206247,-158.4292153170157
7.835677184,1.0002148574852108,-158.69393397255058
7.841598976,1.0002023257406103,-158.9585511697294
7.847520256,1.0001783451399802,-159.22294071697775
7.853442048,1.000144218546124,-159.4869094533666
7.859363328,1.0001020481020164,-159.7503556322706
7.86528512,1.0000541817336048,-160.01320102158752
7.8712064,1.0000034200938412,-160.27536921897706
7.877128192,0.9999525216452709,-160.53683477284292
7.883049472,0.9999045101559486,-160.79760726749416
7.888971264,0.9998621154248589,-161.05778471447815
7.894892544,0.9998277048991734,-161.31743296542044
7.900814336,0.999803431856376,-161.57665587672338
7.906735616,0.9997904057167674,-161.83563364199097
7.912657408,0.9997896308927916,-162.0945296969152
7.918578688,0.9998010993072199,-162.35350670924592
7.92450048,0.9998241603668452,-162.61270591029552
7.93042176,0.999857389555111,-162.8722940248628
7.936343552,0.9998989858817691,-163.13242640344242
7.942264832,0.9999465674276387,-163.39314255399123
7.948186624,0.9999974036956154,-163.6545673921017
7.954107904,1.0000485402277142,-163.91669639865043
7.960029696,1.0000972181365673,-164.1795261020267
7.965950976,1.0001404631059294,-164.44297285568115
7.971872768,1.0001758826170764,-164.70697111846061
7.977794048,1.0002013869343829,-164.9713887408873
7.98371584,1.0002155297743094,-165.23609391477106
7.98963712,1.0002175734410252,-165.50089883158972
7.995558912,1.000207368231601,-165.7656779323567
8.001480192,1.0001853528813125,-166.0302312581352
8.007401984,1.000152995660443,-166.29440354978
8.013323264,1.0001119880221208,-166.5580601325762
8.019245056,1.0000646947204395,-166.82114336053408
8.025166336,1.0000139510090331,-167.08354688890375
8.031088128,0.9999625155888104,-167.34523426037217
8.037009408,0.9999132444488399,-167.60623297526135
8.0429312,0.9998691663388898,-167.8665887080816
8.04885248,0.999832741562168,-168.1263866267147
8.054774272,0.9998061160625751,-168.38577065261114
8.060695552,0.9997906464099441,-168.6448606353233
8.066617344,0.9997873762972155,-168.90380671822996
8.072538624,0.9997963624124707,-169.16281352603806
8.078460416,0.9998172592388366,-169.42200587702624
8.084381696,0.9998488471701709,-169.68158704859613
8.090303488,0.9998891640998728,-169.94165101072875
8.096224768,0.9999361009634922,-170.2023327420339
8.10214656,0.9999868595155992,-170.4636896453392
8.108068352,1.0000386331484208,-170.725728202664
8.113989632,1.000088298970562,-170.9885077415649
8.119911424,1.0001331794959505,-171.25193232795206
8.125832704,1.0001705729113746,-171.5159064473463
8.131754496,1.000198466119614,-171.78036249418497
8.137675776,1.0002151709191802,-172.04511722019876
8.143597568,1.0002197248618174,-172.31003841888912
8.149518848,1.0002119373711509,-172.57490034518676
8.15544064,1.0001921227045991,-172.83962403669835
8.16136192,1.0001614624651813,-173.1039622594165
8.167283712,1.0001217576778347,-173.36782368989273
8.173204992,1.0000753328969583,-173.63110739813115
8.179126784,1.0000246763191143,-173.89373258242685
8.185048064,0.999972640809409,-174.15563132098808
8.190969856,0.9999224812622225,-174.41683492187803
8.196891136,0.9998767314379622,-174.67737888389442
8.202812928,0.9998382309263237,-174.93733778218953
8.208734208,0.9998092421144735,-175.19686684361244
8.214656,0.999791291471548,-175.45603866152138
8.22057728,0.9997854689118685,-175.71504769767762
8.226499072,0.9997919973033464,-175.9740655264007
8.232420352,0.9998107462191822,-176.23325507506394
8.238342144,0.9998403770501071,-176.49278564548226
8.244263424,0.9998795160412434,-176.75279810585332
8.250185216,0.9999255538520972,-177.01339991748316
8.256106496,0.9999761724689105,-177.2746803877356
8.262028288,1.000028371395842,-177.536646419633
8.267949568,1.0000791283291388,-177.79934502905436
8.27387136,1.0001255092095727,-178.06270320075242
8.27979264,1.0001649105711017,-178.32665845164493
8.285714432,1.000195154215934,-178.59108476669044
8.291635712,1.0002143066530986,-178.855892395613
8.297557504,1.000221451844161,-179.12086537451148
8.303478784,1.0002161267761571,-179.38585260359335
8.309400576,1.0001985951391055,-179.6506791538701
8.315321856,1.0001698962739736,-179.91518157556834
8.321243648,1.0001316133729863,179.82075927370295
8.327164928,1.0000858844844434,179.5572722606953
8.33308672,1.0000354651866823,179.29446673924883
8.339008,0.9999831090782967,179.03233922655062
8.344929792,0.9999318999218904,178.77096387736594
8.350851072,0.999884738106011,178.51024400208985
8.356772864,0.9998442939775388,178.25012778273498
