freq,mag,phase
6.0,0.9999959704881684,34.45463104147546
6.008,0.9999941534111285,34.17575509142605
6.016,0.9999923630444348,33.896660922524894
6.024,0.9999905992657793,33.61734970178136
6.032,0.9999888619519282,33.33782260481226
6.04,0.9999871509787304,33.05808081582047
6.048,0.9999854662211217,32.77812552757278
6.056,0.9999838075531332,32.497957941376896
6.064,0.9999821748478978,32.21757926705775
6.072,0.9999805679776561,31.936990722933043
6.08,0.9999789868137655,31.656193535787853
6.088,0.9999774312267065,31.375188940848705
6.096,0.9999759010860889,31.09397818175661
6.104,0.9999743962606628,30.812562510539543
6.112,0.9999729166183219,30.530943187583954
6.12,0.9999714620261149,30.249121481605588
6.128,0.999970032350251,29.9670986696195
6.136,0.9999686274561098,29.684876036909323
6.144,0.9999672472082486,29.402454876995556
6.152,0.9999658914704102,29.11983649160343
6.16,0.9999645601055323,28.837022190629515
6.168,0.999963252975756,28.554013292107985
6.176,0.9999619699424334,28.27081112217577
6.184,0.9999607108661381,27.987417015037064
6.192,0.9999594756066728,27.70383231292702
6.2,0.9999582640230786,27.420058366074635
6.208,0.9999570759736451,27.13609653266484
6.216,0.9999559113159187,26.851948178799827
6.224,0.9999547699067118,26.56761467845956
6.232,0.9999536516021141,26.2830974134615
6.24,0.9999525562574998,25.998397773419573
6.248,0.9999514837275398,25.71351715570228
6.256,0.99995043386621,25.4284569653901
6.264,0.9999494065268013,25.143218615232044
6.272,0.9999484015619311,24.85780352560144
6.28,0.999947418823552,24.572213124450982
6.288,0.9999464581629632,24.286448847266932
6.296,0.9999455194308212,24.000512137022493
6.304,0.9999446024771486,23.714404444130682
6.312,0.999943707151347,23.428127226395972
6.32,0.9999428333022058,23.14168194896561
6.328,0.9999419807779159,22.855070084279806
6.336,0.9999411494260768,22.568293112021447
6.344,0.9999403390937115,22.281352519064807
6.352,0.9999395496272756,21.99424979942364
6.36,0.999938780872669,21.706986454198425
6.368,0.9999380326752475,21.419563991522924
6.376,0.9999373048798342,21.131983926509935
6.384,0.9999365973307319,20.84424778119632
6.392,0.999935909871733,20.55635708448722
6.4,0.9999352423461336,20.268313372099666
6.408,0.9999345945967437,19.98011818650524
6.416,0.9999339664659,19.69177307687224
6.424,0.9999333577954771,19.4032795990069
6.432,0.9999327684269016,19.114639315294003
6.44,0.9999321982011621,18.8258537946367
6.448,0.9999316469588232,18.53692461239568
6.456,0.9999311145400368,18.247853350327546
6.464,0.9999306007845554,17.95864159652257
6.472,0.9999301055317449,17.669290945341604
6.48,0.999929628620596,17.37980299735243
6.4879999999999995,0.9999291698897381,17.090179359265374
6.496,0.9999287291774522,16.800421643868024
6.504,0.9999283063216833,16.51053146995984
6.5120000000000005,0.9999279011600528,16.22051046228514
6.52,0.9999275135298729,15.930360251466555
6.5280000000000005,0.9999271432681589,15.640082473936626
6.536,0.9999267902116425,15.349678771869861
6.5440000000000005,0.999926454196785,15.059150793113101
6.552,0.9999261350597907,14.768500191116278
6.5600000000000005,0.9999258326366203,14.477728624861367
6.568,0.9999255467630038,14.186837758791917
6.5760000000000005,0.9999252772744553,13.89582926274083
6.584,0.9999250240062844,13.604704811858488
6.592,0.9999247867936115,13.31346608653937
6.6,0.9999245654713816,13.022114772348823
6.608,0.9999243598743763,12.730652559948734
6.616,0.9999241698372293,12.439081145022826
6.624,0.9999239951944383,12.147402228201257
6.632,0.999923835780381,11.855617514984722
6.64,0.9999236914293269,11.563728715667914
6.648,0.9999235619754522,11.271737545262479
6.656,0.9999234472528541,10.97964572341931
6.664,0.9999233470955636,10.687454974350437
6.672,0.9999232613375598,10.395167026750231
6.68,0.9999231898127852,10.102783613716145
6.688,0.9999231323551573,9.81030647266894
6.696,0.9999230887985844,9.517737345272337
6.704,0.9999230589769801,9.225077977352203
6.712,0.999923042724275,8.932330118815214
6.72,0.999923039874433,8.639495523567057
6.728,0.999923050261465,8.346575949430068
6.736,0.9999230737194416,8.053573158060525
6.744,0.999923110082509,7.7604889148653315
6.752,0.9999231591849025,7.467324988918346
6.76,0.9999232208609597,7.174083152876233
6.768,0.9999232949451361,6.8807651828938505
6.776,0.9999233812720183,6.587372858539243
6.784,0.9999234796763381,6.293907962708205
6.792,0.9999235899929868,6.000372281538422
6.8,0.9999237120570301,5.706767604323233
6.808,0.9999238457037201,5.413095723424982
6.816,0.9999239907685116,5.119358434188001
6.824,0.9999241470870749,4.825557534851227
6.832,0.9999243144953096,4.5316948264604475
6.84,0.9999244928293605,4.237772112780195
6.848,0.9999246819256287,3.9437912002053213
6.856,0.9999248816207877,3.649753897672228
6.864,0.9999250917517969,3.3556620165697613
6.872,0.999925312155915,3.0615173706498378
6.88,0.9999255426707142,2.7673217759377406
6.888,0.999925783134094,2.4730770506421402
6.896,0.9999260333842943,2.1787850150648267
6.904,0.999926293259911,1.8844474915102198
6.912,0.9999265625999076,1.5900663041945358
6.92,0.9999268412436297,1.2956432791548116
6.928,0.9999271290308194,1.0011802441576223
6.936,0.9999274258016263,0.7066790286076118
6.944,0.9999277313966248,0.412141463455809
6.952,0.9999280456568246,0.11756938110771005
6.96,0.9999283684236846,-0.1770353846687756
6.968,0.9999286995391276,-0.471670998835597
6.976,0.9999290388455512,-0.7663356251769848
6.984,0.9999293861858431,-1.0610274263920287
6.992,0.9999297414033942,-1.3557445641874157
7.0,0.999930104342109,-1.65048519937027
7.008,0.999930474846422,-1.9452474919411717
7.016,0.9999308527613088,-2.2400296011871914
7.024,0.9999312379322989,-2.5348296857751422
7.032,0.9999316302054885,-2.8296459038448174
7.04,0.999932029427554,-3.124476413102365
7.048,0.9999324354457638,-3.419319370913707
7.056,0.9999328481079909,-3.7141729343980048
7.064,0.999933267262725,-4.0090352605212
7.072,0.9999336927590862,-4.3039045061895225
7.08,0.9999341244468354,-4.598778828343088
7.088,0.9999345621763868,-4.893656384049471
7.096,0.9999350057988214,-5.188535330597262
7.104,0.9999354551658973,-5.483413825589612
7.112,0.9999359101300622,-5.7782900270378175
7.12,0.9999363705444653,-6.073162093454728
7.128,0.9999368362629683,-6.368028183948262
7.136,0.9999373071401568,-6.6628864583147465
7.144,0.9999377830313539,-6.957735077132212
7.152,0.9999382637926275,-7.252572201853666
7.16,0.9999387492808052,-7.547395994900184
7.168,0.9999392393534832,-7.84220461975393
7.176,0.9999397338690387,-8.136996241051065
7.184,0.9999402326866387,-8.43176902467454
7.192,0.9999407356662533,-8.726521137846706
7.2,0.9999412426686641,-9.021250749221789
7.208,0.9999417535554758,-9.315956028978247
7.216,0.999942268189126,-9.610635148910866
7.224,0.9999427864328959,-9.905286282522777
7.232,0.99994330815092,-10.199907605117119
7.24,0.9999438332081957,-10.494497293888735
7.248,0.9999443614705944,-10.78905352801535
7.256,0.9999448928048698,-11.08357448874881
7.264,0.9999454270786682,-11.378058359505886
7.272,0.9999459641605367,-11.672503325958878
7.28,0.9999465039199354,-11.966907576125994
7.288,0.9999470462272433,-12.261269300461418
7.296,0.9999475909537675,-12.555586691945111
7.304,0.9999481379717556,-12.84985794617228
7.312,0.9999486871543999,-13.144081261442654
7.32,0.9999492383758489,-13.438254838849241
7.328,0.9999497915112143,-13.732376882367033
7.336,0.9999503464365797,-14.02644559894109
7.344,0.9999509030290092,-14.320459198574486
7.352,0.9999514611665543,-14.614415894415817
7.36,0.9999520207282624,-14.908313902846356
7.368,0.9999525815941845,-15.20215144356678
7.376,0.9999531436453827,-15.495926739683616
7.384,0.9999537067639365,-15.789638017795214
7.392,0.9999542708329521,-16.08328350807729
7.4,0.9999548357365671,-16.37686144436819
7.4079999999999995,0.999955401359959,-16.67037006425347
7.416,0.9999559675893513,-16.963807609150514
7.4239999999999995,0.9999565343120205,-17.2571723243919
7.432,0.9999571014163015,-17.550462459309394
7.4399999999999995,0.9999576687915946,-17.84367626731637
7.448,0.9999582363283722,-18.136812005990766
7.4559999999999995,0.999958803918183,-18.42986793715655
7.464,0.9999593714536592,-18.722842326965836
7.4719999999999995,0.9999599388285217,-19.015733445979276
7.48,0.9999605059375856,-19.30853956924712
7.4879999999999995,0.9999610726767646,-19.60125897638869
7.496,0.9999616389430773,-19.89388995167234
7.504,0.9999622046346521,-20.186430784093883
7.5120000000000005,0.9999627696507307,-20.478879767455467
7.52,0.9999633338916741,-20.771235200442955
7.5280000000000005,0.999963897258966,-21.06349538670367
7.536,0.9999644596552176,-21.355658634922623
7.5440000000000005,0.9999650209841722,-21.647723258899155
7.552,0.9999655811507079,-21.93968757762201
7.5600000000000005,0.9999661400608423,-22.231549915344846
7.568,0.9999666976217358,-22.52330860166003
7.5760000000000005,0.9999672537416954,-22.81496197157302
7.584,0.9999678083301768,-23.106508365574964
7.5920000000000005,0.9999683612977895,-23.39794612971581
7.6,0.9999689125562977,-23.689273615675685
7.6080000000000005,0.9999694620186241,-23.980489180836788
7.616,0.9999700095988528,-24.271591188353433
7.6240000000000006,0.9999705552122309,-24.56257800722269
7.632,0.9999710987751713,-24.853448012353184
7.640000000000001,0.999971640205254,-25.14419958463436
7.648,0.9999721794212301,-25.434831111004012
7.656000000000001,0.9999727163430209,-25.725340984516215
7.664,0.9999732508917214,-26.01572760440749
7.672,0.9999737829896005,-26.305989376163367
7.68,0.9999743125601039,-26.596124711583343
7.688,0.999974839527853,-26.886132028845747
7.696,0.999975363818648,-27.176009752571673
7.704,0.9999758853594671,-27.465756313888242
7.712,0.999976404078468,-27.755370150491164
7.72,0.9999769199049882,-28.04484970670659
7.728,0.9999774327695443,-28.334193433552294
7.736,0.9999779426038347,-28.623399788798032
7.744,0.9999784493407364,-28.912467237025307
7.752,0.9999789529143068,-29.201394249686295
7.76,0.9999794532597832,-29.490179305162098
7.768,0.9999799503135816,-29.77882088882025
7.776,0.999980444013296,-30.06731749307149
7.784,0.999980934297699,-30.355667617425755
7.792,0.9999814211067388,-30.64386976854751
7.8,0.9999819043815399,-30.931922460310194
7.808,0.9999823840644007,-31.219824213850014
7.816,0.9999828600987917,-31.507573557619054
7.824,0.9999833324293557,-31.795169027437368
7.832,0.9999838010019044,-32.08260916654461
7.84,0.9999842657634169,-32.36989252565064
7.848,0.9999847266620383,-32.65701766298558
7.856,0.9999851836470764,-32.943983144349
7.864,0.9999856366690006,-33.23078754315823
7.872,0.9999860856794387,-33.51742944049608
7.88,0.9999865306311738,-33.80390742515771
7.888,0.9999869714781433,-34.0902200936967
7.896,0.9999874081754339,-34.376366050470324
7.904,0.9999878406792795,-34.66234390768412
7.912,0.9999882689470585,-34.948152285435576
7.92,0.9999886929372903,-35.23378981175715
7.928,0.9999891126096305,-35.51925512265835
7.936,0.9999895279248688,-35.80454686216721
7.944,0.9999899388449248,-36.08966368237084
7.952,0.9999903453328449,-36.37460424345519
7.96,0.9999907473527958,-36.659367213744154
7.968,0.9999911448700639,-36.94395126973772
7.976,0.9999915378510479,-37.228355096149436
7.984,0.9999919262632568,-37.51257738594306
7.992,0.9999923100753036,-37.79661684036838
8.0,0.9999926892569021,-38.08047216899633
8.008,0.999993063778861,-38.364142089753216
8.016,0.9999934336130792,-38.64762532895431
8.024000000000001,0.9999937987325422,-38.930920621336334
8.032,0.9999941591113148,-39.21402671008946
8.04,0.9999945147245377,-39.49694234688861
8.048,0.9999948655484207,-39.77966629192358
8.056000000000001,0.9999952115602385,-40.06219731392855
8.064,0.9999955527383249,-40.344534190210865
8.072,0.9999958890620655,-40.626675706679244
8.08,0.9999962205118946,-40.90862065787075
8.088000000000001,0.9999965470692876,-41.19036784697709
8.096,0.9999968687167544,-41.471916085870404
8.104,0.9999971854378353,-41.75326419512822
8.112,0.9999974972170927,-42.034411004057354
8.120000000000001,0.9999978040401067,-42.315355350717134
8.128,0.9999981058934676,-42.59609608194204
8.136,0.9999984027647688,-42.87663205336353
8.144,0.9999986946426016,-43.15696212943093
8.152000000000001,0.9999989815165479,-43.43708518343157
8.16,0.999999263377173,-43.71700009751024
8.168,0.9999995402160196,-43.996705762688116
8.176,0.9999998120255995,-44.27620107888047
8.184000000000001,1.0,-44.5554849549138
8.192,1.0,-44.83455630854232
8.2,1.0,-45.11341406646376
8.208,1.0,-45.39205716433412
8.216000000000001,0.9999999999999999,-45.67048454678182
8.224,1.0,-45.94869516742115
8.232,1.0,-46.22668798886515
8.24,1.0,-46.50446198273737
8.248000000000001,1.0000000000000002,-46.78201612968307
8.256,1.0,-47.059349419379814
8.264,1.0,-47.336460850547255
8.272,1.0,-47.613349430956234
8.280000000000001,1.0,-47.89001417743689
8.288,1.0,-48.166454115886424
8.296,1.0000000000000002,-48.44266828127611
8.304,1.0,-48.71865571765745
8.312,1.0,-48.994415478167426
8.32,1.0,-49.269946625033775
8.328,0.9999999999999999,-49.54524822957862
8.336,1.0000000000000002,-49.820319372222386
8.344,1.0,-50.09515914248599
8.352,0.9999999999999999,-50.3697666389936
8.36,1.0,-50.64414096947325
8.368,1.0,-50.918281250758284
8.376,1.0,-51.192186608786855
8.384,1.0,-51.46585617860175
8.392,1.0,-51.73928910434872
8.4,1.0,-52.01248453927508
8.408,1.0,-52.28544164572656
8.416,0.9999999999999999,-52.5581595951447
8.424,1.0,-52.830637568062535
8.432,1.0,-53.10287475410049
8.44,1.0,-53.374870351961
8.448,1.0,-53.646623569423156
8.456,0.9999999999999999,-53.918133623335926
8.464,1.0,-54.189399739611765
8.472,1.0,-54.460421153218526
8.48,1.0,-54.73119710817187
8.488,0.9999999999999999,-55.001726857526
8.496,1.0,-55.27200966336489
8.504,1.0,-55.5420447967919
8.512,1.0,-55.81183153791972
8.52,1.0000000000000002,-56.081369175858974
8.528,0.9999999999999999,-56.35065700870692
8.536,0.9999999999999999,-56.619694343535
8.544,0.9999999999999999,-56.888480496376445
8.552,0.9999999999999999,-57.15701479221259
8.56,1.0,-57.42529656495958
8.568,1.0,-57.69332515745344
8.576,1.0,-57.96109992143579
8.584,1.0,-58.22862021753789
8.592,0.9999999999999999,-58.49588541526527
8.6,0.9999999999999999,-58.76289489298066
8.608,0.9999999999999999,-59.029648037887775
8.616,0.9999999999999999,-59.29614424601319
8.624,1.0000000000000002,-59.562382922188945
8.632,1.0,-59.82836348003369
8.64,0.9999999999999999,-60.09408534193418
8.648,0.9999999999999999,-60.35954793902546
8.656,1.0,-60.624750711171494
8.664,1.0,-60.889693106944314
8.672,1.0,-61.15437458360376
8.68,0.9999999999999999,-61.41879460707577
8.688,0.9999999999999999,-61.68295265193118
8.696,1.0,-61.94684820136309
8.704,1.0,-62.210480747164816
8.712,1.0,-62.473849789706485
8.72,0.9999999999999999,-62.73695483791196
8.728,1.0,-62.99979540923472
8.736,1.0,-63.26237102963395
8.744,1.0,-63.52468123354954
8.752,1.0,-63.78672556387749
8.76,1.0,-64.048503571944
8.768,1.0,-64.31001481748011
8.776,1.0,-64.57125886859511
8.784,1.0,-64.8322353017504
8.792,0.9999999999999999,-65.09294370173208
8.8,0.9999999999999998,-65.35338366162416
8.808,0.9999999999999999,-65.61355478278041
8.815999999999999,1.0,-65.8734566747968
8.824,1.0,-66.13308895548296
8.832,1.0,-66.3924512508334
8.84,0.9999999999999999,-66.65154319499865
8.847999999999999,1.0,-66.91036443025592
8.856,1.0,-67.16891460697953
8.864,1.0,-67.42719338361063
8.872,1.0,-67.68520042662715
8.879999999999999,0.9999999999999999,-67.94293541051334
8.888,1.0,-68.20039801772872
8.896,0.9999999999999999,-68.45758793867685
8.904,1.0,-68.71450487167398
8.911999999999999,1.0,-68.9711485229175
8.92,1.0000000000000002,-69.2275186064537
8.928,1.0,-69.48361484414554
8.936,1.0,-69.73943696564014
8.943999999999999,0.9999999999999999,-69.99498470833616
8.952,0.9999999999999999,-70.25025781735066
8.96,1.0,-70.50525604548567
8.968,1.0,-70.75997915319488
8.975999999999999,0.9999999999999999,-71.01442690854986
8.984,0.9999999999999999,-71.26859908720621
8.992,1.0,-71.52249547236904
9.0,1.0,-71.77611585475881
9.008,1.0,-72.02946003257672
9.016,1.0,-72.2825278114699
9.024000000000001,1.0,-72.53531900449619
9.032,0.9999999999999999,-72.78783343208909
9.04,1.0,-73.04007092202242
9.048,1.0,-73.29203130937468
9.056000000000001,1.0,-73.54371443649313
9.064,0.9999999999999999,-73.79512015295802
9.072,1.0,-74.04624831554653
9.08,1.0000000000000002,-74.29709878819645
9.088000000000001,0.9999999999999999,-74.54767144196963
9.096,1.0,-74.79796615501554
9.104,1.0,-75.04798281253461
9.112,1.0,-75.29772130674131
9.120000000000001,1.0,-75.54718153682705
9.128,1.0,-75.79636340892311
9.136,0.9999999999999999,-76.04526683606352
9.144,1.0,-76.29389173814758
9.152000000000001,1.0,-76.54223804190227
9.16,1.0,-76.79030568084474
9.168,0.9999999576106505,-77.03809459524469
9.176,0.9999997764378113,-77.28560473208647
9.184000000000001,0.9999995941725348,-77.53283604503103
9.192,0.9999994108612943,-77.77978849437808
9.2,0.9999992265504665,-78.02646204702803
9.208,0.999999041286322,-78.2728566764438
9.216000000000001,0.999998855115022,-78.51897236261229
9.224,0.9999986680826097,-78.76480909200635
9.232,0.9999984802350051,-79.01036685754633
9.24,0.9999982916179985,-79.25564565856163
9.248000000000001,0.9999981022772452,-79.50064550075196
9.256,0.9999979122582574,-79.7453663961489
9.264,0.9999977216064005,-79.98980836307734
9.272,0.9999975303668861,-80.23397142611675
9.280000000000001,0.9999973385847651,-80.47785561606226
9.288,0.9999971463049243,-80.72146096988602
9.296,0.9999969535720781,-80.96478753069853
9.304,0.9999967604307644,-81.20783534770963
9.312000000000001,0.9999965669253386,-81.45060447618954
9.32,0.9999963730999671,-81.69309497743009
9.328,0.9999961789986235,-81.93530691870589
9.336,0.9999959846650819,-82.17724037323529
9.344,0.9999957901429114,-82.41889542014131
9.352,0.999995595475471,-82.66027214441296
9.36,0.9999954007059055,-82.90137063686593
9.368,0.9999952058771387,-83.14219099410408
9.376,0.9999950110318682,-83.38273331848
9.384,0.9999948162125616,-83.62299771805645
9.392,0.9999946214614505,-83.86298430656707
9.4,0.9999944268205259,-84.10269320337781
9.408,0.9999942323315336,-84.34212453344762
9.416,0.9999940380359679,-84.58127842728996
9.424,0.999993843975069,-84.82015502093353
9.432,0.9999936501898166,-85.05875445588379
9.44,0.9999934567209258,-85.29707687908379
9.448,0.9999932636088432,-85.53512244287575
9.456,0.9999930708937405,-85.77289130496193
9.464,0.999992878615512,-86.01038362836631
9.472,0.9999926868137693,-86.24759958139552
9.48,0.9999924955278372,-86.48453933760067
9.488,0.9999923047967492,-86.72120307573826
9.496,0.9999921146592425,-86.95759097973219
9.504,0.9999919251537566,-87.19370323863484
9.512,0.9999917363184252,-87.42954004658904
9.52,0.9999915481910755,-87.66510160278935
9.528,0.9999913608092228,-87.90038811144417
9.536,0.9999911742100663,-88.13539978173712
9.544,0.9999909884304864,-88.37013682778932
9.552,0.99999080350704,-88.60459946862082
9.56,0.9999906194759566,-88.8387879281131
9.568,0.9999904363731349,-89.07270243497071
9.576,0.9999902542341401,-89.30634322268378
9.584,0.9999900730941992,-89.53971052948991
9.592,0.9999898929881974,-89.77280459833685
9.6,0.9999897139506755,-90.00562567684453
9.608,0.9999895360158263,-90.23817401726794
9.616,0.9999893592174908,-90.4704498764593
9.624,0.9999891835891552,-90.70245351583118
9.632,0.9999890091639485,-90.93418520131887
9.64,0.9999888359746375,-91.16564520334357
9.648,0.9999886640536264,-91.39683379677508
9.656,0.9999884934329506,-91.62775126089522
9.664,0.9999883241442769,-91.85839787936062
9.672,0.9999881562188976,-92.08877394016638
9.68,0.9999879896877308,-92.31887973560912
9.688,0.9999878245813144,-92.54871556225082
9.696,0.9999876609298065,-92.77828172088216
9.704,0.9999874987629798,-93.00757851648652
9.712,0.9999873381102214,-93.2366062582035
9.72,0.9999871790005284,-93.4653652592933
9.728,0.9999870214625072,-93.69385583710037
9.736,0.9999868655243693,-93.92207831301809
9.744,0.9999867112139297,-94.15003301245262
9.752,0.9999865585586049,-94.37772026478784
9.76,0.9999864075854108,-94.6051404033495
9.768,0.9999862583209594,-94.83229376537035
