freq,mag,phase
6.0,0.9999961888622377,-166.53486829090508
6.008,0.9999952693091331,-166.88401997771857
6.016,0.9999943945981791,-167.23298856362456
6.024,0.9999935636804345,-167.58177857771872
6.032,0.9999927755222834,-167.93039455147922
6.04,0.9999920291052798,-168.27884101875355
6.048,0.9999913234259945,-168.62712251574703
6.056,0.9999906574958648,-168.97524358101347
6.064,0.9999900303410406,-169.32320875544767
6.072,0.9999894410022375,-169.67102258227968
6.08,0.999988888534584,-170.01868960707102
6.088,0.9999883720074768,-170.36621437771262
6.096,0.9999878905044288,-170.71360144442437
6.104,0.9999874431229268,-171.06085535975657
6.112,0.9999870289742819,-171.40798067859305
6.12,0.9999866471834872,-171.7549819581557
6.128,0.9999862968890749,-172.10186375801086
6.136,0.9999859772429689,-172.44863064007714
6.144,0.99998568741035,-172.79528716863481
6.152,0.9999854265695072,-173.14183791033668
6.16,0.9999851939117037,-173.4882874342203
6.168,0.9999849886410345,-173.83464031172204
6.176,0.9999848099742902,-174.18090111669184
6.184,0.999984657140821,-174.52707442541
6.192,0.999984529382397,-174.87316481660503
6.2,0.9999844259530767,-175.2191768714725
6.208,0.9999843461190713,-175.56511517369586
6.216,0.9999842891586135,-175.91098430946752
6.224,0.9999842543618215,-176.25678886751217
6.232,0.9999842410305758,-176.6025334391104
6.24,0.9999842484783799,-176.94822261812385
6.248,0.9999842760302394,-177.29386100102147
6.256,0.9999843230225268,-177.63945318690665
6.264,0.9999843888028627,-177.98500377754553
6.272,0.9999844727299834,-178.33051737739623
6.28,0.9999845741736197,-178.67599859363906
6.288,0.9999846925143715,-179.02145203620765
6.296,0.9999848271435846,-179.366882317821
6.304,0.9999849774632315,-179.7122940540163
6.312,0.9999851428857883,179.94230813681716
6.32,0.9999853228341165,179.59691963340367
6.328,0.999985516741342,179.25153581154572
6.336,0.9999857240507389,178.90615204408795
6.344,0.9999859442156172,178.5607637008805
6.352,0.9999861766991972,178.2153661487415
6.36,0.9999864209745049,177.8699547514192
6.368,0.9999866765242499,177.52452486955303
6.376,0.999986942840723,177.1790718606348
6.384,0.999987219425673,176.83359107896857
6.392,0.9999875057902038,176.4880778756305
6.4,0.9999878014546634,176.14252759842822
6.408,0.9999881059485334,175.79693559185947
6.416,0.9999884188103225,175.45129719707055
6.424,0.9999887395874615,175.10560775181435
6.432,0.999989067836194,174.75986259040795
6.44,0.9999894031214742,174.41405704369
6.448,0.999989745016863,174.0681864389778
6.456,0.9999900931044257,173.72224610002394
6.464,0.9999904469746275,173.37623134697304
6.472,0.9999908062262365,173.03013749631813
6.48,0.9999911704662208,172.6839598608568
6.4879999999999995,0.9999915393096516,172.33769374964734
6.496,0.9999919123796032,171.99133446796466
6.504,0.9999922893070583,171.64487731725654
6.5120000000000005,0.9999926697308101,171.2983175950991
6.52,0.9999930532973672,170.95165059515324
6.5280000000000005,0.9999934396608612,170.6048716071201
6.536,0.9999938284829505,170.25797591669763
6.5440000000000005,0.9999942194327307,169.91095880553635
6.552,0.9999946121866408,169.56381555119592
6.5600000000000005,0.9999950064283745,169.2165414271013
6.568,0.9999954018487878,168.86913170249994
6.5760000000000005,0.9999957981458142,168.52158164241808
6.584,0.9999961950243728,168.17388650761856
6.592,0.999996592196283,167.8260415545578
6.6,0.9999969893801784,167.47804203534415
6.608,0.9999973863014212,167.12988319769582
6.616,0.9999977826920171,166.7815602848996
6.624,0.9999981782905327,166.43306853577016
6.632,0.9999985728420121,166.0844031846094
6.64,0.9999989660978951,165.73555946116687
6.648,0.9999993578159353,165.38653259060018
6.656,0.9999997477601213,165.03731779343644
6.664,0.9999999999999999,164.6879102855343
6.672,0.9999999999999999,164.33830527804625
6.68,0.9999999999999999,163.98849797738228
6.688,1.0,163.63848358517373
6.696,1.0,163.28825729823814
6.704,1.0,162.9378143085451
6.712,0.9999999999999998,162.58714980318243
6.72,0.9999999999999999,162.2362589643241
6.728,1.0,161.8851369691982
6.736,1.0,161.53377899005636
6.744,0.9999999999999999,161.18218019414448
6.752,1.0,160.83033574367371
6.76,0.9999999999999999,160.4782407957932
6.768,0.9999999999999999,160.1258905025639
6.776,0.9999999999999999,159.77328001093326
6.784,1.0,159.42040446271142
6.792,0.9999999999999999,159.0672589945486
6.8,0.9999999999999999,158.71383873791376
6.808,0.9999999999999999,158.36013881907465
6.816,1.0,158.00615435907926
6.824,1.0,157.65188047373877
6.832,1.0,157.29731227361196
6.84,1.0,156.94244486399103
6.848,1.0,156.58727334488916
6.856,0.9999999999999999,156.23179281102972
6.864,1.0,155.875998351837
6.872,1.0,155.51988505142882
6.88,1.0,155.16344798861073
6.888,0.9999999999999999,154.8066822368724
6.896,1.0,154.44958286438523
6.904,1.0000000000000002,154.0921449340027
6.912,0.9999999999999999,153.73436350326193
6.92,1.0,153.3762336243878
6.928,1.0,153.01775034429866
6.936,1.0,152.6589087046149
6.944,1.0000000000000002,152.29970374166876
6.952,1.0,151.94013048651706
6.96,0.9999999999999999,151.580183964956
6.968,1.0,151.2198591975383
6.976,1.0,150.8591511995925
6.984,1.0,150.49805498124525
6.992,0.9999999999999999,150.13656554744549
7.0,1.0,149.77467789799172
7.008,1.0,149.4123870275614
7.016,0.9999999999999999,149.04968792574343
7.024,0.9999999999999999,148.6865755770732
7.032,0.9999999999999999,148.32304496107037
7.04,1.0,147.95909105227952
7.048,1.0,147.59470882031388
7.056,0.9999999999999999,147.22989322990182
7.064,0.9999999999999999,146.8646392409366
7.072,1.0,146.49894180852885
7.08,1.0,146.1327958830627
7.088,1.0,145.76619641025474
7.096,1.0,145.3991383312165
7.104,1.0,145.03161658252014
7.112,1.0,144.66362609626768
7.12,1.0,144.29516180016373
7.128,0.9999999999999999,143.9262186175916
7.136,1.0,143.55679146769316
7.144,1.0,143.1868752654525
7.152,1.0,142.8164649217833
7.16,0.9999999999999999,142.44555534361973
7.168,1.0,142.07414143401175
7.176,1.0,141.7022180922241
7.184,1.0,141.3297802138392
7.192,0.9999999999999999,140.95682269086478
7.2,1.0,140.58334041184486
7.208,1.0,140.2093282619758
7.216,0.9999999999999999,139.83478112322598
7.224,0.9999999999999999,139.4596938744607
7.232,1.0,139.0840613915708
7.24,1.0,138.70787854760638
7.248,1.0,138.33114021291493
7.256,0.9999999999999999,137.9538412552844
7.264,0.9999999999999999,137.57597654009083
7.272,1.0,137.19754093045114
7.28,1.0,136.81852928738076
7.288,1.0,136.4389364699561
7.296,1.0,136.0587573354829
7.304,0.9999999999999999,135.67798673966882
7.312,1.0,135.296619536802
7.32,0.9999999999999999,134.91465057993506
7.328,1.0,134.532074721074
7.336,1.0,134.14888681137327
7.344,0.9999999999999999,133.76508170133621
7.352,1.0,133.3806542410212
7.36,0.9999999999999999,132.99559928025383
7.368,0.9999999999999999,132.60991166884475
7.376,0.9999999999999999,132.2235862568136
7.384,1.0,131.83661789461928
7.392,1.0,131.44900143339592
7.4,1.0,131.06073172519555
7.4079999999999995,0.9999999999999999,130.67180362323697
7.416,1.0,130.2822119821608
7.4239999999999995,1.0,129.89195165829187
7.432,0.9999999999999999,129.50101750990711
7.4399999999999995,0.9999999999999999,129.10940439751133
7.448,0.9999999999999999,128.71710718411853
7.4559999999999995,1.0,128.3241207355419
7.464,0.9999999999999999,127.93043992068856
7.4719999999999995,0.9999999999999999,127.53605961186378
7.48,1.0,127.14097468508012
7.4879999999999995,0.9999999999999998,126.74518002037591
7.496,1.0,126.3486705021394
7.504,0.9999999999999999,125.95144101944172
7.5120000000000005,0.9999999999999999,125.55348646637628
7.52,1.0,125.1548017424068
7.5280000000000005,1.0,124.75538175272234
7.536,1.0,124.35522140860081
7.5440000000000005,1.0,123.95431562777958
7.552,1.0,123.55265933483534
7.5600000000000005,1.0,123.15024746157066
7.568,0.9999999999999999,122.74707494741017
7.5760000000000005,1.0,122.34313673980367
7.584,1.0,121.93842779463915
7.5920000000000005,1.0000000000000002,121.53294307666268
7.6,0.9999999999999998,121.12667755990844
7.6080000000000005,1.0,120.71962622813615
7.616,1.0,120.31178407527821
7.6240000000000006,1.0,119.903146105895
7.632,1.0,119.49370733563987
7.640000000000001,1.0,119.08346279173199
7.648,1.0,118.67240751344009
7.656000000000001,1.0,118.26053655257341
7.664,1.0,117.84784497398367
7.672,1.0,117.4343278560751
7.68,0.9999999999999999,117.01998029132498
7.688,1.0,116.60479738681305
7.696,0.9999999999999999,116.18877426476071
7.704,1.0,115.77190606308012
7.712,1.0,115.35418793593284
7.72,1.0,114.9356150542985
7.728,0.9999999999999999,114.51618260655337
7.736,0.9999999999999999,114.09588579905883
7.744,0.9999999999999999,113.67471985676009
7.752,1.0,113.252680023795
7.76,1.0,112.82976156411294
7.768,1.0,112.40595976210435
7.776,0.9999999347317922,111.98126992324019
7.784,0.9999996325049152,111.55568737472213
7.792,0.9999993301000079,111.12920746614301
7.8,0.9999990276298822,110.701825570158
7.808,0.9999987252071623,110.27353708316613
7.816,0.9999984229442529,109.84433742600272
7.824,0.999998120953311,109.41422204464223
7.832,0.9999978193462153,108.98318641091196
7.84,0.9999975182345356,108.55122602321657
7.848,0.9999972177295042,108.1183364072733
7.856,0.9999969179419833,107.68451311685801
7.864,0.9999966189824379,107.24975173456231
7.872,0.9999963209609037,106.81404787256132
7.88,0.9999960239869577,106.37739717339247
7.888,0.9999957281696891,105.93979531074535
7.896,0.9999954336176664,105.50123799026235
7.904,0.9999951404389105,105.0617209503504
7.912,0.999994848740863,104.62123996300367
7.92,0.999994558630356,104.17979083463715
7.928,0.9999942702135829,103.7373694069314
7.936,0.999993983596067,103.29397155768825
7.944,0.9999936988826323,102.84959320169733
7.952,0.9999934161773738,102.40423029161363
7.96,0.9999931355836258,101.95787881884617
7.968,0.9999928572039333,101.51053481445734
7.976,0.9999925811400218,101.06219435007321
7.984,0.9999923074927658,100.6128535388048
7.992,0.9999920363621608,100.16250853617993
8.0,0.9999917678472915,99.7111555410861
8.008,0.9999915020463026,99.25879079672383
8.016,0.999991239056369,98.80541059157062
8.024000000000001,0.9999909789736654,98.35101126035597
8.032,0.999990721893336,97.89558918504638
8.04,0.9999904679094663,97.43914079584057
8.048,0.999990217115051,96.9816625721758
8.056000000000001,0.9999899696019653,96.52315104374411
8.064,0.9999897254609358,96.06360279151838
8.072,0.9999894847815095,95.6030144487886
8.08,0.9999892476520258,95.14138270220815
8.088000000000001,0.9999890141595851,94.67870429285018
8.096,0.9999887843900207,94.21497601727305
8.104,0.9999885584278687,93.75019472859523
8.112,0.9999883363563394,93.2843573375803
8.120000000000001,0.9999881182572882,92.81746081373079
8.128,0.9999879042111846,92.34950218639091
8.136,0.9999876942970867,91.880478545858
8.144,0.9999874885926097,91.41038704450322
8.152000000000001,0.9999872871738973,90.93922489790069
8.16,0.9999870901155955,90.46698938596444
8.168,0.999986897490821,89.99367785409356
8.176,0.9999867093711361,89.51928771432561
8.184000000000001,0.9999865258265184,89.04381644649767
8.192,0.9999863469253337,88.56726159941435
8.2,0.9999861727343092,88.08962079202297
8.208,0.999986003318505,87.61089171459612
8.216000000000001,0.9999858387412865,87.13107212992072
8.224,0.9999856790642997,86.65015987449321
8.232,0.9999855243474411,86.16815285972052
8.24,0.9999853746488347,85.68504907312756
8.248000000000001,0.9999852300248028,85.20084657956981
8.256,0.9999850905298424,84.71554352245096
8.264,0.9999849562165977,84.22913812494505
8.272,0.9999848271358364,83.74162869122374
8.280000000000001,0.9999847033364232,83.25301360768745
8.288,0.9999845848652964,82.76329134420003
8.296,0.9999844717674427,82.27246045532657
8.304,0.9999843640858739,81.78051958157485
8.312,0.9999842618616026,81.28746745063926
8.32,0.9999841651336198,80.79330287864592
8.328,0.9999840739388716,80.29802477140113
8.336,0.9999839883122368,79.80163212563939
8.344,0.9999839082865057,79.30412403027407
8.352,0.9999838338923576,78.80549966764663
8.36,0.9999837651583411,78.30575831477766
8.368,0.9999837021108522,77.80489934461556
8.376,0.9999836447741162,77.30292222728589
8.384,0.9999835931701662,76.79982653133757
8.392,0.9999835473188251,76.29561192498866
8.4,0.9999835072376878,75.79027817736782
8.408,0.9999834729421035,75.28382515975458
8.416,0.9999834444451573,74.77625284681392
8.424,0.9999834217576549,74.26756131782862
8.432,0.9999834048881053,73.75775075792492
8.44,0.9999833938427085,73.2468214592947
8.448,0.9999833886253373,72.73477382240974
8.456,0.9999833892375249,72.22160835723149
8.464,0.9999833956784532,71.70732568441144
8.472,0.9999834079449386,71.19192653648597
8.48,0.9999834260314198,70.6754117590605
8.488,0.9999834499299496,70.15778231198678
8.496,0.9999834796301813,69.63903927052822
8.504,0.9999835151193619,69.11918382651689
8.512,0.9999835563823232,68.59821728949773
8.52,0.9999836034014726,68.0761410878624
8.528,0.9999836561567879,67.55295676996919
8.536,0.9999837146258108,67.02866600525155
8.544,0.9999837787836418,66.5032705853108
8.552,0.9999838486029362,65.97677242499627
8.56,0.9999839240539009,65.44917356346805
8.568,0.9999840051042915,64.92047616524576
8.576,0.9999840917194129,64.39068252123865
8.584,0.9999841838621165,63.85979504975982
8.592,0.9999842814928024,63.327816297520606
8.6,0.9999843845694216,62.79474894060762
8.608,0.9999844930474772,62.26059578543806
8.616,0.9999846068800295,61.72535976969648
8.624,0.9999847260177007,61.18904396324822
8.632,0.9999848504086807,60.65165156903262
8.64,0.9999849799987336,60.11318592393153
8.648,0.999985114731207,59.57365049961586
8.656,0.999985254547041,59.03304890336591
8.664,0.9999853993847783,58.49138487886832
8.672,0.999985549180576,57.948662306984936
8.68,0.9999857038682188,57.40488520649697
8.688,0.9999858633791325,56.860057734819414
8.696,0.9999860276423996,56.314184188689104
8.704,0.9999861965847753,55.767269004821614
8.712,0.9999863701307056,55.219316760540046
8.72,0.9999865482023459,54.67033217437117
8.728,0.9999867307195808,54.120320106611956
8.736,0.999986917600046,53.56928555986187
8.744,0.9999871087591506,53.017233679523954
8.752,0.9999873041101014,52.46416975427009
8.76,0.9999875035639265,51.91009921647374
8.768,0.9999877070295038,51.35502764260523
8.776,0.9999879144135868,50.7989607535929
8.784,0.9999881256208353,50.2419044151455
8.792,0.9999883405538438,49.68386463803895
8.8,0.9999885591131742,49.1248475783628
8.808,0.9999887811973887,48.56485953772978
8.815999999999999,0.9999890067030822,48.0039069634437
8.824,0.9999892355249201,47.44199644862825
8.832,0.9999894675556729,46.87913473231468
8.84,0.999989702686255,46.315328699487274
8.847999999999999,0.9999899408057635,45.75058538108641
8.856,0.9999901818015188,45.184911953969355
8.864,0.9999904255591066,44.6183157408273
8.872,0.9999906719624198,44.050804210057876
8.879999999999999,0.9999909208937037,43.48238497559295
8.888,0.9999911722336008,42.91306579668155
8.896,0.9999914258611982,42.34285457762709
8.904,0.9999916816540733,41.771759367477756
8.911999999999999,0.9999919394883453,41.19978835967012
8.92,0.9999921992387237,40.626949891625856
8.928,0.9999924607785609,40.05325244430095
8.936,0.9999927239799021,39.47870464168609
8.943999999999999,0.9999929887135427,38.90331525025865
8.952,0.9999932548490796,38.327093178386185
8.96,0.9999935222549684,37.7500474756808
8.968,0.9999937907985794,37.17218733230334
8.975999999999999,0.9999940603462567,36.5935220782178
8.984,0.9999943307633762,36.0140611823961
8.992,0.9999946019144044,35.43381425197256
9.0,0.999994873662961,34.85279103134728
9.008,0.9999951458718788,34.271001401238834
9.016,0.9999954184032674,33.68845537768661
9.024000000000001,0.999995691118577,33.105163111002156
9.032,0.9999959638786597,32.5211348846691
9.04,0.9999962365438388,31.936381114191697
9.048,0.9999965089739704,31.350912345893168
9.056000000000001,0.9999967810285126,30.764739255662654
9.064,0.9999970525665922,30.177872647650855
9.072,0.9999973234470709,29.590323452914514
9.08,0.9999975935286151,29.002102728010843
9.088000000000001,0.9999978626697646,28.413221653541143
9.096,0.9999981307290022,27.82369153264353
9.104,0.9999983975648226,27.233523789435473
9.112,0.999998663035804,26.642729967406805
9.120000000000001,0.999998927000678,26.051321727763167
9.128,0.9999991893184011,25.45931084771967
9.136,0.9999994498482264,24.866709218745488
9.144,0.9999997084497736,24.27352884476066
9.152000000000001,0.999999964983103,23.67978184028463
9.16,0.9999999999999999,23.08548042853687
9.168,1.0,22.490636939490315
9.176,1.0,21.895263807878976
9.184000000000001,0.9999999999999998,21.29937357115951
9.192,1.0,20.702978867427163
9.2,1.0,20.106092433287003
9.208,0.9999999999999999,19.508727101681888
9.216000000000001,0.9999999999999999,18.910895799677256
9.224,1.0,18.31261154620301
9.232,0.9999999999999999,17.713887449753983
9.24,1.0,17.114736706049943
9.248000000000001,0.9999999999999998,16.515172595656132
9.256,1.0,15.915208481564083
9.264,0.9999999999999999,15.314857806734635
9.272,1.0,14.714134091604372
9.280000000000001,1.0,14.113050931556236
9.288,1.0,13.511621994354503
9.296,1.0000000000000002,12.909861017545978
9.304,1.0,12.307781805829052
9.312000000000001,1.0,11.70539822839086
9.32,1.0,11.102724216213712
9.328,1.0,10.499773759352067
9.336,1.0000000000000002,9.896560904181927
9.344,0.9999999999999999,9.293099750623648
9.352,0.9999999999999999,8.68940444933767
9.36,1.0,8.08548919889803
9.368,1.0,7.481368242940694
9.376,0.9999999999999999,6.877055867292289
9.384,1.0,6.272566397076403
9.392,0.9999999999999998,5.667914193803076
9.4,0.9999999999999999,5.063113652438388
9.408,1.0,4.458179198460135
9.416,1.0,3.8531252848964135
9.424,1.0,3.24796638935315
9.432,1.0,2.6427170110272735
9.44,1.0,2.0373916677118222
9.448,0.9999999999999999,1.432004892789531
9.456,1.0,0.826571232221339
9.464,1.0,0.2211052415262447
9.472,0.9999999999999999,-0.384378517240931
9.48,1.0,-0.9898654785174674
9.488,0.9999999999999999,-1.5953410762599576
9.496,1.0,-2.200790746973867
9.504,1.0,-2.806199932739815
9.512,0.9999999999999999,-3.4115540842390795
9.52,0.9999999999999999,-4.016838663772783
9.528,0.9999999999999999,-4.622039148277383
9.536,1.0,-5.227141032330941
9.544,1.0,-5.832129831152819
9.552,1.0,-6.436991083591057
9.56,1.0,-7.041710355100398
9.568,1.0,-7.6462732407050575
9.576,1.0,-8.250665367949294
9.584,1.0,-8.85487239982995
9.592,1.0,-9.458880037713868
9.6,0.9999999999999999,-10.062674024234502
9.608,1.0,-10.666240146170816
9.616,1.0,-11.269564237302497
9.624,0.9999999999999999,-11.872632181244812
9.632,1.0,-12.475429914257226
9.64,1.0,-13.077943428028963
9.648,0.9999999999999999,-13.680158772435865
9.656,1.0,-14.282062058271626
9.664,1.0,-14.883639459947918
9.672,1.0,-15.48487721816646
9.68,1.0,-16.085761642557614
9.688,1.0,-16.686279114288656
9.696,0.9999999999999999,-17.286416088636358
9.704,1.0,-17.886159097526924
9.712,1.0,-18.485494752038303
9.72,1.0,-19.08440974486764
9.728,1.0,-19.68289085275916
9.736,1.0,-20.280924938895275
9.744,1.0,-20.878498955246155
9.752,0.9999999999999999,-21.475599944880837
9.76,1.0,-22.072215044234927
9.768,0.9999999999999999,-22.668331485338303
9.776,0.9999999999999999,-23.263936597997688
9.784,0.9999999999999999,-23.85901781193773
9.792,1.0,-24.453562658895518
9.8,1.0,-25.047558774672154
9.808,0.9999999999999999,-25.640993901136465
9.816,0.9999999999999999,-26.23385588818456
9.824,1.0,-26.8261326956503
9.832,0.9999999999999999,-27.417812395170483
9.84,0.9999999999999999,-28.008883172000015
9.847999999999999,1.0,-28.599333326780595
9.856,0.9999999999999998,-29.189151277259345
9.864,1.0,-29.778325559958315
9.872,1.0,-30.366844831795024
9.879999999999999,0.9999999999999999,-30.954697871653057
9.888,1.0000000000000002,-31.541873581902063
9.896,1.0,-32.12836098986728
9.904,1.0000000000000002,-32.714149249249196
9.911999999999999,1.0,-33.299227641492145
9.92,1.0,-33.88358557710178
9.928,0.9999997825001209,-34.46721259691135
9.936,0.9999994700155075,-35.05009837329756
9.943999999999999,0.9999991525569459,-35.63223271134526
9.952,0.9999988302336961,-36.21360554996062
9.96,0.9999985031569747,-36.79420696293317
