freq,mag,phase
6.0,1.000706271919606,88.76069392163582
6.002287104,1.0004398756339892,88.59170926208881
6.004574208,1.000145544974173,88.4267980496671
6.006861312,0.9998421814356399,88.26624489152246
6.009147904,0.999549297214483,88.11004573616952
6.011435008,0.9992849283456068,87.9579262146078
6.013722112,0.9990661764057549,87.8093360643685
6.016009216,0.998906824824271,87.66352678351623
6.01829632,0.9988169027772977,87.5195456490913
6.020583424,0.9988022641434876,87.37636156422023
6.022870016,0.9988638228510118,87.2328655784128
6.02515712,0.9989976748206718,87.08795118815911
6.027444224,0.9991953768049299,86.94066344229795
6.029731328,0.9994444538561226,86.79013671067148
6.032018432,0.9997289960106304,86.63575415043832
6.034305536,1.0000313323692631,86.477150750712
6.036592128,1.000332035126517,86.31415793839561
6.038879232,1.0006123605994532,86.14697183441892
6.041166336,1.0008544231299115,85.97603127202092
6.04345344,1.001042948381755,85.80199490427601
6.045740544,1.001166136115375,85.62571903223753
6.048027648,1.001216151338531,85.44820758872963
6.05031424,1.0011899443363568,85.27051329827496
6.052601344,1.0010889150445073,85.0937959559175
6.054888448,1.0009194611945036,84.91903353832743
6.057175552,1.0006923384949395,84.74716066426195
6.059462656,1.0004217634053225,84.57890319336815
6.06174976,1.0001247880606405,84.41479811381312
6.064036352,0.9998201397496965,84.25506938415309
6.066323456,0.9995272317155175,84.09969092591052
6.06861056,0.9992644278161539,83.9483531413231
6.070897664,0.9990483831548777,83.80055834303968
6.073184768,0.9988929254256503,83.65547334262772
6.075471872,0.9988078222933939,83.51215980940238
6.077758464,0.9987984755720332,83.36955348668805
6.080045568,0.9988656406333568,83.2265508012971
6.082332672,0.9990049908616568,83.0820742272705
6.084619776,0.9992077068257802,82.93512904306967
6.08690688,0.9994609918348315,82.78486066685984
6.089193984,0.9997488288186341,82.630711553983
6.091481088,1.0000531228489202,82.47226049526542
6.09376768,1.0003544864774403,82.30943656648702
6.096054784,1.000633811430221,82.14242860165017
6.098341888,1.000873746514192,81.97166742883758
6.100628992,1.001058890631637,81.79781827295992
6.102916096,1.0011776039770686,81.62182366837999
6.1052032,1.001222551522229,81.44464570921811
6.107489792,1.001190639664684,81.26737955331842
6.109776896,1.001083978149674,81.09113491607567
6.112064,1.0009092273215987,80.91695011999576
6.114351104,1.0006774286323714,80.745716316667
6.116638208,1.0004030735626142,80.57816446230406
6.118925312,1.0001035006905243,80.41478207488186
6.121211904,0.9997976777598822,80.25580044148366
6.123499008,0.9995048273379659,80.10121162804458
6.125786112,0.9992436296180398,79.95065293475498
6.128073216,0.9990304978105911,79.80355597596161
6.13036032,0.9988789534457282,79.65916337896381
6.132647424,0.9987987252445517,79.51645995424451
6.134934016,0.9987949802823022,79.37440225246611
6.13722112,0.9988677326337183,79.23183895932141
6.139508224,0.9990126841205959,79.08771636499458
6.141795328,0.999220464659809,78.94104407794788
6.144082432,0.9994780923404067,78.79101201040324
6.146369536,0.9997691385797042,78.63700027803874
6.148656128,1.0000752515268847,78.47866737371899
6.150943232,1.000377076366818,78.31594525369651
6.153230336,1.0006555334516016,78.1490194202574
6.15551744,1.0008930786256343,77.97838077506049
6.157804544,1.001074792432019,77.80470872815799
6.160091648,1.0011889451060312,77.62891755344887
6.162378752,1.0012285556538976,77.45202276521967
6.164665344,1.0011910553971644,77.27512974303406
6.166952448,1.001078730117763,77.09932128893782
6.169239552,1.000898579570664,76.92563894341853
6.171526656,1.0006620643865336,76.75500441793628
6.17381376,1.000383985560963,76.5880903045206
6.176100864,1.0000818724156213,76.4254123146563
6.178387456,0.9997748141577711,76.26715559998249
6.18067456,0.9994822457849435,76.11327691434695
6.182961664,0.9992226849812004,75.96343988217471
6.185248768,0.9990126372850332,75.81702544215504
6.187535872,0.9988653313448322,75.67321959766035
6.189822976,0.9987901155047533,75.53107108290826
6.192109568,0.9987918091041623,75.38947435776787
6.194396672,0.998870471508319,75.24730449121289
6.196683776,0.999020939016785,75.10348878335428
6.19897088,0.9992338950500116,74.95703709156538
6.201257984,0.9994957416872099,74.80715506511993
6.203545088,0.9997899300574967,74.65323923218247
6.20583168,1.0000978582832545,74.49494921548519
6.208118784,1.000400111176631,74.33225601007297
6.210405888,1.0006775526663036,74.16536673473486
6.212692992,1.000912686518292,73.99478612998298
6.214980096,1.0010906021009038,73.82123641834406
6.2172672,1.0012002098717072,73.64559923783904
6.219553792,1.0012344340406758,73.4689321583029
6.221840896,1.0011911072530655,73.29233952110697
6.224128,1.0010730577647637,73.11693488112985
6.226415104,1.0008875153125645,72.9437127673251
6.228702208,1.000646255532196,72.77361400689361
6.230989312,1.000364428796293,72.60730283136846
6.233275904,1.0000597954168877,72.44528830693275
6.235563008,0.9997516463965378,72.28769001533045
6.237850112,0.9994594947246433,72.13448836513862
6.240137216,0.9992017141734022,71.98529461335586
6.24242432,0.99899465501271,71.83950689825416
6.244711424,0.9988516486373624,71.69627037378758
6.246998528,0.9987816241360317,71.55460237154576
6.24928512,0.9987890167691796,71.41340901460858
6.251572224,0.9988734704400175,71.27156854657235
6.253859328,0.9990296857529345,71.12798702570947
6.256146432,0.9992476923057377,70.9816966761965
6.258433536,0.9995138287242867,70.8318853809705
6.26072064,0.9998110897325628,70.67800805960253
6.263007232,1.0001207975435649,70.51971870940295
6.265294336,1.0004233710487938,70.35699159882766
6.26758144,1.0006996980592664,70.19010011892765
6.269868544,1.0009322527094082,70.01951741057908
6.272155648,1.001106407858557,69.84600020423461
6.274442752,1.0012112155396093,69.67046733895808
6.276729344,1.0012399482897436,69.49399037015539
6.279016448,1.0011907585431987,69.31766188032454
6.281303552,1.0010668325377319,69.14258595969845
6.283590656,1.0008758521091072,68.9698113980469
6.28587776,1.0006298682907062,68.80019755907335
6.288164864,1.0003442997125023,68.63444217647984
6.290451456,1.0000373225452448,68.47299368857524
6.29273856,0.9997281244253036,68.31602779002712
6.295025664,0.9994364221188885,68.16344355112842
6.297312768,0.9991805801482193,68.01485618238574
6.299599872,0.9989768395510995,67.86963083779892
6.301886976,0.9988381245763303,67.7269102651175
6.304173568,0.9987733648154881,67.58567657053123
6.306460672,0.9987866021025378,67.44481373853162
6.308747776,0.9988769509006008,67.30323688647707
6.31103488,0.999038890344401,67.15982254609594
6.313321984,0.9992621143147637,67.01361185920554
6.315609088,0.9995324066955142,66.86384248124246
6.317896192,0.9998327793067999,66.709918589943
6.320182784,1.0001441985716089,66.55157396167449
6.322469888,1.0004469402337117,66.3887670529229
6.324756992,1.0007219813800061,66.22179588995859
6.327044096,1.0009519027279496,66.05115272079748
6.3293312,1.0011221217155184,65.87762681246079
6.331618304,1.0012219829709088,65.70215727684155
6.333904896,1.0012451100620094,65.52579470197966
6.336192,1.0011900766870354,65.34968286975618
6.338479104,1.0010602321977455,65.17491167549609
6.340766208,1.0008637704541843,65.00249159415291
6.343053312,1.0006130079323834,64.83332138209539
6.345340416,1.0003238641435623,64.66809169538577
6.347627008,1.0000144208735606,64.50717475298661
6.349914112,0.9997043224521861,64.35079380458036
6.352201216,0.9994132238674087,64.19876474944753
6.35448832,0.9991593813411007,64.05071117208227
6.356775424,0.9989590160995294,63.90598620752907
6.359062528,0.9988248931910683,63.763702969823804
6.36134912,0.9987654677041079,63.62284372232649
6.363636224,0.9987845751960149,63.482295443900895
6.365923328,0.9988809683281805,63.34090227538985
6.368210432,0.9990486903275907,63.197603480108015
6.370497536,0.9992768986643756,63.051433673216636
6.37278464,0.9995514627049615,62.90160901393126
6.375071232,0.9998548584810354,62.74761456048079
6.377358336,1.0001678374886602,62.58912896841358
6.37964544,1.00047083339935,62.42616551417458
6.381932544,1.0007443932911655,62.25905118913691
6.384219648,1.0009714898008897,62.08830515179624
6.386506752,1.001137663720252,61.91472733317867
6.388793344,1.0012325562816842,61.73924280724434
6.391080448,1.0012499900823801,61.562971512284896
6.393367552,1.0011888532990612,61.38700559512656
6.395654656,1.0010531163230763,61.212477424235466
6.39794176,1.0008511729731489,61.04037861245283
6.400228864,1.000595669115613,60.87160052550057
6.402515968,1.000302825874465,60.70681538728713
6.40480256,0.9999911315280042,60.54641672993958
6.407089664,0.9996802278552219,60.39052275373094
6.409376768,0.9993897162239057,60.23901328783587
6.411663872,0.999138100737555,60.09146816646381
6.413950976,0.998941223396787,59.947204041786165
6.41623808,0.9988117361221079,59.80530187025835
6.418524672,0.9987577496137507,59.66476169934721
6.420811776,0.9987827553246383,59.52444127566018
6.42309888,0.9988852884686251,59.38317620173163
6.425385984,0.9990587503187802,59.23994203754648
6.427673088,0.9992922492134672,59.09372159110241
6.429960192,0.9995709045523695,58.94381154648826
6.432246784,0.9998773200354706,58.789640707336616
6.434533888,1.0001919050337973,58.63095140295307
6.436820992,1.0004947835864906,58.46781398887173
6.439108096,1.00076695818131,58.300496774613066
6.4413952,1.00099114454964,58.1295776706226
6.443682304,1.0011531759852876,57.95588553568349
6.445968896,1.0012428222213143,57.780357447835364
6.448256,1.0012544987436782,57.60408977189208
6.450543104,1.001187413961635,57.42823677572039
6.452830208,1.0010455492077512,57.25388996681491
6.455117312,1.0008381230771968,57.08207523519167
6.457404416,1.000577926024526,56.91365013318303
6.459691008,1.0002815487952117,56.74926050860696
6.461978112,0.9999676404092889,56.58930768814886
6.464265216,0.9996558496300113,56.433885847811446
6.46655232,0.9993662244845021,56.282833618833216
6.468839424,0.9991168097703483,56.13571660334399
6.471126528,0.9989235551691341,55.99184376552732
6.473413632,0.9987988427275557,55.850284519377
6.475700224,0.9987503884967002,55.70997449378551
6.477987328,0.9987814562113421,55.5698238016295
6.480274432,0.9988900668653204,55.42865419776458
6.482561536,0.9990693538247304,55.285396651975454
6.48484864,0.9993080230130389,55.13909088354644
6.487135744,0.9995908534747614,54.98899486472934
6.489422336,0.9999001288717675,54.83461587231365
6.49170944,1.0002161046754046,54.67569525749848
6.493996544,1.0005190146375293,54.512281343023325
6.496283648,1.000789605121516,54.344702703242746
6.498570752,1.0010107506219414,54.173561550508914
6.500857856,1.0011685447800007,53.99969484856157
6.503144448,1.0012529925794889,53.82406514904858
6.505431552,1.001258734225197,53.647779670739084
6.507718656,1.0011854659087032,53.4719790059525
6.51000576,1.0010376873980784,53.297764119581664
6.512292864,1.0008247041317047,53.12617959653241
6.514579968,1.00055993128406,52.958046249061454
6.51686656,1.0002599551488092,52.794006568066756
6.519153664,0.9999437426340348,52.63443834220722
6.521440768,0.999631456048509,52.479426048218386
6.523727872,0.999342548745914,52.32880674676734
6.526014976,0.9990956170156139,52.182055305271696
6.52830208,0.9989060880705237,52.038513921148464
6.530588672,0.9987860871129665,51.89723458738061
6.532875776,0.9987433017618913,51.757118687667536
6.53516288,0.9987804635236741,51.61706403653014
6.537449984,0.9988953174384532,51.475925853803204
6.539737088,0.9990804097024154,51.33257386219038
6.542024192,0.9993241866413765,51.18613276299181
6.544310784,0.999611213461413,51.03580270895613
6.546597888,0.9999232621089543,50.881136173718666
6.548884992,1.0002406985109336,50.72187829986652
6.551172096,1.000543369778776,50.55816315224617
6.5534592,1.0008120948036727,50.390268111875216
6.555746304,1.001030212399352,50.218867008464265
6.558033408,1.0011836504560512,50.04476411144249
6.56032,1.001262820555306,49.86897638764197
6.562607104,1.001262650692397,49.69259938947691
6.564894208,1.0011832248190486,49.51680419196169
6.567181312,1.0010293634956804,49.3427019279893
6.569468416,1.0008108819057606,49.17127039903975
6.57175552,1.0005413280048754,49.003397970021915
6.574042112,1.0002378678478623,48.83965269518621
6.576329216,0.9999196315860069,48.68042412616752
6.57861632,0.9996067232416229,48.525780005400236
6.580903424,0.9993188313402567,48.37551421464796
6.583190528,0.999074314142426,48.22909509822305
6.585477632,0.9988886112108472,48.085830757953424
6.587764224,0.9987736152195033,47.944744958925355
6.590051328,0.9987366097814483,47.80479802129074
6.592338432,0.9987798916005074,47.664771370543114
6.594625536,0.9989009129040106,47.5235670874653
6.59691264,0.9990918369683636,47.38009012438697
6.599199744,0.9993407194309911,47.23342388419011
6.601486336,0.9996318541764693,47.08282407449765
6.60377344,0.999946679513696,46.92780307515047
6.606060544,1.000265361970711,46.76819148551101
6.608347648,1.0005678280559331,46.60406878111255
6.610634752,1.0008348262972613,46.43582777489227
6.612921856,1.0010496570868122,46.26407046735503
6.615208448,1.0011986431151834,46.089691003834176
6.617495552,1.001272423282263,45.91368870185411
6.619782656,1.0012662175807479,45.73719860417596
6.62206976,1.0011805197668076,45.561351212826345
6.624356864,1.0010206359724756,45.38729035751257
6.626643968,1.0007965894053612,45.215999786243316
6.628931072,1.0005225377798388,45.048295648575525
6.631217664,1.000215689023584,44.88480325840147
6.633504768,0.9998953546741761,44.725871831794045
6.635791872,0.9995818929658309,44.57152869704965
6.638078976,0.9992951310838574,44.42155752125963
6.64036608,0.9990532143079388,44.275425702520586
6.642653184,0.9988715128124437,44.13236571543805
6.644939776,0.9987615091804509,43.99143675564974
6.64722688,0.9987302261250974,43.851560058915325
6.649513984,0.9987797440073733,43.71152048240647
6.651801088,0.998906911906239,43.57020767877633
6.654088192,0.9991037884356843,43.42653167582677
6.656375296,0.9993577718515764,43.27957739839046
6.658661888,0.9996528683534797,43.12861580397474
6.660948992,0.9999703912445987,42.973211087271814
6.663236096,1.000290362432369,42.813172403679324
6.6655232,1.0005924216861481,42.648616639675105
6.667810304,1.0008575429939988,42.47993739707647
6.670097408,1.0010690207284667,42.30779575431424
6.672384,1.0012134481058947,42.133071460845834
6.674671104,1.0012817092745059,41.95681580054635
6.676958208,1.001269469403922,41.780131973394965
6.679245312,1.001177502435065,41.60421276453188
6.681532416,1.0010114931178624,41.430118256900855
6.68381952,1.0007819784979386,41.25890387715017
6.686106112,1.000503216166102,41.091342484286244
6.688393216,1.0001930600694868,40.928059585476134
6.69068032,0.9998707745301034,40.76936645221375
6.692967424,0.9995569503052397,40.61529083154266
6.695254528,0.9992713462966538,40.46553741228314
6.697541632,0.9990320913514074,40.319622442231775
6.699828224,0.9988543634895887,40.17673164055122
6.702115328,0.9987494614537269,40.03589946023632
6.704402432,0.9987240610885658,39.8960389422656
6.706689536,0.9987798477150616,39.7559442724108
6.70897664,0.9989132652551727,39.61442991590761
6.711263744,0.999115931775829,39.47050732324999
6.713550848,0.9993749866823575,39.32320920939471
6.71583744,0.9996741211535457,39.171842566070644
6.718124544,0.9999943135494901,39.01597074642851
6.720411648,1.000315295400156,38.85545852390803
6.722698752,1.0006169226088666,38.69038171168428
6.724985856,1.0008800438107721,38.521223821066094
6.72727296,1.0010881807200371,38.34864226311744
6.729559552,1.001227983116735,38.17355131663079
6.731846656,1.001290625086925,37.99697232910774
6.73413376,1.001272343476398,37.8200472279258
6.736420864,1.0011740250609478,37.643965708489205
6.738707968,1.001002037940239,37.469825896248175
6.740995072,1.000767032588488,37.29863776287157
6.743281664,1.0004838058370324,37.13116758547452
6.745568768,1.0001702442064753,36.968054024326705
6.747855872,0.9998461314036692,36.80952176679796
6.750142976,0.9995319881413163,36.65562740494615
6.75243008,0.9992475979698172,36.50607234686195
6.754717184,0.9990111754332983,36.360320075579494
6.757003776,0.9988375280170224,36.21755045768887
6.75929088,0.9987377450231979,36.076744092824
6.761577984,0.9987183097465362,35.93682808735683
6.763865088,0.9987803430883084,35.79656590816513
6.766152192,0.9989201338401675,35.65485809018906
6.768439296,0.9991285660158037,35.51061913411555
6.770725888,0.999392660717153,35.362904347325305
6.773012992,0.9996956764042756,35.21106511891181
6.775300096,1.0000183614941407,35.05468008818313
6.7775872,1.0003405456937662,34.89360320290763
6.779874304,1.0006416146909964,34.72799419150057
6.782161408,1.0009026108218222,34.558305422903494
6.784448512,1.0011071198141752,34.385248384309186
6.786735104,1.001242286293577,34.20969914560145
6.789022208,1.0012993759140365,34.03273533081805
6.791309312,1.0012748326387202,33.855539817395
6.793596416,1.001170296387749,33.67925678818121
6.79588352,1.000992149988453,33.50501900691613
6.798170624,1.0007516445376015,33.333789147628224
6.800457216,1.000463891497599,33.166383672838855
6.80274432,1.0001470968841064,33.00333524300873
6.805031424,0.9998212719771936,32.84494918260698
6.807318528,0.9995068215109245,32.691203759178144
6.809605632,0.9992239023005492,32.5417795178718
6.811892736,0.9989902302071083,32.396127901444956
6.814179328,0.9988208621034522,32.25339326607568
6.816466432,0.998726322359899,32.11258109967232
6.818753536,0.9987128352146576,31.972535463079495
6.82104064,0.9987812536472765,31.832100614422075
6.823327744,0.9989271247244538,31.690091649290014
6.825614848,0.9991414460649894,31.545465839445537
6.82790144,0.9994105346008904,31.39728348655726
6.830188544,0.999717381361656,31.244932594586437
6.832475648,1.0000425899170868,31.087963178686017
6.834762752,1.0003656911268242,30.926272997140227
6.837049856,1.000666187080949,30.760066776481047
6.83933696,1.0009249497441228,30.58979680863061
6.841623552,1.0011259396459642,30.416162281105283
6.843910656,1.001256170571975,30.24012192325323
6.84619776,1.001307659045476,30.062770395959312
6.848484864,1.0012770053025708,29.885223870310448
6.850771968,1.001166151818477,29.708702062353353
6.853059072,1.000981928140656,29.53429697033248
6.855345664,1.0007359850744495,29.3629950449844
6.857632768,1.0004438512581006,29.195574289341437
6.859919872,1.0001239001670188,29.032585541514973
6.862206976,0.9997962058108196,28.874263578950774
6.86449408,0.9994817582959042,28.720607053465063
6.866781184,0.9992002261169751,28.57126472743225
6.869068288,0.9989695570487772,28.425654859407956
6.87135488,0.9988043173713125,28.2829109605072
6.873641984,0.9987151791335017,28.14202827609355
6.875929088,0.9987076579465686,28.00181723495827
6.878216192,0.998782380369566,27.861115875265607
6.880503296,0.9989346173747397,27.718766388155966
6.8827904,0.9991546601822469,27.57369735526384
6.885076992,0.9994287457339572,27.4249870458947
6.887364096,0.9997394185327925,27.272044939947765
6.8896512,1.0000670888491172,27.114452904761457
6.891938304,1.0003909725900442,26.952094939966557
6.894225408,1.0006907161544885,26.785218477891522
6.896512512,1.0009472858326667,26.614301966810682
6.898799104,1.0011446330711102,26.440070461665826
6.901086208,1.001270100573678,26.263491711979974
6.903373312,1.001315886305214,26.08564875750602
6.905660416,1.0012789934229966,25.907735718059506
6.90794752,1.0011617278960103,25.730913984826213
6.910234624,1.0009714644206513,25.556288706722857
6.912521216,1.0007201736351699,25.384878356212834
6.91480832,1.000423549185445,25.217388823984223
6.917095424,1.0001005293856744,25.05438026283087
6.919382528,0.9997711888949844,24.896100402220416
6.921669632,0.9994567132395691,24.742487013758257
6.923956736,0.9991766848879896,24.593170998410947
6.926243328,0.9989489913399201,24.447536282780085
6.928530432,0.9987881507933669,24.30472301883576
6.930817536,0.9987043154132969,24.163683560122756
6.93310464,0.998702895686406,24.023261256041113
6.935391744,0.9987839249643212,23.882254951811525
