freq,mag,phase
6.0,1.0,14.551304882798691
6.008,0.9999999740981628,14.31627437669199
6.016,0.9999996134878095,14.081205831525851
6.024,0.999999263788347,13.846099359703906
6.032,0.9999989248251986,13.610955073602682
6.04,0.9999985964250445,13.375773085572646
6.048,0.9999982784158246,13.140553507939165
6.056,0.9999979706267363,12.905296453003526
6.064,0.9999976728882393,12.670002033043954
6.072,0.999997385032053,12.434670360316577
6.08,0.9999971068911601,12.199301547056443
6.088,0.9999968382998057,11.96389570547851
6.096,0.9999965790934986,11.728452947778623
6.104,0.9999963291090124,11.492973386134514
6.112,0.9999960881843842,11.257457132706799
6.12,0.9999958561589193,11.021904299639916
6.128,0.9999956328731862,10.786314999063162
6.136,0.9999954181690218,10.550689343091626
6.144,0.9999952118895291,10.31502744382718
6.152,0.9999950138790784,10.079329413359451
6.16,0.9999948239833076,9.84359536376677
6.168,0.999994642049122,9.607825407117177
6.176,0.9999944679246955,9.372019655469327
6.184,0.9999943014594693,9.136178220873475
6.192,0.9999941425041526,8.900301215372455
6.2,0.9999939909107233,8.664388751002582
6.208,0.9999938465324263,8.428440939794614
6.216,0.999993709223775,8.192457893774721
6.224,0.9999935788405501,7.956439724965384
6.232,0.9999934552398004,7.720386545386353
6.24,0.9999933382798412,7.484298467055592
6.248,0.9999932278202546,7.248175601990157
6.256,0.9999931237218892,7.012018062207165
6.264,0.9999930258468597,6.775825959724693
6.272,0.9999929340585461,6.539599406562688
6.28,0.9999928482215932,6.3033385147439
6.288,0.9999927682019099,6.067043396294743
6.296,0.9999926938666693,5.830714163246246
6.304,0.9999926250843063,5.594350927634909
6.312,0.9999925617245189,5.357953801503613
6.32,0.9999925036582653,5.121522896902507
6.328,0.9999924507577644,4.885058325889879
6.336,0.9999924028964948,4.648560200533043
6.344,0.999992359949193,4.412028632909197
6.352,0.9999923217918522,4.175463735106313
6.36,0.999992288301723,3.938865619223964
6.368,0.9999922593573101,3.702234397374204
6.376,0.999992234838372,3.4655701816824256
6.384,0.99999221462592,3.228873084288166
6.392,0.9999921986022163,2.9921432173459994
6.4,0.9999921866507727,2.7553806930263165
6.408,0.9999921786563497,2.518585623516198
6.416,0.9999921745049538,2.2817581210202156
6.424,0.999992174083838,2.044898297761241
6.432,0.9999921772814977,1.8080062659812763
6.44,0.9999921839876708,1.5710821379422515
6.448,0.9999921940933361,1.3341260259268057
6.456,0.9999922074907098,1.0971380422391068
6.464,0.9999922240732455,0.8601182992056315
6.472,0.9999922437356312,0.6230669091759214
6.48,0.9999922663737889,0.385983984523389
6.4879999999999995,0.9999922918848704,0.14886963764609754
6.496,0.9999923201672568,-0.08827601903261371
6.504,0.9999923511205564,-0.32545287306308107
6.5120000000000005,0.9999923846456019,-0.5626608119689651
6.52,0.9999924206444487,-0.7998997232460825
6.5280000000000005,0.9999924590203728,-1.0371694943620973
6.536,0.9999924996778679,-1.2744700127553708
6.5440000000000005,0.9999925425226437,-1.5118011658346728
6.552,0.9999925874616236,-1.7491628409780258
6.5600000000000005,0.999992634402941,-1.986554925532436
6.568,0.9999926832559388,-2.223977306812763
6.5760000000000005,0.9999927339311654,-2.461429872101456
6.584,0.9999927863403733,-2.6989125086474446
6.592,0.9999928403965143,-2.936425103665849
6.6,0.9999928960137396,-3.1739675443370325
6.608,0.9999929531073954,-3.411539717806062
6.616,0.9999930115940205,-3.6491415111820205
6.624,0.9999930713913434,-3.8867728115373708
6.632,0.9999931324182798,-4.124433505907309
6.64,0.9999931945949291,-4.362123481289128
6.648,0.9999932578425718,-4.599842624641601
6.656,0.9999933220836669,-4.837590822884358
6.664,0.9999933872418476,-5.075367962897278
6.672,0.9999934532419198,-5.313173931519881
6.68,0.9999935200098575,-5.551008615550747
6.688,0.9999935874728009,-5.788871901746919
6.696,0.999993655559052,-6.0267636768233315
6.704,0.9999937241980715,-6.264683827452243
6.712,0.9999937933204768,-6.502632240262668
6.72,0.999993862858037,-6.740608801839823
6.728,0.9999939327436697,-6.978613398724596
6.736,0.9999940029114383,-7.216645917412994
6.744,0.9999940732965482,-7.454706244355627
6.752,0.9999941438353434,-7.69279426595718
6.76,0.9999942144653022,-7.9309098685759
6.768,0.9999942851250331,-8.169052938523121
6.776,0.9999943557542741,-8.407223362062723
6.784,0.9999944262938848,-8.645421025410688
6.792,0.9999944966858463,-8.883645814734615
6.8,0.9999945668732544,-9.121897616153237
6.808,0.9999946368003177,-9.360176315735984
6.816,0.9999947064123533,-9.598481799502508
6.824,0.9999947756557823,-9.836813953422274
6.832,0.9999948444781261,-10.075172663414104
6.84,0.9999949128280028,-10.313557815345764
6.848,0.9999949806551226,-10.551969295033551
6.856,0.9999950479102828,-10.790406988241894
6.864,0.9999951145453669,-11.028870780682944
6.872,0.9999951805133358,-11.2673605580162
6.88,0.9999952457682271,-11.50587620584814
6.888,0.99999531026515,-11.744417609731823
6.896,0.9999953739602796,-11.982984655166584
6.904,0.9999954368108548,-12.221577227597626
6.912,0.9999954987751716,-12.460195212415723
6.92,0.9999955598125803,-12.698838494956886
6.928,0.9999956198834803,-12.937506960502027
6.936,0.999995678949316,-13.176200494276658
6.944,0.9999957369725723,-13.414918981450587
6.952,0.9999957939167684,-13.653662307137646
6.96,0.9999958497464562,-13.89243035639538
6.968,0.9999959044272132,-14.131223014224792
6.976,0.9999959579256387,-14.370040165570096
6.984,0.9999960102093481,-14.608881695318434
6.992,0.9999960612469709,-14.84774748829965
7.0,0.9999961110081419,-15.086637429286075
7.008,0.9999961594634993,-15.32555140299228
7.016,0.9999962065846798,-15.564489294074866
7.024,0.9999962523443112,-15.803450987132281
7.032,0.9999962967160102,-16.0424363667046
7.04,0.9999963396743758,-16.281445317273384
7.048,0.9999963811949854,-16.52047772326145
7.056,0.9999964212543885,-16.759533469032785
7.064,0.9999964598301028,-16.99861243889231
7.072,0.9999964969006078,-17.23771451708582
7.08,0.9999965324453414,-17.476839587799784
7.088,0.999996566444693,-17.71598753516128
7.096,0.9999965988799997,-17.955158243237822
7.104,0.9999966297335398,-18.194351596037336
7.112,0.9999966589885279,-18.433567477508024
7.12,0.9999966866291108,-18.67280577153825
7.128,0.9999967126403605,-18.91206636195655
7.136,0.9999967370082692,-19.151349132531546
7.144,0.9999967597197453,-19.390653966971836
7.152,0.9999967807626057,-19.62998074892604
7.16,0.9999968001255722,-19.869329361982746
7.168,0.9999968177982652,-20.108699689670445
7.176,0.9999968337711985,-20.348091615457573
7.184,0.9999968480357733,-20.587505022752534
7.192,0.9999968605842727,-20.82693979490366
7.2,0.9999968714098572,-21.066395815199257
7.208,0.9999968805065577,-21.30587296686763
7.216,0.99999688786927,-21.545371133077182
7.224,0.9999968934937498,-21.78489019693638
7.232,0.9999968973766067,-22.024430041493883
7.24,0.9999968995152986,-22.26399054973861
7.248,0.9999968999081248,-22.503571604599845
7.256,0.9999968985542227,-22.743173088947266
7.264,0.9999968954535591,-22.982794885591122
7.272,0.9999968906069264,-23.222436877282334
7.28,0.9999968840159361,-23.462098946712608
7.288,0.9999968756830123,-23.701780976514573
7.296,0.9999968656113873,-23.941482849262
7.304,0.9999968538050934,-24.18120444746985
7.312,0.9999968402689599,-24.420945653594515
7.32,0.9999968250086037,-24.660706350034022
7.328,0.9999968080304265,-24.900486419128157
7.336,0.999996789341607,-25.140285743158707
7.344,0.9999967689500944,-25.38010420434969
7.352,0.9999967468646044,-25.61994168486755
7.36,0.9999967230946104,-25.8597980668214
7.368,0.99999669765034,-26.09967323226326
7.376,0.9999966705427672,-26.339567063188348
7.384,0.9999966417836066,-26.579479441535288
7.392,0.999996611385307,-26.819410249186433
7.4,0.9999965793610464,-27.05935936796816
7.4079999999999995,0.999996545724724,-27.299326679651074
7.416,0.9999965104909556,-27.53931206595051
7.4239999999999995,0.9999964736750658,-27.77931540852656
7.432,0.9999964352930826,-28.019336588984757
7.4399999999999995,0.9999963953617317,-28.259375488876046
7.448,0.9999963538984286,-28.499431989697477
7.4559999999999995,0.9999963109212737,-28.73950597289223
7.464,0.9999962664490447,-28.97959731985034
7.4719999999999995,0.9999962205011909,-29.219705911908722
7.48,0.9999961730978281,-29.459831630351893
7.4879999999999995,0.9999961242597291,-29.699974356412017
7.496,0.9999960740083196,-29.94013397126975
7.504,0.9999960223656711,-30.180310356054168
7.5120000000000005,0.9999959693544951,-30.420503391843663
7.52,0.9999959149981347,-30.660712959665982
7.5280000000000005,0.9999958593205602,-30.900938940499078
7.536,0.9999958023463619,-31.14118121527114
7.5440000000000005,0.9999957441007421,-31.381439664861468
7.552,0.9999956846095112,-31.62171417010059
7.5600000000000005,0.9999956238990791,-31.862004611771095
7.568,0.9999955619964493,-32.102310870607816
7.5760000000000005,0.9999954989292118,-32.34263282729868
7.584,0.9999954347255372,-32.5829703624848
7.5920000000000005,0.99999536941417,-32.82332335676148
7.6,0.999995303024421,-33.06369169067826
7.6080000000000005,0.9999952355861613,-33.304075244740005
7.616,0.999995167129816,-33.54447389940689
7.6240000000000006,0.9999950976863563,-33.784887535095514
7.632,0.9999950272872943,-34.02531603217897
7.640000000000001,0.9999949559646741,-34.26575927098792
7.648,0.9999948837510679,-34.5062171318107
7.656000000000001,0.9999948106795665,-34.74668949489438
7.664,0.9999947367837739,-34.98717624044499
7.672,0.9999946620977996,-35.22767724862846
7.68,0.9999945866562537,-35.468192399570995
7.688,0.9999945104942376,-35.708721573359895
7.696,0.9999944336473379,-35.949264650044135
7.704,0.9999943561516202,-36.18982150963496
7.712,0.9999942780436217,-36.430392032106646
7.72,0.9999941993603444,-36.67097609739718
7.728,0.9999941201392479,-36.91157358540884
7.736,0.9999940404182422,-37.15218437600894
7.744,0.9999939602356808,-37.392808349030624
7.752,0.9999938796303546,-37.63344538427339
7.76,0.9999937986414835,-37.874095361503926
7.768,0.9999937173087103,-38.114758160456844
7.776,0.9999936356720931,-38.35543366083534
7.784,0.9999935537720978,-38.59612174231197
7.792,0.999993471649592,-38.8368222845294
7.8,0.9999933893458374,-39.07753516710115
7.808,0.9999933069024823,-39.318260269612374
7.816,0.999993224361554,-39.55899747162058
7.824,0.9999931417654527,-39.799746652656474
7.832,0.9999930591569437,-40.04050769222468
7.84,0.9999929765791494,-40.28128046980457
7.848,0.9999928940755434,-40.522064864851075
7.856,0.999992811689941,-40.76286075679539
7.864,0.9999927294664946,-41.00366802504597
7.872,0.9999926474496834,-41.244486548989116
7.88,0.9999925656843087,-41.485316207989996
7.888,0.9999924842154837,-41.72615688139335
7.896,0.9999924030886272,-41.96700844852439
7.904,0.9999923223494572,-42.20787078868963
7.912,0.9999922420439814,-42.44874378117769
7.92,0.9999921622184899,-42.68962730526021
7.928,0.9999920829195483,-42.93052124019266
7.936,0.9999920041939891,-43.171425465215236
7.944,0.9999919260889051,-43.412339859553725
7.952,0.9999918486516399,-43.65326430242033
7.96,0.999991771929781,-43.89419867301464
7.968,0.999991695971152,-44.13514285052442
7.976,0.9999916208238036,-44.376096714126554
7.984,0.9999915465360069,-44.61706014298791
7.992,0.9999914731562441,-44.85803301626627
8.0,0.9999914007332013,-45.09901521311122
8.008,0.9999913293157588,-45.34000661266495
8.016,0.9999912589529845,-45.58100709406341
8.024000000000001,0.9999911896941244,-45.822016536436934
8.032,0.9999911215885946,-46.063034818911255
8.04,0.9999910546859724,-46.30406182060857
8.048,0.9999909890359879,-46.54509742064834
8.056000000000001,0.9999909246885152,-46.78614149814815
8.064,0.9999908616935637,-47.0271939322246
8.072,0.9999908001012692,-47.26825460199453
8.08,0.9999907399618847,-47.50932338657567
8.088000000000001,0.9999906813257721,-47.75040016508763
8.096,0.9999906242433912,-47.99148481665278
8.104,0.999990568765293,-48.232577220397374
8.112,0.999990514942108,-48.473677255452394
8.120000000000001,0.999990462824538,-48.714784800954334
8.128,0.9999904124633452,-48.95589973604626
8.136,0.9999903639093444,-49.19702193987888
8.144,0.9999903172133914,-49.438151291611305
8.152000000000001,0.9999902724263732,-49.67928767041196
8.16,0.9999902295991985,-49.92043095545958
8.168,0.9999901887827869,-50.16158102594426
8.176,0.9999901500280577,-50.40273776106831
8.184000000000001,0.9999901133859211,-50.643901040047055
8.192,0.9999900789072651,-50.88507074210985
8.2,0.9999900466429458,-51.12624674650122
8.208,0.9999900166437765,-51.367428932481545
8.216000000000001,0.9999899889605152,-51.60861717932801
8.224,0.9999899636438535,-51.84981136633555
8.232,0.9999899407444043,-52.09101137281791
8.24,0.9999899203126913,-52.332217078108506
8.248000000000001,0.9999899023991343,-52.573428361561135
8.256,0.9999898870540389,-52.8146451025511
8.264,0.9999898743275819,-53.05586718047611
8.272,0.9999898642698001,-53.29709447475728
8.280000000000001,0.9999898569305747,-53.53832686483969
8.288,0.9999898523596198,-53.77956423019357
8.296,0.999989850606467,-54.02080645031522
8.304,0.9999898517204525,-54.2620534047278
8.312,0.9999898557507008,-54.503304972982086
8.32,0.9999898627461117,-54.74456103465769
8.328,0.999989872755343,-54.985821469363565
8.336,0.9999898858267976,-55.22708615673922
8.344,0.9999899020086037,-55.468354976455224
8.352,0.9999899213486027,-55.70962780821447
8.36,0.9999899438943286,-55.95090453175261
8.368,0.9999899696929928,-56.19218502683933
8.376,0.9999899987914666,-56.43346917327872
8.384,0.9999900312362606,-56.67475685091062
8.392,0.9999900670735098,-56.91604793961091
8.4,0.9999901063489504,-57.15734231929291
8.408,0.9999901491079027,-57.398639869907576
8.416,0.99999019539525,-57.63994047144491
8.424,0.999990245255418,-57.88124400393424
8.432,0.9999902987323521,-58.12255034744544
8.44,0.9999903558694966,-58.363859382089345
8.448,0.9999904167097717,-58.6051709880189
8.456,0.9999904812955492,-58.84648504542954
8.464,0.9999905496686298,-59.08780143456036
8.472,0.9999906218702164,-59.329120035694494
8.48,0.9999906979408899,-59.57044072916023
8.488,0.9999907779205819,-59.81176339533139
8.496,0.9999908618485469,-60.05308791462844
8.504,0.9999909497633355,-60.29441416751886
8.512,0.9999910417027645,-60.535742034518286
8.52,0.9999911377038864,-60.77707139619075
8.528,0.9999912378029592,-61.01840213314991
8.536,0.999991342035414,-61.259734126059314
8.544,0.9999914504358213,-61.50106725563351
8.552,0.9999915630378583,-61.74240140263834
8.56,0.9999916798742718,-61.98373644789215
8.568,0.999991800976843,-62.22507227226597
8.576,0.9999919263763493,-62.46640875668472
8.584,0.9999920561025245,-62.707745782127446
8.592,0.9999921901840196,-62.94908322962852
8.6,0.9999923286483609,-63.19042098027785
8.608,0.9999924715219055,-63.43175891522212
8.616,0.9999926188297983,-63.67309691566501
8.624,0.9999927705959245,-63.914434862868426
8.632,0.9999929268428629,-64.15577263815278
8.64,0.9999930875918349,-64.39711012289813
8.648,0.9999932528626553,-64.6384471985447
8.656,0.999993422673677,-64.87978374659384
8.664,0.9999935970417381,-65.12111964860863
8.672,0.9999937759821035,-65.36245478621504
8.68,0.9999939595084081,-65.60378904110233
8.688,0.9999941476325934,-65.84512229502442
8.696,0.9999943403648467,-66.08645442980034
8.704,0.9999945377135354,-66.32778532731562
8.712,0.9999947396851384,-66.56911486952282
8.72,0.9999949462841785,-66.81044293844306
8.728,0.9999951575131475,-67.05176941616655
8.736,0.9999953733724335,-67.29309418485423
8.744,0.9999955938602428,-67.53441712673852
8.752,0.9999958189725199,-67.77573812412496
8.76,0.9999960487028642,-68.01705705939312
8.768,0.9999962830424461,-68.25837381499845
8.776,0.9999965219799158,-68.49968827347325
8.784,0.9999967655013136,-68.74100031742869
8.792,0.9999970135899744,-68.98230982955603
8.8,0.9999972662264305,-69.22361669262891
8.808,0.9999975233883093,-69.46492078950466
8.815999999999999,0.9999977850502295,-69.70622200312667
8.824,0.9999980511836927,-69.94752021652653
8.832,0.9999983217569723,-70.18881531282598
8.84,0.9999985967349978,-70.43010717523958
8.847999999999999,0.9999988760792358,-70.67139568707736
8.856,0.9999991597475674,-70.91268073174753
8.864,0.9999994476941623,-71.15396219275922
8.872,0.999999739869347,-71.39523995372592
8.879999999999999,0.9999999999999999,-71.63651389836883
8.888,0.9999999999999999,-71.87778391052046
8.896,0.9999999999999999,-72.11904987412834
8.904,1.0,-72.36031167325929
8.911999999999999,0.9999999999999999,-72.60156919210404
8.92,1.0,-72.8428223149817
8.928,1.0,-73.08407092634489
8.936,1.0,-73.32531491078512
8.943999999999999,1.0,-73.56655415303882
8.952,0.9999999999999999,-73.80778853799328
8.96,1.0,-74.04901795069327
8.968,0.9999999999999999,-74.29024227634811
8.975999999999999,1.0,-74.5314614003394
8.984,1.0,-74.77267520822879
8.992,0.9999999999999999,-75.01388358576658
9.0,0.9999999999999999,-75.25508641890087
9.008,1.0,-75.49628359378742
9.016,0.9999999999999999,-75.73747499679983
9.024000000000001,0.9999999999999999,-75.97866051454052
9.032,1.0,-76.21984003385248
9.04,0.9999999999999999,-76.46101344183185
9.048,0.9999999999999999,-76.70218062584104
9.056000000000001,1.0,-76.9433414735226
9.064,1.0,-77.18449587281431
9.072,1.0,-77.425643711965
9.08,1.0,-77.66678487955114
9.088000000000001,0.9999999999999999,-77.90791926449458
9.096,0.9999999999999999,-78.1490467560812
9.104,0.9999999999999999,-78.390167243981
9.112,1.0,-78.63128061826876
9.120000000000001,1.0,-78.87238676944618
9.128,0.9999999999999999,-79.11348558846511
9.136,0.9999999999999999,-79.35457696675235
9.144,1.0,-79.5956607962353
9.152000000000001,1.0,-79.83673696936904
9.16,1.0,-80.07780537916506
9.168,0.9999999999999999,-80.31886591922127
9.176,0.9999999999999999,-80.5599184837534
9.184000000000001,0.9999999999999999,-80.80096296762783
9.192,0.9999999999999999,-81.0419992663961
9.2,1.0,-81.28302727633118
9.208,0.9999999999999998,-81.52404689446482
9.216000000000001,1.0,-81.76505801862679
9.224,0.9999999999999999,-82.00606054748565
9.232,0.9999999999999999,-82.24705438059149
9.24,1.0,-82.48803941841969
9.248000000000001,1.0,-82.7290155624166
9.256,1.0,-82.96998271504688
9.264,1.0,-83.21094077984232
9.272,1.0,-83.45188966145217
9.280000000000001,1.0,-83.69282926569475
9.288,0.9999999999999999,-83.93375949961076
9.296,0.9999999999999999,-84.17468027151774
9.304,0.9999999999999999,-84.41559149106585
9.312000000000001,1.0,-84.65649306929427
9.32,1.0,-84.89738491868926
9.328,1.0,-85.13826695324248
9.336,1.0,-85.3791390885102
9.344,1.0,-85.62000124167253
9.352,1.0,-85.86085333159339
9.36,0.9999999999999998,-86.10169527887975
9.368,1.0,-86.3425270059412
9.376,1.0,-86.58334843704803
9.384,1.0,-86.82415949838924
9.392,1.0,-87.06496011812817
9.4,1.0,-87.30575022645733
9.408,1.0,-87.54652975565017
9.416,0.9999999999999999,-87.78729864011092
9.424,1.0,-88.02805681642072
9.432,0.9999999999999999,-88.26880422338071
9.44,1.0,-88.50954080205027
9.448,1.0,-88.75026649578135
9.456,0.9999999999999999,-88.9909812502466
9.464,0.9999999999999999,-89.23168501346265
9.472,1.0,-89.47237773580588
9.48,1.0,-89.71305937002191
9.488,1.0,-89.9537298712269
9.496,1.0,-90.19438919690073
9.504,1.0,-90.43503730687107
9.512,0.9999999999999999,-90.67567416328825
9.52,0.9999999999999998,-90.91629973058944
9.528,1.0,-91.1569139754529
9.536,1.0,-91.3975168667402
9.544,0.9999999999999999,-91.63810837542793
9.552,1.0,-91.87868847452606
9.56,1.0,-92.1192571389852
9.568,0.9999999999999999,-92.35981434559025
9.576,1.0,-92.60036007284197
9.584,1.0,-92.840894300825
9.592,0.9999999999999999,-93.08141701106383
9.6,0.9999999999999999,-93.32192818636508
9.608,0.9999999999999999,-93.56242781064826
9.616,1.0,-93.80291586876358
9.624,1.0,-94.0433923462989
9.632,1.0,-94.28385722937514
9.64,0.9999999999999999,-94.52431050443207
9.648,0.9999999999999999,-94.76475215800426
9.656,1.0,-95.0051821764896
9.664,1.0,-95.24560054591007
9.672,1.0,-95.4860072516675
9.68,1.0,-95.72640227829454
9.688,0.9999999999999999,-95.96678560920364
9.696,1.0,-96.20715722643418
9.704,0.9999999999999999,-96.44751711040121
