freq,mag,phase
6.0,0.9999968025718488,115.53912948436778
6.008,0.9999971526538833,115.4462898223043
6.016,0.9999974903497629,115.35342310933805
6.024,0.9999978159186861,115.26052928916853
6.032,0.9999981296174806,115.16760830546322
6.04,0.999998431700599,115.07466010185838
6.048,0.9999987224201157,114.9816846219598
6.056,0.9999990020257259,114.88868180934344
6.064,0.9999992707647417,114.79565160755631
6.072,0.9999995288820909,114.70259396011703
6.08,0.9999997766203133,114.60950881051674
6.088,1.0,114.51639610221979
6.096,1.0,114.42325577866444
6.104,0.9999999999999998,114.33008778326378
6.112,0.9999999999999998,114.23689205940633
6.12,0.9999999999999999,114.14366855045694
6.128,0.9999999999999999,114.05041719975748
6.136,1.0,113.9571379506277
6.144,1.0,113.86383074636596
6.152,0.9999999999999999,113.77049553025009
6.16,1.0,113.67713224553813
6.168,1.0,113.58374083546913
6.176,1.0,113.49032124326408
6.184,1.0,113.39687341212651
6.192,1.0,113.30339728524358
6.2,0.9999999999999999,113.20989280578664
6.208,0.9999999999999999,113.11635991691227
6.216,1.0,113.02279856176301
6.224,0.9999999999999999,112.92920868346822
6.232,1.0,112.83559022514494
6.24,1.0,112.74194312989871
6.248,1.0,112.6482673408245
6.256,1.0,112.5545628010075
6.264,1.0,112.46082945352401
6.272,1.0,112.36706724144231
6.28,1.0,112.27327610782355
6.288,1.0,112.1794559957226
6.296,1.0,112.08560684818897
6.304,0.9999999999999999,111.99172860826772
6.312,1.0,111.89782121900026
6.32,0.9999999999999999,111.80388462342538
6.328,0.9999999999999998,111.70991876458004
6.336,1.0,111.61592358550034
6.344,0.9999999999999999,111.52189902922245
6.352,1.0,111.42784503878349
6.36,0.9999999999999999,111.33376155722243
6.368,1.0,111.23964852758111
6.376,0.9999999999999999,111.14550589290508
6.384,0.9999999999999999,111.05133359624453
6.392,0.9999999999999999,110.95713158065536
6.4,1.0,110.86289978919997
6.408,0.9999999999999999,110.76863816494829
6.416,1.0,110.6743466509787
6.424,0.9999999999999998,110.580025190379
6.432,1.0,110.4856737262474
6.44,0.9999999999999999,110.39129220169339
6.448,1.0,110.2968805598388
6.456,1.0,110.20243874381875
6.464,1.0,110.1079666967826
6.472,1.0,110.01346436189489
6.48,1.0,109.91893168233644
6.4879999999999995,0.9999999999999999,109.82436860130521
6.496,0.9999999999999999,109.72977506201731
6.504,1.0,109.63515100770812
6.5120000000000005,0.9999999999999999,109.540496381633
6.52,0.9999999999999999,109.44581112706864
6.5280000000000005,0.9999999999999999,109.3510951873137
6.536,1.0,109.25634850569013
6.5440000000000005,1.0,109.16157102554388
6.552,0.9999999999999999,109.06676269024616
6.5600000000000005,1.0,108.97192344319424
6.568,0.9999999999999999,108.87705322781261
6.5760000000000005,1.0,108.78215198755385
6.584,0.9999999999999999,108.68721966589975
6.592,0.9999999999999999,108.59225620636225
6.6,1.0,108.49726155248452
6.608,1.0,108.40223564784188
6.616,0.9999999999999999,108.30717843604288
6.624,0.9999999999999999,108.21208986073033
6.632,1.0,108.11696986558219
6.64,1.0,108.02181839431279
6.648,1.0,107.92663539067364
6.656,1.0000000000000002,107.83142079845456
6.664,0.9999999999999999,107.73617456148466
6.672,0.9999999999999999,107.64089662363335
6.68,0.9999999999999999,107.54558692881139
6.688,1.0,107.45024542097181
6.696,1.0,107.35487204411106
6.704,1.0,107.25946674226986
6.712,0.9999999999999999,107.16402945953433
6.72,1.0,107.06856014003694
6.728,1.0,106.97305872795751
6.736,0.9999999999999998,106.87752516752423
6.744,1.0000000000000002,106.7819594030147
6.752,0.9999999999999999,106.68636137875679
6.76,1.0,106.59073103912978
6.768,0.9999999999999999,106.49506832856527
6.776,0.9999999999999999,106.3993731915482
6.784,1.0,106.3036455726178
6.792,0.9999999999999999,106.20788541636858
6.8,1.0,106.11209266745132
6.808,1.0,106.01626727057405
6.816,0.9999999999999999,105.92040917050294
6.824,0.9999999999999999,105.82451831206335
6.832,1.0,105.72859464014074
6.84,1.0,105.6326380996816
6.848,1.0,105.53664863569443
6.856,1.0,105.44062619325071
6.864,1.0,105.34457071748567
6.872,0.9999999999999999,105.24848215359943
6.88,0.9999999999999999,105.15236044685776
6.888,1.0,105.05620554259303
6.896,0.9999999999999999,104.96001738620517
6.904,1.0,104.86379592316241
6.912,0.9999999999999999,104.7675410990024
6.92,1.0,104.67125285933284
6.928,1.0,104.5749311498325
6.936,0.9999999999999999,104.47857591625205
6.944,1.0,104.38218710441485
6.952,1.0,104.28576466021788
6.96,1.0,104.18930852963247
6.968,1.0,104.0928186587052
6.976,0.9999999999999999,103.99629499355866
6.984,1.0,103.89973748039223
6.992,0.9999999999999999,103.80314606548295
7.0,0.9999999999999999,103.70652069518614
7.008,0.9999999999999999,103.60986131593634
7.016,0.9999999999999999,103.51316787424793
7.024,1.0,103.41644031671586
7.032,1.0,103.3196785900165
7.04,1.0,103.22288264090814
7.048,1.0,103.12605241623191
7.056,1.0,103.02918786291227
7.064,0.9999999999999999,102.93228892795779
7.072,1.0,102.83535555846171
7.08,1.0,102.73838770160273
7.088,1.0,102.6413853046454
7.096,1.0,102.54434831494089
7.104,0.9999999999999998,102.44727667992754
7.112,1.0,102.3501703471314
7.12,1.0,102.25302926416677
7.128,1.0,102.15585337873684
7.136,1.0,102.05864263863401
7.144,1.0,101.96139699174061
7.152,1.0,101.8641163860292
7.16,0.9999999999999998,101.76680076956313
7.168,1.0,101.66945009049695
7.176,1.0,101.57206429707682
7.184,1.0,101.47464333764097
7.192,1.0,101.37718716061998
7.2,1.0,101.27969571453725
7.208,1.0,101.18216894800925
7.216,0.9999999999999999,101.0846068097459
7.224,1.0,100.98700924855083
7.232,1.0,100.88937621332168
7.24,1.0,100.79170765305037
7.248,1.0,100.69400351682323
7.256,1.0,100.59626375382135
7.264,0.9999999999999999,100.49848831332069
7.272,1.0,100.40067714469222
7.28,0.9999999999999999,100.3028301974021
7.288,1.0,100.20494742101182
7.296,1.0,100.10702876517819
7.304,0.9999999999999999,100.00907417965348
7.312,1.0,99.91108361428549
7.32,0.9999999999999999,99.81305701901746
7.328,0.9999999999999999,99.71499434388818
7.336,0.9999999999999999,99.61689553903187
7.344,0.9999999999999998,99.51876055467811
7.352,1.0,99.42058934115187
7.36,1.0,99.32238184887322
7.368,0.9999999999999999,99.22413802835734
7.376,0.9999999999999999,99.12585783021431
7.384,1.0,99.02754120514886
7.392,0.9999999999999999,98.9291881039602
7.4,0.9999999999999999,98.83079847754176
7.4079999999999995,1.0,98.73237227688095
7.416,1.0,98.63390945305878
7.4239999999999995,0.9999999999999999,98.53540995724958
7.432,0.9999999999999999,98.43687374072066
7.4399999999999995,1.0,98.33830075483185
7.448,1.0,98.23969095103514
7.4559999999999995,0.9999999999999999,98.14104428087425
7.464,1.0,98.04236069598407
7.4719999999999995,0.9999999999999999,97.94364014809032
7.48,1.0,97.84488258900878
7.4879999999999995,0.9999999999999999,97.74608797064498
7.496,0.9999999999999999,97.64725624499339
7.504,0.9999999999999999,97.54838736413706
7.5120000000000005,0.9999999999999999,97.44948128024667
7.52,1.0,97.35053794558011
7.5280000000000005,1.0,97.25155731248162
7.536,1.0,97.15253933338117
7.5440000000000005,1.0,97.05348396079354
7.552,0.9999999999999999,96.95439114731776
7.5600000000000005,1.0,96.85526084563602
7.568,1.0,96.75609300851306
7.5760000000000005,1.0,96.6568875887951
7.584,1.0,96.55764453940913
7.5920000000000005,0.9999999999999998,96.45836381336173
7.6,1.0,96.35904536373837
7.6080000000000005,1.0,96.25968914370219
7.616,0.9999999999999999,96.16029510649312
7.6240000000000006,1.0,96.06086320542674
7.632,0.9999999999999999,95.96139339389332
7.640000000000001,0.9999999999999999,95.86188562535654
7.648,0.9999999999999999,95.76233985335253
7.656000000000001,1.0,95.66275603148858
7.664,1.0,95.56313411344206
7.672,0.9999999999999998,95.46347405295907
7.68,1.0,95.36377580385333
7.688,0.9999999999999999,95.2640393200048
7.696,1.0,95.16426455535847
7.704,1.0,95.06445146392298
7.712,0.9999999999999999,94.96459999976932
7.72,1.0,94.86471011702936
7.728,1.0,94.76478176989458
7.736,0.9999999999999999,94.66481491261455
7.744,1.0,94.56480949949551
7.752,1.0,94.46476548489889
7.76,1.0000000000000002,94.36468282323985
7.768,1.0,94.26456146898569
7.776,0.9999999999999999,94.16440137665434
7.784,1.0,94.06420250081284
7.792,1.0,93.96396479607567
7.8,0.9999999999999999,93.86368821710316
7.808,1.0,93.76337271859991
7.816,1.0,93.6630182553131
7.824,1.0,93.56262478203078
7.832,0.9999999999999998,93.46219225358024
7.84,0.9999999999999999,93.36172062482625
7.848,1.0,93.2612098506694
7.856,0.9999999999999999,93.16065988604421
7.864,1.0,93.06007068591757
7.872,1.0,92.95944220528673
7.88,1.0,92.85877439917763
7.888,0.9999999999999999,92.75806722264313
7.896,1.0,92.65732063076102
7.904,1.0,92.55653457863232
7.912,1.0,92.4557090213793
7.92,1.0,92.35484391414374
7.928,1.0,92.25393921208489
7.936,1.0000000000000002,92.15299487037768
7.944,1.0,92.05201084421078
7.952,1.0,91.95098708878467
7.96,1.0,91.84992355930969
7.968,0.9999999999999999,91.74882021100414
7.976,1.0,91.64767699909231
7.984,0.9999999999999999,91.54649387880247
7.992,1.0,91.44527080536498
8.0,0.9999999999999999,91.34400773401035
8.008,1.0,91.24270461996707
8.016,0.9999999999999998,91.14136141845981
8.024000000000001,1.0,91.03997808470741
8.032,1.0,90.93855457392083
8.04,1.0,90.83709084130115
8.048,1.0000000000000002,90.73558684203756
8.056000000000001,1.0,90.6340425313055
8.064,1.0,90.53245786426446
8.072,0.9999999999999999,90.43083279605615
8.08,1.0,90.32916728180233
8.088000000000001,1.0,90.22746127660297
8.096,1.0,90.1257147355342
8.104,1.0,90.02392761364626
8.112,1.0,89.92209986596154
8.120000000000001,0.9999999999999999,89.82023144747268
8.128,1.0,89.71832231314048
8.136,0.9999999999999999,89.61637241789195
8.144,1.0,89.51438171661836
8.152000000000001,0.9999999999999999,89.4123501641733
8.16,0.9999999999999999,89.31027771537074
8.168,0.9999999999999999,89.20816432498299
8.176,0.9999999999999999,89.10600994773883
8.184000000000001,1.0,89.00381453832165
8.192,1.0,88.90157805136748
8.2,1.0,88.79930044146306
8.208,1.0,88.69698166314394
8.216000000000001,1.0,88.59462167089278
8.224,1.0,88.49222041913731
8.232,0.9999999999999999,88.38977786224854
8.24,1.0,88.28729395453888
8.248000000000001,0.9999999999999999,88.18476865026052
8.256,1.0,88.08220190360346
8.264,1.0,87.97959366869374
8.272,1.0,87.87694389959172
8.280000000000001,1.0,87.77425255029044
8.288,0.9999999999999998,87.67151957471374
8.296,1.0,87.56874492671463
8.304,0.9999999999999999,87.46592856007362
8.312,0.9999999999999999,87.36307042849711
8.32,0.9999999999999999,87.26017048561563
8.328,1.0,87.1572286849824
8.336,1.0,87.05424498007159
8.344,1.0,86.95121932427683
8.352,1.0,86.8481516709097
8.36,1.0,86.74504197319817
8.368,0.9999999999999999,86.64189018428509
8.376,0.9999999999999999,86.53869625722685
8.384,1.0,86.43546014499178
8.392,0.9999999999999999,86.3321818004589
8.4,1.0,86.22886117641642
8.408,1.0,86.12549822556049
8.416,0.9999999999999999,86.02209290049382
8.424,1.0,85.91864515372437
8.432,1.0,85.81515493766416
8.44,0.9999999999999999,85.711622204628
8.448,1.0,85.60804690683223
8.456,1.0,85.5044289963937
8.464,0.9999999999999999,85.40076842532842
8.472,1.0,85.29706514555072
8.48,1.0,85.19331910887183
8.488,1.0,85.08953026699923
8.496,0.9999999999999999,84.98569857153525
8.504,1.0,84.88182397397642
8.512,0.9999999999999999,84.77790642571227
8.52,0.9999999999999999,84.67394587802465
8.528,0.9999999999999999,84.56994228208659
8.536,1.0,84.46589558896166
8.544,1.0,84.36180574960306
8.552,0.9999999999999999,84.25767271485296
8.56,1.0,84.15349643544147
8.568,0.9999999999999999,84.04927686198633
8.576,1.0,83.94501394499186
8.584,1.0,83.84070763484858
8.592,0.9999999999999998,83.73635788183245
8.6,1.0,83.63196463610441
8.608,0.9999999999999999,83.52752784770969
8.616,1.0,83.42304746657747
8.624,0.9999999999999999,83.31852344252032
8.632,0.9999999999999999,83.21395572523375
8.64,1.0,83.10934426429583
8.648,1.0,83.00468900916694
8.656,1.0,82.89998990918916
8.664,1.0,82.79524691358627
8.672,1.0,82.69045997146331
8.68,1.0,82.58562903180639
8.688,1.0000000000000002,82.4807540434825
8.696,1.0,82.37583495523938
8.704,1.0,82.27087171570531
8.712,0.9999999999999999,82.1658642733891
8.72,1.0,82.06081257667994
8.728,1.0,81.95571657384747
8.736,1.0,81.85057621304168
8.744,1.0,81.74539144229308
8.752,1.0,81.64016220951258
8.76,0.9999999999999999,81.53488846249178
8.768,0.9999999999999999,81.42957014890295
8.776,0.9999999999999999,81.32420721629931
8.784,1.0,81.21879961211513
8.792,0.9999999999999999,81.11334728366603
8.8,0.9999999106553032,81.00785017814914
8.808,0.9999997823363673,80.90230824264351
8.815999999999999,0.9999996564721333,80.79672142411032
8.824,0.9999995331341524,80.69108966939321
8.832,0.9999994123933954,80.58541292521878
8.84,0.9999992943202258,80.4796911381969
8.847999999999999,0.999999178984375,80.37392425482112
8.856,0.9999990664549153,80.26811222146911
8.864,0.9999989568002372,80.16225498440323
8.872,0.9999988500880218,80.05635248977106
8.879999999999999,0.9999987463852189,79.95040468360573
8.888,0.9999986457580201,79.84441151182666
8.896,0.9999985482718373,79.73837292024018
8.904,0.9999984539912783,79.63228885454
8.911999999999999,0.9999983629801228,79.52615926030788
8.92,0.9999982753013008,79.41998408301437
8.928,0.9999981910168696,79.31376326801941
8.936,0.9999981101879912,79.20749676057311
8.943999999999999,0.9999980328749117,79.10118450581635
8.952,0.9999979591369389,78.99482644878161
8.96,0.9999978890324219,78.8884225343938
8.968,0.9999978226187299,78.78197270747096
8.975999999999999,0.9999977599522337,78.67547691272506
8.984,0.9999977010882835,78.56893509476285
8.992,0.9999976460811915,78.46234719808676
9.0,0.9999975949842123,78.35571316709576
9.008,0.9999975478495243,78.2490329460861
9.016,0.9999975047282114,78.14230647925235
9.024000000000001,0.9999974656702464,78.03553371068836
9.032,0.9999974307244726,77.92871458438805
9.04,0.9999973999385879,77.82184904424642
9.048,0.9999973733591278,77.71493703406051
9.056000000000001,0.9999973510314497,77.60797849753044
9.064,0.999997332999718,77.50097337826033
9.072,0.9999973193068892,77.39392161975927
9.08,0.9999973099946962,77.28682316544241
9.088000000000001,0.9999973051036347,77.179677958632
9.096,0.9999973046729518,77.07248594255837
9.104,0.9999973087406292,76.96524706036102
9.112,0.999997317343373,76.85796125508958
9.120000000000001,0.9999973305166013,76.75062846970506
9.128,0.9999973482944323,76.64324864708085
9.136,0.9999973707096719,76.53582173000372
9.144,0.9999973977938047,76.42834766117497
9.152000000000001,0.9999974295769835,76.3208263832116
9.16,0.9999974660880172,76.21325783864738
9.168,0.9999975073543654,76.10564196993393
9.176,0.9999975534021257,75.99797871944179
9.184000000000001,0.999997604256028,75.89026802946174
9.192,0.9999976599394249,75.78250984220573
9.2,0.9999977204742854,75.67470409980811
9.208,0.9999977858811873,75.5668507443267
9.216000000000001,0.9999978561793109,75.45894971774403
9.224,0.9999979313864331,75.35100096196847
9.232,0.9999980115189216,75.2430044188352
9.24,0.9999980965917301,75.13496003010754
9.248000000000001,0.9999981866183936,75.0268677374781
9.256,0.9999982816110233,74.91872748256978
9.264,0.9999983815803056,74.81053920693702
9.272,0.999998486535496,74.70230285206692
9.280000000000001,0.9999985964844171,74.59401835938039
9.288,0.9999987114334576,74.4856856702333
9.296,0.9999988313875694,74.37730472591751
9.304,0.9999989563502656,74.26887546766217
9.312000000000001,0.9999990863236212,74.16039783663473
9.32,0.999999221308271,74.05187177394217
9.328,0.9999993613034112,73.94329722063195
9.336,0.9999995063067973,73.8346741176933
9.344,0.9999996563147481,73.72600240605826
9.352,0.9999998113221447,73.61728202660278
9.36,0.9999999713224323,73.50851292014788
9.368,0.9999999999999999,73.39969502746057
9.376,1.0,73.29082828925522
9.384,1.0,73.1819126461943
9.392,1.0,73.07294803888979
9.4,1.0,72.96393440790396
9.408,1.0,72.8548716937506
9.416,0.9999999999999999,72.74575983689596
9.424,1.0,72.63659877775987
9.432,1.0,72.52738845671668
9.44,0.9999999999999999,72.41812881409635
9.448,1.0,72.30881979018538
9.456,1.0,72.19946132522789
9.464,1.0,72.09005335942646
9.472,1.0,71.98059583294332
9.48,0.9999999999999999,71.87108868590104
9.488,0.9999999999999999,71.76153185838369
9.496,1.0,71.65192529043767
9.504,1.0,71.5422689220727
9.512,0.9999999999999999,71.43256269326254
9.52,1.0,71.32280654394619
9.528,0.9999999999999999,71.21300041402849
9.536,1.0,71.10314424338112
9.544,1.0,70.99323797184344
9.552,1.0,70.88328153922332
9.56,1.0,70.77327488529788
9.568,1.0,70.66321794981444
9.576,0.9999999999999999,70.55311067249121
9.584,0.9999999999999999,70.44295299301812
9.592,1.0,70.3327448510575
9.6,0.9999999999999999,70.22248618624492
9.608,1.0,70.11217693818986
9.616,0.9999999999999999,70.00181704647646
9.624,1.0,69.8914064506641
9.632,1.0,69.78094509028833
9.64,0.9999999999999998,69.6704329048612
9.648,1.0,69.5598698338722
9.656,1.0,69.4492558167887
9.664,1.0,69.33859079305667
9.672,1.0,69.22787470210115
9.68,0.9999999999999999,69.11710748332699
9.688,0.9999999999999999,69.00628907611924
9.696,1.0,68.89541941984386
9.704,1.0,68.78449845384807
9.712,0.9999999999999999,68.673526117461
9.72,1.0,68.56250234999402
9.728,1.0,68.45142709074143
9.736,0.9999999999999999,68.34030027898066
9.744,0.9999999999999999,68.22912185397291
9.752,1.0,68.11789175496342
9.76,1.0,68.00660992118196
9.768,1.0,67.89527629184312
9.776,0.9999999999999999,67.78389080614673
9.784,1.0,67.67245340327821
9.792,0.9999999999999999,67.56096402240883
9.8,1.0,67.44942260269603
9.808,0.9999999999999999,67.33782908328381
9.816,0.9999999999999999,67.22618340330273
9.824,1.0,67.11448550187049
9.832,1.0,67.00273531809192
9.84,0.9999999999999999,66.89093279105926
9.847999999999999,1.0,66.77907785985235
9.856,0.9999999999999999,66.66717046353877
9.864,0.9999999999999999,66.55521054117408
9.872,1.0,66.44319803180188
9.879999999999999,0.9999999999999999,66.33113287445389
9.888,1.0,66.2190150081501
9.896,1.0,66.10684437189883
9.904,0.9999999999999999,65.9946209046969
9.911999999999999,1.0,65.88234454552939
9.92,1.0,65.77001523336992
9.928,1.0,65.65763290718056
9.936,1.0,65.54519750591182
9.943999999999999,0.9999999999999999,65.43270896850257
9.952,0.9999999999999999,65.32016723388001
9.96,1.0,65.20757224095966
9.968,0.9999999999999998,65.09492392864524
9.975999999999999,1.0,64.98222223582844
9.984,1.0,64.86946710138895
9.992,0.9999999999999999,64.75665846419422
10.0,1.0,64.64379626309939
10.008,0.9999999999999999,64.53088043694696
10.016,1.0,64.4179109245667
10.024000000000001,0.9999999999999999,64.30488766477539
10.032,1.0,64.1918105963767
10.04,0.9999999999999999,64.07867965816065
10.048,1.0,63.96549478890362
10.056000000000001,1.0,63.85225592736795
10.064,0.9999999999999999,63.738963012301646
10.072,0.9999999999999998,63.62561598243801
10.08,1.0000000000000002,63.51221477649531
10.088000000000001,1.0,63.39875933317649
10.096,1.0,63.28524959116877
10.104,0.9999999999999999,63.17168548914312
10.112,1.0,63.058066965754016
10.120000000000001,1.0,62.94439395963894
10.128,1.0,62.830666409417944
10.136,1.0,62.71688425369314
10.144,0.9999999999999999,62.603047431048275
10.152000000000001,1.0,62.48915588004823
10.16,1.0,62.375209539238554
10.168,0.9999999999999999,62.261208347144745
10.176,0.9999999999999999,62.14715224227189
10.184000000000001,1.0,62.033041163104095
10.192,1.0,61.918875048103814
10.2,1.0,61.80465383571131
10.208,1.0,61.69037746434395
10.216000000000001,1.0,61.5760458723958
10.224,0.9999999999999999,61.46165899823678
10.232,1.0,61.34721678021203
10.24,1.0,61.23271915664128
10.248000000000001,1.0,61.11816606581822
10.256,0.9999999999999999,61.003557446009694
10.264,1.0,60.888893235454994
10.272,1.0000000000000002,60.77417337236513
10.280000000000001,1.0,60.65939779492215
10.288,1.0,60.54456644127835
10.296,0.9999999999999999,60.42967924955538
10.304,1.0,60.31473615784353
10.312000000000001,0.9999999999999999,60.19973710420101
10.32,1.0,60.08468202665303
10.328,1.0,59.96957086319092
10.336,1.0,59.85440355177133
10.344000000000001,1.0,59.73918003031541
10.352,1.0,59.62390023670788
