freq,mag,phase
6.0,1.0002803146789432,27.477890351212494
6.002287616,1.000279482147296,27.300364150752255
6.004575232,1.000260765085178,27.122895915340433
6.006862848,1.0002253318040424,26.945742721656494
6.009150464,1.0001755180143528,26.769127160721773
6.011438592,1.0001143965797843,26.59322621072391
6.013726208,1.0000459766601275,26.418178038712952
6.016013824,0.9999743397205144,26.244035182935583
6.01830144,0.9999042738781099,26.070867213214207
6.020589056,0.9998399369524597,25.898564887067835
6.022876672,0.9997855563057192,25.727050899118158
6.025164288,0.9997445043411385,25.5561384187278
6.027451904,0.9997194073937014,25.385603761251655
6.029740032,0.9997119144828901,25.215252658986
6.032027648,0.9997222618381595,25.044778188510882
6.034315264,0.9997500072458062,24.87394419200426
6.03660288,0.9997934313760004,24.70247969312766
6.038890496,0.9998496123836585,24.530209405595993
6.041178112,0.9999152270335716,24.356974999089676
6.043465728,0.9999859916235911,24.18266396970483
6.045753344,1.0000574554963506,24.007253607098797
6.04804096,1.0001251926762984,23.830711974513115
6.050329088,1.0001847694492236,23.653172082335722
6.052616704,1.000232591716896,23.47474951519042
6.05490432,1.0002655135576861,23.2956718734546
6.057191936,1.0002816117273143,23.11613509990033
6.059479552,1.000279733422327,22.936382505031556
6.061767168,1.0002599740436002,22.756719625488063
6.064054784,1.0002237123808593,22.577362566957497
6.0663424,1.0001731575989878,22.39855205059979
6.068630016,1.0001114190397307,22.220456524003218
6.070918144,1.0000424962620387,22.043214202004577
6.07320576,0.9999706895768871,21.866903446635213
6.075493376,0.9999005510264213,21.69152427709534
6.077780992,0.9998364942272112,21.517022517217857
6.080068608,0.999782531549841,21.34329583510553
6.082356224,0.9997420861214689,21.170144692744607
6.08464384,0.9997177297041441,20.997362290463155
6.086931456,0.9997110308283226,20.824729870439636
6.089219584,0.9997223332115662,20.651962307239447
6.0915072,0.9997509516024959,20.478841827287635
6.093794816,0.9997952503801559,20.305054832628834
6.096082432,0.9998521008256519,20.130459522853844
6.098370048,0.9999182482134116,19.954877097942592
6.100657664,0.9999893331329756,19.778186405776417
6.10294528,1.000060979893723,19.60037831693553
6.105232896,1.0001285946443423,19.421455881054637
6.107520512,1.000187823250812,19.24150983260044
6.10980864,1.000235183224379,19.060702126377098
6.112096256,1.0002674898109443,18.879216191178045
6.114383872,1.0002828038313847,18.697290967769
6.116671488,1.000280075393014,18.51518539239074
6.118959104,1.0002594783504741,18.333140435130996
6.12124672,1.000222375156278,18.151406184414192
6.123534336,1.0001709758143833,17.970238516441476
6.125821952,1.0001087300635536,17.789768966212115
6.128109568,1.0000393285917626,17.610180493526357
6.130397696,0.999967333327772,17.431483149151195
6.132685312,0.9998971758422952,17.25375876853866
6.134972928,0.999833320375975,17.076880712600662
6.137260544,0.9997796888478838,16.900735433590203
6.13954816,0.9997398399792836,16.725197420268923
6.141835776,0.9997161560236669,16.55000734169177
6.144123392,0.9997102360448598,16.374937670383716
6.146411008,0.9997223499380379,16.19972269839461
6.148699136,0.9997518510228878,16.02410053391883
6.150986752,0.999796765416566,15.847829636330863
6.153274368,0.9998543798011229,15.670745521069788
6.155561984,0.9999209844470801,15.492634464052605
6.1578496,0.9999924258803904,15.313410043261872
6.160137216,1.0000641685522424,15.133054548115318
6.162424832,1.000131705530575,14.951578401533414
6.164712448,1.0001906540251209,14.769096239718525
6.167000064,1.0002375290481111,14.585746180412448
6.169288192,1.0002693281754182,14.401695743882357
6.171575808,1.000283880415307,14.217209307720053
6.173863424,1.0002803351992788,14.03254208456614
6.17615104,1.000258974933022,13.847968699568176
6.178438656,1.0002210925690678,13.663698971219976
6.180726272,1.000169112638696,13.479976682714264
6.183013888,1.0001063280357794,13.29698938046284
6.185301504,1.0000364531000714,13.11484556525409
6.18758912,0.9999642582858227,12.933636208680044
6.189877248,0.9998940237186467,12.753336746935576
6.192164864,0.9998302875706565,12.573927777150686
6.19445248,0.999777102291538,12.395217493504997
6.196740096,0.9997376832288206,12.217123120564073
6.199027712,0.9997146344142893,12.039345692469299
6.201315328,0.9997093723835381,11.861661624219842
6.203602944,0.9997222549405345,11.683844901341777
6.20589056,0.9997526203436353,11.505574202084967
6.208178688,0.9997981775397863,11.326650090360962
6.210466304,0.9998563524130257,11.146882223914602
6.21275392,0.9999234256225062,10.96606819313189
6.215041536,0.9999951441088853,10.784157046031488
6.217329152,1.0000670279128447,10.601095562584424
6.219616768,1.0001345140199422,10.416891580300694
6.221904384,1.0001932489639749,10.231693034033043
6.224192,1.0002397207333635,10.045613939147753
6.226479616,1.000270920045676,9.858839993906546
6.228767744,1.0002849044043176,9.671663158123811
6.23105536,1.0002807509131202,9.484269960396164
6.233342976,1.0002586139223,9.296963677131254
6.235630592,1.000220123584332,9.10997471591672
6.237918208,1.0001674452545501,8.923573534284738
6.240205824,1.0001041052509028,8.73786604573612
6.24249344,1.0000339629083146,8.553005293654047
6.244781056,0.9999614879879208,8.369093530766204
6.247068672,0.9998912345491332,8.186087140320708
6.2493568,0.9998276425755889,8.003944298378888
6.251644416,0.999774588911277,7.822512855663161
6.253932032,0.9997357683332914,7.641653740467248
6.256219648,0.9997132594812917,7.46111456304853
6.258507264,0.9997085828991045,7.280665272743204
6.26079488,0.9997222019285094,7.100036639684946
6.263082496,0.9997530685482021,6.918983207661966
6.265370112,0.9997994733295669,6.737231428158419
6.26765824,0.9998580847805074,6.554624265876516
6.269945856,0.9999256158470782,6.370975628730234
6.272233472,0.9999976908924134,6.186195987973527
6.274521088,1.0000696876963777,6.000242271101001
6.276808704,1.000137120949435,5.813172301207853
6.27909632,1.0001958630021217,5.625081235038103
6.281383936,1.0002419218916767,5.4361192902535675
6.283671552,1.000272609807096,5.246447039434481
6.285959168,1.0002860204613533,5.05636567176896
6.288247296,1.0002811038083212,4.866114178832026
6.290534912,1.000258419025357,4.675924606912584
6.292822528,1.000219238010596,4.486066221067068
6.295110144,1.0001660231301486,4.296762828988748
6.29739776,1.0001021800194276,4.108176627158321
6.299685376,1.0000317568228814,3.920442017772034
6.301972992,0.9999589933454455,3.7336298469038764
6.304260608,0.9998886857413646,3.5477360498370243
6.306548224,0.99982506018166,3.362727034997741
6.308836352,0.9997724003990188,3.1783767724848118
6.311123968,0.9997338545418876,2.994600398499396
6.313411584,0.9997117344413429,2.811151877547495
6.3156992,0.9997076582868198,2.6277450092638093
6.317986816,0.9997218102126909,2.4441649153423284
6.320274432,0.9997533637742936,2.260130694607661
6.322562048,0.9998002132421622,2.075405780404548
6.324849664,0.9998594298904837,1.889781555225605
6.327137792,0.9999273990831362,1.7031254339386006
6.329425408,0.9999997682076975,1.5153136954350601
6.331713024,1.0000718991986666,1.3263238523076675
6.33400064,1.0001393751031493,1.1362323878385605
6.336288256,1.000197815158151,0.9450883525480992
6.338575872,1.000243750752031,0.7530622110554283
6.340863488,1.0002740958223628,0.5603507538101569
6.343151104,1.0002869758764619,0.3672055257275578
6.34543872,1.0002816494398474,0.17389542360781246
6.347726848,1.0002583835890066,-0.019352714879793138
6.350014464,1.0002186986740587,-0.2122617034347185
6.35230208,1.000164891569859,-0.40462225834135673
6.354589696,1.0001006467327869,-0.5962624449250017
6.356877312,1.0000297929980322,-0.7870342359406792
6.359164928,0.9999569333036732,-0.9769001540141916
6.361452544,0.999886430133536,-1.16583766423569
6.36374016,0.9998229316680219,-1.3539467892765542
6.366027776,0.9997703375148493,-1.5413304130009946
6.368315904,0.9997320394493019,-1.7282104273639625
6.37060352,0.9997103155812568,-1.9147515162701947
6.372891136,0.9997067458316874,-2.101270559172769
6.375178752,0.9997214144184953,-2.2879723083036136
6.377466368,0.9997535654767828,-2.475150061146459
6.379753984,0.9998008475667846,-2.6630327990091978
6.3820416,0.9998605039408315,-2.8518035581742502
6.384329216,0.9999288601023689,-3.0416404835541044
6.386617344,1.0000014748028743,-3.2326298055346445
6.38890496,1.000073764898274,-3.4248187382924216
6.391192576,1.0001412488083798,-3.6181221769345964
6.393480192,1.0001997381018302,-3.8124700374978757
6.395767808,1.0002454156376162,-4.0077213498339015
6.398055424,1.0002754958559097,-4.203636669786347
6.40034304,1.0002880424806084,-4.399986457950429
6.402630656,1.0002823080727257,-4.596534937928581
6.404918272,1.000258494944295,-4.792999743699869
6.4072064,1.0002183301197354,-4.989123364015333
6.409494016,1.0001641500742096,-5.184693514324207
6.411781632,1.0000995137329858,-5.379542693005197
6.414069248,1.0000282672245848,-5.57355228113428
6.416356864,0.9999551236765057,-5.766632704924804
6.41864448,0.9998845446096255,-5.958827244350173
6.420932096,0.9998210414101913,-6.150164723206121
6.423219712,0.9997686095888982,-6.340802703107142
6.425507328,0.999730453860024,-6.530901576470216
6.427795456,0.9997090773682025,-6.720726645066212
6.430083072,0.9997058692661732,-6.91049615747574
6.432370688,0.9997209742119367,-7.100466673253264
6.434658304,0.9997533471906864,-7.290953705352474
6.43694592,0.9998012605583745,-7.482126737837042
6.439233536,0.9998613227511219,-7.674224389463851
6.441521152,0.9999298950130352,-7.86741134672535
6.443808768,1.0000028609774552,-8.06174285778671
6.446096896,1.0000753492236913,-8.257258773283255
6.448384512,1.0001429661320609,-8.453927207143458
6.450672128,1.0002014180257894,-8.651646390597588
6.452959744,1.0002470178392466,-8.850261518579796
6.45524736,1.0002769249485928,-9.049548002931706
6.457534976,1.0002891980302568,-9.2493007237112
6.459822592,1.0002830627923118,-9.449215496344058
6.462110208,1.0002588607611327,-9.649043883483452
6.464397824,1.000218331664965,-9.848579827277787
6.466685952,1.0001638022509498,-10.047528718646154
6.468973568,1.0000986887248913,-10.245751110048975
6.471261184,1.0000272806929973,-10.44314201438191
6.4735488,0.9999537992396604,-10.639616858882771
6.475836416,0.9998831357522806,-10.835203530548249
6.478124032,0.9998195479551806,-11.029934063805888
6.480411648,0.9997670846551667,-11.223985014124946
6.482699264,0.9997290588301552,-11.417498740459735
6.48498688,0.9997079427110366,-11.610727367786861
6.487275008,0.9997048598444485,-11.803918804033431
6.489562624,0.9997203033520762,-11.997347687347828
6.49185024,0.9997530230601718,-12.191277431817204
6.494137856,0.9998012113797484,-12.38590585378884
6.496425472,0.9998617037178273,-12.58147895397441
6.498713088,0.999930673436948,-12.778139819006794
6.501000704,1.0000038458210136,-12.975944526143387
6.50328832,1.000076540723755,-13.174999407963814
6.505576448,1.000144316688654,-13.375155472013812
6.507864064,1.0002028302403163,-13.576400831110718
6.51015168,1.000248347851622,-13.778526162296677
6.512439296,1.0002781321669938,-13.981354390401453
6.514726912,1.0002902323372194,-14.184620439475653
6.517014528,1.0002839743830152,-14.388086142855489
6.519302144,1.0002595096147864,-14.591451346469231
6.52158976,1.0002186378497124,-14.794495620731164
6.523877376,1.0001637097023328,-14.99700802464196
6.526165504,1.0000984090274576,-15.198781450984796
6.52845312,1.0000265850007042,-15.399728005933648
6.530740736,0.9999528939483071,-15.59973623111024
6.533028352,0.9998820476631493,-15.798858099287902
6.535315968,0.9998182715008967,-15.997141102582363
6.537603584,0.9997657292767191,-16.194737293400276
6.5398912,0.99972785529996,-16.391815492914603
6.542178816,0.9997066498372484,-16.588616925294996
6.544466432,0.999703912469865,-16.78539108912006
6.54675456,0.9997194657398406,-16.98238957607489
6.549042176,0.9997525068410853,-17.179910216465903
6.551329792,0.999800961212857,-17.378153827124425
6.553617408,0.9998617517540377,-17.577347282910367
6.555905024,0.999930935289244,-17.777622017737748
6.55819264,1.000004420114875,-17.97906931194586
6.560480256,1.0000773695528398,-18.181737125654244
6.562767872,1.0001453014529236,-18.385562963228065
6.565056,1.0002039828767333,-18.590479439296622
6.567343616,1.000249598401456,-18.79625204628138
6.569631232,1.0002793670672445,-19.002758043689195
6.571918848,1.0002914441590223,-19.20970417437929
6.574206464,1.0002849609997866,-19.4168464011098
6.57649408,1.0002604055317017,-19.623905226949958
6.578781696,1.0002191439466435,-19.83064100268295
6.581069312,1.0001640747591451,-20.036834095531507
6.583356928,1.0000985670525129,-20.242294912584022
6.585645056,1.000026447899822,-20.44691854828994
6.587932672,0.9999525339112668,-20.65063512022881
6.590220288,0.999881367008069,-20.85345674431289
6.592507904,0.999817404990789,-21.05543581236395
6.59479552,0.9997648123456868,-21.256736053517365
6.597083136,0.9997266978799139,-21.457526039125746
6.599370752,0.9997055791939216,-21.658028542468685
6.601658368,0.9997027797755246,-21.858533542626528
6.603945984,0.9997184829672165,-22.059258571850947
6.606234112,0.9997516767906427,-22.260507507046988
6.608521728,0.9998003127038522,-22.462502283682568
6.610809344,0.9998612699572058,-22.665426796505688
6.61309696,0.9999308474085835,-22.869443660065894
6.615384576,1.0000044722220225,-23.074673962486283
6.617672192,1.0000777682551925,-23.281091655220056
6.619959808,1.0001459384635982,-23.48870523021189
6.622247424,1.0002048350652135,-23.697399176724446
6.624535552,1.0002506338893988,-23.906989190195453
6.626823168,1.0002804202415632,-24.11729976227687
6.629110784,1.0002925525617599,-24.328043298806143
6.6313984,1.000286092855593,-24.538990301804706
6.633686016,1.0002613542102399,-24.749879376184452
6.635973632,1.0002201115774236,-24.96042688010916
6.638261248,1.000164768809527,-25.170449403395736
6.640548864,1.0000989245421879,-25.379752193747642
6.64283648,1.000026613592642,-25.588203508807617
6.645124608,0.9999524427795451,-25.795755645026354
6.647412224,0.9998810668951901,-26.002395197097677
6.64969984,0.9998168587074211,-26.208219312783786
6.651987456,0.9997640010391002,-26.413358148661093
6.654275072,0.9997256445402236,-26.617984318462135
6.656562688,0.9997044304127313,-26.82234898305238
6.658850304,0.9997015139595223,-27.026677422374917
6.66113792,0.9997171493828748,-27.231266405554003
6.663426048,0.9997504642495654,-27.436353908282104
6.665713664,0.9997991698936392,-27.642186261960155
6.66800128,0.9998603052588698,-27.8490049086365
6.670288896,0.9999300331244816,-28.05689463216373
6.672576512,1.0000040548193823,-28.265985476928233
6.674864128,1.0000775400825805,-28.47630826519615
6.677151744,1.0001460614081334,-28.687825305837407
6.67943936,1.0002051698924797,-28.900409597951523
6.681726976,1.0002512090713842,-29.11391766339891
6.684015104,1.0002812862689932,-29.32813068808125
6.68630272,1.0002935824349473,-29.542829144362564
6.688590336,1.0002872102639784,-29.757715575459276
6.690877952,1.0002626623621156,-29.972535800430908
6.693165568,1.000221310949024,-30.187047078667547
6.695453184,1.000165952620633,-30.401022665879676
6.6977408,1.000099877627493,-30.614260154346844
6.700028416,1.0000273710023675,-30.826661511784167
6.702316032,0.9999529892135761,-31.038166503745025
6.70460416,0.9998811563409767,-31.248778918670496
6.706891776,0.999816693769589,-31.45854893391078
6.709179392,0.9997634776724017,-31.667628778997393
6.711467008,0.9997249657685077,-31.876248133140788
6.713754624,0.9997034214805817,-32.08452563463394
6.71604224,0.9997002574483755,-32.29282416967669
6.718329856,0.9997158857779117,-32.50137524343488
6.720617472,0.9997490417462171,-32.71041301355525
6.7229056,0.9997978007761182,-32.92021566186251
6.725193216,0.9998591320382189,-33.130996870987374
6.727480832,0.9999290485249768,-33.34285973368703
6.729768448,1.0000032264172025,-33.55595328181997
6.732056064,1.0000770476429857,-33.77025409928585
6.73434368,1.0001459424904593,-33.985777855061535
6.736631296,1.000205400678373,-34.2023605297253
6.738918912,1.0002518564225522,-34.4198945235132
6.741206528,1.0002822683755914,-34.638129154710164
6.743494656,1.0002948983253297,-34.85685760705194
6.745782272,1.0002887259077868,-35.07578934878224
6.748069888,1.0002642789125256,-35.29464831255565
6.750357504,1.0002230624565025,-35.51320721328737
6.75264512,1.0001675795959057,-35.73123996393851
6.754932736,1.0001014854376171,-35.94852681648791
6.757220352,1.000028711137176,-36.16500408911692
6.759507968,0.999953925584349,-36.380576940276526
6.761795584,0.9998818474036145,-36.59524955801516
6.764083712,0.9998170050800411,-36.80906435069259
6.766371328,0.9997633381719514,-37.02221840543178
6.768658944,0.9997243674867902,-37.234853019606554
6.77094656,0.9997023716505674,-37.44721861263851
6.773234176,0.9996990627615812,-37.6595614391388
6.775521792,0.9997143305867193,-37.87215414182707
6.777809408,0.9997473672950163,-38.08525189827371
6.780097024,0.9997960736856353,-38.29911108567363
6.782385152,0.9998572761208102,-38.51394588856659
6.784672768,0.9999274285316485,-38.72986597093493
6.786960384,1.0000018904575079,-38.94699663525756
6.789248,1.0000761098538968,-39.16538986636423
6.791535616,1.0001452235903787,-39.38497127917659
6.793823232,1.0002051528070373,-39.60564615955006
6.796110848,1.000252045362663,-39.82727155040943
6.798398464,1.0002829429290576,-40.0496230754606
6.80068608,1.0002960504364278,-40.27245106927569
6.802974208,1.0002901051892004,-40.49550063802569
6.805261824,1.0002660230760332,-40.71851079402022
6.80754944,1.0002249562795023,-40.94120889687559
6.809837056,1.0001694834878627,-41.163372966481646
6.812124672,1.0001033303930469,-41.38483138247204
6.814412288,1.000030368040489,-41.60542667863571
6.816699904,0.9999553739018531,-41.82515080357821
6.81898752,0.999882861026965,-42.043954357666905
6.821275136,0.9998175054617903,-42.26192705200861
6.823563264,0.9997633408556812,-42.47919874230418
6.82585088,0.9997238832718175,-42.69596218636767
6.828138496,0.9997014469707028,-42.912455242863594
6.830426112,0.9996975213246356,-43.128919355749716
6.832713728,0.9997124230375719,-43.345624029789604
6.835001344,0.9997452794692078,-43.562831804455406
6.83728896,0.9997936842541941,-43.78081361682173
6.839576576,0.9998550799609427,-43.99975040308477
6.841864704,0.9999251962936849,-44.21979492457071
6.84415232,0.9999999402918025,-44.44105786540464
6.846439936,1.0000744173457028,-44.66356151344573
6.848727552,1.0001441222654344,-44.88726745649576
6.851015168,1.0002045817888383,-45.11211007058336
6.853302784,1.0002520905653467,-45.3378755720549
6.8555904,1.0002835236554606,-45.56439442673426
6.857878016,1.0002970731318077,-45.791390391676835
6.860165632,1.0002917953526147,-46.01863634964087
6.86245376,1.000267961656039,-46.24583450278573
6.864741376,1.0002273751229316,-46.472718248878145
6.867028992,1.000172084263023,-46.69906946718106
6.869316608,1.0001058116250032,-46.92475170171963
6.871604224,1.0000328173002433,-47.149539193467625
6.87389184,0.9999574170418574,-47.373482284951265
6.876179456,0.9998845355432329,-47.596473506395675
6.878467072,0.9998186822716382,-47.81863896696882
6.880754688,0.9997639939647855,-48.040116490534146
6.883042816,0.9997238578558124,-48.26105489673086
6.885330432,0.9997007861810238,-48.48173147005045
6.887618048,0.9996963490281395,-48.70234275235536
6.889905664,0.999710644370672,-48.92322063082535
6.89219328,0.999743021442106,-49.14460104630393
6.894480896,0.9997912721501708,-49.36670817715956
6.896768512,0.9998523923030549,-49.5897890050263
6.899056128,0.9999226436170064,-49.81397823844997
6.901344256,0.9999975871136297,-50.03940068727654
6.903631872,1.0000724589243666,-50.26606584448432
6.905919488,1.0001425811161346,-50.4939604918477
6.908207104,1.0002037636389551,-50.72294440469226
6.91049472,1.0002518968215675,-50.95290011150131
6.912782336,1.0002840539172007,-51.18359487583283
6.915069952,1.000298201081713,-51.41481212466952
6.917357568,1.0002935832839601,-51.6462457315455
