freq,mag,phase
6.0,0.9999927282042113,-73.92722239714645
6.008,0.9999941459935543,-74.28988080775719
6.016,0.999995509476374,-74.65247092772533
6.024,0.9999968196783219,-75.01499242211229
6.032,0.9999980776141727,-75.37744495801937
6.04,0.9999992842878673,-75.73982820460614
6.048,0.9999999999999999,-76.10214183310882
6.056,1.0,-76.46438551685826
6.064,0.9999999999999999,-76.8265589312979
6.072,1.0,-77.18866175400187
6.08,0.9999999999999999,-77.55069366469249
6.088,1.0,-77.91265434525802
6.096,1.0,-78.27454347977005
6.104,1.0,-78.6363607545009
6.112,1.0,-78.99810585794079
6.12,0.9999999999999999,-79.35977848081484
6.128,0.9999999999999999,-79.72137831610013
6.136,0.9999999999999999,-80.08290505904236
6.144,0.9999999999999999,-80.44435840717256
6.152,1.0,-80.80573806032362
6.16,1.0,-81.16704372064648
6.168,0.9999999999999999,-81.52827509262654
6.176,1.0,-81.88943188309959
6.184,1.0,-82.2505138012678
6.192,0.9999999999999999,-82.61152055871554
6.2,1.0,-82.97245186942486
6.208,1.0,-83.33330744979104
6.216,0.9999999999999999,-83.69408701863793
6.224,0.9999999999999999,-84.05479029723314
6.232,0.9999999999999999,-84.4154170093029
6.24,1.0,-84.7759668810473
6.248,1.0,-85.13643964115437
6.256,1.0,-85.49683502081537
6.264,1.0,-85.85715275373857
6.272,1.0,-86.21739257616397
6.28,0.9999999999999999,-86.57755422687698
6.288,1.0,-86.9376374472227
6.296,1.0,-87.29764198111934
6.304,1.0,-87.65756757507216
6.312,1.0,-88.01741397818664
6.32,0.9999999999999999,-88.37718094218202
6.328,1.0,-88.73686822140417
6.336,0.9999999999999999,-89.09647557283876
6.344,0.9999999999999998,-89.45600275612387
6.352,1.0,-89.81544953356274
6.36,0.9999999999999998,-90.17481567013628
6.368,0.9999999999999999,-90.53410093351523
6.376,1.0,-90.89330509407233
6.384,0.9999999999999999,-91.25242792489445
6.392,0.9999999999999999,-91.61146920179414
6.4,1.0,-91.97042870332139
6.408,0.9999999999999999,-92.32930621077523
6.416,1.0,-92.68810150821473
6.424,0.9999999999999999,-93.04681438247033
6.432,0.9999999999999999,-93.4054446231548
6.44,1.0,-93.76399202267395
6.448,1.0,-94.12245637623724
6.456,1.0,-94.4808374818684
6.464,1.0,-94.83913514041531
6.472,1.0,-95.1973491555607
6.48,0.9999999999999999,-95.55547933383147
6.4879999999999995,0.9999999999999999,-95.91352548460885
6.496,0.9999999999999999,-96.2714874201379
6.504,1.0,-96.62936495553673
6.5120000000000005,0.9999999999999999,-96.98715790880613
6.52,1.0,-97.34486610083816
6.5280000000000005,1.0,-97.70248935542557
6.536,1.0,-98.06002749926995
6.5440000000000005,1.0,-98.41748036199083
6.552,0.9999999999999999,-98.77484777613358
6.5600000000000005,1.0,-99.1321295771781
6.568,1.0,-99.48932560354628
6.5760000000000005,1.0000000000000002,-99.84643569661037
6.584,1.0,-100.20345970070026
6.592,0.9999999999999999,-100.56039746311133
6.6,1.0,-100.91724883411148
6.608,0.9999999999999999,-101.2740136669484
6.616,1.0,-101.63069181785663
6.624,1.0,-101.98728314606427
6.632,0.9999999999999999,-102.34378751379957
6.64,1.0,-102.70020478629752
6.648,1.0,-103.05653483180596
6.656,1.0,-103.41277752159189
6.664,1.0,-103.76893272994721
6.672,0.9999999999999999,-104.12500033419455
6.68,0.9999999999999999,-104.48098021469293
6.688,0.9999997794077716,-104.83687225484303
6.696,0.9999992704566005,-105.19267634109252
6.704,0.9999987609621832,-105.54839236294109
6.712,0.9999982512098777,-105.90402021294533
6.72,0.9999977414789454,-106.25955978672347
6.728,0.9999972320426063,-106.61501098295987
6.736,0.999996723168098,-106.9703737034095
6.744,0.9999962151167352,-107.32564785290195
6.752,0.9999957081439671,-107.68083333934564
6.76,0.999995202499435,-108.03593007373154
6.768,0.9999946984270304,-108.39093797013695
6.776,0.9999941961649534,-108.74585694572889
6.784,0.9999936959457693,-109.10068692076757
6.792,0.9999931979964672,-109.4554278186094
6.8,0.999992702538517,-109.81007956571011
6.808,0.9999922097879267,-110.16464209162758
6.816,0.9999917199552995,-110.51911532902434
6.824,0.9999912332458907,-110.87349921367023
6.832,0.9999907498596647,-111.2277936844446
6.84,0.9999902699913523,-111.58199868333853
6.848,0.9999897938305066,-111.93611415545675
6.856,0.9999893215615596,-112.29014004901944
6.864,0.9999888533638787,-112.64407631536398
6.872,0.9999883894118219,-112.9979229089463
6.88,0.9999879298747957,-113.35167978734222
6.888,0.9999874749173089,-113.70534691124865
6.896,0.9999870246990288,-114.05892424448449
6.904,0.999986579374838,-114.4124117539915
6.912,0.9999861390948871,-114.7658094098349
6.92,0.9999857040046518,-115.11911718520389
6.928,0.9999852742449877,-115.47233505641194
6.936,0.9999848499521833,-115.825463002897
6.944,0.999984431258017,-116.17850100722139
6.952,0.9999840182898088,-116.53144905507172
6.96,0.9999836111704767,-116.88430713525857
6.968,0.999983210018589,-117.23707523971596
6.976,0.9999828149484195,-117.5897533635006
6.984,0.9999824260699985,-117.94234150479139
6.992,0.9999820434891694,-118.29483966488809
7.0,0.999981667307639,-118.6472478482104
7.008,0.9999812976230323,-118.99956606229662
7.016,0.9999809345289435,-119.35179431780227
7.024,0.9999805781149895,-119.70393262849835
7.032,0.9999802284668615,-120.0559810112698
7.04,0.999979885666378,-120.40793948611339
7.048,0.9999795497915343,-120.75980807613576
7.056,0.9999792209165572,-121.11158680755119
7.064,0.999978899111953,-121.46327570967931
7.072,0.9999785844445612,-121.81487481494231
7.08,0.9999782769776026,-122.16638415886277
7.088,0.9999779767707329,-122.51780378006022
7.096,0.9999776838800903,-122.86913372024867
7.104,0.9999773983583468,-123.22037402423325
7.112,0.9999771202547582,-123.57152473990703
7.12,0.9999768496152127,-123.92258591824755
7.128,0.9999765864822814,-124.27355761331326
7.136,0.9999763308952654,-124.62443988223984
7.144,0.9999760828902466,-124.97523278523641
7.152,0.9999758425001359,-125.32593638558144
7.16,0.9999756097547193,-125.67655074961854
7.168,0.9999753846807089,-126.02707594675236
7.176,0.9999751673017883,-126.37751204944408
7.184,0.9999749576386607,-126.72785913320686
7.192,0.9999747557090976,-127.078117276601
7.2,0.9999745615279819,-127.42828656122938
7.208,0.9999743751073595,-127.77836707173219
7.216,0.9999741964564807,-128.12835889578196
7.224,0.9999740255818501,-128.4782621240782
7.232,0.9999738624872702,-128.82807685034228
7.24,0.9999737071738868,-129.1778031713114
7.248,0.9999735596402363,-129.5274411867335
7.256,0.9999734198822886,-129.876990999361
7.264,0.999973287893492,-130.2264527149451
7.272,0.999973163664818,-130.57582644222973
7.28,0.9999730471848052,-130.92511229294524
7.288,0.9999729384396042,-131.27431038180214
7.296,0.9999728374130177,-131.62342082648468
7.304,0.9999727440865475,-131.9724437476442
7.312,0.9999726584394358,-132.32137926889254
7.32,0.9999725804487072,-132.67022751679502
7.328,0.9999725100892125,-133.0189886208637
7.336,0.9999724473336684,-133.36766271355015
7.344,0.999972392152701,-133.7162499302383
7.352,0.9999723445148879,-134.06475040923704
7.36,0.9999723043867966,-134.41316429177292
7.368,0.9999722717330282,-134.76149172198245
7.376,0.9999722465162557,-135.10973284690445
7.384,0.9999722286972643,-135.45788781647218
7.392,0.9999722182349944,-135.80595678350565
7.4,0.9999722150865759,-136.1539399037032
7.4079999999999995,0.9999722192073728,-136.50183733563364
7.416,0.9999722305510179,-136.8496492407279
7.4239999999999995,0.9999722490694544,-137.19737578327047
7.432,0.9999722747129729,-137.54501713039133
7.4399999999999995,0.9999723074302495,-137.8925734520567
7.448,0.9999723471683837,-138.24004492106093
7.4559999999999995,0.9999723938729361,-138.58743171301714
7.464,0.9999724474879652,-138.93473400634886
7.4719999999999995,0.9999725079560648,-139.28195198228033
7.48,0.9999725752183983,-139.62908582482785
7.4879999999999995,0.9999726492147389,-139.97613572079013
7.496,0.9999727298835016,-140.32310185973938
7.504,0.9999728171617805,-140.6699844340111
7.5120000000000005,0.9999729109853845,-141.01678363869547
7.52,0.9999730112888715,-141.36349967162664
7.5280000000000005,0.9999731180055831,-141.71013273337385
7.536,0.9999732310676791,-142.05668302723075
7.5440000000000005,0.9999733504061707,-142.40315075920608
7.552,0.9999734759509559,-142.7495361380131
7.5600000000000005,0.9999736076308523,-143.09583937505977
7.568,0.9999737453736287,-143.442060684438
7.5760000000000005,0.9999738891060396,-143.78820028291392
7.584,0.9999740387538567,-144.13425838991662
7.5920000000000005,0.999974194241902,-144.48023522752845
7.6,0.9999743554940789,-144.82613102047344
7.6080000000000005,0.9999745224334033,-145.1719459961074
7.616,0.9999746949820362,-145.5176803844064
7.6240000000000006,0.9999748730613138,-145.8633344179563
7.632,0.9999750565917772,-146.20890833194136
7.640000000000001,0.9999752454932046,-146.5544023641335
7.648,0.9999754396846398,-146.8998167548806
7.656000000000001,0.9999756390844224,-147.24515174709583
7.664,0.9999758436102175,-147.59040758624565
7.672,0.9999760531790435,-147.93558452033884
7.68,0.9999762677073027,-148.28068279991456
7.688,0.9999764871108084,-148.62570267803113
7.696,0.9999767113048134,-148.97064441025387
7.704,0.9999769402040374,-149.31550825464365
7.712,0.9999771737226957,-149.66029447174492
7.72,0.999977411774525,-150.0050033245737
7.728,0.9999776542728116,-150.34963507860547
7.736,0.999977901130417,-150.69419000176333
7.744,0.9999781522598046,-151.03866836440562
7.752,0.9999784075730654,-151.38307043931357
7.76,0.9999786669819448,-151.72739650167924
7.768,0.9999789303978666,-152.07164682909283
7.776,0.9999791977319591,-152.41582170153038
7.784,0.9999794688950785,-152.7599214013411
7.792,0.9999797437978356,-153.10394621323482
7.8,0.9999800223506181,-153.44789642426923
7.808,0.9999803044636154,-153.79177232383714
7.816,0.9999805900468424,-154.13557420365368
7.824,0.9999808790101616,-154.47930235774328
7.832,0.9999811712633072,-154.82295708242688
7.84,0.9999814667159084,-155.16653867630865
7.848,0.9999817652775097,-155.5100474402631
7.856,0.9999820668575954,-155.8534836774218
7.864,0.9999823713656095,-156.19684769316018
7.872,0.9999826787109791,-156.54013979508423
7.88,0.9999829888031343,-156.88336029301715
7.888,0.9999833015515291,-157.2265094989859
7.896,0.999983616865664,-157.5695877272078
7.904,0.9999839346551026,-157.91259529407688
7.912,0.9999842548294967,-158.25553251815037
7.92,0.9999845772986025,-158.59839972013503
7.928,0.9999849019723012,-158.94119722287343
7.936,0.9999852287606179,-159.2839253513302
7.944,0.9999855575737425,-159.62658443257806
7.952,0.9999858883220452,-159.96917479578426
7.96,0.9999862209160977,-160.31169677219637
7.968,0.9999865552666904,-160.6541506951284
7.976,0.9999868912848501,-160.9965368999468
7.984,0.9999872288818571,-161.33885572405623
7.992,0.9999875679692647,-161.6811075068857
8.0,0.9999879084589132,-162.02329258987405
8.008,0.9999882502629491,-162.3654113164559
8.016,0.9999885932938412,-162.70746403204754
8.024000000000001,0.9999889374643954,-163.04945108403214
8.032,0.9999892826877729,-163.3913728217457
8.04,0.9999896288775042,-163.73322959646273
8.048,0.999989975947505,-164.07502176138158
8.056000000000001,0.9999903238120926,-164.41674967160978
8.064,0.9999906723859986,-164.75841368414982
8.072,0.9999910215843859,-165.1000141578845
8.08,0.9999913713228613,-165.44155145356206
8.088000000000001,0.9999917215174908,-165.78302593378172
8.096,0.9999920720848128,-166.12443796297876
8.104,0.9999924229418529,-166.46578790741003
8.112,0.9999927740061355,-166.80707613513906
8.120000000000001,0.9999931251956989,-167.148303016021
8.128,0.9999934764291064,-167.48946892168786
8.136,0.9999938276254606,-167.83057422553384
8.144,0.9999941787044143,-168.17161930270024
8.152000000000001,0.9999945295861845,-168.51260453006023
8.16,0.9999948801915619,-168.85353028620398
8.168,0.999995230441925,-169.19439695142393
8.176,0.9999955802592494,-169.53520490769932
8.184000000000001,0.9999959295661209,-169.87595453868113
8.192,0.9999962782857457,-170.21664622967694
8.2,0.9999966263419598,-170.5572803676359
8.208,0.9999969736592422,-170.89785734113354
8.216000000000001,0.9999973201627226,-171.23837754035617
8.224,0.9999976657781927,-171.5788413570858
8.232,0.999998010432116,-171.91924918468507
8.24,0.9999983540516367,-172.2596014180818
8.248000000000001,0.99999869656459,-172.59989845375324
8.256,0.9999990378995097,-172.94014068971123
8.264,0.9999993779856391,-173.28032852548657
8.272,0.999999716752938,-173.62046236211367
8.280000000000001,0.9999999999999999,-173.96054260211477
8.288,0.9999999999999999,-174.30056964948486
8.296,1.0,-174.64054390967596
8.304,1.0,-174.98046578958179
8.312,0.9999999999999999,-175.3203356975218
8.32,1.0,-175.66015404322619
8.328,0.9999999999999998,-175.99992123781962
8.336,1.0,-176.3396376938063
8.344,1.0,-176.6793038250538
8.352,0.9999999999999999,-177.0189200467778
8.36,1.0,-177.35848677552593
8.368,1.0,-177.69800442916275
8.376,0.9999999999999999,-178.03747342685332
8.384,1.0,-178.37689418904813
8.392,1.0,-178.71626713746673
8.4,1.0,-179.0555926950826
8.408,0.9999999999999999,-179.39487128610673
8.416,1.0,-179.73410333597246
8.424,1.0,179.9267107286809
8.432,1.0,179.58757048002337
8.44,1.0000000000000002,179.24847548905063
8.448,1.0,178.90942532559936
8.456,1.0,178.57041955836365
8.464,1.0,178.23145775491028
8.472,0.9999999999999999,177.8925394816952
8.48,0.9999999999999999,177.5536643040788
8.488,1.0,177.21483178634244
8.496,1.0,176.87604149170377
8.504,1.0,176.53729298233324
8.512,1.0,176.19858581936944
8.52,1.0,175.8599195629356
8.528,1.0,175.52129377215496
8.536,0.9999999999999999,175.18270800516737
8.544,0.9999999999999999,174.84416181914457
8.552,1.0,174.50565477030685
8.56,1.0,174.16718641393825
8.568,1.0,173.8287563044034
8.576,0.9999999999999999,173.49036399516274
8.584,1.0,173.15200903878906
8.592,1.0,172.81369098698298
8.6,0.9999999999999999,172.47540939058965
8.608,1.0,172.13716379961386
8.616,1.0,171.79895376323694
8.624,1.0,171.46077882983198
8.632,1.0,171.12263854698054
8.64,1.0,170.784532461488
8.648,1.0,170.44646011940014
8.656,1.0,170.10842106601868
8.664,1.0,169.7704148459178
8.672,1.0,169.43244100295942
8.68,1.0,169.09449908031016
8.688,1.0,168.7565886204564
8.696,1.0,168.41870916522106
8.704,1.0,168.080860255779
8.712,1.0,167.74304143267352
8.72,1.0,167.4052522358319
8.728,0.9999999999999999,167.06749220458204
8.736,0.9999999999999999,166.7297608776675
8.744,0.9999999999999998,166.39205779326457
8.752,1.0,166.0543824889973
8.76,0.9999999999999999,165.71673450195436
8.768,0.9999999999999999,165.37911336870408
8.776,1.0,165.04151862531143
8.784,0.9999999999999998,164.70394980735296
8.792,1.0,164.36640644993378
8.8,1.0,164.02888808770257
8.808,1.0,163.69139425486838
8.815999999999999,0.9999999999999999,163.35392448521586
8.824,1.0,163.01647831212154
8.832,0.9999999999999999,162.67905526856984
8.84,0.9999999999999999,162.34165488716894
8.847999999999999,1.0,162.00427670016637
8.856,1.0,161.66692023946527
8.864,1.0,161.3295850366402
8.872,1.0,160.9922706229531
8.879999999999999,1.0,160.65497652936895
8.888,1.0,160.31770228657157
8.896,0.9999999999999999,159.98044742497999
8.904,1.0,159.64321147476386
8.911999999999999,1.0,159.30599396585924
8.92,1.0,158.96879442798456
8.928,1.0,158.63161239065664
8.936,0.9999999999999999,158.29444738320618
8.943999999999999,0.9999999999999999,157.95729893479356
8.952,1.0,157.62016657442464
8.96,1.0,157.2830498309668
8.968,1.0,156.94594823316442
8.975999999999999,0.9999999999999999,156.60886130965451
8.984,1.0,156.2717885889825
8.992,0.9999999999999999,155.93472959961832
9.0,1.0,155.59768386997166
9.008,0.9999999999999999,155.26065092840773
9.016,0.9999999999999999,154.92363030326288
9.024000000000001,0.9999999999999999,154.58662152286055
9.032,1.0,154.24962411552661
9.04,0.9999999999999999,153.91263760960499
9.048,1.0,153.5756615334733
9.056000000000001,1.0,153.23869541555857
9.064,0.9999999999999999,152.90173878435272
9.072,0.9999999999999999,152.56479116842797
9.08,1.0,152.2278520964524
9.088000000000001,1.0,151.89092109720582
9.096,1.0,151.55399769959485
9.104,1.0,151.21708143266852
9.112,1.0,150.88017182563368
9.120000000000001,0.9999999999999999,150.54326840787067
9.128,1.0,150.20637070894858
9.136,1.0,149.86947825864053
9.144,0.9999999999999999,149.53259058693916
9.152000000000001,1.0,149.19570722407215
9.16,0.9999999999999999,148.85882770051745
9.168,0.9999999999999999,148.52195154701835
9.176,1.0,148.18507829459912
9.184000000000001,0.9999999999999999,147.84820747458025
9.192,1.0,147.5113386185937
9.2,0.9999999999999999,147.1744712585978
9.208,1.0,146.83760492689282
9.216000000000001,1.0,146.50073915613632
9.224,0.9999999999999999,146.16387347935796
9.232,1.0,145.82700742997466
9.24,1.0,145.4901405418058
9.248000000000001,1.0,145.1532723490887
9.256,1.0,144.8164023864932
9.264,1.0,144.47953018913674
9.272,1.0,144.1426552925996
9.280000000000001,0.9999999999999999,143.80577723294004
9.288,1.0,143.46889554670895
9.296,1.0,143.13200977096494
9.304,0.9999999999999999,142.79511944328922
9.312000000000001,1.0,142.45822410180077
9.32,1.0,142.12132328517103
9.328,0.9999999999999999,141.78441653263857
9.336,1.0000000000000002,141.44750338402415
9.344,0.9999999999999999,141.11058337974575
9.352,1.0,140.77365606083274
9.36,0.9999999999999999,140.4367209689413
9.368,1.0,140.09977764636858
9.376,1.0,139.7628256360679
9.384,1.0,139.4258644816629
9.392,0.9999999999999999,139.0888937274628
9.4,1.0,138.75191291847636
9.408,1.0,138.414921600427
9.416,1.0,138.07791931976698
9.424,1.0,137.74090562369233
9.432,1.0,137.40388006015678
9.44,1.0,137.06684217788697
9.448,1.0,136.72979152639613
9.456,1.0,136.39272765599915
9.464,0.9999999999999999,136.05565011782645
9.472,1.0,135.71855846383866
9.48,1.0,135.3814522468408
9.488,1.0,135.04433102049668
9.496,0.9999999999999998,134.7071943393429
9.504,1.0,134.37004175880352
9.512,1.0,134.03287283520373
9.52,1.0,133.69568712578453
9.528,0.9999999999999999,133.35848418871635
9.536,0.9999999999999998,133.02126358311367
9.544,1.0,132.6840248690486
9.552,1.0,132.3467676075654
9.56,1.0,132.00949136069391
9.568,0.9999999999999999,131.6721956914641
9.576,1.0,131.33488016391956
9.584,0.9999999999999999,130.9975443431317
9.592,1.0,130.66018779521326
9.6,1.0,130.3228100873327
9.608,1.0,129.98541078772726
9.616,0.9999999999999998,129.64798946571747
9.624,0.9999999999999999,129.3105456917202
9.632,1.0,128.97307903726298
9.64,1.0,128.635589074997
9.648,0.9999999999999999,128.29807537871136
9.656,1.0,127.96053752334603
9.664,1.0,127.62297508500606
9.672,1.0,127.28538764097439
9.68,1.0,126.94777476972591
9.688,0.9999999999999999,126.61013605094037
9.696,0.9999999999999999,126.27247106551633
9.704,0.9999999999999999,125.9347793955839
9.712,1.0,125.59706062451863
9.72,0.9999999999999999,125.25931433695428
9.728,1.0,124.92154011879646
9.736,1.0,124.58373755723552
9.744,0.9999999999999999,124.24590624075998
9.752,1.0000000000000002,123.90804575916927
9.76,1.0,123.57015570358735
9.768,1.0,123.23223566647498
9.776,0.9999999999999999,122.89428524164367
9.784,1.0,122.55630402426763
9.792,1.0,122.2182916108975
9.8,1.0,121.88024759947261
9.808,0.9999999999999999,121.54217158933437
9.816,1.0,121.2040631812384
9.824,1.0,120.86592197736788
9.832,0.9999999999999999,120.52774758134576
9.84,1.0,120.18953959824789
9.847999999999999,0.9999999999999999,119.85129763461512
9.856,1.0,119.51302129846613
9.864,0.9999999999999999,119.17471019931003
9.872,1.0,118.83636394815878
9.879999999999999,1.0,118.4979821575393
9.888,1.0,118.15956444150623
9.896,1.0,117.82111041565423
9.904,0.9999999999999999,117.48261969713023
9.911999999999999,1.0,117.14409190464535
9.92,0.9999999999999999,116.80552665848757
9.928,1.0000000000000002,116.46692358053362
9.936,1.0,116.12828229426131
9.943999999999999,0.9999999999999999,115.78960242476114
9.952,1.0,115.45088359874866
9.96,0.9999998788377032,115.11212544457642
9.968,0.999999631183857,114.77332759224588
9.975999999999999,0.9999993838371287,114.43448967341897
9.984,0.9999991368432698,114.09561132143014
9.992,0.9999988902478459,113.75669217129824
10.0,0.9999986440962267,113.4177318597381
10.008,0.9999983984335812,113.07873002517196
