freq,mag,phase
6.0,1.0000000000000002,26.95567717124322
6.008,1.0,26.72364458580286
6.016,1.0,26.491543442400932
6.024,0.9999999999999999,26.25937399020413
6.032,1.0,26.027136479149792
6.04,1.0,25.794831159944216
6.048,0.9999999999999999,25.56245828406075
6.056,1.0,25.33001810373805
6.064,1.0,25.09751087197814
6.072,1.0,24.8649368425446
6.08,1.0,24.632296269960552
6.088,0.9999999999999999,24.39958940950676
6.096,1.0,24.16681651721963
6.104,1.0,23.933977849889192
6.112,0.9999998251847442,23.701073665057084
6.12,0.9999992497765998,23.46810422101441
6.128,0.9999986811238534,23.235069776799694
6.136,0.999998119208714,23.001970592196745
6.144,0.9999975640131818,22.768806927732467
6.152,0.9999970155190502,22.53557904467464
6.16,0.9999964737079047,22.302287205029774
6.168,0.9999959385611252,22.068931671540774
6.176,0.9999954100598855,21.835512707684675
6.184,0.9999948881851549,21.602030577670376
6.192,0.9999943729176981,21.368485546436187
6.2,0.9999938642380766,21.134877879647593
6.208,0.9999933621266489,20.90120784369472
6.216,0.9999928665635714,20.667475705689952
6.224,0.9999923775287995,20.433681733465477
6.232,0.999991895002088,20.199826195570772
6.24,0.999991418962991,19.965909361270075
6.248,0.9999909493908649,19.731931500539808
6.256,0.9999904862648673,19.497892884066008
6.264,0.9999900295639577,19.263793783241766
6.272,0.9999895792669,19.029634470164417
6.28,0.9999891353522613,18.79541521763307
6.288,0.9999886977984139,18.56113629914571
6.296,0.9999882665835366,18.326797988896562
6.304,0.999987841685613,18.092400561773335
6.312,0.9999874230824364,17.85794429335434
6.32,0.9999870107516066,17.62342945990572
6.328,0.9999866046705327,17.388856338378552
6.336,0.9999862048164352,17.154225206406025
6.344,0.9999858111663436,16.919536342300436
6.352,0.9999854236971,16.68479002505029
6.36,0.9999850423853592,16.44998653431727
6.368,0.9999846672075895,16.2151261504333
6.376,0.9999842981400734,15.980209154397459
6.384,0.9999839351589087,15.745235827872877
6.392,0.9999835782400094,15.510206453183699
6.4,0.9999832273591076,15.275121313311928
6.408,0.999982882491752,15.039980691894236
6.416,0.9999825436133113,14.804784873218823
6.424,0.9999822106989741,14.569534142222166
6.432,0.9999818837237497,14.334228784485756
6.44,0.9999815626624703,14.098869086232844
6.448,0.9999812474897896,13.86345533432513
6.456,0.9999809381801863,13.62798781625941
6.464,0.9999806347079634,13.392466820164202
6.472,0.9999803370472502,13.156892634796378
6.48,0.9999800451720027,12.921265549537688
6.4879999999999995,0.9999797590560051,12.685585854391379
6.496,0.99997947867287,12.449853839978546
6.504,0.9999792039960408,12.214069797534908
6.5120000000000005,0.9999789349987913,11.978234018906866
6.52,0.9999786716542275,11.74234679654837
6.5280000000000005,0.999978413935289,11.50640842351687
6.536,0.9999781618147486,11.270419193470122
6.5440000000000005,0.9999779152652154,11.034379400662072
6.552,0.9999776742591345,10.798289339939645
6.5600000000000005,0.9999774387687882,10.562149306738538
6.568,0.9999772087662975,10.325959597079942
6.5760000000000005,0.999976984223623,10.089720507566323
6.584,0.9999767651125662,9.853432335378033
6.592,0.9999765514047699,9.617095378269099
6.6,0.9999763430717203,9.380709934563626
6.608,0.9999761400847478,9.1442763031518
6.616,0.9999759424150276,8.907794783485967
6.624,0.9999757500335814,8.671265675576718
6.632,0.9999755629112784,8.434689279988888
6.64,0.9999753810188365,8.198065897837548
6.648,0.9999752043268235,7.961395830784002
6.656,0.9999750328056579,7.724679381031703
6.664,0.9999748664256104,7.487916851322172
6.672,0.999974705156805,7.251108544930897
6.68,0.9999745489692202,7.014254765663157
6.688,0.9999743978326904,6.777355817849899
6.696,0.9999742517169067,6.540412006343496
6.704,0.9999741105914182,6.3034236365135525
6.712,0.9999739744256334,6.066391014242639
6.72,0.9999738431888212,5.829314445922024
6.728,0.9999737168501125,5.592194238447358
6.736,0.9999735953785006,5.355030699214347
6.744,0.9999734787428437,5.117824136114397
6.752,0.9999733669118642,4.880574857530223
6.76,0.999973259854153,4.643283172331442
6.768,0.9999731575381667,4.405949389870132
6.776,0.9999730599322331,4.168573819976374
6.784,0.9999729670045489,3.9311567729537487
6.792,0.9999728787231832,3.69369855957484
6.8,0.9999727950560774,3.456199491076682
6.808,0.9999727159710481,3.218659879156189
6.816,0.9999726414357863,2.9810800359655736
6.824,0.9999725714178604,2.743460274107715
6.832,0.9999725058847168,2.5058009066315328
6.84,0.9999724448036809,2.2681022470273047
6.848,0.9999723881419588,2.0303646092219774
6.856,0.9999723358666386,1.792588307574455
6.864,0.9999722879446916,1.5547736568708455
6.872,0.9999722443429742,1.3169209723197026
6.88,0.9999722050282267,1.0790305695472329
6.888,0.9999721699670793,0.841102764592474
6.896,0.9999721391260483,0.6031378739024614
6.904,0.9999721124715414,0.36513621432736837
6.912,0.9999720899698565,0.1270981031156092
6.92,0.999972071587184,-0.11097614209107064
6.928,0.9999720572896084,-0.3490862032625199
6.936,0.9999720470431092,-0.5872317619851403
6.944,0.9999720408135626,-0.8254124994668824
6.952,0.9999720385667416,-1.0636280965422236
6.96,0.9999720402683199,-1.3018782336772228
6.968,0.9999720458838703,-1.5401625909745378
6.976,0.9999720553788686,-1.778480848178528
6.984,0.9999720687186925,-2.0168326846803213
6.992,0.9999720858686256,-2.255217779522951
7.0,0.9999721067938566,-2.4936358114064805
7.008,0.9999721314594815,-2.7320864586931473
7.016,0.9999721598305054,-2.9705693994125846
7.024,0.9999721918718426,-3.209084311266997
7.032,0.9999722275483202,-3.447630871636365
7.04,0.9999722668246768,-3.686208757583738
7.048,0.999972309665565,-3.9248176458604456
7.056,0.9999723560355547,-4.163457212911422
7.064,0.9999724058991306,-4.4021271348805
7.072,0.9999724592206968,-4.640827087615726
7.08,0.9999725159645766,-4.879556746674719
7.088,0.999972576095015,-5.118315787330038
7.096,0.9999726395761784,-5.357103884574548
7.104,0.9999727063721582,-5.595920713126853
7.112,0.9999727764469704,-5.834765947436696
7.12,0.9999728497645571,-6.073639261690418
7.128,0.9999729262887898,-6.31254032981641
7.136,0.9999730059834673,-6.5514688254906
7.144,0.9999730888123215,-6.790424422141952
7.152,0.999973174739015,-7.029406792957963
7.16,0.9999732637271441,-7.268415610890244
7.168,0.9999733557402405,-7.507450548660033
7.176,0.9999734507417718,-7.746511278763759
7.184,0.9999735486951444,-7.98559747347867
7.192,0.9999736495637023,-8.22470880486843
7.2,0.9999737533107314,-8.463844944788681
7.208,0.9999738598994582,-8.703005564892765
7.216,0.9999739692930542,-8.94219033663734
7.224,0.9999740814546342,-9.181398931288042
7.232,0.9999741963472599,-9.42063101992519
7.24,0.9999743139339407,-9.659886273449493
7.248,0.999974434177634,-9.899164362587737
7.256,0.999974557041248,-10.138464957898575
7.264,0.9999746824876438,-10.377787729778202
7.272,0.9999748104796334,-10.6171323484662
7.28,0.9999749409799854,-10.85649848405126
7.288,0.9999750739514229,-11.095885806477005
7.296,0.9999752093566272,-11.335293985547768
7.304,0.9999753471582377,-11.574722690934454
7.312,0.9999754873188537,-11.81417159218034
7.32,0.9999756298010373,-12.053640358706945
7.328,0.9999757745673119,-12.293128659819889
7.336,0.9999759215801657,-12.532636164714757
7.344,0.999976070802053,-12.772162542483
7.352,0.9999762221953947,-13.011707462117835
7.36,0.9999763757225804,-13.251270592520141
7.368,0.9999765313459688,-13.490851602504419
7.376,0.9999766890278903,-13.73045016080469
7.384,0.9999768487306478,-13.97006593608046
7.392,0.9999770104165182,-14.209698596922705
7.4,0.9999771740477533,-14.449347811859782
7.4079999999999995,0.9999773395865823,-14.689013249363441
7.416,0.9999775069952112,-14.928694577854953
7.4239999999999995,0.9999776762358267,-15.168391465710751
7.432,0.9999778472705954,-15.408103581268907
7.4399999999999995,0.9999780200616664,-15.647830592834703
7.448,0.9999781945711718,-15.887572168687136
7.4559999999999995,0.9999783707612292,-16.12732797708443
7.464,0.999978548593942,-16.367097686270615
7.4719999999999995,0.9999787280314012,-16.60688096448112
7.48,0.9999789090356868,-16.84667747994924
7.4879999999999995,0.9999790915688682,-17.08648690091186
7.496,0.9999792755930078,-17.326308895615878
7.504,0.9999794610701596,-17.566143132323933
7.5120000000000005,0.9999796479623723,-17.805989279320894
7.52,0.9999798362316904,-18.045847004919583
7.5280000000000005,0.9999800258401552,-18.285715977467255
7.536,0.999980216749806,-18.525595865351345
7.5440000000000005,0.9999804089226816,-18.765486337005996
7.552,0.9999806023208216,-19.005387060917784
7.5600000000000005,0.9999807969062684,-19.245297705632233
7.568,0.9999809926410671,-19.485217939759597
7.5760000000000005,0.999981189487268,-19.72514743198143
7.584,0.9999813874069271,-19.965085851056234
7.5920000000000005,0.9999815863621084,-20.20503286582616
7.6,0.9999817863148838,-20.44498814522266
7.6080000000000005,0.9999819872273361,-20.68495135827311
7.616,0.999982189061558,-20.924922174106573
7.6240000000000006,0.9999823917796568,-21.16490026196038
7.632,0.9999825953437516,-21.404885291185884
7.640000000000001,0.999982799715977,-21.644876931255094
7.648,0.9999830048584855,-21.884874851766373
7.656000000000001,0.999983210733445,-22.124878722451133
7.664,0.999983417303044,-22.364888213179537
7.672,0.9999836245294902,-22.604902993967144
7.68,0.9999838323750132,-22.844922734980756
7.688,0.9999840408018651,-23.08494710654477
7.696,0.999984249772322,-23.324975779147355
7.704,0.999984459248685,-23.565008423446656
7.712,0.9999846691932818,-23.80504471027697
7.72,0.9999848795684673,-24.045084310654964
7.728,0.9999850903366259,-24.28512689578587
7.736,0.9999853014601714,-24.52517213706966
7.744,0.9999855129015495,-24.76521970610728
7.752,0.9999857246232381,-25.00526927470686
7.76,0.9999859365877496,-25.245320514889826
7.768,0.9999861487576299,-25.48537309889721
7.776,0.9999863610954622,-25.725426699195747
7.784,0.9999865735638669,-25.965480988484124
7.792,0.9999867861255026,-26.205535639699164
7.8,0.9999869987430684,-26.44559032602196
7.808,0.9999872113793036,-26.685644720884152
7.816,0.9999874239969901,-26.925698497974007
7.824,0.9999876365589532,-27.165751331242703
7.832,0.9999878490280625,-27.4058028949104
7.84,0.9999880613672334,-27.64585286347247
7.848,0.9999882735394281,-27.885900911705665
7.856,0.9999884855076571,-28.125946714674253
7.864,0.9999886972349802,-28.36598994773619
7.872,0.9999889086845073,-28.606030286549256
7.88,0.9999891198194005,-28.84606740707723
7.888,0.999989330602874,-29.086100985596026
7.896,0.9999895409981961,-29.326130698699778
7.904,0.9999897509686907,-29.566156223307033
7.912,0.9999899604777371,-29.806177236666855
7.92,0.999990169488773,-30.04619341636492
7.928,0.9999903779652937,-30.286204440329623
7.936,0.9999905858708549,-30.526209986838214
7.944,0.9999907931690732,-30.76620973452289
7.952,0.9999909998236269,-31.006203362376787
7.96,0.9999912057982577,-31.2461905497602
7.968,0.9999914110567719,-31.48617097640657
7.976,0.999991615563041,-31.726144322428546
7.984,0.9999918192810031,-31.966110268324005
7.992,0.999992022174665,-32.20606849498219
8.0,0.9999922242081011,-32.44601868368966
8.008,0.9999924253454575,-32.685960516136305
8.016,0.9999926255509508,-32.92589367442147
8.024000000000001,0.9999928247888699,-33.165817841059784
8.032,0.9999930230235785,-33.405732698987194
8.04,0.999993220219514,-33.645637931567144
8.048,0.9999934163411908,-33.885533222596294
8.056000000000001,0.9999936113531996,-34.12541825631056
8.064,0.9999938052202106,-34.36529271739095
8.072,0.999993997906973,-34.6051562909698
8.08,0.9999941893783167,-34.84500866263646
8.088000000000001,0.9999943795991538,-35.084849518443114
8.096,0.9999945685344805,-35.324678544910824
8.104,0.9999947561493765,-35.564495429035425
8.112,0.999994942409007,-35.804299858293376
8.120000000000001,0.9999951272786256,-36.04409152064746
8.128,0.9999953107235726,-36.283870104552754
8.136,0.999995492709279,-36.523635298962496
8.144,0.9999956732012656,-36.763386793333794
8.152000000000001,0.9999958521651462,-37.00312427763344
8.16,0.999996029566627,-37.24284744234356
8.168,0.9999962053715097,-37.482555978467694
8.176,0.9999963795456915,-37.722249577536296
8.184000000000001,0.9999965520551677,-37.96192793161242
8.192,0.9999967228660313,-38.20159073329752
8.2,0.999996891944476,-38.44123767573724
8.208,0.999997059256797,-38.68086845262698
8.216000000000001,0.9999972247693928,-38.92048275821745
8.224,0.9999973884487652,-39.16008028732045
8.232,0.9999975502615228,-39.39966073531448
8.24,0.9999977101743814,-39.63922379815044
8.248000000000001,0.9999978681541655,-39.87876917235689
8.256,0.9999980241678101,-40.11829655504589
8.264,0.9999981781823618,-40.35780564391848
8.272,0.9999983301649809,-40.597296137270334
8.280000000000001,0.9999984800829436,-40.83676773399689
8.288,0.9999986279036417,-41.07622013359915
8.296,0.9999987735945864,-41.31565303618917
8.304,0.9999989171234094,-41.55506614249536
8.312,0.9999990584578631,-41.79445915386779
8.32,0.9999991975658249,-42.033831772284024
8.328,0.9999993344152979,-42.273183700353904
8.336,0.9999994689744117,-42.512514641325524
8.344,0.9999996012114268,-42.75182429909002
8.352,0.9999997310947337,-42.99111237818732
8.36,0.9999998585928574,-43.23037858381104
8.368,0.9999999836744586,-43.46962262181417
8.376,0.9999999999999999,-43.708844198713855
8.384,1.0,-43.948043021697096
8.392,1.0,-44.18721879862543
8.4,0.9999999999999999,-44.426371238040666
8.408,1.0,-44.66550004916946
8.416,0.9999999999999998,-44.90460494192896
8.424,1.0,-45.143685626931386
8.432,1.0000000000000002,-45.382741815489624
8.44,0.9999999999999999,-45.62177321962179
8.448,1.0,-45.86077955205668
8.456,1.0,-46.099760526238335
8.464,0.9999999999999999,-46.33871585633143
8.472,1.0,-46.577645257225804
8.48,1.0,-46.816548444541795
8.488,1.0,-47.05542513463464
8.496,0.9999999999999999,-47.29427504459987
8.504,1.0,-47.53309789227763
8.512,1.0,-47.771893396257916
8.52,1.0,-48.010661275884914
8.528,0.9999999999999999,-48.24940125126225
8.536,1.0,-48.488113043257115
8.544,1.0,-48.7267963735056
8.552,0.9999999999999999,-48.9654509644167
8.56,1.0,-49.204076539177535
8.568,1.0,-49.44267282175742
8.576,1.0,-49.68123953691291
8.584,0.9999999999999999,-49.91977641019191
8.592,0.9999999999999999,-50.15828316793855
8.6,1.0,-50.396759537297335
8.608,0.9999999999999999,-50.63520524621791
8.616,0.9999999999999999,-50.873620023459125
8.624,0.9999999999999999,-51.112003598593795
8.632,1.0,-51.350355702012635
8.64,1.0,-51.58867606492905
8.648,1.0,-51.82696441938291
8.656,1.0,-52.06522049824531
8.664,1.0,-52.303444035222334
8.672,0.9999999999999999,-52.541634764859666
8.68,1.0,-52.7797924225463
8.688,1.0,-53.01791674451916
8.696,0.9999999999999999,-53.2560074678667
8.704,1.0,-53.494064330533405
8.712,1.0,-53.73208707132341
8.72,1.0,-53.970075429904924
8.728,0.9999999999999999,-54.208029146813715
8.736,0.9999999999999999,-54.445947963457485
8.744,1.0,-54.68383162211938
8.752,0.9999999999999999,-54.921679865962204
8.76,0.9999999999999999,-55.15949243903185
8.768,1.0,-55.39726908626155
8.776,0.9999999999999998,-55.635009553475165
8.784,0.9999999999999999,-55.87271358739132
8.792,1.0,-56.11038093562672
8.8,0.9999999999999998,-56.348011346700225
8.808,0.9999999999999999,-56.585604570035976
8.815999999999999,1.0,-56.82316035596748
8.824,0.9999999999999999,-57.06067845574094
8.832,0.9999999999999999,-57.29815862151861
8.84,1.0,-57.535600606382495
8.847999999999999,0.9999999999999999,-57.77300416433791
8.856,0.9999999999999999,-58.01036905031678
8.864,1.0,-58.24769502018085
8.872,0.9999999999999999,-58.484981830725246
8.879999999999999,1.0,-58.72222923968195
8.888,1.0,-58.9594370057229
8.896,1.0,-59.19660488846312
8.904,1.0,-59.43373264846423
8.911999999999999,0.9999999999999999,-59.670820047237584
8.92,1.0,-59.907866847247504
8.928,0.9999999999999999,-60.14487281191414
8.936,0.9999999999999999,-60.38183770561687
8.943999999999999,1.0,-60.618761293697375
8.952,0.9999999999999998,-60.855643342462706
8.96,1.0,-61.09248361918811
8.968,0.9999999999999999,-61.32928189212026
8.975999999999999,1.0,-61.56603793048022
8.984,0.9999999999999999,-61.80275150446644
8.992,0.9999999999999999,-62.03942238525754
9.0,0.9999998891178168,-62.27605034501527
9.008,0.9999997382534656,-62.51263515688767
9.016,0.9999995832985666,-62.74917659501167
9.024000000000001,0.9999994242535799,-62.985674434516
9.032,0.9999992611199611,-63.22212845152404
9.04,0.9999990939001957,-63.45853842315681
9.048,0.9999989225978286,-63.69490412753567
9.056000000000001,0.9999987472174978,-63.93122534378502
9.064,0.9999985677649679,-64.16750185203522
9.072,0.9999983842471649,-64.40373343342542
9.08,0.9999981966722116,-64.63991987010628
9.088000000000001,0.9999980050494659,-64.87606094524271
9.096,0.9999978093895575,-65.1121564430166
9.104,0.9999976097044277,-65.34820614862987
9.112,0.9999974060073697,-65.5842098483069
9.120000000000001,0.9999971983130704,-65.82016732929749
9.128,0.999996986637653,-66.05607837987957
9.136,0.9999967709987205,-66.29194278936208
9.144,0.9999965514154026,-66.52776034808784
9.152000000000001,0.9999963279084007,-66.76353084743616
9.16,0.9999961005000365,-66.9992540798257
9.168,0.9999958692143015,-67.23492983871769
9.176,0.9999956340769072,-67.47055791861847
9.184000000000001,0.9999953951153369,-67.70613811508244
9.192,0.9999951523589002,-67.94167022471511
9.2,0.9999949058387867,-68.17715404517621
9.208,0.9999946555881226,-68.41258937518252
9.216000000000001,0.9999944016420288,-68.64797601451103
9.224,0.9999941440376798,-68.88331376400201
9.232,0.9999938828143637,-69.11860242556239
9.24,0.9999936180135461,-69.35384180216889
9.248000000000001,0.9999933496789322,-69.58903169787128
9.256,0.9999930778565322,-69.82417191779575
9.264,0.9999928025947287,-70.05926226814866
9.272,0.9999925239443443,-70.29430255621983
9.280000000000001,0.9999922419587122,-70.52929259038616
9.288,0.9999919566937452,-70.76423218011544
9.296,0.9999916682080109,-70.99912113597033
9.304,0.9999913765628047,-71.23395926961211
9.312000000000001,0.999991081822226,-71.46874639380484
9.32,0.9999907840532544,-71.70348232241938
9.328,0.9999904833258291,-71.93816687043807
9.336,0.9999901797129281,-72.17279985395896
9.344,0.9999898732906501,-72.4073810902002
9.352,0.999989564138297,-72.64191039750536
9.36,0.9999892523384561,-72.87638759534778
9.368,0.9999889379770875,-73.11081250433612
9.376,0.9999886211436094,-73.34518494621932
9.384,0.9999883019309834,-73.57950474389234
9.392,0.9999879804358055,-73.81377172140155
9.4,0.9999876567583929,-74.04798570395103
9.408,0.9999873310028751,-74.28214651790813
9.416,0.9999870032772832,-74.51625399081038
9.424,0.9999866736936424,-74.7503079513716
9.432,0.9999863423680618,-74.98430822948912
9.44,0.9999860094208273,-75.21825465625047
9.448,0.9999856749764917,-75.45214706394124
9.456,0.9999853391639696,-75.68598528605219
9.464,0.999985002116625,-75.9197691572877
9.472,0.9999846639723647,-76.1534985135736
9.48,0.9999843248737295,-76.3871731920661
9.488,0.9999839849679801,-76.62079303116035
9.496,0.9999836444071899,-76.8543578705
9.504,0.9999833033483285,-77.08786755098642
9.512,0.9999829619533493,-77.32132191478902
9.52,0.9999826203892714,-77.55472080535522
9.528,0.9999822788282614,-77.78806406742142
9.536,0.9999819374477117,-78.02135154702374
9.544,0.9999815964303155,-78.25458309150994
9.552,0.99998125596414,-78.48775854955078
9.56,0.9999809162426933,-78.72087777115276
9.568,0.9999805774649898,-78.95394060767048
9.576,0.9999802398356096,-79.18694691182007
9.584,0.9999799035647519,-79.41989653769248
9.592,0.999979568868285,-79.65278934076773
9.6,0.9999792359677884,-79.88562517792907
9.608,0.9999789050905902,-80.11840390747828
9.616,0.9999785764697945,-80.35112538915051
9.624,0.9999782503443035,-80.58378948413049
9.632,0.9999779269588317,-80.81639605506841
9.64,0.9999776065639061,-81.04894496609687
9.648,0.9999772894158655,-81.28143608284762
9.656,0.999976975776841,-81.51386927246952
9.664,0.9999766659147306,-81.74624440364597
9.672,0.9999763601031602,-81.97856134661376
9.68,0.9999760586214335,-82.21081997318124
