freq,mag,phase
6.0,0.9999941780974341,-172.1660977652399
6.008,0.9999937085244128,-172.47148403017363
6.016,0.9999932480167629,-172.77673794004235
6.024,0.9999927964763433,-173.08186495933774
6.032,0.9999923538057135,-173.38687055197255
6.04,0.9999919199081317,-173.69176018145424
6.048,0.9999914946875512,-173.9965393110602
6.056,0.9999910780486149,-174.30121340401433
6.064,0.9999906698966546,-174.6057879236651
6.072,0.9999902701376845,-174.91026833366476
6.08,0.9999898786784002,-175.21466009815023
6.088,0.999989495426173,-175.5189686819251
6.096,0.999989120289048,-175.823199550643
6.104,0.9999887531757389,-176.1273581709923
6.112,0.999988393995625,-176.43145001088212
6.12,0.9999880426587476,-176.7354805396293
6.128,0.9999876990758061,-177.0394552281471
6.136,0.9999873631581542,-177.34337954913457
6.144,0.9999870348177954,-177.64725897726748
6.152,0.9999867139673811,-177.95109898939023
6.16,0.9999864005202053,-178.25490506470896
6.168,0.9999860943902,-178.5586826849859
6.176,0.9999857954919342,-178.8624373347344
6.184,0.9999855037406081,-179.1661745014157
6.192,0.9999852190520468,-179.46989967563619
6.2,0.9999849413427028,-179.773618351346
6.208,0.9999846705296468,179.92266397396156
6.216,0.9999844065305643,179.61894179904914
6.224,0.9999841492637572,179.31520961873417
6.232,0.9999838986481299,179.01146192368603
6.24,0.9999836546031955,178.70769320022288
6.248,0.9999834170490668,178.4038979301069
6.256,0.9999831859064522,178.1000705903392
6.264,0.9999829610966536,177.79620565295352
6.272,0.9999827425415617,177.4922975848092
6.28,0.9999825301636522,177.18834084738307
6.288,0.9999823238859835,176.8843298965607
6.296,0.9999821236321875,176.5802591824267
6.304,0.9999819293264742,176.27612314905434
6.312,0.9999817408936216,175.97191623429433
6.32,0.9999815582589718,175.6676328695625
6.328,0.9999813813484307,175.3632674796275
6.336,0.9999812100884629,175.0588144823968
6.344,0.9999810444060843,174.75426828870266
6.352,0.9999808842288663,174.4496233020872
6.36,0.9999807294849222,174.14487391858657
6.368,0.9999805801029107,173.84001452651492
6.376,0.9999804360120312,173.5350395062472
6.384,0.9999802971420136,173.22994323000154
6.392,0.9999801634231253,172.92472006162134
6.4,0.9999800347861588,172.61936435635607
6.408,0.9999799111624299,172.3138704606421
6.416,0.9999797924837773,172.00823271188284
6.424,0.999979678682554,171.702445438228
6.432,0.9999795696916288,171.39650295835284
6.44,0.9999794654443789,171.09039958123654
6.448,0.999979365874687,170.78412960594022
6.456,0.9999792709169387,170.47768732138454
6.464,0.9999791805060175,170.17106700612686
6.472,0.9999790945773033,169.8642629281379
6.48,0.9999790130666659,169.557269344578
6.4879999999999995,0.9999789359104645,169.25008050157328
6.496,0.999978863045541,168.94269063399085
6.504,0.99997879440922,168.63509396521454
6.5120000000000005,0.9999787299393018,168.32728470691936
6.52,0.9999786695740629,168.0192570588467
6.5280000000000005,0.9999786132522479,167.71100520857811
6.536,0.9999785609130694,167.40252333131025
6.5440000000000005,0.9999785124962042,167.09380558962803
6.552,0.9999784679417882,166.7848461332792
6.5600000000000005,0.9999784271904146,166.47563909894714
6.568,0.9999783901831304,166.16617861002527
6.5760000000000005,0.9999783568614328,165.85645877638956
6.584,0.9999783271672646,165.5464736941726
6.592,0.999978301043015,165.23621744553628
6.6,0.9999782784315101,164.9256840984454
6.608,0.9999782592760155,164.61486770644078
6.616,0.9999782435202298,164.3037623084127
6.624,0.9999782311082828,163.99236192837398
6.632,0.9999782219847306,163.68066057523387
6.64,0.9999782160945554,163.36865224257136
6.648,0.9999782133831597,163.0563309084091
6.656,0.9999782137963644,162.74369053498734
6.664,0.9999782172804054,162.4307250685382
6.672,0.9999782237819314,162.11742843906023
6.68,0.9999782332479987,161.80379456009317
6.688,0.9999782456260715,161.48981732849316
6.696,0.9999782608640161,161.17549062420832
6.704,0.9999782789100993,160.86080831005484
6.712,0.999978299712985,160.5457642314933
6.72,0.9999783232217321,160.2303522164058
6.728,0.9999783493857908,159.91456607487353
6.736,0.9999783781549996,159.59839959895484
6.744,0.9999784094795837,159.2818465624641
6.752,0.9999784433101511,158.96490072075122
6.76,0.9999784795976905,158.647555810482
6.768,0.9999785182935683,158.32980554941898
6.776,0.9999785593495263,158.01164363620353
6.784,0.9999786027176778,157.69306375013846
6.792,0.9999786483505066,157.374059550972
6.8,0.9999786962008637,157.05462467868225
6.808,0.999978746221965,156.73475275326328
6.816,0.9999787983673875,156.41443737451186
6.824,0.9999788525910687,156.0936721218157
6.832,0.9999789088473032,155.77245055394266
6.84,0.9999789670907401,155.45076620883145
6.848,0.9999790272763799,155.12861260338374
6.856,0.9999790893595748,154.80598323325742
6.864,0.9999791532960227,154.4828715726617
6.872,0.9999792190417678,154.1592710741535
6.88,0.9999792865531967,153.83517516843563
6.888,0.9999793557870369,153.51057726415664
6.896,0.9999794267003541,153.18547074771243
6.904,0.99997949925055,152.85984898304983
6.912,0.9999795733953609,152.53370531147192
6.92,0.9999796490928547,152.2070330514455
6.928,0.9999797263014292,151.87982549841072
6.936,0.9999798049798093,151.5520759245927
6.944,0.9999798850870463,151.22377757881566
6.952,0.9999799665825145,150.8949236863192
6.96,0.9999800494259112,150.5655074485771
6.968,0.9999801335772516,150.23552204311878
6.976,0.9999802189968702,149.9049606233532
6.984,0.9999803056454172,149.57381631839567
6.992,0.9999803934838563,149.24208223289745
7.0,0.999980482473464,148.90975144687803
7.008,0.9999805725758278,148.57681701556118
7.016,0.9999806637528429,148.24327196921308
7.024,0.9999807559667127,147.90910931298473
7.032,0.9999808491799457,147.57432202675707
7.04,0.9999809433553541,147.23890306498998
7.048,0.9999810384560522,146.90284535657466
7.056,0.9999811344454553,146.5661418046897
7.064,0.9999812312872781,146.22878528666146
7.072,0.9999813289455328,145.89076865382768
7.08,0.9999814273845268,145.5520847314059
7.088,0.9999815265688645,145.2127263183658
7.096,0.9999816264634412,144.87268618730587
7.104,0.9999817270334465,144.5319570843348
7.112,0.9999818282443594,144.19053172895747
7.12,0.9999819300619495,143.84840281396546
7.128,0.9999820324522734,143.50556300533316
7.136,0.9999821353816764,143.16200494211827
7.144,0.9999822388167887,142.8177212363681
7.152,0.9999823427245259,142.4727044730311
7.16,0.9999824470720868,142.12694720987386
7.168,0.9999825518269535,141.78044197740414
7.176,0.9999826569568908,141.43318127879954
7.184,0.9999827624299423,141.08515758984262
7.192,0.9999828682144344,140.73636335886187
7.2,0.9999829742789687,140.38679100667952
7.208,0.9999830805924291,140.03643292656582
7.216,0.9999831871239746,139.68528148420023
7.224,0.9999832938430421,139.33332901763941
7.232,0.9999834007193439,138.98056783729305
7.24,0.9999835077228673,138.6269902259062
7.248,0.9999836148238762,138.27258843855023
7.256,0.9999837219929069,137.91735470262086
7.264,0.9999838292007707,137.5612812178447
7.272,0.9999839364185511,137.20436015629403
7.28,0.999984043617605,136.84658366240978
7.288,0.9999841507695615,136.48794385303376
7.296,0.9999842578463228,136.12843281744935
7.304,0.9999843648200614,135.7680426174317
7.312,0.9999844716632226,135.4067652873074
7.32,0.9999845783485211,135.04459283402372
7.328,0.9999846848489458,134.68151723722787
7.336,0.9999847911377544,134.31753044935635
7.344,0.9999848971884756,133.95262439573509
7.352,0.99998500297491,133.58679097468982
7.36,0.9999851084711292,133.22002205766813
7.368,0.999985213651476,132.8523094893721
7.376,0.9999853184905628,132.48364508790303
7.384,0.9999854229632761,132.11402064491787
7.392,0.9999855270447713,131.74342792579756
7.4,0.9999856307104782,131.3718586698284
7.4079999999999995,0.999985733936097,130.9993045903955
7.416,0.9999858366976011,130.62575737518958
7.4239999999999995,0.9999859389712379,130.2512086864277
7.432,0.9999860407335267,129.87565016108638
7.4399999999999995,0.9999861419612615,129.49907341115028
7.448,0.9999862426315116,129.1214700238739
7.4559999999999995,0.9999863427216213,128.74283156205902
7.464,0.9999864422092103,128.36314956434623
7.4719999999999995,0.9999865410721758,127.98241554552284
7.48,0.9999866392886915,127.60062099684546
7.4879999999999995,0.9999867368372105,127.21775738637974
7.496,0.9999868336964652,126.83381615935551
7.504,0.9999869298454676,126.44878873853968
7.5120000000000005,0.9999870252635109,126.06266652462556
7.52,0.9999871199301715,125.67544089664055
7.5280000000000005,0.9999872138253079,125.2871032123709
7.536,0.9999873069290647,124.89764480880562
7.5440000000000005,0.9999873992218714,124.50705700259851
7.552,0.9999874906844444,124.11533109055016
7.5600000000000005,0.9999875812977902,123.7224583501083
7.568,0.9999876710432032,123.32843003988941
7.5760000000000005,0.9999877599022698,122.93323740021977
7.584,0.9999878478568704,122.53687165369806
7.5920000000000005,0.9999879348891781,122.13932400577836
7.6,0.9999880209816633,121.74058564537594
7.6080000000000005,0.9999881061170932,121.34064774549392
7.616,0.9999881902785355,120.93950146387371
7.6240000000000006,0.9999882734493591,120.53713794366737
7.632,0.9999883556132346,120.13354831413453
7.640000000000001,0.9999884367541392,119.72872369136202
7.648,0.9999885168563566,119.3226551790093
7.656000000000001,0.9999885959044794,118.91533386907726
7.664,0.9999886738834114,118.50675084270374
7.672,0.9999887507783697,118.09689717098372
7.68,0.9999888265748873,117.68576391581662
7.688,0.9999889012588139,117.27334213077997
7.696,0.9999889748163205,116.8596228620304
7.704,0.999989047233899,116.44459714923238
7.712,0.9999891184983674,116.02825602651542
7.72,0.9999891885968704,115.61059052345966
7.728,0.9999892575168827,115.191591666111
7.736,0.9999893252462109,114.77125047802576
7.744,0.9999893917729973,114.34955798134591
7.752,0.999989457085721,113.92650519790467
7.76,0.9999895211732033,113.50208315036369
7.768,0.9999895840246064,113.07628286338182
7.776,0.9999896456294405,112.64909536481629
7.784,0.9999897059775634,112.22051168695666
7.792,0.9999897650591868,111.79052286779203
7.8,0.9999898228648748,111.35911995231223
7.808,0.9999898793855515,110.92629399384307
7.816,0.9999899346125005,110.49203605541685
7.824,0.9999899885373709,110.05633721117775
7.832,0.9999900411521789,109.61918854782351
7.84,0.9999900924493107,109.18058116608331
7.848,0.9999901424215268,108.74050618223234
7.856,0.9999901910619652,108.29895472964415
7.864,0.9999902383641435,107.85591796038052
7.872,0.999990284321964,107.41138704681985
7.88,0.9999903289297166,106.96535318332435
7.888,0.9999903721820809,106.51780758794666
7.896,0.9999904140741315,106.06874150417603
7.904,0.9999904546013407,105.61814620272511
7.912,0.9999904937595826,105.16601298335718
7.92,0.9999905315451352,104.71233317675467
7.928,0.9999905679546857,104.25709814642946
7.936,0.9999906029853337,103.80029929067489
7.944,0.9999906366345938,103.3419280445606
7.952,0.9999906689004008,102.88197588197013
7.96,0.9999906997811121,102.42043431768175
7.968,0.9999907292755125,101.95729490949309
7.976,0.999990757382817,101.49254926038974
7.984,0.9999907841026746,101.02618902075832
7.992,0.9999908094351724,100.55820589064439
8.0,0.9999908333808396,100.08859162205516
8.008,0.9999908559406501,99.61733802130803
8.016,0.9999908771160273,99.14443695142421
8.024000000000001,0.9999908969088475,98.66988033456919
8.032,0.9999909153214424,98.1936601545386
8.04,0.9999909323566055,97.71576845929063
8.048,0.9999909480175926,97.23619736352549
8.056000000000001,0.9999909623081272,96.7549390513116
8.064,0.9999909752324047,96.27198577875859
8.072,0.9999909867950935,95.78732987673713
8.08,0.999990997001341,95.30096375364661
8.088000000000001,0.9999910058567762,94.81287989823001
8.096,0.9999910133675122,94.32307088243573
8.104,0.9999910195401513,93.83152936432674
8.112,0.9999910243817872,93.33824809103758
8.120000000000001,0.9999910279000074,92.8432199017785
8.128,0.9999910301028994,92.34643773088652
8.136,0.9999910309990505,91.84789461092342
8.144,0.9999910305975525,91.34758367582118
8.152000000000001,0.9999910289080046,90.84549816407412
8.16,0.9999910259405156,90.34163142197697
8.168,0.9999910217057079,89.83597690690922
8.176,0.9999910162147184,89.32852819066582
8.184000000000001,0.9999910094792027,88.8192789628331
8.192,0.9999910015113368,88.30822303420969
8.2,0.9999909923238192,87.79535434027167
8.208,0.9999909819298737,87.28066694468248
8.216000000000001,0.9999909703432508,86.76415504284627
8.224,0.9999909575782296,86.24581296550366
8.232,0.9999909436496208,85.72563518236973
8.24,0.9999909285727676,85.20361630581398
8.248000000000001,0.9999909123635454,84.679751094581
8.256,0.9999908950383661,84.15403445755038
8.264,0.9999908766141771,83.62646145753587
8.272,0.999990857108463,83.09702731512269
8.280000000000001,0.9999908365392451,82.56572741254193
8.288,0.9999908149250853,82.03255729758035
8.296,0.9999907922850816,81.49751268752492
8.304,0.9999907686388719,80.96058947314116
8.312,0.9999907440066325,80.421783722684
8.32,0.9999907184090769,79.88109168593806
8.328,0.9999906918674574,79.33850979828938
8.336,0.9999906644035617,78.79403468482278
8.344,0.9999906360397135,78.24766316444783
8.352,0.9999906067987706,77.69939225404725
8.36,0.9999905767041228,77.14921917265039
8.368,0.9999905457796907,76.59714134562574
8.376,0.9999905140499223,76.04315640889482
8.384,0.9999904815397925,75.48726221316132
8.392,0.9999904482747979,74.92945682815724
8.4,0.9999904142809537,74.36973854690086
8.408,0.9999903795847932,73.8081058899669
8.416,0.9999903442133602,73.24455760976373
8.424,0.9999903081942072,72.679092694819
8.432,0.9999902715553899,72.11171037406699
8.44,0.9999902343254625,71.5424101211392
8.448,0.9999901965334718,70.97119165865215
8.456,0.9999901582089534,70.39805496249275
8.464,0.9999901193819232,69.82300026609545
8.472,0.9999900800828729,69.24602806471141
8.48,0.9999900403427625,68.66713911966377
8.488,0.9999900001930128,68.08633446258898
8.496,0.9999899596654979,67.50361539965779
8.504,0.9999899187925375,66.91898351577679
8.512,0.9999898776068883,66.33244067876241
8.52,0.999989836141735,65.74398904348942
8.528,0.9999897944306813,65.15363105600511
8.536,0.9999897525077387,64.56136945761075
8.544,0.999989710407319,63.967207288902344
8.552,0.9999896681642203,63.371147893770896
8.56,0.9999896258136196,62.77319492335517
8.568,0.9999895833910577,62.17335233994618
8.576,0.9999895409324293,61.57162442083677
8.584,0.9999894984739697,60.968015762115286
8.592,0.9999894560522427,60.36253128239648
8.6,0.999989413704126,59.75517622648869
8.608,0.9999893714667976,59.14595616898987
8.616,0.9999893293777228,58.53487701781225
8.624,0.9999892874746369,57.921945017627415
8.632,0.9999892457955323,57.30716675323159
8.64,0.9999892043786415,56.69054915282306
8.648,0.9999891632624205,56.072099491191366
8.656,0.9999891224855341,55.45182539281009
8.664,0.9999890820868357,54.829734834832706
8.672,0.9999890421053519,54.2058361499835
8.68,0.9999890025802652,53.58013802934305
8.688,0.9999889635508926,52.95264952501963
8.696,0.9999889250566686,52.32338005270688
8.704,0.9999888871371263,51.69233939411858
8.712,0.9999888498318756,51.059537699300755
8.72,0.9999888131805853,50.42498548881253
8.728,0.9999887772229605,49.78869365577545
8.736,0.9999887419987236,49.15067346778288
8.744,0.9999887075475905,48.51093656866946
8.752,0.9999886739092506,47.86949498013198
8.76,0.999988641123344,47.22636110320207
8.768,0.9999886092294397,46.581547719561755
8.776,0.9999885782670108,45.93506799270271
8.784,0.9999885482754144,45.28693546892037
8.792,0.999988519293865,44.637164078143606
8.8,0.9999884913614132,43.98576813459148
8.808,0.9999884645169204,43.332762337258
8.815999999999999,0.9999884387990335,42.67816177021655
8.824,0.9999884142461642,42.02198190274403
8.832,0.9999883908964599,41.36423858925997
8.84,0.9999883687877804,40.70494806907614
8.847999999999999,0.9999883479576742,40.044126965954725
8.856,0.9999883284433515,39.38179228747203
8.864,0.9999883102816587,38.71796142418426
8.872,0.9999882935090543,38.052652148592216
8.879999999999999,0.9999882781615825,37.38588261390235
8.888,0.9999882642748473,36.71767135258263
8.896,0.9999882518839871,36.04803727471015
8.904,0.99998824102365,35.3769996661076
8.911999999999999,0.999988231727966,34.70457818626738
8.92,0.9999882240305235,34.03079286606193
8.928,0.9999882179643422,33.355664105238176
8.936,0.9999882135618493,32.6792126696942
8.943999999999999,0.9999882108548529,32.00145968853705
8.952,0.9999882098745169,31.322426650921983
8.96,0.9999882106513368,30.642135402671055
8.968,0.999988213215115,29.96060814267042
8.975999999999999,0.9999882175949351,29.27786741904624
8.984,0.9999882238191397,28.59393612511994
8.992,0.9999882319153041,27.908837495142226
9.0,0.9999882419102154,27.22259509980564
9.008,0.9999882538298471,26.5352328415369
9.016,0.9999882676993379,25.846774949570516
9.024000000000001,0.9999882835429685,25.15724597480408
9.032,0.9999883013841401,24.466670784436214
9.04,0.9999883212453528,23.77507455638913
9.048,0.999988343148185,23.08248277351848
9.056000000000001,0.9999883671132729,22.38892121761204
9.064,0.9999883931602912,21.694415963178898
9.072,0.9999884213079335,20.998993371032448
9.08,0.9999884515738938,20.302680081670847
9.088000000000001,0.9999884839748495,19.60550300845727
9.096,0.999988518526444,18.907489330603035
9.104,0.9999885552432684,18.208666485957707
9.112,0.9999885941388497,17.50906216361078
9.120000000000001,0.9999886352256319,16.808704296308623
9.128,0.9999886785149652,16.107621052690344
9.136,0.99998872401709,15.40584082934802
9.144,0.9999887717411269,14.703392242716665
9.152000000000001,0.9999888216950635,14.000304120798717
9.16,0.9999888738857442,13.296605494727505
9.168,0.9999889283188605,12.592325590176166
9.176,0.9999889849989423,11.887493818618344
9.184000000000001,0.9999890439293487,11.182139768446113
9.192,0.9999891051122637,10.476293195950646
9.2,0.9999891685486865,9.769984016172875
9.208,0.9999892342384303,9.063242293631168
9.216000000000001,0.9999893021801152,8.35609823293233
9.224,0.999989372371166,7.648582169272225
9.232,0.9999894448078113,6.940724558833724
9.24,0.9999895194850801,6.232555969089958
9.248000000000001,0.9999895963968051,5.524107069019642
9.256,0.9999896755356201,4.8154086192412136
9.264,0.9999897568929635,4.10649146207451
9.272,0.9999898404590825,3.3973865115376856
9.280000000000001,0.9999899262230352,2.6881247432874953
9.288,0.9999900141726961,1.9787371845092898
9.296,0.9999901042947634,1.2692549037662422
9.304,0.9999901965747644,0.55970900081598
9.312000000000001,0.9999902909970646,-0.14986940359776982
9.32,0.9999903875448767,-0.8594491779707268
9.328,0.9999904862002701,-1.5689991902724043
9.336,0.9999905869441827,-2.278488318179942
9.344,0.9999906897564312,-2.9878854593041075
9.352,0.9999907946157276,-3.697159541400774
9.36,0.9999909014996888,-4.406279532555707
9.368,0.9999910103848542,-5.1152144513396225
9.376,0.9999911212467005,-5.8239333769202375
9.384,0.9999912340596591,-6.532405459128355
9.392,0.9999913487971308,-7.240599928464998
9.4,0.999991465431508,-7.948486106046601
9.408,0.9999915839341912,-8.65603341347603
9.416,0.9999917042756085,-9.363211382635752
9.424,0.9999918264252388,-10.06998966539169
9.432,0.9999919503516302,-10.776338043204616
9.44,0.9999920760224248,-11.48222643663708
9.448,0.9999922034043787,-12.187624914753664
9.456,0.9999923324633871,-12.89250370440265
9.464,0.9999924631645088,-13.596833199377208
9.472,0.999992595471989,-14.300583969444556
9.48,0.9999927293492863,-15.003726769241629
9.488,0.9999928647590972,-15.7062325470259
9.496,0.9999930016633823,-16.408072453280475
9.504,0.9999931400233941,-17.109217849162526
9.512,0.9999932797997033,-17.809640314794414
9.52,0.9999934209522257,-18.509311657387187
9.528,0.9999935634402507,-19.20820391919622
9.536,0.9999937072224703,-19.90628938529898
9.544,0.999993852257006,-20.603540591195554
9.552,0.9999939985014391,-21.299930330221812
9.56,0.9999941459128376,-21.995431660776877
9.568,0.9999942944477878,-22.690017913355202
9.576,0.9999944440624217,-23.38366269738478
