freq,mag,phase
6.0,0.9999950179084551,84.14344710826927
6.008,0.9999955066301478,84.00641960693137
6.016,0.9999959825253532,83.86935781360371
6.024,0.999996445775342,83.73226170996787
6.032,0.9999968965600626,83.5951312777684
6.04,0.9999973350581447,83.45796649881318
6.048,0.9999977614469016,83.32076735497395
6.056,0.9999981759023332,83.18353382818671
6.064,0.9999985785991292,83.04626590045223
6.072,0.9999989697106724,82.90896355383647
6.08,0.9999993494090403,82.77162677047104
6.088,0.99999971786501,82.63425553255368
6.096,0.9999999999999999,82.4968498223487
6.104,0.9999999999999999,82.35940962218739
6.112,0.9999999999999998,82.22193491446858
6.12,1.0,82.08442568165897
6.128,1.0,81.94688190629371
6.136,1.0,81.80930357097674
6.144,0.9999999999999999,81.67169065838127
6.152,1.0,81.53404315125033
6.16,1.0,81.39636103239708
6.168,1.0,81.25864428470535
6.176,1.0,81.12089289113008
6.184,1.0,80.98310683469772
6.192,1.0,80.84528609850673
6.2,0.9999999999999999,80.70743066572807
6.208,0.9999999999999999,80.56954051960551
6.216,1.0,80.43161564345623
6.224,0.9999999999999998,80.29365602067116
6.232,1.0,80.1556616347155
6.24,1.0,80.01763246912915
6.248,1.0,79.87956850752711
6.256,1.0,79.74146973359994
6.264,0.9999999999999999,79.6033361311143
6.272,1.0,79.46516768391328
6.28,0.9999999999999999,79.32696437591686
6.288,1.0,79.18872619112243
6.296,1.0000000000000002,79.05045311360514
6.304,0.9999999999999999,78.91214512751843
6.312,1.0000000000000002,78.77380221709441
6.32,0.9999999999999999,78.63542436664432
6.328,0.9999999999999999,78.49701156055893
6.336,0.9999999999999999,78.35856378330911
6.344,1.0,78.22008101944613
6.352,1.0,78.08156325360216
6.36,0.9999999999999999,77.94301047049069
6.368,1.0,77.80442265490704
6.376,0.9999999999999999,77.66579979172867
6.384,0.9999999999999999,77.52714186591572
6.392,1.0,77.38844886251144
6.4,1.0,77.24972076664253
6.408,0.9999999999999999,77.11095756351973
6.416,1.0,76.9721592384381
6.424,1.0,76.8333257767776
6.432,1.0,76.69445716400335
6.44,1.0,76.55555338566629
6.448,0.9999999999999999,76.41661442740337
6.456,1.0000000000000002,76.27764027493818
6.464,1.0,76.13863091408126
6.472,1.0,75.99958633073058
6.48,1.0,75.86050651087199
6.4879999999999995,0.9999999999999999,75.72139144057957
6.496,0.9999999999999999,75.58224110601611
6.504,1.0,75.44305549343365
6.5120000000000005,1.0,75.30383458917362
6.52,1.0,75.16457837966759
6.5280000000000005,0.9999999999999999,75.02528685143746
6.536,1.0,74.88595999109606
6.5440000000000005,0.9999999999999999,74.74659778534736
6.552,1.0,74.6072002209872
6.5600000000000005,0.9999999999999999,74.46776728490336
6.568,1.0,74.32829896407632
6.5760000000000005,1.0,74.1887952455794
6.584,0.9999999999999998,74.04925611657939
6.592,1.0000000000000002,73.90968156433682
6.6,1.0,73.77007157620649
6.608,1.0,73.63042613963783
6.616,1.0,73.49074524217535
6.624,1.0,73.35102887145902
6.632,1.0,73.21127701522472
6.64,1.0,73.07148966130465
6.648,1.0,72.93166679762776
6.656,1.0,72.79180841222009
6.664,0.9999999999999999,72.6519144932053
6.672,1.0,72.51198502880499
6.68,0.9999999999999999,72.37202000733917
6.688,1.0,72.23201941722664
6.696,0.9999999999999999,72.09198324698541
6.704,0.9999999999999999,71.95191148523313
6.712,0.9999999999999999,71.81180412068743
6.72,1.0,71.67166114216643
6.728,1.0,71.5314825385891
6.736,1.0,71.39126829897563
6.744,0.9999999999999999,71.25101841244789
6.752,1.0,71.11073286822983
6.76,0.9999999999999999,70.97041165564787
6.768,1.0,70.83005476413129
6.776,1.0,70.68966218321262
6.784,1.0,70.54923390252814
6.792,1.0,70.40876991181821
6.8,1.0,70.26827020092762
6.808,0.9999999999999999,70.12773475980606
6.816,1.0,69.98716357850857
6.824,0.9999999999999999,69.84655664719577
6.832,0.9999999999999999,69.70591395613442
6.84,1.0,69.56523549569778
6.848,1.0,69.42452125636588
6.856,1.0,69.28377122872615
6.864,1.0,69.14298540347356
6.872,1.0,69.00216377141122
6.88,1.0,68.86130632345063
6.888,1.0,68.72041305061217
6.896,1.0,68.5794839440254
6.904,1.0,68.43851899492952
6.912,1.0,68.29751819467376
6.92,0.9999999999999999,68.15648153471768
6.928,0.9999999999999999,68.01540900663169
6.936,1.0,67.87430060209729
6.944,0.9999999999999999,67.7331563129076
6.952,1.0,67.59197613096762
6.96,1.0,67.45076004829471
6.968,1.0,67.30950805701889
6.976,1.0,67.16822014938326
6.984,0.9999999999999999,67.0268963177444
6.992,1.0,66.88553655457274
7.0,0.9999999999999999,66.7441408524529
7.008,0.9999999999999999,66.60270920408408
7.016,1.0,66.46124160228047
7.024,0.9999999999999999,66.31973803997161
7.032,0.9999999999999999,66.17819851020276
7.04,0.9999999999999999,66.03662300613527
7.048,0.9999999999999998,65.89501152104691
7.056,0.9999999999999999,65.75336404833234
7.064,1.0,65.61168058150342
7.072,1.0,65.46996111418957
7.08,0.9999999999999999,65.32820564013815
7.088,1.0,65.18641415321483
7.096,1.0,65.04458664740395
7.104,1.0,64.90272311680891
7.112,0.9999999999999999,64.76082355565251
7.12,0.9999999999999999,64.6188879582773
7.128,1.0,64.476916319146
7.136,0.9999999999999998,64.33490863284176
7.144,1.0,64.19286489406862
7.152,0.9999999999999999,64.05078509765183
7.16,1.0,63.9086692385382
7.168,0.9999999999999999,63.76651731179644
7.176,1.0,63.624329312617576
7.184,1.0,63.48210523631525
7.192,1.0,63.339845078326086
7.2,1.0,63.197548834210025
7.208,1.0,63.05521649965076
7.216,0.9999999765221335,62.91284807045597
7.224,0.9999999105102355,62.77044354255774
7.232,0.9999998460888063,62.62800291201286
7.24,0.9999997832810875,62.48552617500325
7.248,0.9999997221096207,62.34301332783624
7.256,0.999999662596252,62.20046436694492
7.264,0.9999996047621375,62.0578792888885
7.272,0.9999995486277478,61.91525809035266
7.28,0.9999994942128735,61.77260076814986
7.288,0.9999994415366293,61.629907319219704
7.296,0.9999993906174609,61.48717774062928
7.304,0.999999341473147,61.344412029573476
7.312,0.9999992941208071,61.20161018337533
7.32,0.999999248576905,61.058772199486384
7.328,0.9999992048572541,60.915898075486986
7.336,0.9999991629770225,60.7729878090866
7.344,0.9999991229507388,60.63004139812424
7.352,0.9999990847922949,60.48705884056869
7.36,0.999999048514954,60.344040134518906
7.368,0.999999014131353,60.200985278204236
7.376,0.9999989816535094,60.05789426998493
7.384,0.999998951092825,59.91476710835228
7.392,0.999998922460092,59.77160379192907
7.4,0.9999988957654976,59.62840431946983
7.4079999999999995,0.9999988710186285,59.48516868986118
7.416,0.9999988482284773,59.34189690212211
7.4239999999999995,0.999998827403446,59.198588955404475
7.432,0.9999988085513527,59.05524484899299
7.4399999999999995,0.9999987916794347,58.91186458230592
7.448,0.9999987767943561,58.768448154895054
7.4559999999999995,0.99999876390221,58.62499556644628
7.464,0.9999987530085258,58.481506816779685
7.4719999999999995,0.9999987441182738,58.33798190585016
7.48,0.9999987372358692,58.19442083374729
7.4879999999999995,0.9999987323651783,58.050823600696056
7.496,0.9999987295095235,57.90719020705693
7.504,0.9999987286716884,57.763520653326296
7.5120000000000005,0.9999987298539211,57.61981494013655
7.52,0.9999987330579432,57.47607306825676
7.5280000000000005,0.9999987382849506,57.33229503859249
7.536,0.9999987455356213,57.188480852186665
7.5440000000000005,0.9999987548101199,57.04463051021931
7.552,0.9999987661081019,56.9007440140083
7.5600000000000005,0.9999987794287201,56.75682136500934
7.568,0.9999987947706286,56.612862564816474
7.5760000000000005,0.9999988121319884,56.46886761516224
7.584,0.9999988315104725,56.324836517918094
7.5920000000000005,0.999998852903271,56.18076927509449
7.6,0.9999988763070957,56.0366658888415
7.6080000000000005,0.9999989017181864,55.89252636144868
7.616,0.9999989291323147,55.74835069534581
7.6240000000000006,0.9999989585447899,55.604138893102785
7.632,0.9999989899504632,55.459890957430176
7.640000000000001,0.9999990233437346,55.31560689117935
7.648,0.999999058718556,55.17128669734287
7.656000000000001,0.9999990960684372,55.02693037905464
7.664,0.9999991353864512,54.882537939590335
7.672,0.9999991766652396,54.73810938236755
7.68,0.9999992198970156,54.593644710946165
7.688,0.9999992650735725,54.449143929028565
7.696,0.9999993121862853,54.30460704045998
7.704,0.9999993612261194,54.160034049228635
7.712,0.9999994121836313,54.015424959466166
7.72,0.9999994650489783,53.870779775447794
7.728,0.99999951981192,53.72609850159261
7.736,0.9999995764618259,53.581381142463876
7.744,0.9999996349876783,53.43662770276925
7.752,0.9999996953780796,53.29183818736107
7.76,0.9999997576212555,53.14701260123659
7.768,0.9999998217050612,53.00215094953832
7.776,0.9999998876169854,52.857253237554154
7.784,0.9999999553441573,52.712319470717745
7.792,1.0,52.5673496546087
7.8,1.0,52.42234379495285
7.808,1.0,52.27730189762251
7.816,1.0,52.13222396863672
7.824,1.0,51.98711001416152
7.832,1.0,51.84196004051014
7.84,1.0,51.6967740541433
7.848,1.0000000000000002,51.55155206166947
7.856,1.0,51.40629406984503
7.864,0.9999999999999998,51.26100008557462
7.872,1.0,51.11567011591129
7.88,1.0,50.97030416805682
7.888,1.0,50.82490224936187
7.896,0.9999999999999999,50.679464367326275
7.904,0.9999999999999999,50.53399052959927
7.912,1.0,50.388480743979734
7.92,1.0,50.24293501841639
7.928,1.0,50.09735336100807
7.936,1.0,49.9517357800039
7.944,0.9999999999999999,49.80608228380357
7.952,1.0,49.66039288095753
7.96,1.0,49.51466758016725
7.968,0.9999999999999999,49.36890639028542
7.976,1.0,49.223109320316105
7.984,1.0,49.07727637941511
7.992,1.0,48.93140757689008
8.0,1.0,48.78550292220074
8.008,0.9999999999999999,48.639562424959166
8.016,0.9999999999999999,48.49358609492984
8.024000000000001,0.9999999999999999,48.3475739420301
8.032,1.0,48.20152597633023
8.04,1.0,48.055442208053535
8.048,0.9999999999999999,47.909322647576715
8.056000000000001,0.9999999999999999,47.763167305430066
8.064,1.0,47.61697619229769
8.072,0.9999999999999998,47.47074931901755
8.08,1.0,47.32448669658174
8.088000000000001,1.0,47.17818833613683
8.096,1.0,47.03185424898392
8.104,1.0,46.885484446578786
8.112,0.9999999999999999,46.73907894053214
8.120000000000001,1.0,46.59263774260992
8.128,0.9999999999999998,46.446160864733336
8.136,0.9999999999999999,46.29964831897909
8.144,0.9999999999999998,46.15310011757955
8.152000000000001,0.9999999999999999,46.00651627292304
8.16,1.0,45.859896797553915
8.168,0.9999999999999999,45.71324170417276
8.176,1.0,45.56655100563653
8.184000000000001,1.0,45.4198247149589
8.192,1.0,45.27306284531024
8.2,0.9999999999999998,45.12626541001786
8.208,1.0,44.97943242256619
8.216000000000001,1.0,44.832563896597
8.224,1.0,44.68565984590952
8.232,1.0,44.538720284460524
8.24,0.9999999999999999,44.391745226364634
8.248000000000001,0.9999999999999999,44.24473468589444
8.256,1.0,44.09768867748066
8.264,0.9999999999999999,43.950607215712225
8.272,0.9999999999999999,43.80349031533655
8.280000000000001,0.9999999999999999,43.6563379912596
8.288,1.0,43.5091502585462
8.296,1.0,43.36192713241993
8.304,0.9999999999999999,43.21466862826347
8.312,0.9999999999999999,43.06737476161878
8.32,1.0,42.920045548187026
8.328,1.0,42.772681003829
8.336,0.9999999999999999,42.62528114456504
8.344,0.9999999999999999,42.477845986575325
8.352,1.0,42.3303755461999
8.36,0.9999999999999999,42.182869839938945
8.368,1.0,42.03532888445273
8.376,1.0,41.88775269656197
8.384,0.9999999999999999,41.74014129324771
8.392,1.0,41.592494691651765
8.4,1.0,41.444812909076454
8.408,1.0,41.2970959629852
8.416,1.0,41.14934387100217
8.424,1.0,41.001556650912796
8.432,1.0,40.853734320663634
8.44,1.0000000000000002,40.705876898362646
8.448,1.0,40.55798440227921
8.456,1.0,40.410056850844356
8.464,1.0,40.26209426265068
8.472,0.9999999999999999,40.11409665645273
8.48,1.0,39.96606405116682
8.488,0.9999999999999999,39.81799646587147
8.496,1.0,39.66989391980713
8.504,0.9999999999999999,39.52175643237671
8.512,1.0,39.373584023145206
8.52,1.0,39.22537671184031
8.528,1.0,39.077134518352075
8.536,0.9999999999999999,38.9288574627333
8.544,1.0,38.78054556519939
8.552,1.0,38.632198846128794
8.56,0.9999999999999998,38.48381732606264
8.568,1.0,38.33540102570528
8.576,1.0,38.18694996592401
8.584,1.0,38.03846416774939
8.592,1.0,37.88994365237521
8.6,0.9999999999999999,37.74138844115865
8.608,1.0,37.59279855562028
8.616,1.0,37.44417401744424
8.624,1.0,37.29551484847818
8.632,1.0,37.1468210707335
8.64,1.0,36.99809270638521
8.648,1.0,36.84932977777229
8.656,0.9999999999999999,36.70053230739744
8.664,1.0,36.55170031792739
8.672,0.9999999999999999,36.40283383219281
8.68,1.0,36.25393287318852
8.688,1.0,36.104997464073364
8.696,1.0,35.95602762817051
8.704,1.0,35.807023388967174
8.712,1.0,35.65798477011508
8.72,0.9999999999999999,35.50891179543014
8.728,0.9999999999999999,35.35980448889277
8.736,0.9999999999999999,35.210662874647724
8.744,1.0,35.06148697700445
8.752,1.0,34.91227682043666
8.76,1.0,34.76303242958292
8.768,1.0,34.61375382924621
8.776,0.9999999999999999,34.46444104439432
8.784,1.0,34.31509410015962
8.792,1.0,34.1657130218393
8.8,1.0,34.01629783489528
8.808,1.0,33.866848564954324
8.815999999999999,1.0,33.71736523780792
8.824,1.0000000000000002,33.56784787941245
8.832,1.0,33.41829651588923
8.84,1.0,33.268711173524444
8.847999999999999,0.9999999999999999,33.11909187876915
8.856,1.0,32.96943865823932
8.864,0.9999999999999999,32.81975153871598
8.872,1.0,32.67003054714507
8.879999999999999,1.0,32.5202757106375
8.888,1.0,32.370487056469116
8.896,1.0,32.220664612080824
8.904,1.0,32.07080840507859
8.911999999999999,0.9999999999999999,31.92091846323324
8.92,1.0,31.770994814480623
8.928,0.9999999999999999,31.621037486921736
8.936,1.0,31.471046508822443
8.943999999999999,1.0,31.321021908613645
8.952,1.0,31.170963714891176
8.96,0.9999999999999999,31.020871956415917
8.968,1.0,30.870746662113746
8.975999999999999,1.0,30.720587861075416
8.984,1.0,30.570395582556596
8.992,1.0,30.420169855977964
9.0,1.0,30.269910710925075
9.008,0.9999999999999999,30.119618177148332
9.016,1.0,29.969292284562943
9.024000000000001,1.0,29.818933063249077
9.032,0.9999999999999999,29.668540543451602
9.04,0.9999999999999999,29.518114755580164
9.048,0.9999999999999999,29.367655730209155
9.056000000000001,0.9999999999999999,29.21716349807765
9.064,1.0,29.066638090089448
9.072,1.0000000000000002,28.916079537312896
9.08,0.9999999999999998,28.765487870980888
9.088000000000001,0.9999999999999999,28.61486312249097
9.096,1.0,28.46420532340511
9.104,1.0,28.313514505449724
9.112,0.9999999999999999,28.162790700515576
9.120000000000001,1.0,28.012033940657822
9.128,1.0,27.861244258095926
9.136,1.0,27.710421685213504
9.144,1.0,27.559566254558334
9.152000000000001,1.0,27.40867799884233
9.16,1.0,27.257756950941502
9.168,1.0,27.106803143895725
9.176,1.0,26.955816610908794
9.184000000000001,1.0,26.804797385348394
9.192,1.0,26.65374550074596
9.2,1.0,26.502660990796567
9.208,1.0,26.35154388935886
9.216000000000001,1.0,26.20039423045511
9.224,0.9999999999999999,26.04921204827101
9.232,1.0,25.89799737715556
9.24,1.0,25.746750251621
9.248000000000001,1.0,25.59547070634284
9.256,1.0,25.444158776159675
9.264,0.9999999999999999,25.292814496073035
9.272,1.0,25.141437901247333
9.280000000000001,0.9999999999999999,24.99002902700985
9.288,1.0,24.838587908850567
9.296,1.0,24.687114582422016
9.304,0.9999999999999999,24.535609083539175
9.312000000000001,0.9999999999999999,24.38407144817949
9.32,1.0,24.232501712482687
9.328,1.0,24.080899912750574
9.336,1.0,23.92926608544698
9.344,1.0,23.777600267197787
9.352,1.0,23.62590249479054
9.36,0.9999999999999999,23.47417280517458
9.368,0.9999999999999999,23.322411235460677
9.376,1.0,23.170617822921173
9.384,1.0,23.018792604989567
9.392,1.0,22.866935619260655
9.4,1.0,22.715046903490126
9.408,1.0,22.563126495594688
9.416,1.0,22.411174433651706
9.424,1.0,22.259190755899233
9.432,0.9999999999999999,22.107175500735696
9.44,0.9999999999999999,21.955128706719957
9.448,1.0,21.803050412570915
9.456,1.0,21.65094065716762
9.464,1.0,21.49879947954884
9.472,1.0,21.346626918913195
9.48,1.0,21.194423014618707
9.488,1.0,21.0421878061829
9.496,0.9999999999999998,20.889921333282402
9.504,1.0,20.737623635753014
9.512,1.0,20.58529475358928
9.52,1.0,20.43293472694457
9.528,1.0000000000000002,20.280543596130684
9.536,1.0,20.12812140161786
9.544,0.9999999999999999,19.97566818403443
9.552,1.0,19.82318398416678
9.56,0.9999999999999999,19.670668842959035
9.568,1.0,19.518122801512998
9.576,0.9999999999999999,19.365545901087813
9.584,1.0,19.212938183099958
9.592,0.9999999999999999,19.060299689122832
9.6,1.0,18.90763046088675
9.608,1.0,18.754930540278583
9.616,1.0,18.60219996934173
9.624,0.9999999999999999,18.449438790275675
9.632,1.0,18.29664704543604
9.64,0.9999999999999999,18.14382477733412
9.648,0.9999999999999999,17.99097202863692
9.656,1.0,17.838088842166666
9.664,1.0,17.685175260900852
9.672,0.9999999999999999,17.53223132797176
9.68,1.0,17.379257086666513
9.688,1.0,17.226252580426507
9.696,1.0,17.073217852847566
9.704,1.0,16.920152947679302
9.712,0.9999999999999999,16.767057908825276
9.72,1.0,16.61393278034237
9.728,0.9999999999999999,16.46077760644092
9.736,0.9999999999999999,16.307592431484096
9.744,0.9999999999999999,16.154377299988017
9.752,1.0,16.001132256621162
9.76,0.9999999999999999,15.847857346204407
9.768,1.0,15.69455261371051
9.776,1.0,15.541218104264082
9.784,1.0,15.387853863141114
9.792,1.0,15.234459935768903
9.8,1.0,15.081036367725561
9.808,0.9999999999999999,14.927583204740015
9.816,0.9999999999999998,14.774100492691444
9.824,1.0,14.620588277609238
9.832,1.0,14.467046605672524
9.84,1.0,14.313475523210071
9.847999999999999,1.0,14.159875076699805
9.856,1.0,14.006245312768625
9.864,1.0,13.852586278192144
9.872,1.0,13.698898019894346
9.879999999999999,1.0,13.545180584947206
9.888,0.9999999999999999,13.391434020570468
9.896,0.9999999999999999,13.237658374131382
9.904,0.9999999999999999,13.083853693144347
9.911999999999999,1.0,12.930020025270505
9.92,1.0,12.776157418317522
9.928,0.9999999999999999,12.622265920239297
9.936,1.0,12.468345579135603
9.943999999999999,1.0,12.314396443251674
9.952,1.0,12.160418560977947
9.96,1.0,12.006411980849792
9.968,1.0,11.852376751547114
9.975999999999999,1.0,11.698312921893923
9.984,1.0,11.54422054085809
9.992,1.0,11.390099657551033
10.0,1.0,11.235950321227335
10.008,0.9999999999999999,11.081772581284271
10.016,0.9999999999999999,10.927566487261572
10.024000000000001,0.9999999999999999,10.773332088841086
10.032,0.9999999999999999,10.619069435846368
10.04,1.0,10.464778578242239
10.048,0.9999999999999999,10.310459566134483
10.056000000000001,1.0,10.156112449769521
10.064,1.0,10.001737279534003
10.072,0.9999999999999999,9.847334105954301
10.08,1.0,9.692902979696239
10.088000000000001,1.0,9.538443951564732
10.096,0.9999999999999999,9.383957072503359
10.104,0.9999999999999999,9.229442393593862
10.112,0.9999999999999998,9.074899966055838
10.120000000000001,1.0,8.920329841246378
10.128,0.9999999999999998,8.76573207065962
10.136,1.0,8.611106705926225
10.144,0.9999999999999999,8.456453798813065
10.152000000000001,1.0,8.30177340122285
10.16,1.0,8.147065565193637
10.168,1.0,7.992330342898334
10.176,1.0,7.8375677866443425
10.184000000000001,1.0,7.682777948873162
10.192,1.0,7.527960882159918
10.2,1.0,7.373116639212811
10.208,1.0,7.2182452728727595
10.216000000000001,1.0,7.063346836113006
10.224,1.0,6.908421382038598
10.232,1.0,6.75346896388584
10.24,1.0,6.598489635021906
10.248000000000001,1.0,6.4434834489444475
10.256,0.9999999999999999,6.288450459281028
10.264,1.0,6.133390719788602
10.272,0.9999999999999999,5.978304284353072
10.280000000000001,0.9999999999999999,5.823191206988881
10.288,1.0,5.6680515418384685
10.296,1.0,5.512885343171674
10.304,1.0,5.357692665385329
10.312000000000001,0.9999999999999999,5.202473563002814
10.32,1.0,5.047228090673465
10.328,0.9999999999999999,4.891956303172016
10.336,1.0,4.73665825539813
10.344000000000001,1.0,4.581334002375942
10.352,1.0,4.425983599253484
10.36,1.0,4.270607101302056
10.368,0.9999999999999999,4.115204563915779
10.376000000000001,1.0,3.9597760426111095
10.384,0.9999999999999999,3.8043215930262186
10.392,1.0,3.648841270920392
10.4,1.0,3.4933351321735233
10.408000000000001,1.0,3.337803232785622
