freq,mag,phase
6.0,0.9999987253442371,106.45023359965529
6.008,0.9999991646387274,106.34439781592698
6.016,0.9999995920121999,106.23853212294378
6.024,1.0,106.13263648561565
6.032,0.9999999999999999,106.02671086888722
6.04,1.0,105.9207552377382
6.048,0.9999999999999999,105.8147695571835
6.056,1.0,105.70875379227364
6.064,1.0,105.60270790809491
6.072,0.9999999999999999,105.49663186976976
6.08,1.0,105.39052564245702
6.088,0.9999999999999999,105.28438919135213
6.096,1.0,105.1782224816876
6.104,1.0,105.072025478733
6.112,1.0,104.9657981477955
6.12,0.9999999999999999,104.85954045422004
6.128,1.0,104.7532523633896
6.136,1.0,104.64693384072548
6.144,1.0,104.5405848516876
6.152,1.0,104.43420536177479
6.16,0.9999999999999998,104.327795336525
6.168,1.0,104.22135474151564
6.176,0.9999999999999999,104.11488354236386
6.184,1.0,104.00838170472676
6.192,1.0,103.90184919430176
6.2,1.0,103.79528597682679
6.208,1.0,103.68869201808063
6.216,1.0,103.58206728388315
6.224,1.0,103.47541174009557
6.232,1.0,103.36872535262083
6.24,0.9999999999999999,103.2620080874037
6.248,0.9999999999999999,103.15525991043128
6.256,0.9999999999999999,103.04848078773304
6.264,0.9999999999999999,102.94167068538125
6.272,1.0,102.83482956949122
6.28,0.9999999999999999,102.72795740622153
6.288,0.9999999999999999,102.62105416177437
6.296,1.0,102.51411980239578
6.304,1.0,102.40715429437591
6.312,1.0,102.30015760404933
6.32,0.9999999999999999,102.1931296977953
6.328,1.0,102.086070542038
6.336,0.9999999999999999,101.97898010324685
6.344,0.9999999999999998,101.87185834793678
6.352,0.9999999999999998,101.76470524266844
6.36,1.0,101.6575207540486
6.368,1.0,101.55030484873029
6.376,0.9999999999999998,101.44305749341315
6.384,1.0,101.33577865484366
6.392,0.9999999999999999,101.22846829981549
6.4,1.0,101.12112639516965
6.408,0.9999999999999999,101.01375290779484
6.416,1.0,100.90634780462773
6.424,0.9999999999999999,100.7989110526532
6.432,1.0,100.69144261890462
6.44,1.0,100.5839424704641
6.448,0.9999999999999999,100.47641057446278
6.456,0.9999999999999999,100.36884689808115
6.464,1.0,100.26125140854919
6.472,1.0,100.15362407314679
6.48,0.9999999999999999,100.04596485920389
6.4879999999999995,0.9999999999999999,99.93827373410085
6.496,1.0,99.83055066526859
6.504,0.9999999999999999,99.72279562018907
6.5120000000000005,0.9999999999999999,99.61500856639532
6.52,0.9999999999999999,99.50718947147185
6.5280000000000005,0.9999999999999999,99.39933830305488
6.536,1.0,99.2914550288326
6.5440000000000005,1.0,99.18353961654543
6.552,0.9999999999999998,99.07559203398638
6.5600000000000005,0.9999999999999998,98.96761224900109
6.568,0.9999999999999999,98.85960022948838
6.5760000000000005,0.9999999999999999,98.75155594340025
6.584,1.0,98.64347935874237
6.592,1.0,98.53537044357415
6.6,1.0,98.42722916600914
6.608,0.9999999999999999,98.31905549421523
6.616,1.0,98.21084939641493
6.624,1.0,98.10261084088562
6.632,0.9999999999999999,97.99433979595977
6.64,1.0,97.88603623002538
6.648,0.9999999999999999,97.77770011152595
6.656,1.0,97.66933140896097
6.664,1.0,97.5609300908861
6.672,1.0,97.45249612591341
6.68,1.0,97.3440294827117
6.688,0.9999999999999999,97.23553013000667
6.696,1.0,97.1269980365812
6.704,1.0,97.01843317127572
6.712,1.0,96.90983550298824
6.72,0.9999999999999999,96.80120500067487
6.728,0.9999999999999998,96.69254163334982
6.736,1.0,96.58384537008583
6.744,0.9999999999999999,96.47511618001435
6.752,0.9999999999999999,96.3663540323258
6.76,0.9999999999999999,96.25755889626981
6.768,1.0000000000000002,96.14873074115553
6.776,1.0,96.03986953635174
6.784,0.9999999999999999,95.93097525128725
6.792,0.9999999999999999,95.8220478554511
6.8,1.0,95.71308731839274
6.808,1.0,95.60409360972234
6.816,1.0,95.49506669911105
6.824,0.9999999999999999,95.38600655629116
6.832,1.0,95.27691315105643
6.84,1.0,95.16778645326231
6.848,0.9999999999999998,95.0586264328261
6.856,1.0,94.94943305972733
6.864,1.0,94.84020630400786
6.872,1.0,94.73094613577224
6.88,1.0,94.62165252518781
6.888,1.0,94.51232544248509
6.896,1.0,94.40296485795788
6.904,1.0,94.29357074196353
6.912,0.9999999999999998,94.18414306492323
6.92,1.0,94.07468179732221
6.928,1.0,93.96518690970986
6.936,0.9999999999999999,93.85565837270013
6.944,1.0,93.74609615697167
6.952,1.0,93.63650023326802
6.96,1.0,93.5268705723979
6.968,0.9999999999999999,93.41720714523537
6.976,0.9999999999999999,93.30750992272012
6.984,1.0,93.19777887585764
6.992,0.9999999999999999,93.0880139757194
7.0,1.0,92.97821519344316
7.008,1.0,92.86838250023311
7.016,0.9999999999999999,92.75851586736012
7.024,0.9999999796089104,92.64861526616187
7.032,0.9999998241517466,92.5386806680432
7.04,0.9999996694052742,92.42871204447616
7.048,0.9999995154237001,92.31870936700032
7.056,0.9999993622606481,92.20867260722294
7.064,0.9999992099691609,92.09860173681912
7.072,0.9999990586017038,91.98849672753208
7.08,0.999998908210167,91.87835755117334
7.088,0.9999987588458694,91.76818417962279
7.096,0.9999986105595602,91.65797658482906
7.104,0.9999984634014222,91.5477347388096
7.112,0.9999983174210749,91.43745861365085
7.12,0.9999981726675786,91.32714818150852
7.128,0.999998029189434,91.21680341460764
7.136,0.9999978870345886,91.10642428524285
7.144,0.9999977462504377,90.9960107657785
7.152,0.9999976068838281,90.88556282864886
7.16,0.9999974689810607,90.77508044635826
7.168,0.9999973325878935,90.66456359148128
7.176,0.9999971977495444,90.55401223666287
7.184,0.999997064510696,90.44342635461858
7.192,0.9999969329154942,90.33280591813465
7.2,0.9999968030075576,90.22215090006816
7.208,0.9999966748299738,90.11146127334722
7.216,0.9999965484253072,90.00073701097106
7.224,0.9999964238356015,89.88997808601029
7.232,0.9999963011023794,89.7791844716068
7.24,0.9999961802666495,89.66835614097417
7.248,0.9999960613689077,89.55749306739759
7.256,0.9999959444491402,89.44659522423406
7.264,0.999995829546827,89.33566258491255
7.272,0.9999957167009447,89.22469512293405
7.28,0.9999956059499697,89.11369281187164
7.288,0.999995497331882,89.00265562537074
7.296,0.9999953908841664,88.89158353714903
7.304,0.9999952866438184,88.78047652099674
7.312,0.9999951846473445,88.66933455077653
7.32,0.9999950849307677,88.55815760042371
7.328,0.9999949875296285,88.44694564394632
7.336,0.9999948924789903,88.33569865542509
7.344,0.9999947998134401,88.22441660901364
7.352,0.9999947095670937,88.11309947893842
7.36,0.9999946217735981,88.00174723949887
7.368,0.9999945364661339,87.89035986506735
7.376,0.9999944536774196,87.77893733008929
7.384,0.9999943734397138,87.66747960908314
7.392,0.9999942957848196,87.55598667664044
7.4,0.9999942207440857,87.4444585074258
7.4079999999999995,0.9999941483484113,87.33289507617694
7.416,0.9999940786282486,87.22129635770462
7.4239999999999995,0.9999940116136056,87.10966232689282
7.432,0.9999939473340497,86.99799295869842
7.4399999999999995,0.99999388581871,86.88628822815146
7.448,0.9999938270962808,86.77454811035491
7.4559999999999995,0.9999937711950257,86.66277258048477
7.464,0.9999937181427779,86.55096161378985
7.4719999999999995,0.9999936679669462,86.4391151855919
7.48,0.9999936206945159,86.3272332712853
7.4879999999999995,0.9999935763520519,86.21531584633722
7.496,0.9999935349657031,86.1033628862873
7.504,0.9999934965612032,85.99137436674773
7.5120000000000005,0.9999934611638752,85.87935026340293
7.52,0.999993428798633,85.76729055200963
7.5280000000000005,0.9999933994899843,85.65519520839646
7.536,0.9999933732620344,85.5430642084641
7.5440000000000005,0.9999933501384869,85.43089752818477
7.552,0.9999933301426478,85.31869514360234
7.5600000000000005,0.9999933132974276,85.20645703083187
7.568,0.9999932996253424,85.09418316605961
7.5760000000000005,0.9999932891485189,84.98187352554254
7.584,0.9999932818886934,84.86952808560834
7.5920000000000005,0.9999932778672169,84.75714682265489
7.6,0.9999932771050553,84.64472971315021
7.6080000000000005,0.999993279622792,84.53227673363195
7.616,0.9999932854406288,84.41978786070717
7.6240000000000006,0.9999932945783901,84.30726307105199
7.632,0.9999933070555204,84.19470234141119
7.640000000000001,0.9999933228910901,84.08210564859776
7.648,0.9999933421037941,83.9694729694927
7.656000000000001,0.999993364711953,83.85680428104432
7.664,0.9999933907335151,83.74409956026797
7.672,0.9999934201860571,83.63135878424545
7.68,0.9999934530867831,83.5185819301246
7.688,0.9999934894525265,83.40576897511868
7.696,0.9999935292997504,83.29291989650582
7.704,0.9999935726445452,83.18003467162852
7.712,0.9999936195026311,83.0671132778929
7.72,0.9999936698893551,82.95415569276817
7.728,0.9999937238196914,82.84116189378585
7.736,0.999993781308239,82.72813185853917
7.744,0.9999938423692222,82.61506556468224
7.752,0.999993907016485,82.50196298992928
7.76,0.9999939752634929,82.38882411205388
7.768,0.9999940471233263,82.27564890888804
7.776,0.9999941226086799,82.1624373583214
7.784,0.9999942017318583,82.04918943830022
7.792,0.9999942845047711,81.93590512682644
7.8,0.9999943709389284,81.82258440195672
7.808,0.9999944610454359,81.7092272418013
7.816,0.9999945548349893,81.595833624523
7.824,0.9999946523178667,81.48240352833598
7.832,0.9999947535039214,81.36893693150463
7.84,0.9999948584025754,81.25543381234233
7.848,0.9999949670228089,81.14189414921005
7.856,0.9999950793731514,81.02831792051515
7.864,0.9999951954616711,80.9147051047099
7.872,0.9999953152959636,80.80105568029005
7.88,0.9999954388831396,80.68736962579334
7.888,0.9999955662298101,80.57364691979788
7.896,0.999995697342074,80.4598875409206
7.904,0.9999958322255,80.34609146781548
7.912,0.9999959708851105,80.23225867917186
7.92,0.9999961133253631,80.11838915371257
7.928,0.9999962595501293,80.00448287019205
7.936,0.9999964095626755,79.89053980739448
7.944,0.9999965633656366,79.77655994413162
7.952,0.9999967209609926,79.66254325924079
7.96,0.9999968823500422,79.54848973158268
7.968,0.9999970475333722,79.43439934003912
7.976,0.9999972165108278,79.32027206351071
7.984,0.9999973892814781,79.20610788091447
7.992,0.9999975658435817,79.09190677118131
8.0,0.9999977461945465,78.97766871325354
8.008,0.9999979303308902,78.8633936860821
8.016,0.999998118248195,78.74908166862393
8.024000000000001,0.9999983099410619,78.6347326398392
8.032,0.9999985054030582,78.5203465786883
8.04,0.9999987046266655,78.40592346412893
8.048,0.9999989076032206,78.29146327511303
8.056000000000001,0.9999991143228549,78.17696599058365
8.064,0.9999993247744272,78.06243158947176
8.072,0.9999995389454547,77.94786005069285
8.08,0.9999997568220361,77.83325135314361
8.088000000000001,0.9999999783887736,77.71860547569858
8.096,0.9999999999999999,77.60392239720647
8.104,0.9999999999999999,77.48920209648665
8.112,0.9999999999999999,77.37444455232539
8.120000000000001,1.0,77.25964974347234
8.128,0.9999999999999999,77.14481764863673
8.136,1.0,77.0299482464834
8.144,0.9999999999999999,76.91504151562911
8.152000000000001,0.9999999999999999,76.80009743463873
8.16,1.0,76.68511598202134
8.168,1.0,76.5700971362263
8.176,0.9999999999999999,76.45504087563951
8.184000000000001,1.0,76.33994717857966
8.192,1.0000000000000002,76.22481602329448
8.2,0.9999999999999999,76.10964738795705
8.208,1.0,75.99444125066229
8.216000000000001,1.0,75.87919758942373
8.224,0.9999999999999999,75.7639163821702
8.232,1.0,75.6485976067428
8.24,1.0,75.53324124089227
8.248000000000001,1.0,75.41784726227662
8.256,1.0,75.302415648459
8.264,1.0,75.18694637690605
8.272,0.9999999999999999,75.07143942498672
8.280000000000001,0.9999999999999999,74.95589476997183
8.288,1.0,74.84031238903393
8.296,1.0,74.72469225924807
8.304,1.0,74.60903435759333
8.312,1.0,74.49333866095543
8.32,1.0,74.37760514613005
8.328,1.0,74.26183378982763
8.336,0.9999999999999999,74.14602456867918
8.344,0.9999999999999999,74.0301774592439
8.352,0.9999999999999999,73.91429243801794
8.36,0.9999999999999999,73.79836948144542
8.368,1.0,73.68240856593108
8.376,1.0,73.56640966785541
8.384,1.0,73.45037276359184
8.392,1.0,73.33429782952716
8.4,0.9999999999999999,73.21818484208416
8.408,0.9999999999999999,73.10203377774819
8.416,1.0,72.98584461309672
8.424,1.0000000000000002,72.86961732483303
8.432,0.9999999999999999,72.75335188982406
8.44,0.9999999999999999,72.63704828514265
8.448,1.0,72.52070648811497
8.456,1.0,72.40432647637309
8.464,1.0000000000000002,72.28790822791339
8.472,1.0,72.1714517211613
8.48,0.9999999999999999,72.05495693504236
8.488,0.9999999999999999,71.93842384906081
8.496,1.0,71.82185244338534
8.504,1.0,71.70524269894317
8.512,0.9999999999999999,71.58859459752236
8.52,1.0,71.47190812188333
8.528,1.0,71.3551832558792
8.536,1.0,71.23841998458643
8.544,0.9999999999999999,71.12161829444474
8.552,1.0,71.00477817340797
8.56,0.9999999999999999,70.88789961110457
8.568,0.9999999999999999,70.7709825990092
8.576,1.0,70.65402713062404
8.584,0.9999999999999999,70.53703320167071
8.592,0.9999999999999999,70.4200008102913
8.6,1.0,70.3029299572589
8.608,0.9999999999999999,70.18582064619576
8.616,1.0,70.06867288379868
8.624,0.9999999999999999,69.95148668006969
8.632,1.0,69.83426204855027
8.64,1.0,69.71699900655679
8.648,1.0,69.59969757541504
8.656,1.0,69.48235778068972
8.664,0.9999999999999999,69.36497965240665
8.672,1.0,69.24756322526231
8.68,1.0,69.13010853881751
8.688,0.9999999999999999,69.01261563766909
8.696,0.9999999999999999,68.89508457159505
8.704,1.0,68.77751539566691
8.712,1.0,68.6599081703232
8.72,1.0,68.54226296139774
8.728,1.0,68.42457984009643
8.736,0.9999999999999999,68.30685888291559
8.744,1.0,68.18910017149628
8.752,0.9999999999999999,68.07130379240786
8.76,0.9999999999999999,67.95346983685647
8.768,0.9999999999999999,67.83559840031306
8.776,0.9999999999999999,67.71768958205868
8.784,1.0,67.59974348464397
8.792,1.0,67.48176021326354
8.8,0.9999999999999999,67.36373987504619
8.808,1.0,67.24568257826468
8.815999999999999,1.0,67.12758843147081
8.824,0.9999999999999999,67.00945754256419
8.832,0.9999999999999999,66.89129001780505
8.84,1.0,66.77308596078356
8.847999999999999,1.0,66.65484547136116
8.856,0.9999999999999999,66.53656864460024
8.864,1.0,66.4182555697012
8.872,0.9999999999999999,66.29990632896539
8.879999999999999,1.0,66.18152099680518
8.888,1.0,66.06309963882045
8.896,1.0,65.94464231096165
8.904,1.0,65.82614905879711
8.911999999999999,0.9999999999999998,65.70761991690131
8.92,0.9999999999999999,65.58905490837819
8.928,1.0,65.47045404453016
8.936,1.0,65.35181732468033
8.943999999999999,1.0,65.23314473615217
8.952,0.9999999999999999,65.1144362544065
8.96,0.9999999999999999,64.9956918433322
8.968,1.0,64.87691145568319
8.975999999999999,1.0,64.75809503365112
8.984,1.0,64.63924250955998
8.992,1.0,64.52035380666688
9.0,1.0,64.4014288400505
9.008,1.0,64.28246751756852
9.016,0.9999995237720155,64.16346974086417
9.024000000000001,0.9999989975389113,64.044435406402
9.032,0.9999984959756656,63.92536440651371
9.04,0.9999980201855583,63.806256630436
9.048,0.9999975711024164,63.687111965324014
9.056000000000001,0.999997149492549,63.56793029722538
9.064,0.9999967559584739,63.448711512002376
9.072,0.9999963909442284,63.329455496191684
9.08,0.9999960547420554,63.21016213779378
9.088000000000001,0.9999957475002302,63.09083132698584
9.096,0.9999954692318155,62.971462956754685
9.104,0.9999952198241121,62.852056923447506
9.112,0.9999949990486103,62.73261312724119
9.120000000000001,0.9999948065712372,62.61313147253105
9.128,0.9999946419627312,62.49361186824252
9.136,0.9999945047089805,62.374054228069305
9.144,0.999994394221189,62.25445847064336
9.152000000000001,0.9999943098457558,62.13482451964179
9.16,0.9999942508737654,62.01515230383671
9.168,0.9999942165500197,61.89544175709391
9.176,0.999994206081542,61.775692818326874
9.184000000000001,0.9999942186455202,61.655905431411846
9.192,0.9999942533966564,61.53607954506983
9.2,0.99999430947391,61.416215112721
9.208,0.9999943860066337,61.296312092317024
9.216000000000001,0.9999944821201058,61.176370446155715
9.224,0.9999945969404771,61.05639014068252
9.232,0.9999947295991538,60.93637114628262
9.24,0.9999948792366392,60.81631343706742
9.248000000000001,0.9999950450058713,60.69621699065821
9.256,0.999995226075081,60.57608178796952
9.264,0.9999954216302119,60.45590781299461
9.272,0.9999956308769338,60.335695052594964
9.280000000000001,0.9999958530422808,60.21544349629516
9.288,0.9999960873759596,60.09515313608447
9.296,0.9999963331513475,59.974823966226
9.304,0.9999965896662227,59.85445598307419
9.312000000000001,0.9999968562432517,59.73404918490144
9.32,0.9999971322302641,59.61360357173355
9.328,0.9999974170003404,59.493119145194655
9.336,0.9999977099517393,59.37259590836166
9.344,0.9999980105076844,59.25203386562791
9.352,0.9999983181160343,59.131433022575926
9.36,0.9999986322488487,59.01079338585936
9.368,0.9999989524018771,58.89011496309316
9.376,0.9999992780939756,58.7693977627525
9.384,0.9999996088664694,58.64864179407927
9.392,0.9999999442824764,58.52784706699642
9.4,1.0,58.407013592029216
9.408,0.9999999999999999,58.28614138023346
9.416,1.0,58.165230443129815
9.424,1.0,58.04428079264439
9.432,0.9999999999999999,57.9232924410545
9.44,0.9999999999999999,57.80226540093995
9.448,1.0,57.6811996851388
9.456,1.0,57.56009530670782
9.464,0.9999999999999999,57.438952278886866
9.472,1.0,57.31777061506725
9.48,1.0000000000000002,57.19655032876322
9.488,1.0,57.075291433587154
9.496,1.0,56.95399394322716
9.504,1.0,56.83265787142774
9.512,1.0,56.711283231972615
9.52,1.0,56.58987003867003
9.528,1.0,56.468418305339846
9.536,1.0,56.34692804580263
9.544,0.9999999999999999,56.225399273870295
9.552,1.0,56.10383200333837
9.56,0.9999999999999999,55.98222624797941
9.568,1.0,55.86058202153799
9.576,0.9999999999999999,55.73889933772623
9.584,1.0,55.61717821022103
9.592,0.9999999999999999,55.49541865266143
9.6,1.0,55.37362067864738
9.608,1.0,55.25178430173873
9.616,1.0000000000000002,55.129909535455255
9.624,1.0,55.0079963932768
9.632,1.0,54.886044888644285
9.64,0.9999999999999999,54.76405503496084
9.648,1.0,54.64202684559359
9.656,1.0,54.51996033387537
9.664,1.0,54.3978555131072
9.672,1.0,54.27571239656053
9.68,0.9999999999999999,54.15353099748002
9.688,1.0,54.03131132908625
9.696,0.9999999999999999,53.90905340457889
9.704,0.9999999999999998,53.78675723713943
9.712,0.9999999999999999,53.664422839934694
9.72,1.0,53.54205022611981
9.728,1.0,53.41963940884167
9.736,1.0,53.297190401242055
9.744,1.0,53.17470321646121
9.752,1.0,53.052177867640914
9.76,1.0,52.929614367928046
9.768,1.0,52.8070127304777
9.776,1.0,52.68437296845675
9.784,1.0,52.56169509504679
9.792,1.0,52.43897912344763
9.8,0.9999999999999999,52.31622506688033
9.808,1.0,52.19343293859046
9.816,0.9999999999999999,52.07060275185101
9.824,1.0,51.94773451996565
9.832,1.0,51.82482825627148
9.84,1.0,51.70188397414214
9.847999999999999,0.9999999999999998,51.5789016869905
9.856,1.0,51.45588140827154
9.864,0.9999999999999999,51.33282315148505
9.872,1.0,51.209726930178405
9.879999999999999,1.0,51.086592757948864
9.888,1.0,50.9634206484464
9.896,1.0,50.840210615376016
9.904,1.0,50.716962672500216
9.911999999999999,1.0,50.593676833641226
9.92,1.0,50.470353112683334
9.928,1.0,50.34699152357518
9.936,0.9999999999999999,50.22359208033176
9.943999999999999,1.0,50.10015479703652
9.952,1.0,49.976679687843415
9.96,1.0,49.853166766978944
9.968,1.0,49.72961604874395
9.975999999999999,1.0,49.60602754751544
9.984,1.0,49.48240127774845
9.992,0.9999999999999999,49.35873725397775
10.0,1.0,49.2350354908196
10.008,0.9999999999999999,49.1112960029732
10.016,0.9999999999999999,48.98751880522238
10.024000000000001,0.9999999999999999,48.86370391243718
10.032,1.0,48.73985133957528
10.04,1.0,48.61596110168334
10.048,0.9999999999999999,48.49203321389849
10.056000000000001,1.0,48.368067691449646
10.064,1.0,48.244064549658894
10.072,1.0,48.120023803942544
10.08,1.0,47.99594546981246
10.088000000000001,1.0,47.87182956287731
10.096,1.0,47.74767609884361
10.104,1.0,47.62348509351681
10.112,0.9999999999999999,47.499256562802316
10.120000000000001,1.0,47.37499052270674
10.128,1.0,47.25068698933863
10.136,1.0,47.12634597890958
10.144,0.9999999999999999,47.00196750773505
10.152000000000001,1.0,46.87755159223537
10.16,0.9999999999999999,46.75309824893663
10.168,0.9999999999999999,46.6286074944713
