freq,mag,phase
6.0,0.9999961824083671,137.84833283701818
6.008,0.9999954585218541,137.7872883086951
6.016,0.9999947464624779,137.72622178170883
6.024,0.9999940461418791,137.66513323625162
6.032,0.9999933574719106,137.60402265246088
6.04,0.9999926803646394,137.54289001041914
6.048,0.999992014732347,137.48173529015426
6.056,0.999991360487531,137.4205584716394
6.064,0.9999907175429059,137.35935953479304
6.072,0.9999900858114039,137.29813845947905
6.08,0.9999894652061766,137.23689522550683
6.088,0.9999888556405948,137.17562981263123
6.096,0.9999882570282509,137.11434220055267
6.104,0.9999876692829588,137.0530323689172
6.112,0.9999870923187556,136.9917002973165
6.12,0.9999865260499019,136.93034596528807
6.128,0.9999859703908838,136.86896935231508
6.136,0.9999854252564125,136.8075704378266
6.144,0.9999848905614269,136.74614920119757
6.152,0.9999843662210934,136.68470562174886
6.16,0.9999838521508064,136.62323967874735
6.168,0.9999833482661915,136.561751351406
6.176,0.9999828544831035,136.5002406188838
6.184,0.9999823707176305,136.43870746028603
6.192,0.9999818968860916,136.37715185466408
6.2,0.9999814329050399,136.31557378101564
6.208,0.9999809786912635,136.2539732182848
6.216,0.9999805341617852,136.19235014536198
6.224,0.999980099233865,136.13070454108416
6.232,0.9999796738249994,136.06903638423464
6.24,0.9999792578529229,136.00734565354344
6.248,0.9999788512356095,135.94563232768715
6.256,0.9999784538912732,135.88389638528912
6.264,0.9999780657383691,135.82213780491932
6.272,0.999977686695593,135.76035656509467
6.28,0.9999773166818842,135.6985526442788
6.288,0.9999769556164254,135.6367260208824
6.296,0.999976603418644,135.57487667326313
6.304,0.9999762600082122,135.5130045797256
6.312,0.9999759253050479,135.4511097185216
6.32,0.9999755992293178,135.3891920678501
6.328,0.9999752817014343,135.32725160585724
6.336,0.9999749726420603,135.26528831063655
6.344,0.9999746719721072,135.20330216022884
6.352,0.9999743796127372,135.14129313262234
6.36,0.9999740954853641,135.07926120575283
6.368,0.9999738195116529,135.0172063575035
6.376,0.9999735516135226,134.95512856570534
6.384,0.9999732917131455,134.89302780813682
6.392,0.999973039732948,134.83090406252427
6.4,0.9999727955956131,134.76875730654174
6.408,0.9999725592240786,134.70658751781122
6.416,0.9999723305415406,134.64439467390255
6.424,0.999972109471452,134.58217875233362
6.432,0.9999718959375252,134.51993973057037
6.44,0.9999716898637311,134.45767758602688
6.448,0.9999714911743016,134.39539229606535
6.456,0.9999712997937295,134.3330838379963
6.464,0.9999711156467683,134.2707521890786
6.472,0.9999709386584354,134.20839732651942
6.48,0.999970768754011,134.14601922747445
6.4879999999999995,0.9999706058590391,134.08361786904788
6.496,0.9999704498993284,134.0211932282926
6.504,0.9999703008009541,133.95874528220992
6.5120000000000005,0.9999701584902564,133.8962740077501
6.52,0.9999700228938438,133.83377938181212
6.5280000000000005,0.9999698939385914,133.7712613812438
6.536,0.9999697715516441,133.708719982842
6.5440000000000005,0.9999696556604152,133.6461551633524
6.552,0.9999695461925879,133.58356689946993
6.5600000000000005,0.9999694430761165,133.52095516783862
6.568,0.9999693462392267,133.4583199450516
6.5760000000000005,0.9999692556104162,133.39566120765147
6.584,0.9999691711184555,133.33297893213
6.592,0.9999690926923884,133.27027309492857
6.6,0.9999690202615336,133.20754367243794
6.608,0.9999689537554841,133.1447906409984
6.616,0.9999688931041082,133.08201397690004
6.624,0.999968838237552,133.01921365638248
6.632,0.9999687890862362,132.9563896556353
6.64,0.9999687455808612,132.89354195079778
6.648,0.999968707652405,132.83067051795928
6.656,0.999968675232124,132.76777533315902
6.664,0.9999686482515545,132.70485637238642
6.672,0.9999686266425138,132.641913611581
6.68,0.999968610337099,132.57894702663248
6.688,0.9999685992676893,132.51595659338093
6.696,0.9999685933669463,132.4529422876168
6.704,0.9999685925678139,132.38990408508093
6.712,0.9999685968035197,132.32684196146474
6.72,0.9999686060075751,132.2637558924102
6.728,0.9999686201137765,132.20064585351
6.736,0.999968639056206,132.1375118203076
6.744,0.9999686627692304,132.07435376829721
6.752,0.9999686911875043,132.0111716729241
6.76,0.9999687242459684,131.94796550958426
6.768,0.9999687618798518,131.88473525362505
6.776,0.9999688040246717,131.8214808803447
6.784,0.9999688506162341,131.75820236499285
6.792,0.9999689015906346,131.6948996827703
6.8,0.9999689568842578,131.6315728088293
6.808,0.9999690164337812,131.56822171827352
6.816,0.9999690801761717,131.5048463861581
6.824,0.9999691480486882,131.4414467874899
6.832,0.9999692199888822,131.37802289722745
6.84,0.9999692959345978,131.31457469028092
6.848,0.9999693758239732,131.25110214151243
6.856,0.9999694595954395,131.18760522573606
6.864,0.9999695471877229,131.12408391771777
6.872,0.9999696385398449,131.0605381921757
6.88,0.999969733591122,130.99696802378017
6.888,0.9999698322811669,130.9333733871537
6.896,0.9999699345498891,130.8697542568711
6.904,0.9999700403374958,130.8061106074597
6.912,0.9999701495844903,130.74244241339923
6.92,0.9999702622316753,130.67874964912207
6.928,0.999970378220152,130.6150322890132
6.936,0.9999704974913205,130.5512903074103
6.944,0.999970619986881,130.48752367860405
6.952,0.9999707456488329,130.42373237683782
6.96,0.9999708744194771,130.3599163763081
6.968,0.9999710062414159,130.29607565116444
6.976,0.999971141057552,130.23221017550952
6.984,0.9999712788110914,130.16831992339925
6.992,0.9999714194455415,130.10440486884295
7.0,0.9999715629047137,130.0404649858032
7.008,0.9999717091327224,129.97650024819626
7.016,0.999971858073986,129.91251062989178
7.024,0.9999720096732273,129.84849610471326
7.032,0.9999721638754744,129.78445664643783
7.04,0.9999723206260595,129.72039222879653
7.048,0.9999724798706214,129.65630282547428
7.056,0.9999726415551052,129.59218841011003
7.064,0.9999728056257622,129.5280489562968
7.072,0.9999729720291504,129.4638844375818
7.08,0.9999731407121357,129.39969482746662
7.088,0.9999733116218922,129.3354800994071
7.096,0.9999734847059016,129.27124022681352
7.104,0.9999736599119542,129.20697518305076
7.112,0.9999738371881501,129.1426849414383
7.12,0.9999740164828983,129.07836947525035
7.128,0.999974197744918,129.01402875771586
7.136,0.9999743809232384,128.9496627620188
7.144,0.9999745659671992,128.88527146129798
7.152,0.9999747528264523,128.82085482864738
7.16,0.9999749414509598,128.7564128371161
7.168,0.9999751317909961,128.69194545970848
7.176,0.9999753237971474,128.62745266938424
7.184,0.9999755174203133,128.56293443905852
7.192,0.9999757126117057,128.49839074160192
7.2,0.9999759093228499,128.43382154984081
7.208,0.9999761075055849,128.36922683655712
7.216,0.9999763071120639,128.30460657448864
7.224,0.9999765080947538,128.23996073632904
7.232,0.999976710406437,128.17528929472795
7.24,0.9999769140002103,128.1105922222911
7.248,0.9999771188294867,128.0458694915804
7.256,0.999977324847994,127.98112107511402
7.264,0.9999775320097766,127.91634694536643
7.272,0.9999777402691952,127.8515470747686
7.28,0.9999779495809271,127.786721435708
7.288,0.9999781598999669,127.72187000052882
7.296,0.9999783711816257,127.65699274153185
7.304,0.9999785833815338,127.59208963097481
7.312,0.9999787964556379,127.5271606410723
7.32,0.9999790103602041,127.46220574399591
7.328,0.999979225051816,127.39722491187435
7.336,0.9999794404873771,127.33221811679357
7.344,0.9999796566241095,127.26718533079675
7.352,0.9999798734195553,127.20212652588452
7.36,0.9999800908315752,127.13704167401501
7.368,0.9999803088183511,127.07193074710385
7.376,0.9999805273383847,127.00679371702444
7.384,0.9999807463504985,126.94163055560794
7.392,0.9999809658138357,126.87644123464332
7.4,0.9999811856878603,126.81122572587765
7.4079999999999995,0.9999814059323586,126.74598400101597
7.416,0.9999816265074376,126.68071603172149
7.4239999999999995,0.9999818473735269,126.61542178961572
7.432,0.9999820684913779,126.55010124627854
7.4399999999999995,0.9999822898220644,126.48475437324831
7.448,0.9999825113269833,126.41938114202183
7.4559999999999995,0.9999827329678537,126.35398152405472
7.464,0.9999829547067188,126.28855549076128
7.4719999999999995,0.9999831765059445,126.22310301351465
7.48,0.9999833983282204,126.15762406364694
7.4879999999999995,0.9999836201365605,126.09211861244937
7.496,0.9999838418943022,126.02658663117224
7.504,0.9999840635651078,125.96102809102513
7.5120000000000005,0.9999842851129638,125.89544296317699
7.52,0.9999845065021821,125.82983121875627
7.5280000000000005,0.9999847276973983,125.76419282885084
7.536,0.9999849486635747,125.69852776450843
7.5440000000000005,0.9999851693659981,125.63283599673628
7.552,0.9999853897702812,125.56711749650177
7.5600000000000005,0.9999856098423626,125.50137223473197
7.568,0.9999858295485068,125.43560018231422
7.5760000000000005,0.9999860488553048,125.36980131009588
7.584,0.9999862677296737,125.30397558888473
7.5920000000000005,0.9999864861388575,125.23812298944875
7.6,0.9999867040504267,125.17224348251655
7.6080000000000005,0.9999869214322793,125.10633703877714
7.616,0.9999871382526401,125.04040362888041
7.6240000000000006,0.9999873544800613,124.97444322343684
7.632,0.9999875700834233,124.90845579301794
7.640000000000001,0.9999877850319328,124.84244130815608
7.648,0.9999879992951258,124.77639973934485
7.656000000000001,0.9999882128428662,124.71033105703894
7.664,0.9999884256453455,124.64423523165436
7.672,0.9999886376730842,124.57811223356852
7.68,0.9999888488969311,124.51196203312035
7.688,0.9999890592880634,124.44578460061037
7.696,0.999989268817988,124.37957990630085
7.704,0.9999894774585407,124.31334792041581
7.712,0.9999896851818858,124.2470886131413
7.72,0.9999898919605178,124.1808019546253
7.728,0.9999900977672601,124.11448791497794
7.736,0.9999903025752662,124.04814646427167
7.744,0.9999905063580196,123.98177757254113
7.752,0.9999907090893329,123.91538120978365
7.76,0.9999909107433493,123.84895734595884
7.768,0.9999911112945423,123.78250595098912
7.776,0.9999913107177161,123.71602699475972
7.784,0.9999915089880043,123.64952044711866
7.792,0.9999917060808722,123.58298627787694
7.8,0.9999919019721154,123.51642445680868
7.808,0.99999209663786,123.44983495365119
7.816,0.9999922900545644,123.3832177381051
7.824,0.9999924821990166,123.31657277983437
7.832,0.9999926730483368,123.24990004846654
7.84,0.9999928625799762,123.18319951359278
7.848,0.9999930507717174,123.11647114476794
7.856,0.9999932376016752,123.0497149115107
7.864,0.9999934230482955,122.98293078330374
7.872,0.999993607090356,122.91611872959378
7.88,0.9999937897069665,122.8492787197916
7.888,0.9999939708775692,122.78241072327236
7.896,0.9999941505819381,122.71551470937553
7.904,0.9999943288001794,122.64859064740511
7.912,0.9999945055127314,122.58163850662959
7.92,0.9999946807003655,122.51465825628229
7.928,0.9999948543441853,122.4476498655612
7.936,0.999995026425627,122.38061330362932
7.944,0.9999951969264594,122.3135485396146
7.952,0.9999953658287846,122.24645554261016
7.96,0.9999955331150372,122.17933428167434
7.968,0.9999956987679852,122.11218472583082
7.976,0.999995862770729,122.04500684406875
7.984,0.9999960251067034,121.97780060534278
7.992,0.9999961857596752,121.91056597857332
8.0,0.999996344713745,121.84330293264645
8.008,0.9999965019533471,121.77601143641422
8.016,0.9999966574632495,121.70869145869463
8.024000000000001,0.9999968112285531,121.64134296827176
8.032,0.9999969632346931,121.57396593389602
8.04,0.9999971134674381,121.50656032428392
8.048,0.9999972619128906,121.43912610811859
8.056000000000001,0.9999974085574874,121.37166325404957
8.064,0.9999975533879988,121.30417173069314
8.072,0.9999976963915294,121.23665150663224
8.08,0.9999978375555176,121.1691025504167
8.088000000000001,0.999997976867737,121.10152483056332
8.096,0.9999981143162943,121.03391831555598
8.104,0.999998249889631,120.96628297384574
8.112,0.9999983835765232,120.89861877385086
8.120000000000001,0.9999985153660813,120.83092568395712
8.128,0.9999986452477501,120.76320367251776
8.136,0.9999987732113096,120.69545270785359
8.144,0.9999988992468735,120.62767275825317
8.152000000000001,0.9999990233448911,120.5598637919729
8.16,0.9999991454961464,120.49202577723706
8.168,0.9999992656917577,120.424158682238
8.176,0.9999993839231788,120.35626247513619
8.184000000000001,0.9999995001821982,120.2883371240604
8.192,0.9999996144609389,120.22038259710773
8.2,0.9999997267518607,120.15239886234372
8.208,0.9999998370477565,120.08438588780247
8.216000000000001,0.9999999453417558,120.01634364148684
8.224,1.0,119.94827209136838
8.232,0.9999999999999999,119.88017120538757
8.24,1.0,119.81204095145382
8.248000000000001,1.0,119.74388129744571
8.256,0.9999999999999999,119.67569221121101
8.264,1.0,119.60747366056678
8.272,0.9999999999999999,119.5392256132994
8.280000000000001,0.9999999999999999,119.47094803716492
8.288,0.9999999999999998,119.40264089988888
8.296,1.0,119.33430416916663
8.304,1.0,119.26593781266325
8.312,1.0,119.1975417980138
8.32,0.9999999999999999,119.12911609282335
8.328,0.9999999999999998,119.06066066466708
8.336,1.0,118.99217548109046
8.344,1.0,118.9236605096092
8.352,0.9999999999999999,118.85511571770948
8.36,1.0,118.78654107284801
8.368,1.0,118.71793654245212
8.376,0.9999999999999999,118.64930209391989
8.384,1.0,118.5806376946202
8.392,1.0,118.51194331189284
8.4,1.0,118.44321891304864
8.408,1.0,118.37446446536958
8.416,0.9999999999999999,118.30567993610877
8.424,1.0,118.23686529249072
8.432,1.0,118.1680205017113
8.44,1.0,118.09914553093786
8.448,1.0,118.03024034730939
8.456,0.9999999999999999,117.96130491793653
8.464,0.9999999999999999,117.89233920990176
8.472,1.0,117.82334319025932
8.48,1.0,117.75431682603549
8.488,0.9999999999999999,117.68526008422862
8.496,1.0,117.61617293180913
8.504,1.0,117.54705533571976
8.512,1.0,117.4779072628755
8.52,0.9999999999999999,117.40872868016382
8.528,1.0,117.33951955444458
8.536,1.0,117.27027985255029
8.544,0.9999999999999998,117.20100954128611
8.552,0.9999999999999999,117.13170858743
8.56,1.0,117.06237695773265
8.568,1.0,116.99301461891771
8.576,1.0,116.92362153768187
8.584,1.0,116.85419768069482
8.592,1.0,116.78474301459947
8.6,1.0,116.7152575060119
8.608,0.9999999999999999,116.64574112152151
8.616,0.9999999999999999,116.57619382769117
8.624,1.0,116.50661559105708
8.632,1.0,116.43700637812907
8.64,1.0,116.36736615539049
8.648,0.9999999999999999,116.29769488929844
8.656,0.9999999999999999,116.2279925462837
8.664,1.0,116.15825909275094
8.672,0.9999999999999998,116.0884944950786
8.68,0.9999999999999999,116.0186987196192
8.688,0.9999999999999999,115.94887173269912
8.696,1.0,115.87901350061894
8.704,0.9999999999999998,115.80912398965329
8.712,0.9999999999999999,115.73920316605104
8.72,1.0,115.66925099603527
8.728,1.0,115.5992674458034
8.736,0.9999999999999999,115.52925248152718
8.744,0.9999999999999999,115.45920606935282
8.752,1.0,115.38912817540094
8.76,1.0,115.31901876576671
8.768,1.0,115.24887780651986
8.776,1.0,115.17870526370473
8.784,0.9999999999999999,115.10850110334032
8.792,1.0,115.03826529142029
8.8,1.0,114.96799779391306
8.808,0.9999999999999999,114.89769857676184
8.815999999999999,1.0,114.8273676058847
8.824,1.0,114.7570048471744
8.832,1.0,114.68661026649872
8.84,1.0,114.61618382970032
8.847999999999999,1.0,114.54572550259674
8.856,1.0,114.47523525098053
8.864,1.0,114.40471304061924
8.872,0.9999999999999999,114.33415883725536
8.879999999999999,0.9999999999999999,114.26357260660647
8.888,1.0,114.19295431436514
8.896,0.9999999999999999,114.12230392619904
8.904,1.0,114.05162140775087
8.911999999999999,0.9999999999999999,113.98090672463842
8.92,0.9999999999999999,113.9101598424545
8.928,1.0,113.8393807267671
8.936,0.9999999999999999,113.76856934311922
8.943999999999999,1.0,113.69772565702897
8.952,1.0,113.62684963398948
8.96,1.0,113.555941239469
8.968,0.9999999999999999,113.48500043891083
8.975999999999999,1.0,113.41402719773328
8.984,1.0,113.34302148132966
8.992,0.9999999999999999,113.27198325506832
9.0,1.0,113.2009124842926
9.008,1.0,113.1298091343207
9.016,1.0,113.0586731704458
9.024000000000001,1.0,112.98750455793595
9.032,1.0,112.91630326203405
9.04,0.9999999999999999,112.84506924795778
9.048,1.0,112.77380248089956
9.056000000000001,1.0,112.70250292602657
9.064,1.0,112.63117054848063
9.072,1.0,112.5598053133781
9.08,1.0,112.48840718580993
9.088000000000001,0.9999999999999998,112.41697613084152
9.096,1.0,112.34551211351274
9.104,1.0,112.27401509883768
9.112,1.0,112.20248505180477
9.120000000000001,0.9999999966704038,112.13092193737657
9.128,0.9999999167862813,112.05932572048981
9.136,0.9999998363434182,111.9876963660551
9.144,0.9999997553733208,111.91603383895703
9.152000000000001,0.9999996739077943,111.84433810405403
9.16,0.9999995919789425,111.77260912617817
9.168,0.9999995096191647,111.70084687013515
9.176,0.9999994268611544,111.62905130070416
9.184000000000001,0.9999993437378968,111.55722238263776
9.192,0.9999992602826671,111.48536008066178
9.2,0.9999991765290278,111.41346435947511
9.208,0.9999990925108273,111.34153518374973
9.216000000000001,0.999999008262197,111.26957251813037
9.224,0.9999989238175481,111.19757632723457
9.232,0.999998839211571,111.12554657565241
9.24,0.9999987544792305,111.05348322794636
9.248000000000001,0.9999986696557648,110.98138624865115
9.256,0.999998584776681,110.90925560227367
9.264,0.9999984998777538,110.83709125329273
9.272,0.9999984149950213,110.7648931661588
9.280000000000001,0.9999983301647818,110.69266130529405
9.288,0.9999982454235912,110.62039563509205
9.296,0.9999981608082585,110.54809611991752
9.304,0.9999980763558437,110.47576272410616
9.312000000000001,0.9999979921036528,110.40339541196464
9.32,0.9999979080892338,110.33099414777008
9.328,0.999997824350374,110.25855889577014
9.336,0.9999977409250946,110.1860896201825
9.344,0.9999976578516473,110.11358628519494
9.352,0.9999975751685091,110.04104885496494
9.36,0.9999974929143778,109.96847729361946
9.368,0.9999974111281675,109.89587156525467
9.376,0.9999973298490042,109.82323163393589
9.384,0.9999972491162186,109.75055746369704
9.392,0.9999971689693431,109.67784901854066
9.4,0.999997089448105,109.60510626243747
9.408,0.999997010592421,109.53232915932621
9.416,0.9999969324423909,109.45951767311328
9.424,0.9999968550382923,109.38667176767251
9.432,0.999996778420574,109.31379140684484
9.44,0.9999967026298485,109.24087655443812
9.448,0.9999966277068859,109.16792717422665
9.456,0.9999965536926076,109.09494322995103
9.464,0.999996480628077,109.02192468531776
9.472,0.9999964085544941,108.948871503999
9.48,0.9999963375131865,108.87578364963215
9.488,0.9999962675456009,108.80266108581964
9.496,0.9999961986932959,108.72950377612848
9.504,0.9999961309979327,108.65631168409008
9.512,0.9999960645012664,108.58308477319974
9.52,0.9999959992451363,108.50982300691643
9.528,0.9999959352714568,108.43652634866238
9.536,0.9999958726222071,108.36319476182275
9.544,0.9999958113394217,108.28982820974524
9.552,0.9999957514651792,108.21642665573982
9.56,0.9999956930415919,108.1429900630782
9.568,0.9999956361107938,108.06951839499368
9.576,0.9999955807149298,107.99601161468055
9.584,0.9999955268961436,107.9224696852939
9.592,0.9999954746965648,107.8488925699491
9.6,0.9999954241582965,107.77528023172152
9.608,0.999995375323402,107.70163263364608
9.616,0.9999953282338921,107.62794973871695
9.624,0.9999952829317087,107.554231509887
9.632,0.9999952394587126,107.48047791006765
9.64,0.9999951978566687,107.40668890212822
9.648,0.9999951581672282,107.33286444889578
9.656,0.9999951204319152,107.25900451315455
9.664,0.9999950846921098,107.18510905764569
9.672,0.9999950509890294,107.11117804506678
9.68,0.9999950193637143,107.03721143807157
9.688,0.9999949898570071,106.96320919926937
9.696,0.9999949625095365,106.88917129122498
9.704,0.9999949373616965,106.81509767645802
9.712,0.9999949144536276,106.7409883174428
9.72,0.9999948938251978,106.6668431766077
9.728,0.999994875515979,106.5926622163351
9.736,0.9999948595652286,106.51844539896072
9.744,0.9999948460118664,106.44419268677359
9.752,0.999994834894452,106.36990404201538
9.76,0.9999948262511611,106.29557942688037
