freq,mag,phase
6.0,1.0001431102720628,-107.82471969296802
6.002674688,1.0001044021942354,-107.97222585925503
6.005349376,1.0000585838934835,-108.11913771097339
6.008024064,1.0000091161569165,-108.26532219133436
6.010698752,0.999958925648434,-108.41085905861917
6.01337344,0.9999114184421004,-108.55565888314257
6.016048128,0.9998695891723163,-108.69986147429204
6.018722816,0.9998358799164706,-108.84350794689327
6.021397504,0.9998124555347119,-108.98673755494116
6.024072192,0.999800859174021,-109.12970660146877
6.02674688,0.9998017751784873,-109.27264255827596
6.029421568,0.9998152309818268,-109.41567973742791
6.032096256,0.9998402790896211,-109.55903618884112
6.034770944,0.9998755853747439,-109.70278137892157
6.037445632,0.9999186616888897,-109.84712221256399
6.04012032,0.9999669241290083,-109.99212619814168
6.042795008,1.0000175020169053,-110.13788498684616
6.045469696,1.0000669782228353,-110.28434545802253
6.048144384,1.0001123921581867,-110.43150854709948
6.050819072,1.0001508496895821,-110.57931902223719
6.05349376,1.0001800330102877,-110.72759024388672
6.056168448,1.0001980234001608,-110.87621161632501
6.058843136,1.0002036500806821,-111.0250549930213
6.061517824,1.000196429963909,-111.17386183662921
6.064192512,1.0001771423368453,-111.32250039767956
6.0668672,1.0001467267847022,-111.47076273255698
6.069541888,1.000107174445618,-111.6185514576633
6.072216576,1.000060946032312,-111.76572739062537
6.074891264,1.000010922653281,-111.91223159004163
6.077565952,0.9999601764110183,-112.05803185953694
6.08024064,0.9999119101823539,-112.20312234004322
6.082915328,0.999869275633464,-112.34752417815433
6.085590016,0.9998348004297528,-112.49137511119429
6.088264704,0.9998107435214332,-112.63483325092963
6.090939392,0.9997985675842678,-112.77807526713005
6.09361408,0.9997990754526832,-112.92116580103844
6.096288768,0.9998123276671538,-113.06442503537744
6.098963456,0.999837407314246,-113.20793090825747
6.101638144,0.9998726771016995,-113.35187118371452
6.104312832,0.9999161577255992,-113.49643643112164
6.10698752,0.9999649154589191,-113.64165484459772
6.109662208,1.000015936332547,-113.78757901326166
6.112336896,1.000066228472416,-113.93426484658174
6.115011584,1.0001123716097988,-114.08168027789262
6.117686272,1.0001517500453954,-114.22970702812734
6.12036096,1.0001814606139465,-114.37822785604983
6.123035648,1.0002000364516777,-114.52712111574989
6.125710336,1.0002061113498535,-114.67619146222326
6.128385024,1.0001994369084837,-114.82528154877674
6.131059712,1.0001803447454967,-114.97418780136209
6.1337344,1.0001498896908003,-115.12273502075357
6.136409088,1.0001101078150085,-115.27081432794027
6.139083776,1.0000634053692856,-115.41826714993334
6.141758464,1.0000128415958345,-115.56501506082134
6.144433152,0.9999614458985265,-115.711038866105
6.14710784,0.9999124508278368,-115.85634978653238
6.149782528,0.9998689475217232,-116.001018163929
6.152457216,0.9998337520178591,-116.14507118687463
6.155131904,0.9998090421164652,-116.28873741821224
6.157806592,0.9997962271579494,-116.4321432631359
6.16048128,0.9997964458656957,-116.57544182850113
6.163155968,0.9998093483747196,-116.71886370745172
6.165830656,0.9998343123919486,-116.86256644227082
6.168505344,0.9998697826782519,-117.00669763501682
6.171180032,0.9999134730146519,-117.15141841155027
6.17385472,0.9999627640969305,-117.29682118090382
6.176529408,1.0000144864915412,-117.4429224526544
6.179204096,1.0000653511537478,-117.58981556682693
6.181878784,1.000112342930043,-117.73741832019512
6.184553472,1.0001523253472444,-117.88568256755458
6.18722816,1.0001829757937453,-118.03440354348936
6.189902848,1.0002022603886538,-118.18357905779567
6.192577536,1.0002088036509642,-118.33289689629119
6.195252224,1.0002024165882153,-118.4822343080817
6.197926912,1.0001833815030288,-118.63138513134477
6.2006016,1.0001529672791376,-118.7801789491619
6.203276288,1.000113031295197,-118.92850879823845
6.205950976,1.0000659926735898,-119.07620700801913
6.208625664,1.0000147825553172,-119.223180935212
6.211300352,0.9999627153861662,-119.36946041855194
6.21397504,0.9999129847946053,-119.51497734454797
6.216649728,0.9998687382418922,-119.65985149713035
6.219324416,0.9998327586584265,-119.80410723734954
6.221999104,0.9998072320866558,-119.94796064372483
6.224673792,0.9997940102767384,-120.09152839354721
6.22734848,0.999793624546848,-120.23500451742906
6.230023168,0.999806290386324,-120.37856876775967
6.232697856,0.9998311380334732,-120.52246030735397
6.235372544,0.9998667543035613,-120.66672820876353
6.238047232,0.9999107659593354,-120.81160260039955
6.24072192,0.9999605653512618,-120.95716908558067
6.243396608,1.00001287364927,-121.10346273560624
6.246071296,1.0000644625375685,-121.25055098566423
6.248745984,1.000112298866963,-121.39833678293492
6.251421184,1.0001530463629293,-121.54678307407744
6.254095872,1.0001844214970024,-121.69574514367261
6.25677056,1.0002043292774747,-121.8450801086715
6.259445248,1.0002115329639645,-121.99466305636079
6.262119936,1.0002055184006953,-122.14422606747084
6.264794624,1.0001867253610843,-122.29363082719144
6.267469312,1.0001561812248054,-122.44264762160101
6.270144,1.0001159882493518,-122.5912159074388
6.272818688,1.0000685272638021,-122.73912918869433
6.275493376,1.000016805908554,-122.88637041044281
6.278168064,0.9999640784370621,-123.03282992155356
6.280842752,0.999913602831056,-123.17856663203446
6.28351744,0.9998684869572965,-123.32359863851397
6.286192128,0.9998317514438257,-123.46806441458719
6.288866816,0.9998056160208791,-123.61206653642026
6.291541504,0.9997916599615073,-123.75582194110974
6.294216192,0.9997908306063031,-123.89940375680735
6.29689088,0.9998032073306145,-124.04314541326534
6.299565568,0.9998280138019713,-124.18712682161396
6.302240256,0.9998637403486896,-124.33157753712258
6.304914944,0.9999080233505939,-124.4765808513122
6.307589632,0.9999582342598758,-124.62228229083185
6.31026432,1.000011215104304,-124.76874706020129
6.312939008,1.0000635732585708,-124.91595630531137
6.315613696,1.00011218730359,-125.06391556132048
6.318288384,1.0001538142896318,-125.21254528089139
6.320963072,1.0001858510422388,-125.36172039726438
6.32363776,1.0002064274955997,-125.5112488256617
6.326312448,1.0002141407160254,-125.66103248271386
6.328987136,1.0002085129419072,-125.81082149118922
6.331661824,1.0001899217730617,-125.96042583107253
6.334336512,1.0001594823797793,-126.1097159246056
6.3370112,1.0001190803704867,-126.25845611131625
6.339685888,1.0000711733784218,-126.40661266573527
6.342360576,1.0000188541697994,-126.55405083130168
6.345035264,0.999965532756916,-126.70071734535752
6.347709952,0.9999142399137195,-126.84661973023407
6.35038464,0.999868310014392,-126.9918661445918
6.353059328,0.9998308395878946,-127.13647544177509
6.355734016,0.9998038757980967,-127.28062225102097
6.358408704,0.9997892936574388,-127.42447605687474
6.361083392,0.9997880752574891,-127.5682373516106
6.36375808,0.9998000632928362,-127.71208040594259
6.366432768,0.9998248020422937,-127.85619423812274
6.369107456,0.999860488256108,-128.00073891136043
6.371782144,0.9999052102751048,-128.14585995143705
6.374456832,0.9999558935671099,-128.29168377920854
6.37713152,1.0000094816198912,-128.43827777396234
6.379806208,1.00006260655419,-128.5856385470395
6.382480896,1.0001120032456723,-128.7337775142126
6.385155584,1.000154389812492,-128.882559821568
6.387830272,1.0001872660207474,-129.03189874179128
6.39050496,1.0002085041911544,-129.18163371768503
6.393179648,1.0002167814824707,-129.33158844215117
6.395854336,1.0002115597542474,-129.48157984234058
6.398529024,1.000193200725879,-129.63137201094895
6.401203712,1.0001627236875033,-129.7808464227254
6.4038784,1.0001220856546713,-129.92983787557935
6.406553088,1.000073853977847,-130.0781758265281
6.409227776,1.0000210337690625,-130.22577276096013
6.411902464,0.9999668939694463,-130.37261088050576
6.414577152,0.9999148159859558,-130.51870969985796
6.41725184,0.9998682366742482,-130.66407969305612
6.419926528,0.9998298446032118,-130.80882062210821
6.422601216,0.9998021222063905,-130.95310970170183
6.425275904,0.9997869786469722,-131.09709858240518
6.427950592,0.999785173188708,-131.24096970645653
6.43062528,0.9997969086539013,-131.38490294825166
6.433299968,0.9998214331040822,-131.52913269301968
6.435974656,0.999857366485003,-131.6737632679296
6.438649344,0.9999022745892708,-131.81900519605963
6.441324032,0.9999534828030265,-131.96496068744472
6.44399872,1.0000077699054373,-132.1116568965904
6.446673408,1.000061595364686,-132.259158242204
6.449348096,1.000111753936523,-132.40738947564358
6.452022784,1.0001550021543468,-132.55631107996442
6.454697472,1.000188706349348,-132.70578787741647
6.45737216,1.0002107042355837,-132.8557019034954
6.460046848,1.000219494940347,-133.00585336657997
6.462721536,1.0002147037655682,-133.15599967626605
6.465396224,1.000196405148047,-133.3060031818704
6.468070912,1.0001660232349894,-133.45567032867888
6.4707456,1.0001251970783265,-133.60481184305942
6.473420288,1.0000765578023942,-133.7533087232307
6.476094976,1.000023158161804,-133.90110119834006
6.478769664,0.9999683456810264,-134.04809169335414
6.481444352,0.9999155397812757,-134.19433283961166
6.48411904,0.9998680078993534,-134.33984132904277
6.486793728,0.9998288371991514,-134.48472846260907
6.489468416,0.9998003731273946,-134.6291324695116
6.492143104,0.9997845655045876,-134.7731756572786
6.494817792,0.9997822856593239,-134.9171627023226
6.49749248,0.9997937384160137,-135.06118768635108
6.500167168,0.9998182262102913,-135.20547034869497
6.502841856,0.9998541603278899,-135.3502021369456
6.505516544,0.999899429433497,-135.49551526787317
6.508191232,0.9999510598577372,-135.64153646852714
6.51086592,1.0000060399803299,-135.78831452028095
6.513540608,1.0000605731869021,-135.93592244846064
6.516215296,1.0001116319392305,-136.08429705534726
6.518889984,1.0001557025449295,-136.2333461891664
6.521564672,1.0001901737390526,-136.38295927399835
6.52423936,1.0002128309593294,-136.5330170720442
6.526914048,1.000222240612218,-136.68332309932268
6.529588736,1.0002179140396867,-136.8336268441343
6.532263424,1.0001998916165826,-136.98379292116613
6.534938112,1.0001694516167678,-137.1336179743929
6.5376128,1.0001284948741376,-137.282937405199
6.540287488,1.00007942937917,-137.43162760640226
6.542962176,1.0000255592517842,-137.57955142407562
6.545636864,0.9999699795463233,-137.72670314475445
6.548311552,0.9999163443164999,-137.87303972565456
6.55098624,0.9998680126740829,-138.01866192915068
6.553660928,0.999827971758454,-138.16365770682577
6.556335616,0.9997987886919755,-138.30814134826576
6.559010304,0.9997822221437724,-138.452320496346
6.561684992,0.9997794442486291,-138.59633385923175
6.56435968,0.9997905497049816,-138.74046399299718
6.567034368,0.9998149609169292,-138.88477588899966
6.569709056,0.9998510061809158,-139.02956933324634
6.572383744,0.9998965552118313,-139.174975227338
6.575058432,0.9999486760516115,-139.3210444803447
6.57773312,1.0000041892132079,-139.46788898242193
6.580407808,1.000059673002232,-139.61555585673486
6.583082496,1.0001114489441991,-139.76402768963095
6.585757184,1.0001563851863828,-139.91320420188416
6.588431872,1.0001916243129088,-140.0629298284495
6.59110656,1.0002151128374794,-140.2131216042158
6.593781248,1.0002251473818284,-140.363533427117
6.596455936,1.0002211316861436,-140.51400122029833
6.599130624,1.0002034204507741,-140.66434114919787
6.601805312,1.000173027501734,-140.81428259270885
6.60448,1.0001317850397584,-140.9637748391436
6.607154688,1.0000823763715327,-141.11256889928976
6.609829376,1.000027843425984,-141.26064718920364
6.612504064,0.9999716232351294,-141.40789049907062
6.615178752,0.9999171994608486,-141.55435940108154
6.61785344,0.9998679710690118,-141.70008630454717
6.620528128,0.9998271023137695,-141.8451689685458
6.623202816,0.9997971205317736,-141.98973469827627
6.625877504,0.9997799227617971,-142.13397976844803
6.628552192,0.9997766119364787,-142.27803239613493
6.63122688,0.999787375942755,-142.42216844614384
6.633901568,0.9998116335942204,-142.5665675464731
6.636576256,0.9998477025209745,-142.71141598448682
6.639250944,0.9998935608760217,-142.8567990910659
6.641925632,0.9999462556445469,-143.0029377836053
6.64460032,1.0000023603351769,-143.14988321871473
6.647275008,1.0000585262405293,-143.2976147896537
6.649949696,1.000111190329913,-143.44614743103318
6.652624384,1.000156995451999,-143.5954134552875
6.655299072,1.0001931141151512,-143.74524721010252
6.65797376,1.0002172444717279,-143.89551649823983
6.660648448,1.0002278832024172,-144.0460488450286
6.663323136,1.0002243912235416,-144.19664240918397
6.665997824,1.000206847766009,-144.34707639415083
6.668672512,1.00017652475307,-144.49717196997645
6.6713472,1.0001350842258399,-144.64676251673654
6.674021888,1.0000852345965667,-144.7957113512459
6.676696576,1.0000301275081744,-144.94390726519822
6.679371264,0.9999732082557083,-145.09128296453
6.682045952,0.9999179772191402,-145.2378174554581
6.68472064,0.9998678746408722,-145.38363066638985
6.687395328,0.999826165293248,-145.52876647209823
6.690070016,0.999795370881246,-145.67339049499475
6.692744704,0.9997774511540873,-145.81764389460503
6.695419392,0.9997735531832352,-145.96177443092066
6.69809408,0.9997840145249015,-146.1059305030019
6.700768768,0.9998081069639638,-146.2503293963387
6.703443456,0.9998443640619652,-146.3951878992163
6.706118144,0.9998905077388324,-146.54061769575102
6.708792832,0.9999436100540385,-146.68679642280983
6.71146752,1.0000003893440617,-146.833762446388
6.714142208,1.0000573517298197,-146.98153158053506
6.716816896,1.0001107858987224,-147.13009728018577
6.719491584,1.0001575170421586,-147.27942631457
6.722166272,1.0001945473588914,-147.42934418642338
6.72484096,1.0002193871618927,-147.57970601907158
6.727515648,1.0002306207476113,-147.73035178738832
6.730190336,1.0002275314982354,-147.8810558632479
6.732865024,1.000210296053223,-148.0316104115311
6.735539712,1.0001800005516583,-148.1818170698697
6.7382144,1.000138373174738,-148.33150477742086
6.740889088,1.0000881396193944,-148.4805815872113
6.743563776,1.0000324641073888,-148.62882577728837
6.746238464,0.999974807208823,-148.77628491810503
6.748913152,0.9999187019371037,-148.92293890538153
6.751588352,0.9998677909470735,-149.0688012560565
6.75426304,0.9998251423776641,-149.21397893728283
6.756937728,0.9997935724535407,-149.35862351770365
6.759612416,0.999774969325935,-149.50292407279244
6.762287104,0.9997705436288765,-149.64703682141933
6.764961792,0.999780647261051,-149.79121814364305
6.76763648,0.9998045806735154,-149.93560097941577
6.770311168,0.9998408548117341,-150.0804612788381
6.772985856,0.9998872848791464,-150.22589593377387
6.775660544,0.9999408931694591,-150.37207094448507
6.778335232,0.9999983704168628,-150.51906577977917
6.78100992,1.0000561132076555,-150.66685395563385
6.783684608,1.0001104447786353,-150.8154812884762
6.786359296,1.0001580119423477,-150.96484374448724
6.789033984,1.0001957957276468,-151.1148310230276
6.791708672,1.000221511462334,-151.26526300847434
6.79438336,1.0002334789301355,-151.41598677380844
6.797058048,1.0002308080880147,-151.56677101913832
6.799732736,1.0002138212772,-151.71738105186114
6.802407424,1.0001834996636152,-151.86770221848255
6.805082112,1.0001417602720832,-152.0175014457329
6.8077568,1.00009115267999,-152.16662472008628
6.810431488,1.0000348939075867,-152.31498746568056
6.813106176,0.999976477561252,-152.46250798919894
6.815780864,0.9999195635648381,-152.60917899815743
6.818455552,0.999867707039915,-152.75510704460774
6.82113024,0.9998242284880786,-152.90032009331105
6.823804928,0.9997917703454581,-153.04498904487235
6.826479616,0.999772539289986,-153.1892831840207
6.829154304,0.9997675852043219,-153.333399447675
6.831828992,0.9997773534745533,-153.47754642262254
6.83450368,0.9998010216144659,-153.62195252709225
6.837178368,0.999837428229616,-153.76678258458978
6.839853056,0.9998841579832273,-153.91217363651182
6.842527744,0.9999383034095455,-154.05834841666962
6.845202432,0.9999964402758477,-154.20531483042222
6.84787712,1.000054905839255,-154.3531273159295
6.850551808,1.000110105103677,-154.50177216713232
6.853226496,1.0001586539692218,-154.65116428982208
6.855901184,1.0001973213995239,-154.80117616393298
6.858575872,1.000223778776164,-154.951665615828
6.86125056,1.000236306345877,-155.1024297900027
6.863925248,1.0002341125760135,-155.25327739278637
6.866599936,1.0002174449493761,-155.40403079496244
6.869274624,1.0001870973302083,-155.5543979056663
6.871949312,1.0001452275434104,-155.70424640160772
6.874624,1.0000942595278806,-155.85343883505251
6.877298688,1.0000373907315143,-156.00185099328712
6.879973376,0.9999782472325267,-156.149450255988
6.882648064,0.9999204814893643,-156.2961466598498
6.885322752,0.9998676571460867,-156.44208841255144
6.88799744,0.999823340553916,-156.58731310844718
6.890672128,0.9997900380977236,-156.73198986244296
6.893346816,0.9997700162013092,-156.87627046503403
6.896021504,0.9997645227650385,-157.0203505028338
6.898696192,0.9997738864057149,-157.16446668772568
6.90137088,0.9997974879778305,-157.30883180783024
6.904045568,0.9998338603771378,-157.45361200614346
6.906720256,0.9998808740583279,-157.59900774883496
6.909394944,0.999935516863856,-157.74514193568606
6.912069632,0.9999942833930553,-157.8920940020494
6.91474432,1.000053576364031,-158.03986931489447
6.917419008,1.0001096563227987,-158.18849599667675
6.920093696,1.000159116519983,-158.3378832765173
6.922768384,1.000198655177914,-158.4879342206166
6.925443072,1.0002259035815166,-158.63846160651363
6.92811776,1.0002390880259808,-158.78927174444308
6.930792448,1.0002374770635938,-158.94019219967245
6.933467136,1.0002210858692788,-159.09094378214218
6.936141824,1.0001908179743355,-159.24138454084422
6.938816512,1.0001486674882651,-159.39130845155276
6.9414912,1.0000973097500407,-159.54053452499977
6.944165888,1.0000398635924228,-159.68900307017
6.946840576,0.9999799850515492,-159.83659669426555
6.949515264,0.9999213079434387,-159.98333568617275
6.952189952,0.9998677471520759,-160.12929475101393
6.95486464,0.9998224745254528,-160.27450535464553
6.957539328,0.9997883869654777,-160.41915454261633
6.960214016,0.999767548675258,-160.56339389646024
6.962888704,0.9997614940717613,-160.70741332400198
6.965563392,0.9997704779675177,-160.85150408830094
6.96823808,0.9997938537167297,-160.9958011903153
6.970912768,0.9998303673462399,-161.1405142413789
6.973587456,0.999877642891019,-161.28585806209293
6.976262144,0.9999326971703497,-161.431944480722
6.978936832,0.9999922377743156,-161.57884653661426
6.98161152,1.0000522779859018,-161.72660960552463
6.984286208,1.0001093798942073,-161.87520891404046
6.986960896,1.0001596084323108,-162.0245982523447
6.989635584,1.000200111181372,-162.1746176295265
6.992310272,1.000228150821034,-162.32516166239904
6.99498496,1.000242029510481,-162.47600262918323
6.997659648,1.0002409386105684,-162.62693774806635
7.000334336,1.0002247292796287,-162.7777396090268
7.003009024,1.0001945646905293,-162.92821899434583
7.005683712,1.000152198676117,-163.07817364962384
7.0083584,1.000100457773671,-163.22741400767075
7.011033088,1.0000424030696249,-163.37591191543987
7.013707776,0.999981747885625,-163.52352204305427
7.016382464,0.9999222959742472,-163.6702926992079
7.019057152,0.9998677327375131,-163.81622157947876
7.02173184,0.9998214710154072,-163.96139567792775
7.024406528,0.9997865648710123,-164.10601288340413
7.027081216,0.9997650101743691,-164.25018956465462
7.029755904,0.9997583559402606,-164.39418775275746
7.032430592,0.9997668018363838,-164.53818621788724
7.03510528,0.9997901502738146,-164.68238874371463
7.037779968,0.9998266906971167,-164.82702643286882
7.040454656,0.9998742864723382,-164.97229937268514
7.043129344,0.9999298832736407,-165.118295355516
7.045804032,0.99999005351582,-165.26513512917364
7.04847872,1.0000509622337441,-165.4128326839799
7.051153408,1.000108835585895,-165.56140514669707
7.053828096,1.000160078195124,-165.71076348157544
7.056502784,1.000201513595511,-165.86079194225462
7.059177472,1.0002303304034814,-166.01133038646583
