freq,mag,phase
6.0,0.9999963065313976,60.23868064538573
6.008,0.9999957310761326,60.06546748689976
6.016,0.9999951587048664,59.89221234082306
6.024,0.9999945895372399,59.718915250473934
6.032,0.9999940236906518,59.54557625945054
6.04,0.9999934612802693,59.37219541163141
6.048,0.9999929024190398,59.19877275117596
6.056,0.9999923472177009,59.02530832252499
6.064,0.9999917957847931,58.851802170401214
6.072,0.9999912482266687,58.67825433980972
6.08,0.9999907046475057,58.50466487603852
6.088,0.9999901651493169,58.33103382465896
6.096,0.9999896298319619,58.15736123152631
6.104,0.9999890987931589,57.983647142780114
6.112,0.9999885721284965,57.80989160484478
6.12,0.9999880499314425,57.63609466442995
6.128,0.9999875322933602,57.46225636853103
6.136,0.9999870193035145,57.28837676442954
6.144,0.9999865110490882,57.11445589969375
6.152,0.9999860076151905,56.9404938221789
6.16,0.9999855090848695,56.7664905800278
6.168,0.9999850155391254,56.592446221671175
6.176,0.9999845270569203,56.418360795828114
6.184,0.9999840437151913,56.2442343515065
6.192,0.9999835655888616,56.07006693800339
6.2,0.9999830927508527,55.895858604905484
6.208,0.9999826252720968,55.72160940208939
6.216,0.9999821632215489,55.547319379722225
6.224,0.9999817066661967,55.37298858826179
6.232,0.999981255671076,55.19861707845709
6.24,0.9999808102992805,55.024204901348654
6.248,0.999980370611975,54.84975210826895
6.256,0.9999799366684069,54.67525875084265
6.264,0.9999795085259191,54.50072488098715
6.272,0.9999790862399621,54.32615055091271
6.28,0.9999786698641067,54.151535813123004
6.288,0.9999782594500545,53.976880720415316
6.296,0.9999778550476535,53.80218532588097
6.304,0.9999774567049076,53.627449682905535
6.312,0.9999770644679916,53.4526738451693
6.32,0.9999766783812613,53.27785786664745
6.328,0.9999762984872678,53.10300180161046
6.336,0.9999759248267693,52.92810570462439
6.344,0.9999755574387444,52.753169630551085
6.352,0.999975196360404,52.578193634548605
6.36,0.9999748416272044,52.40317777207137
6.368,0.9999744932728606,52.228122098870585
6.376,0.9999741513293581,52.05302667099436
6.384,0.9999738158269659,51.87789154478805
6.392,0.9999734867942501,51.70271677689454
6.4,0.9999731642580869,51.52750242425439
6.408,0.999972848243673,51.35224854410624
6.416,0.9999725387745427,51.17695519398683
6.424,0.9999722358725779,51.001622431731455
6.432,0.9999719395580215,50.82625031547402
6.44,0.9999716498494915,50.65083890364738
6.448,0.9999713667639932,50.47538825498343
6.456,0.9999710903169327,50.29989842851344
6.464,0.99997082052213,50.12436948356812
6.472,0.9999705573918324,49.94880147977795
6.48,0.9999703009367273,49.77319447707322
6.4879999999999995,0.9999700511659552,49.59754853568436
6.496,0.9999698080871243,49.42186371614193
6.504,0.9999695717063222,49.24614007927702
6.5120000000000005,0.9999693420281298,49.07037768622112
6.52,0.999969119055636,48.89457659840659
6.5280000000000005,0.9999689027904486,48.71873687756648
6.536,0.9999686932327093,48.542858585735004
6.5440000000000005,0.9999684903811075,48.36694178524729
6.552,0.9999682942328925,48.19098653873998
6.5600000000000005,0.9999681047838875,48.014992909150784
6.568,0.9999679220285044,47.838960959719145
6.5760000000000005,0.9999677459597541,47.6628907539859
6.584,0.9999675765692646,47.486782355793686
6.592,0.9999674138472902,47.31063582928685
6.6,0.9999672577827281,47.134451238911616
6.608,0.9999671083631305,46.95822864941612
6.616,0.9999669655747191,46.78196812585051
6.624,0.9999668294023987,46.60566973356705
6.632,0.9999666998297698,46.429333538220014
6.64,0.9999665768391446,46.25295960576598
6.648,0.9999664604115579,46.07654800246366
6.656,0.999966350526783,45.90009879487403
6.664,0.9999662471633451,45.72361204986039
6.672,0.9999661502985343,45.54708783458832
6.68,0.9999660599084202,45.370526216525704
6.688,0.9999659759678658,45.19392726344278
6.696,0.9999658984505405,45.01729104341213
6.704,0.9999658273289351,44.840617624808665
6.712,0.9999657625743754,44.663907076309584
6.72,0.9999657041570348,44.48715946689442
6.728,0.9999656520459503,44.310374865844956
6.736,0.9999656062090356,44.13355334274527
6.744,0.9999655666130941,43.95669496748155
6.752,0.9999655332238346,43.779799810242224
6.76,0.9999655060058846,43.60286794151779
6.768,0.9999654849228029,43.4258994321008
6.776,0.9999654699370962,43.24889435308576
6.784,0.9999654610102314,43.07185277586912
6.792,0.99996545810265,42.894774772149106
6.8,0.9999654611737822,42.717660413925714
6.808,0.9999654701820615,42.540509773500574
6.816,0.9999654850849379,42.36332292347681
6.824,0.9999655058388925,42.18609993675906
6.832,0.9999655323994514,42.00884088655317
6.84,0.9999655647212008,41.831545846366296
6.848,0.9999656027577989,41.654214890006536
6.856,0.9999656464619927,41.47684809158298
6.864,0.9999656957856304,41.29944552550548
6.872,0.999965750679676,41.122007266484516
6.88,0.9999658110942236,40.944533389531045
6.888,0.9999658769785111,40.767023969956306
6.896,0.9999659482809357,40.58947908337172
6.904,0.9999660249490658,40.4118988056886
6.912,0.999966106929658,40.23428321311809
6.92,0.9999661941686688,40.05663238217086
6.928,0.99996628661127,39.878946389656996
6.936,0.9999663842018633,39.7012253126857
6.944,0.9999664868840932,39.52346922866519
6.952,0.9999665946008619,39.345678215302385
6.96,0.9999667072943448,39.16785235060271
6.968,0.9999668249060021,38.98999171286987
6.976,0.999966947376595,38.81209638070558
6.984,0.9999670746461992,38.63416643300937
6.992,0.999967206654219,38.45620194897828
7.0,0.9999673433394027,38.27820300810658
7.008,0.9999674846398546,38.10016969018556
7.016,0.9999676304930515,37.92210207530322
7.024,0.9999677808358552,37.74400024384401
7.032,0.9999679356045279,37.565864276488476
7.04,0.9999680947347456,37.387694254213045
7.048,0.9999682581616134,37.20949025828963
7.056,0.9999684258196778,37.031252370285415
7.064,0.9999685976429429,36.85298067206248
7.072,0.9999687735648836,36.67467524577746
7.08,0.9999689535184596,36.496336173881275
7.088,0.9999691374361309,36.31796353911869
7.096,0.9999693252498701,36.13955742452811
7.104,0.9999695168911775,35.96111791344108
7.112,0.9999697122910959,35.78264508948202
7.12,0.999969911380224,35.60413903656782
7.128,0.9999701140887302,35.425599838907445
7.136,0.9999703203463678,35.247027581001674
7.144,0.9999705300824886,35.0684223476425
7.152,0.9999707432260567,34.88978422391294
7.16,0.9999709597056632,34.711113295186514
7.168,0.9999711794495396,34.532409647126876
7.176,0.9999714023855734,34.35367336568737
7.184,0.9999716284413198,34.17490453711067
7.192,0.9999718575440184,33.99610324792828
7.2,0.9999720896206048,33.817269584960144
7.208,0.9999723245977268,33.63840363531418
7.216,0.9999725624017571,33.4595054863858
7.224,0.9999728029588076,33.28057522585758
7.232,0.9999730461947439,33.101612941698626
7.24,0.9999732920351982,32.922618722164195
7.248,0.9999735404055848,32.74359265579526
7.256,0.9999737912311129,32.564534831417895
7.264,0.9999740444368005,32.38544533814295
7.272,0.9999742999474899,32.20632426536541
7.28,0.9999745576878593,32.02717170276395
7.288,0.999974817582438,31.84798774030044
7.296,0.9999750795556207,31.668772468219416
7.304,0.9999753435316806,31.489525977047556
7.312,0.9999756094347829,31.31024835759311
7.32,0.9999758771889999,31.130939700945465
7.328,0.9999761467183237,30.95160009847445
7.336,0.9999764179466801,30.772229641829927
7.344,0.9999766907979429,30.59282842294121
7.352,0.9999769651959475,30.413396534016382
7.36,0.9999772410645037,30.233934067541902
7.368,0.9999775183274109,30.054441116281872
7.376,0.9999777969084708,29.874917773277588
7.384,0.9999780767315007,29.695364131846848
7.392,0.9999783577203486,29.5157802855834
7.4,0.9999786397989051,29.33616632835634
7.4079999999999995,0.9999789228911179,29.156522354309555
7.416,0.9999792069210054,28.97684845786091
7.4239999999999995,0.9999794918126694,28.79714473370197
7.432,0.99997977749031,28.617411276796986
7.4399999999999995,0.9999800638782375,28.437648182382627
7.448,0.9999803509008868,28.257855545967
7.4559999999999995,0.9999806384828308,28.078033463329323
7.464,0.9999809265487932,27.898182030518967
7.4719999999999995,0.9999812150236623,27.71830134385512
7.48,0.9999815038325044,27.538391499925783
7.4879999999999995,0.9999817929005764,27.35845259558742
7.496,0.9999820821533403,27.178484727964005
7.504,0.9999823715164747,26.99848799444661
7.5120000000000005,0.99998266091589,26.81846249269242
7.52,0.9999829502777393,26.638408320624357
7.5280000000000005,0.9999832395284342,26.45832557643005
7.536,0.9999835285946551,26.278214358561442
7.5440000000000005,0.9999838174033664,26.098074765733823
7.552,0.9999841058818283,25.91790689692534
7.5600000000000005,0.9999843939576105,25.73771085137601
7.568,0.9999846815586043,25.557486728587303
7.5760000000000005,0.9999849686130372,25.377234628321062
7.584,0.999985255049483,25.196954650599125
7.5920000000000005,0.9999855407968775,25.016646895702237
7.6,0.9999858257845303,24.836311464169594
7.6080000000000005,0.999986109942136,24.655948456797827
7.616,0.9999863931997895,24.475557974640477
7.6240000000000006,0.999986675487997,24.295140119006994
7.632,0.9999869567376892,24.114694991462216
7.640000000000001,0.9999872368802336,23.934222693825287
7.648,0.9999875158474472,23.753723328169247
7.656000000000001,0.9999877935716099,23.573196996819814
7.664,0.9999880699854751,23.39264380235502
7.672,0.9999883450222842,23.212063847604043
7.68,0.9999886186157771,23.031457235646627
7.688,0.9999888907002064,22.85082406981222
7.696,0.9999891612103479,22.670164453679103
7.704,0.9999894300815144,22.48947849107364
7.712,0.999989697249567,22.3087662860694
7.72,0.9999899626509273,22.128027942986385
7.728,0.9999902262225902,21.9472635663901
7.736,0.9999904879021351,21.766473261090834
7.744,0.9999907476277388,21.5856571321427
7.752,0.9999910053381871,21.404815284842865
7.76,0.9999912609728855,21.22394782473067
7.768,0.9999915144718743,21.04305485758674
7.776,0.9999917657758366,20.862136489432185
7.784,0.9999920148261129,20.68119282652766
7.792,0.9999922615647113,20.50022397537256
7.8,0.9999925059343201,20.319230042704092
7.808,0.999992747878319,20.138211135496416
7.816,0.9999929873407903,19.957167360959748
7.824,0.9999932242665313,19.776098826539492
7.832,0.9999934586010651,19.595005639915318
7.84,0.9999936902906522,19.413887909000294
7.848,0.9999939192823023,19.232745741939926
7.856,0.9999941455237847,19.051579247111352
7.864,0.9999943689636401,18.87038853312234
7.872,0.9999945895511924,18.68917370881039
7.88,0.9999948072365582,18.507934883241866
7.888,0.9999950219706596,18.326672165711017
7.896,0.9999952337052344,18.14538566573909
7.904,0.9999954423928465,17.96407549307339
7.912,0.9999956479868988,17.78274175768632
7.92,0.9999958504416412,17.60138456977451
7.928,0.9999960497121839,17.420004039757803
7.936,0.9999962457545066,17.238600278278373
7.944,0.99999643852547,17.05717339619973
7.952,0.9999966279828255,16.87572350460582
7.96,0.9999968140852271,16.694250714800045
7.968,0.9999969967922402,16.512755138304296
7.976,0.9999971760643532,16.331236886858044
7.984,0.9999973518629881,16.14969607241731
7.992,0.9999975241505088,15.96813280715377
8.0,0.9999976928902338,15.786547203453752
8.008,0.9999978580464447,15.60493937391729
8.016,0.9999980195843966,15.423309431357067
8.024000000000001,0.9999981774703286,15.241657488797598
8.032,0.9999983316714732,15.059983659474195
8.04,0.9999984821560665,14.878288056831845
8.048,0.9999986288933571,14.696570794524412
8.056000000000001,0.9999987718536174,14.514831986413597
8.064,0.999998911008152,14.333071746568018
8.072,0.9999990463293074,14.151290189262033
8.08,0.9999991777904818,13.969487428974892
8.088000000000001,0.9999993053661342,13.787663580389816
8.096,0.9999994290317947,13.605818758392912
8.104,0.9999995487640722,13.423953078072122
8.112,0.9999996645406642,13.2420666547163
8.120000000000001,0.9999997763403671,13.06015960381428
8.128,0.9999998841430829,12.878232041053842
8.136,0.9999999879298306,12.696284082320584
8.144,1.0,12.514315843697055
8.152000000000001,0.9999999999999999,12.332327441461794
8.16,1.0,12.150318992088286
8.168,1.0,11.968290612243848
8.176,0.9999999999999999,11.786242418788728
8.184000000000001,1.0,11.604174528775197
8.192,1.0,11.422087059446433
8.2,1.0,11.239980128235473
8.208,1.0,11.057853852764275
8.216000000000001,0.9999999999999999,10.875708350842796
8.224,0.9999999999999999,10.693543740467925
8.232,1.0,10.511360139822377
8.24,1.0,10.32915766727381
8.248000000000001,1.0,10.146936441373848
8.256,0.9999999999999999,9.964696580857092
8.264,1.0,9.782438204639936
8.272,0.9999999999999999,9.600161431819737
8.280000000000001,1.0,9.417866381673845
8.288,1.0,9.235553173658554
8.296,1.0,9.053221927408027
8.304,1.0,8.870872762733365
8.312,1.0,8.688505799621772
8.32,1.0,8.50612115823525
8.328,0.9999999999999999,8.323718958909945
8.336,1.0,8.141299322154861
8.344,1.0,7.958862368651174
8.352,1.0,7.7764082192509445
8.36,1.0,7.593936994976445
8.368,0.9999999999999999,7.4114488170188935
8.376,0.9999999999999999,7.228943806737783
8.384,1.0000000000000002,7.046422085659577
8.392,0.9999999999999998,6.863883775477109
8.4,0.9999999999999999,6.6813289980482455
8.408,0.9999999999999999,6.498757875395301
8.416,1.0,6.316170529703713
8.424,1.0,6.133567083321443
8.432,0.9999999999999999,5.950947658757704
8.44,1.0,5.768312378682333
8.448,1.0,5.585661365924516
8.456,1.0,5.402994743472204
8.464,1.0,5.220312634470847
8.472,1.0,5.037615162222777
8.48,0.9999999999999999,4.854902450185988
8.488,1.0,4.672174621973533
8.496,1.0,4.489431801352285
8.504,1.0,4.306674112242372
8.512,0.9999999999999999,4.123901678715939
8.52,0.9999999999999999,3.9411146249965836
8.528,1.0,3.7583130754581515
8.536,0.9999999897927707,3.5754971546241703
8.544,0.9999998922401666,3.392666987166656
8.552,0.9999997914114959,3.209822697905573
8.56,0.9999996873571085,3.0269644118076378
8.568,0.9999995801287948,2.8440922539858056
8.576,0.9999994697797874,2.661206349698081
8.584,0.999999356364763,2.4783068243470185
8.592,0.9999992399398435,2.29539380347856
8.6,0.9999991205625987,2.1124674127815295
8.608,0.999998998292046,1.9295277780865085
8.616,0.9999988731886528,1.7465750253653303
8.624,0.9999987453143372,1.563609280729979
8.632,0.9999986147324681,1.380630670432105
8.64,0.9999984815078654,1.1976393208619278
8.648,0.9999983457068008,1.0146353585477832
8.656,0.9999982073969981,0.8316189101550412
8.664,0.999998066647631,0.6485901024856637
8.672,0.9999979235293253,0.4655490624771471
8.68,0.9999977781141557,0.28249591720210143
8.688,0.9999976304756457,0.0994307938672081
8.696,0.9999974806887676,-0.08364618018717518
8.704,0.9999973288299371,-0.266734877488044
8.712,0.9999971749770162,-0.44983517043011556
8.72,0.9999970192093083,-0.6329469312768375
8.728,0.9999968616075554,-0.8160700321607367
8.736,0.9999967022539369,-0.9992043450844045
8.744,0.9999965412320657,-1.1823497419208233
8.752,0.9999963786269859,-1.3655060944143287
8.76,0.9999962145251667,-1.5486732741809124
8.768,0.9999960490145016,-1.7318511527091627
8.776,0.9999958821843019,-1.9150396013605397
8.784,0.9999957141252929,-2.098238491370295
8.792,0.9999955449296088,-2.281447693847721
8.8,0.9999953746907877,-2.4646670797770427
8.808,0.9999952035037646,-2.647896520017645
8.815999999999999,0.999995031464868,-2.831135885304896
8.824,0.99999485867181,-3.0143850462505517
8.832,0.9999946852236824,-3.1976438733431887
8.84,0.9999945112209481,-3.380912236948781
8.847999999999999,0.9999943367654335,-3.5641900073112702
8.856,0.9999941619603212,-3.7474770545529528
8.864,0.9999939869101402,-3.9307732486748623
8.872,0.999993811720759,-4.114078459557282
8.879999999999999,0.9999936364993735,-4.297392556960269
8.888,0.9999934613545003,-4.480715410523977
8.896,0.9999932863959637,-4.66404688976898
8.904,0.9999931117348868,-4.8473868640967375
8.911999999999999,0.9999929374836793,-5.030735202790045
8.92,0.9999927637560263,-5.21409177501331
8.928,0.9999925906668748,-5.39745644981281
8.936,0.9999924183324228,-5.580829096117097
8.943999999999999,0.999992246870104,-5.764209582737391
8.952,0.9999920763985758,-5.9475977783677925
8.96,0.999991907037703,-6.130993551585483
8.968,0.9999917389085441,-6.314396770851066
8.975999999999999,0.9999915721333349,-6.497807304508897
8.984,0.9999914068354722,-6.681225020787244
8.992,0.9999912431394972,-6.8646497877984105
9.0,0.9999910811710785,-7.048081473539025
9.008,0.9999909210569918,-7.231519945890323
9.016,0.9999907629251034,-7.4149650726182035
9.024000000000001,0.9999906069043496,-7.598416721373344
9.032,0.999990453124716,-7.7818747596913935
9.04,0.9999903017172171,-7.965339054993193
9.048,0.9999901528138744,-8.148809474584805
9.056000000000001,0.9999900065476933,-8.332285885657516
9.064,0.9999898630526405,-8.515768155288026
9.072,0.9999897224636196,-8.699256150438565
9.08,0.9999895849164461,-8.882749737956885
9.088000000000001,0.9999894505478208,-9.066248784576215
9.096,0.9999893194953056,-9.249753156915357
9.104,0.999989191897292,-9.433262721478807
9.112,0.9999890678929771,-9.616777344656619
9.120000000000001,0.9999889476223309,-9.800296892724358
9.128,0.9999888312260669,-9.983821231843155
9.136,0.9999887188456114,-10.1673502280597
9.144,0.9999886106230703,-10.350883747306165
9.152000000000001,0.999988506701197,-10.534421655400033
9.16,0.9999884072233562,-10.717963818044115
9.168,0.9999883123334901,-10.901510100826554
9.176,0.9999882221760811,-11.085060369220626
9.184000000000001,0.9999881368961144,-11.268614488584596
9.192,0.9999880566390389,-11.452172324161673
9.2,0.9999879815507275,-11.635733741079978
9.208,0.9999879117774355,-11.819298604352339
9.216000000000001,0.999987847465759,-12.002866778876086
9.224,0.99998778876259,-12.186438129433007
9.232,0.9999877358150734,-12.370012520689261
9.24,0.999987688770558,-12.553589817195224
9.248000000000001,0.9999876477765517,-12.737169883385185
9.256,0.9999876129806708,-12.92075258357737
9.264,0.9999875845305903,-13.104337781973818
9.272,0.9999875625739918,-13.287925342660202
9.280000000000001,0.9999875472585096,-13.471515129605605
9.288,0.9999875387316781,-13.655107006662451
9.296,0.9999875371408735,-13.838700837566503
9.304,0.9999875426332564,-14.022296485936625
9.312000000000001,0.9999875553557128,-14.205893815274646
9.32,0.9999875754547932,-14.389492688965277
9.328,0.999987603076649,-14.573092970276184
9.336,0.9999876383669694,-14.756694522357812
9.344,0.9999876814709138,-14.940297208243198
9.352,0.9999877325330458,-15.123900890848233
9.36,0.9999877916972622,-15.307505432971364
9.368,0.9999878591067214,-15.4911106972939
9.376,0.9999879349037718,-15.674716546379717
9.384,0.9999880192298747,-15.858322842675697
9.392,0.9999881122255284,-16.0419294485115
9.4,0.9999882140301892,-16.225536226099962
9.408,0.9999883247821891,-16.409143037537024
9.416,0.9999884446186547,-16.59274974480224
9.424,0.9999885736754208,-16.776356209758696
9.432,0.9999887120869434,-16.95996229415364
9.44,0.9999888599862108,-17.14356785961854
9.448,0.9999890175046525,-17.327172767669783
9.456,0.9999891847720449,-17.510776879708807
9.464,0.9999893619164156,-17.69438005702301
9.472,0.9999895490639463,-17.877982160785933
9.48,0.9999897463388713,-18.06158305205832
9.488,0.9999899538633757,-18.245182591788453
9.496,0.9999901717574907,-18.428780640813343
9.504,0.9999904001389858,-18.612377059859273
9.512,0.99999063912326,-18.7959717095431
9.52,0.9999908888232288,-18.979564450373026
9.528,0.9999911493492109,-19.163155142750032
9.536,0.9999914208088111,-19.346743646968914
9.544,0.9999917033068004,-19.530329823219905
9.552,0.9999919969449962,-19.71391353158989
9.56,0.9999923018221352,-19.89749463206432
9.568,0.9999926180337497,-20.081072984528653
9.576,0.9999929456720368,-20.26464844877051
9.584,0.9999932848257267,-20.448220884481405
9.592,0.9999936355799499,-20.63179015125918
9.6,0.9999939980160999,-20.815356108610008
9.608,0.9999943722116924,-20.99891861595119
9.616,0.9999947582402265,-21.182477532613444
9.624,0.999995156171039,-21.366032717844025
9.632,0.9999955660691574,-21.549584030809434
9.64,0.9999959879951521,-21.733131330598848
9.648,0.9999964220049837,-21.916674476227207
9.656,0.9999968681498501,-22.10021332663913
