freq,mag,phase
6.0,1.0000714867159557,171.78436369832662
6.002285568,1.0001059934494105,171.62993097341388
6.004571648,1.0001340170453734,171.47505187326152
6.006857216,1.0001537320526217,171.31984308270498
6.009142784,1.000163685968719,171.1643856141974
6.011428352,1.000163326218112,171.00890871542458
6.013714432,1.0001526288097329,170.85348054054253
6.016,1.0001323401618083,170.69831758685757
6.018285568,1.0001036941693329,170.5434964944355
6.020571648,1.000068471731135,170.38912959361588
6.022857216,1.000028858688349,170.235329367265
6.025142784,0.9999875343032559,170.0821203760654
6.027428352,0.9999467911522478,169.92951543242194
6.029714432,0.9999094650932372,169.7774901641357
6.032,0.9998778940419782,169.62597065647407
6.034285568,0.9998539895755499,169.47485193238956
6.036571648,0.9998392137614096,169.3240068486201
6.038857216,0.9998347703885087,169.17333908561872
6.041142784,0.9998406351542497,169.02265482406952
6.043428352,0.9998565771792016,168.87181320431867
6.045714432,0.9998816497859566,168.72069436690703
6.048,0.9999142195185481,168.5691548736764
6.050285568,0.9999523162308528,168.41710096074306
6.052571648,0.9999932995463715,168.26449314765614
6.054857216,1.0000348347018349,168.11129218627744
6.057142784,1.0000741625453342,167.95750797087578
6.059428352,1.000108845263406,167.80320856202067
6.061714432,1.000136698676199,167.64842273551915
6.064,1.0001560224649708,167.49335109645614
6.066285568,1.0001653557638395,167.33804447691742
6.068571648,1.000164294494274,167.18269974349124
6.070857216,1.0001529256671293,167.02742761562172
6.073142784,1.0001318668941068,166.8724137422311
6.075428352,1.000102486133361,166.71777235898242
6.077714432,1.0000665534384954,166.56360508144095
6.08,1.0000264844938664,166.40998786287614
6.082285568,0.9999847302164517,166.25698657720423
6.084571648,0.9999438235146086,166.1045899362843
6.086857216,0.9999065779867468,165.952752604584
6.089142784,0.9998751254313438,165.8014341675835
6.091428352,0.9998515299058722,165.65051595264623
6.093714432,0.9998373804222984,165.499895208397
6.096,0.9998333380300958,165.34939416334032
6.098285568,0.9998399803146334,165.1989008071094
6.100571648,0.9998567850343806,165.04823949121283
6.102857216,0.9998825692893512,164.8972766172791
6.105142784,0.9999157439285012,164.7458906267858
6.107428352,0.9999544119787906,164.5939892254984
6.109714432,0.9999959469266233,164.44153087330008
6.112,1.0000376543027032,164.28843749703125
6.114285568,1.000077120536387,164.13478812435645
6.116571648,1.000111804400488,163.9805962206388
6.118857216,1.0001393354245642,163.82597429315825
6.121142784,1.0001581172592378,163.67102354875774
6.123428352,1.0001670127596451,163.5158718559891
6.125714432,1.00016523703286,163.36064566638169
6.128,1.0001531942679576,163.20555967515466
6.130285568,1.0001313165235386,163.05071045521564
6.132571648,1.0001011652850456,162.89625977194507
6.134857216,1.0000647436695727,162.7422947770788
6.137142784,1.0000240794188249,162.58888495973554
6.139428352,0.9999818453938669,162.43609512647447
6.141714432,0.9999408018246025,162.28392904308092
6.144,0.9999034300286811,162.13230809149834
6.146285568,0.9998722527756005,161.98121672058122
6.148571648,0.9998490147792999,161.83053634397777
6.150857216,0.9998353494878834,161.68010731073528
6.153142784,0.9998321183424055,161.52982222533188
6.155428352,0.9998394061775918,161.37949575300073
6.157714432,0.9998568718397548,161.22902023671017
6.16,0.9998833742951156,161.0782247826234
6.162285568,0.9999173661300498,160.92701046488997
6.164571648,0.9999565575603933,160.77526765952302
6.166857216,0.9999985016167697,160.62291436599543
6.169142784,1.0000406278261678,160.47000195752977
6.171428352,1.0000801028826451,160.31647889581978
6.173714432,1.000114700673833,160.16243853911615
6.176,1.0001419435897514,160.00792978786376
6.178285568,1.0001603722249905,159.85312703299115
6.180571648,1.0001685971353806,159.6981385405538
6.182857216,1.000166213282318,159.54309316535858
6.185142784,1.0001533372067657,159.38819146256466
6.187428352,1.0001307444837746,159.23352870634506
6.189714432,1.0000998219424315,159.0792784429606
6.192,1.0000626776319963,158.92552198369307
6.194285568,1.000021558412123,158.77233809071677
6.196571648,0.9999790355332623,158.61977605002386
6.198857216,0.9999376440172915,158.46782556291197
6.201142784,0.9999003514390772,158.3164435963922
6.203428352,0.9998693035663936,158.16557906583944
6.205714432,0.9998464597224257,158.01512791659374
6.208,0.9998333616594646,157.86493098700115
6.210285568,0.9998307140046787,157.71485213448128
6.212571648,0.9998388382507966,157.56474967299405
6.214857216,0.9998570431377278,157.41442960787927
6.217142784,0.9998843707447088,157.26382730760935
6.219428352,0.9999190937782434,157.11276413438816
6.221714432,0.99995881287206,156.96119912288992
6.224,1.0000012696750789,156.8090373912334
6.226285568,1.0000436421122147,156.65624269275858
6.228571648,1.0000831771636747,156.50287166978063
6.230857216,1.0001177053552912,156.34898667504777
6.233142784,1.0001447553459546,156.19465253736277
6.235428352,1.0001626243278008,156.03999162055024
6.237714432,1.0001702740132246,155.88517088102438
6.24,1.0001670805544094,155.73030819719048
6.242285568,1.0001533718766125,155.5755632771181
6.244571648,1.0001300461242582,155.42111929456215
6.246857216,1.0000985440183467,155.26707186254427
6.249142784,1.0000606366385627,155.1135474957128
6.251428352,1.0000189718770633,154.9606037257861
6.253714432,0.9999759963740574,154.80825876357395
6.256,0.9999345645913862,154.65656239840425
6.258285568,0.9998972413205012,154.50544121167323
6.260571648,0.999866411778305,154.35479907653144
6.262857216,0.999843923735245,154.20456005948193
6.265142784,0.9998313133242647,154.05461745413683
6.267428352,0.9998294275626468,153.90475428928227
6.269714432,0.9998383114926968,153.75486741375641
6.272,0.9998573863266679,153.60478966539048
6.274285568,0.9998853979094275,153.45435815302992
6.276571648,0.9999207192157431,153.30349321407382
6.278857216,0.9999612078852893,153.15208352360136
6.281142784,1.00000409622642,153.00006659851815
6.283428352,1.0000466149904736,152.84745462924155
6.285714432,1.000086316044437,152.69424458357062
6.288,1.0001206297085605,152.54048982407267
6.290285568,1.0001474550469716,152.38632964245343
6.292571648,1.0001648038586277,152.23185021324136
6.294857216,1.0001717711477145,152.07718528329278
6.297142784,1.0001680292924442,151.92251932740422
6.299428352,1.0001535999263718,151.7679883606285
6.301714432,1.0001293841715377,151.61375451813012
6.304,1.0000970550843824,151.45993168560219
6.306285568,1.0000584879951508,151.3066184895022
6.308571648,1.0000163439464969,151.15390895071312
6.310857216,0.999972996383768,151.00184919138374
6.313142784,0.9999314440819431,150.85039366305014
6.315428352,0.9998940890060698,150.69950464039573
6.317714432,0.9998635375689731,150.54911889673483
6.32,0.9998415795162225,150.39916154607477
6.322285568,0.9998294940014324,150.24942552519812
6.324571648,0.9998281203238812,150.0998069842086
6.326857216,0.9998377316478338,149.95013778877032
6.329142784,0.9998576757568701,149.80026945857873
6.331428352,0.9998865601632067,149.6500471712617
6.333714432,0.9999226307326744,149.4993734662178
6.336,0.9999636085825663,149.3481353722649
6.338285568,1.0000068728270228,149.1963134971113
6.340571648,1.0000498372938276,149.04386400693153
6.342857216,1.0000896146724592,148.89081053598105
6.345142784,1.0001237994355314,148.73722776308145
6.347428352,1.0001502097875303,148.5832451630137
6.349714432,1.0001670097837758,148.4289236886051
6.352,1.0001734126932702,148.27446506386886
6.354285568,1.0001688878365829,148.12000458173938
6.356571648,1.0001536557022574,147.96567685928042
6.358857216,1.0001285779688212,147.81166492336365
6.361142784,1.0000955522325334,147.65806187389114
6.363428352,1.0000562751300646,147.50500392187394
6.365714432,1.0000135831070154,147.3525494787514
6.368,0.9999700089009377,147.20071541754874
6.370285568,0.9999281822886025,147.04952389971766
6.372571648,0.9998909504531067,146.898941733444
6.374857216,0.9998605728591535,146.74882118964922
6.377142784,0.9998388802399714,146.59909275403464
6.379428352,0.999827465390915,146.44961698745027
6.381714432,0.9998270707281081,146.30025065262166
6.384,0.9998373428772388,146.1508119387981
6.386285568,0.9998581251512111,146.00114162535974
6.388571648,0.9998877615431,145.8511365589097
6.390857216,0.9999245707231004,145.70066606157692
6.393142784,0.9999661654450216,145.54961117673122
6.395428352,1.0000098523480248,145.39796300552865
6.397714432,1.0000530461646373,145.24569027553065
6.4,1.000092813085011,145.09282505380142
6.402285568,1.0001269745826653,144.9394365088168
6.404571648,1.0001528925117287,144.78562868702159
6.406857216,1.0001692670667341,144.63150055221556
6.409142784,1.0001749738988455,144.47721690248747
6.411428352,1.000169715139428,144.32297288929936
6.413714432,1.000153469613648,144.1688627422062
6.416,1.000127737300689,144.01507426757402
6.418285568,1.0000938931716146,143.86171638506903
6.420571648,1.000054054168877,143.70889709748204
6.422857216,1.0000107919819685,143.55671189249486
6.425142784,0.9999668543191892,143.40515126773215
6.427428352,0.9999249201108452,143.2542299683313
6.429714432,0.9998877854875372,143.10390973669848
6.432,0.9998576750542904,142.95405621633608
6.434285568,0.9998364843544064,142.80461960422127
6.436571648,0.9998256779823573,142.65538159186076
6.438857216,0.99982579657682,142.50624164525544
6.441142784,0.9998370406908096,142.35705350293992
6.443428352,0.9998585814489417,142.2076543474183
6.445714432,0.9998890663404953,142.05786048286564
6.448,0.9999265187653247,141.90755768836473
6.450285568,0.9999687534903581,141.75672454884375
6.452571648,1.0000129789219494,141.60526702434234
6.454857216,1.0000563398460423,141.45315553036087
6.457142784,1.0000962087520864,141.3004957909065
6.459428352,1.0001300766794075,141.14726230982959
6.461714432,1.000155769415752,140.9936542389466
6.464,1.0001716018594966,140.83971334029343
6.466285568,1.0001765881279328,140.68566794699387
6.468571648,1.0001704377225602,140.53158155544799
6.470857216,1.0001535833192932,140.37770751925257
6.473142784,1.0001270187495122,140.22415081094712
6.475428352,1.0000923193936058,140.0710503519727
6.477714432,1.0000518547757726,139.91850083379526
6.48,1.0000081061468105,139.76660025194175
6.482285568,0.999963721430806,139.6153092105897
6.484571648,0.9999216743209477,139.4646684574007
6.486857216,0.999884591156523,139.3146227281561
6.489142784,0.9998546989983872,139.16506193193777
6.491428352,0.9998340285151405,139.01590723008047
6.493714432,0.999823770370957,138.86692936966742
6.496,0.9998247542555525,138.71806588757977
6.498285568,0.9998367334623783,138.5691086684589
6.500571648,0.9998591045666796,138.41991614743915
6.502857216,0.9998904090823311,138.27035172664696
6.505142784,0.9999286247344654,138.12027980355018
6.507428352,0.9999715145505649,137.96962475696873
6.509714432,1.0000160596799004,137.81836506461752
6.512,1.0000597470620614,137.66647119487155
6.514285568,1.0000997039294626,137.51398549657688
6.516571648,1.0001332288158593,137.36096259928553
6.518857216,1.0001585352082045,137.2075137911109
6.521142784,1.0001737962289035,137.053785486328
6.523428352,1.0001781331330801,136.89993315254046
6.525714432,1.0001711431168434,136.746110805593
6.528,1.0001534893865027,136.59247046417985
6.530285568,1.000126013646565,136.43915702818884
6.532571648,1.0000905508132991,136.28633879120528
6.534857216,1.0000494044021733,136.13404699290294
6.537142784,1.0000051922344781,135.98239853857189
6.539428352,0.9999603920157177,135.83137682499725
6.541714432,0.9999182602950538,135.68104836440892
6.544,0.9998812526487574,135.53129368914466
6.546285568,0.9998516380775835,135.38201178649382
6.548571648,0.999831536775064,135.23311752274577
6.550857216,0.9998218600887254,135.08443292717385
6.553142784,0.9998236350720224,134.93584336861835
6.555428352,0.999836482875987,134.78714274558502
6.557714432,0.9998597193964579,134.6381777620315
6.56,0.9998918406411085,134.4888281186508
6.562285568,0.9999308137426777,134.33898918483945
6.564571648,0.9999742491792081,134.1885427527438
6.566857216,1.000019241414254,134.03747977395216
6.569142784,1.0000631002682778,133.88578242232143
6.571428352,1.000103077589842,133.73348185661348
6.573714432,1.0001365179632067,133.58067286963347
6.576,1.0001613111666807,133.42741805893786
6.578285568,1.000176068338751,133.27390796522954
6.580571648,1.0001796181542817,133.1202578150108
6.582857216,1.0001718324986302,132.9666325745632
6.585142784,1.0001533150641257,132.81325436877893
6.587428352,1.0001249499124085,132.66018939721815
6.589714432,1.0000887432696253,132.5076208605709
6.592,1.0000468367459496,132.3556273310358
6.594285568,1.0000020031108232,132.20427362005157
6.596571648,0.999957139390685,132.05356863328194
6.598857216,0.9999148135847562,131.90351236546022
6.601142784,0.9998779529959264,131.75404222674356
6.603428352,0.9998486901772833,131.6050607661871
6.605714432,0.9998289390098218,131.45645643720954
6.608,0.9998201048455555,131.30806361899374
6.610285568,0.999822552305648,131.15973034519465
6.612571648,0.9998362494984916,131.01127170071697
6.614857216,0.9998604492472406,130.86259410339187
6.617142784,0.9998933888010806,130.71345621724612
6.619428352,0.9999331404452355,130.56383277382957
6.621714432,0.9999770105892601,130.41361386652844
6.624,1.0000225648899639,130.26275696588445
6.626285568,1.0000666767198871,130.11123402102893
6.628571648,1.0001065054684137,129.9591352537831
6.630857216,1.0001396824989528,129.80650800540747
6.633142784,1.0001641467493192,129.6534895411853
6.635428352,1.000178281929022,129.50016261322932
6.637714432,1.000181137909278,129.34675352674216
6.64,1.0001724246726245,129.1934022749056
6.642285568,1.000153016748681,129.0402460868013
6.644571648,1.000123867315862,128.88745738772693
6.646857216,1.0000867983092097,128.73513716617833
6.649142784,1.0000443188868946,128.58343829176403
6.651428352,0.9999988915173221,128.43237654535713
6.653714432,0.9999536579283653,128.281947094563
6.656,0.9999112013393211,128.13221127507043
6.658285568,0.9998743856870359,127.98303695165455
6.660571648,0.9998454502860442,127.8343571750925
6.662857216,0.9998263941575478,127.68604845623562
6.665142784,0.9998182037686577,127.53793930095502
6.667428352,0.9998215069169625,127.38988017646503
6.669714432,0.9998362298276445,127.24170648605941
6.672,0.9998611112651581,127.09322928709649
6.674285568,0.9998948435241233,126.94436070619992
6.676571648,0.9999353495466152,126.794969020218
6.678857216,0.9999799072811223,126.64494983009847
6.681142784,1.0000258505571225,126.49429753620166
6.683428352,1.0000701334263797,126.34300403216484
6.685714432,1.0001101658872438,126.19111223963291
6.688,1.0001429909535602,126.03866999133511
6.690285568,1.0001670969417198,125.88584422078333
6.692571648,1.0001804824995288,125.73278191109372
6.694857216,1.0001825590593565,125.5795739409227
6.697142784,1.000173207842974,125.42645018048202
6.699428352,1.000152772235089,125.27355720275168
6.701714432,1.0001226510977612,125.12102321354611
6.704,1.0000847901650627,124.96900026738489
6.706285568,1.000041666334468,124.81758608521127
6.708571648,0.9999958144427141,124.66680219158827
6.710857216,0.9999502382818364,124.51671107921219
6.713142784,0.9999077288729518,124.36728154005044
6.715428352,0.999871039845445,124.21841965373062
6.717714432,0.9998424644926494,124.07004752893576
6.72,0.9998238764383086,123.92202715135394
6.722285568,0.9998164629805076,123.77419135031552
6.724571648,0.9998205317093728,123.62642475238731
6.726857216,0.9998360721121338,123.47848989115045
6.729142784,0.9998619108903857,123.33029288036184
6.731428352,0.9998966714567323,123.18166989113904
6.733714432,0.9999378605627721,123.03248681782937
6.736,0.9999830534629083,122.88270001761089
6.738285568,1.000029357655069,122.73225352106729
6.740571648,1.0000737841716862,122.58116243417113
6.742857216,1.0001137116547532,122.42946701366814
6.745142784,1.0001463948970486,122.27724644870268
6.747428352,1.0001699674421345,122.12464686128821
6.749714432,1.0001827506526904,121.97178133172294
6.752,1.000184039751153,121.81881490010572
6.754285568,1.0001736771307044,121.66593985423334
6.756571648,1.0001523801483834,121.51329635277031
6.758857216,1.0001214042492859,121.36104529098299
6.761142784,1.000082790263712,121.20932006534089
6.763428352,1.0000389202328464,121.05819091249431
6.765714432,0.9999925517704769,120.90772021396128
6.768,0.9999466482556801,120.7579328611916
6.770285568,0.9999040516743074,120.60880396729223
6.772571648,0.9998675364574224,120.46024939781687
6.774857216,0.9998393820532304,120.3121839886371
6.777142784,0.999821344590628,120.16447076036933
6.779428352,0.9998146272493721,120.01695739474654
6.781714432,0.9998196231822609,119.8694292574401
6.784,0.9998360687169401,119.72179501458193
6.786285568,0.9998629024941946,119.57384633359851
6.788571648,0.9998983157677838,119.42546829914248
6.790857216,0.9999403316457449,119.2765255849045
6.793142784,0.9999861199696494,119.126952765358
6.795428352,1.0000327957040072,118.97671804864012
6.797714432,1.0000775208436241,118.82582754194492
6.8,1.000117253262504,118.67434257731463
6.802285568,1.0001497429822834,118.52235004959091
6.804571648,1.0001727549348813,118.3699674549281
6.806857216,1.0001848391245363,118.21732481385922
6.809142784,1.0001853273425325,118.06459430697073
6.811428352,1.0001740472740466,117.91196835522915
6.813714432,1.0001518784814982,117.75958910337717
6.816,1.0001200116033622,117.60761418145842
6.818285568,1.0000805597147988,117.45617365212738
6.820571648,1.0000360796887067,117.30534664147798
6.822857216,0.9999892279603501,117.15518173187041
6.825142784,0.9999430364230569,117.00571217705763
6.827428352,0.9999003110006722,116.85689524251303
6.829714432,0.9998640515868649,116.70867304701034
6.832,0.9998362427644067,116.56092532699341
6.834285568,0.9998188388814775,116.4135115867931
6.836571648,0.9998129418193372,116.26627540679785
6.838857216,0.9998188166697101,116.11905298916072
6.841142784,0.9998361208191333,115.97166810138951
6.843428352,0.9998638964651879,115.82397745893569
6.845714432,0.9999002296463365,115.6758226170382
6.848,0.9999429039622227,115.52712312357316
6.850285568,0.9999892883861253,115.37776921846516
6.852571648,1.000036462442035,115.227756106144
6.854857216,1.0000812463292617,115.0770936361014
6.857142784,1.0001209677810796,114.92581192977507
6.859428352,1.000153149036605,114.77403758020002
6.861714432,1.0001755937726855,114.62187634095913
6.864,1.000187079953619,114.46944229842336
6.866285568,1.0001867062433756,114.31699164033805
6.868571648,1.0001744495608822,114.1645896352291
6.870857216,1.0001513057624742,114.01248454606355
6.873142784,1.0001185066557459,113.86079303611413
6.875428352,1.0000783629566636,113.70964029761858
6.877714432,1.0000331066436672,113.55911152078643
6.88,0.9999857271374005,113.40926667679877
6.882285568,0.9999392685802336,113.2601157772797
6.884571648,0.9998966024584499,113.11163030324671
6.886857216,0.9998604151147112,112.96371389321988
6.889142784,0.9998330404881598,112.81629181128056
6.891428352,0.9998163269487492,112.66916012796865
6.893714432,0.9998111339064562,112.52223281287833
6.896,0.9998178488492582,112.37529363023995
6.898285568,0.9998362434628709,112.22819727032922
6.900571648,0.9998649057361891,112.08075456598473
6.902857216,0.9999022180450235,111.93286025449243
6.905142784,0.9999455862577632,111.78438497692403
6.907428352,0.9999926027517156,111.63526764784517
6.909714432,1.000040061494119,111.4854676903502
6.912,1.000084988210163,111.33500357581256
6.914285568,1.0001247701135896,111.18395526829873
6.916571648,1.0001565531757703,111.03237682545038
6.918857216,1.000178537935004,110.88043247376075
6.921142784,1.0001892348280794,110.72825964906215
6.923428352,1.0001879831676326,110.57601840092845
6.925714432,1.0001749210483377,110.42389803968194
6.928,1.0001507125720877,110.27204696331553
6.930285568,1.0001170652993776,110.12066243238736
6.932571648,1.0000759205858654,109.9697754855906
6.934857216,1.0000299752457458,109.81956963947582
