freq,mag,phase
6.0,0.9999952366680566,-36.172700931035216
6.008,0.9999957353241004,-36.51313040962949
6.016,0.9999962094621374,-36.853395989149895
6.024,0.9999966597491601,-37.19349607938534
6.032,0.9999970868412236,-37.53342909981548
6.04,0.9999974913835266,-37.873193479671016
6.048,0.999997874010496,-38.21278765799264
6.056,0.999998235345869,-38.55221008368925
6.064,0.9999985760027764,-38.89145921559495
6.072,0.9999988965838293,-39.230533522524965
6.08,0.9999991976812017,-39.569431483330625
6.088,0.999999479876718,-39.90815158695318
6.096,0.9999997437419372,-40.246692332476584
6.104,0.9999999898382413,-40.58505222917921
6.112,1.0,-40.923229796584536
6.12,1.0,-41.26122356451072
6.128,0.9999999999999999,-41.59903207311912
6.136,0.9999999999999999,-41.936653872961834
6.144,1.0,-42.27408752502798
6.152,0.9999999999999999,-42.61133160078909
6.16,0.9999999999999999,-42.948384682243365
6.168,0.9999999999999999,-43.285245361958914
6.176,1.0,-43.62191224311575
6.184,1.0,-43.95838393954709
6.192,1.0,-44.29465907577906
6.2,1.0,-44.63073628706994
6.208,1.0,-44.966614219447784
6.216,0.9999999999999999,-45.30229152974744
6.224,1.0,-45.63776688564617
6.232,1.0,-45.9730389656984
6.24,1.0,-46.30810645936941
6.248,0.9999999999999999,-46.64296806706788
6.256,1.0,-46.977622500177496
6.264,1.0,-47.31206848108725
6.272,1.0000000000000002,-47.646304743221265
6.28,1.0,-47.98033003106678
6.288,1.0,-48.314143100201896
6.296,1.0,-48.64774271732164
6.304,0.9999999999999999,-48.9811276602634
6.312,0.9999999999999999,-49.3142967180312
6.32,1.0,-49.647248690818884
6.328,1.0,-49.979982390032376
6.336,1.0000000000000002,-50.31249663831094
6.344,1.0,-50.64479026954731
6.352,0.9999999999999999,-50.97686212890684
6.36,0.9999999999999999,-51.30871107284577
6.368,1.0,-51.64033596912844
6.376,1.0,-51.971735696843275
6.384,0.9999999999999999,-52.30290914641822
6.392,1.0,-52.63385521963481
6.4,1.0,-52.96457282964139
6.408,0.9999999999999999,-53.295060900965474
6.416,0.9999999999999999,-53.62531836952484
6.424,1.0,-53.955344182638065
6.432,0.9999999999999999,-54.28513729903369
6.44,0.9999999999999998,-54.614696688858785
6.448,1.0,-54.944021333686244
6.456,1.0,-55.27311022652141
6.464,0.999999965945883,-55.601962371807616
6.472,0.9999998444729563,-55.93057678543086
6.48,0.9999997217935603,-56.258952494723445
6.4879999999999995,0.9999995980868776,-56.58708853846686
6.496,0.9999994735263498,-56.91498396689375
6.504,0.999999348279768,-57.24263784168862
6.5120000000000005,0.9999992225093571,-57.5700492359884
6.52,0.9999990963718647,-57.89721723438108
6.5280000000000005,0.9999989700186466,-58.224140932904604
6.536,0.9999988435957535,-58.5508194390438
6.5440000000000005,0.9999987172440169,-58.87725187172743
6.552,0.9999985910991336,-59.20343736132344
6.5600000000000005,0.9999984652917521,-59.5293750496343
6.568,0.9999983399475552,-59.85506408989048
6.5760000000000005,0.9999982151873462,-60.18050364674422
6.584,0.9999980911271302,-60.505692896261216
6.592,0.9999979678782,-60.83063102591279
6.6,0.9999978455472153,-61.155317234566056
6.608,0.9999977242362884,-61.47975073247408
6.616,0.9999976040430636,-61.80393074126493
6.624,0.9999974850607981,-62.12785649392985
6.632,0.9999973673784458,-62.451527234810925
6.64,0.999997251080733,-62.774942219587686
6.648,0.9999971362482413,-63.0981007152631
6.656,0.9999970229574853,-63.42100200014875
6.664,0.999996911280992,-63.74364536384934
6.672,0.9999968012873776,-64.06603010724623
6.68,0.9999966930414258,-64.3881555424806
6.688,0.9999965866041644,-64.71002099293545
6.696,0.9999964820329413,-65.03162579321727
6.704,0.9999963793815015,-65.35296928913677
6.712,0.99999627870006,-65.6740508376889
6.72,0.999996180035378,-65.99486980703233
6.728,0.9999960834308368,-66.31542557646812
6.736,0.9999959889265103,-66.63571753641774
6.744,0.9999958965592379,-66.95574508840038
6.752,0.9999958063626972,-67.27550764500965
6.76,0.9999957183674749,-67.59500462988969
6.768,0.9999956326011372,-67.91423547771039
6.776,0.9999955490883018,-68.23319963414237
6.784,0.9999954678507056,-68.55189655583085
6.792,0.9999953889072739,-68.87032571036933
6.8,0.99999531227419,-69.1884865762724
6.808,0.9999952379649611,-69.50637864294809
6.816,0.9999951659904871,-69.82400141066951
6.824,0.9999950963591245,-70.14135439054593
6.832,0.9999950290767553,-70.45843710449343
6.84,0.9999949641468482,-70.77524908520476
6.848,0.9999949015705267,-71.09178987611875
6.856,0.9999948413466301,-71.40805903138929
6.864,0.9999947834717777,-71.72405611585346
6.872,0.9999947279404305,-72.03978070499946
6.88,0.9999946747449536,-72.35523238493379
6.888,0.9999946238756762,-72.67041075234806
6.896,0.9999945753209525,-72.98531541448513
6.904,0.9999945290672214,-73.29994598910494
6.912,0.9999944850990653,-73.61430210444972
6.92,0.9999944433992674,-73.92838339920874
6.928,0.999994403948871,-74.24218952248263
6.936,0.9999943667272344,-74.55572013374723
6.944,0.9999943317120885,-74.86897490281689
6.952,0.999994298879592,-75.18195350980747
6.96,0.9999942682043855,-75.49465564509883
6.968,0.9999942396596455,-75.80708100929687
6.976,0.9999942132171397,-76.11922931319513
6.984,0.9999941888472762,-76.43110027773612
6.992,0.9999941665191596,-76.74269363397205
7.0,0.9999941462006384,-77.05400912302527
7.008,0.9999941278583591,-77.36504649604838
7.016,0.9999941114578127,-77.67580551418379
7.024,0.9999940969633865,-77.9862859485231
7.032,0.999994084338412,-78.29648758006599
7.04,0.9999940735452121,-78.60641019967872
7.048,0.9999940645451484,-78.91605360805252
7.056,0.9999940572986682,-79.22541761566133
7.064,0.9999940517653498,-79.53450204271944
7.072,0.9999940479039476,-79.84330671913864
7.08,0.9999940456724369,-80.1518314844853
7.088,0.9999940450280569,-80.46007618793678
7.096,0.9999940459273543,-80.76804068823795
7.104,0.9999940483262258,-81.07572485365704
7.112,0.9999940521799584,-81.38312856194155
7.12,0.9999940574432727,-81.69025170027358
7.128,0.9999940640703612,-81.9970941652251
7.136,0.9999940720149286,-82.30365586271296
7.144,0.9999940812302316,-82.60993670795342
7.152,0.9999940916691157,-82.91593662541679
7.16,0.9999941032840536,-83.22165554878146
7.168,0.9999941160271834,-83.52709342088806
7.176,0.9999941298503419,-83.83225019369313
7.184,0.9999941447051037,-84.1371258282226
7.192,0.9999941605428138,-84.44172029452531
7.2,0.9999941773146225,-84.74603357162606
7.208,0.999994194971521,-85.05006564747853
7.216,0.9999942134643712,-85.35381651891808
7.224,0.9999942327439403,-85.65728619161436
7.232,0.9999942527609329,-85.96047468002372
7.24,0.9999942734660209,-86.26338200734145
7.248,0.9999942948098739,-86.56600820545391
7.256,0.9999943167431917,-86.86835331489043
7.264,0.9999943392167298,-87.17041738477513
7.272,0.9999943621813304,-87.4722004727787
7.28,0.9999943855879506,-87.77370264506972
7.288,0.9999944093876902,-88.07492397626628
7.296,0.9999944335318154,-88.37586454938717
7.304,0.9999944579717887,-88.67652445580315
7.312,0.9999944826592941,-88.97690379518791
7.32,0.9999945075462592,-89.27700267546922
7.328,0.9999945325848834,-89.5768212127797
7.336,0.9999945577276593,-89.87635953140774
7.344,0.9999945829273974,-90.17561776374808
7.352,0.999994608137248,-90.47459605025269
7.36,0.9999946333107239,-90.77329453938118
7.368,0.9999946584017216,-91.0717133875514
7.376,0.9999946833645423,-91.36985275909
7.384,0.9999947081539139,-91.66771282618274
7.392,0.9999947327250078,-91.96529376882494
7.4,0.9999947570334614,-92.26259577477185
7.4079999999999995,0.9999947810353956,-92.55961903948892
7.416,0.9999948046874331,-92.85636376610229
7.4239999999999995,0.999994827946716,-93.15283016534859
7.432,0.9999948507709236,-93.4490184555259
7.4399999999999995,0.9999948731182894,-93.74492886244329
7.448,0.9999948949476157,-94.0405616193717
7.4559999999999995,0.9999949162182916,-94.33591696699361
7.464,0.9999949368903063,-94.63099515335387
7.4719999999999995,0.9999949569242649,-94.92579643380937
7.48,0.9999949762814021,-95.22032107097996
7.4879999999999995,0.9999949949235953,-95.51456933469812
7.496,0.9999950128133799,-95.80854150195991
7.504,0.9999950299139597,-96.10223785687472
7.5120000000000005,0.9999950461892205,-96.39565869061624
7.52,0.9999950616037413,-96.68880430137243
7.5280000000000005,0.9999950761228061,-96.98167499429638
7.536,0.9999950897124145,-97.2742710814565
7.5440000000000005,0.9999951023392916,-97.56659288178756
7.552,0.9999951139708997,-97.85864072104074
7.5600000000000005,0.999995124575445,-98.15041493173499
7.568,0.9999951341218898,-98.44191585310716
7.5760000000000005,0.9999951425799585,-98.73314383106356
7.584,0.999995149920148,-99.02409921813017
7.5920000000000005,0.9999951561137331,-99.31478237340428
7.6,0.9999951611327763,-99.60519366250507
7.6080000000000005,0.9999951649501335,-99.89533345752523
7.616,0.99999516753946,-100.18520213698176
7.6240000000000006,0.9999951688752183,-100.47480008576792
7.632,0.9999951689326821,-100.76412769510412
7.640000000000001,0.9999951676879427,-101.05318536248997
7.648,0.9999951651179144,-101.34197349165552
7.656000000000001,0.9999951612003376,-101.63049249251357
7.664,0.999995155913784,-101.91874278111098
7.672,0.9999951492376604,-102.20672477958128
7.68,0.9999951411522121,-102.49443891609639
7.688,0.9999951316385259,-102.78188562481907
7.696,0.9999951206785332,-103.06906534585534
7.704,0.9999951082550118,-103.35597852520688
7.712,0.9999950943515885,-103.64262561472384
7.72,0.9999950789527403,-103.9290070720576
7.728,0.9999950620437972,-104.21512336061366
7.736,0.9999950436109407,-104.50097494950475
7.744,0.9999950236412073,-104.78656231350412
7.752,0.9999950021224868,-105.07188593299884
7.76,0.9999949790435243,-105.3569462939434
7.768,0.9999949543939178,-105.64174388781338
7.776,0.9999949281641198,-105.92627921155929
7.784,0.9999949003454353,-106.2105527675606
7.792,0.9999948709300205,-106.49456506357986
7.8,0.9999948399108827,-106.7783166127171
7.808,0.9999948072818773,-107.06180793336435
7.816,0.9999947730377066,-107.3450395491602
7.824,0.9999947371739172,-107.62801198894482
7.832,0.9999946996868978,-107.91072578671479
7.84,0.9999946605738761,-108.1931814815785
7.848,0.9999946198329166,-108.47537961771137
7.856,0.999994577462916,-108.75732074431151
7.864,0.9999945334636009,-109.03900541555545
7.872,0.9999944878355231,-109.32043419055404
7.88,0.9999944405800565,-109.60160763330857
7.888,0.9999943916993921,-109.88252631266717
7.896,0.9999943411965346,-110.16319080228118
7.904,0.9999942890752956,-110.44360168056195
7.912,0.9999942353402914,-110.72375953063766
7.92,0.9999941799969353,-111.00366494031051
7.928,0.9999941230514346,-111.28331850201388
7.936,0.9999940645107831,-111.56272081276991
7.944,0.9999940043827565,-111.84187247414712
7.952,0.9999939426759061,-112.12077409221843
7.96,0.9999938793995525,-112.39942627751908
7.968,0.9999938145637797,-112.67782964500509
7.976,0.9999937481794278,-112.95598481401171
7.984,0.9999936802580868,-113.23389240821214
7.992,0.9999936108120904,-113.51155305557646
8.0,0.999993539854508,-113.78896738833079
8.008,0.9999934673991369,-114.06613604291664
8.016,0.9999933934604969,-114.34305965995058
8.024000000000001,0.9999933180538206,-114.61973888418385
8.032,0.9999932411950474,-114.89617436446237
8.04,0.9999931629008143,-115.17236675368721
8.048,0.9999930831884489,-115.44831670877494
8.056000000000001,0.999993002075961,-115.72402489061794
8.064,0.9999929195820336,-115.99949196404575
8.072,0.9999928357260157,-116.27471859778596
8.08,0.9999927505279125,-116.54970546442567
8.088000000000001,0.9999926640083778,-116.82445324037275
8.096,0.9999925761887044,-117.09896260581779
8.104,0.9999924870908155,-117.37323424469629
8.112,0.9999923967372556,-117.64726884465067
8.120000000000001,0.9999923051511812,-117.9210670969926
8.128,0.9999922123563523,-118.19462969666583
8.136,0.9999921183771214,-118.46795734220926
8.144,0.9999920232384258,-118.7410507357198
8.152000000000001,0.999991926965777,-119.0139105828158
8.16,0.9999918295852515,-119.28653759260062
8.168,0.9999917311234797,-119.55893247762661
8.176,0.9999916316076387,-119.83109595385905
8.184000000000001,0.99999153106544,-120.10302874064027
8.192,0.99999142952512,-120.37473156065437
8.2,0.9999913270154309,-120.64620513989192
8.208,0.9999912235656293,-120.91745020761493
8.216000000000001,0.9999911192054664,-121.18846749632196
8.224,0.9999910139651779,-121.45925774171351
8.232,0.999990907875474,-121.72982168265796
8.24,0.9999908009675269,-122.0001600611573
8.248000000000001,0.9999906932729639,-122.2702736223131
8.256,0.9999905848238528,-122.54016311429295
8.264,0.9999904756526948,-122.8098292882974
8.272,0.9999903657924109,-123.07927289852631
8.280000000000001,0.9999902552763336,-123.34849470214611
8.288,0.9999901441381948,-123.61749545925697
8.296,0.9999900324121151,-123.88627593286061
8.304,0.9999899201325939,-124.15483688882783
8.312,0.9999898073344967,-124.42317909586635
8.32,0.9999896940530464,-124.69130332548939
8.328,0.9999895803238106,-124.95921035198376
8.336,0.9999894661826917,-125.22690095237888
8.344,0.9999893516659157,-125.49437590641534
8.352,0.9999892368100208,-125.76163599651436
8.36,0.9999891216518464,-126.02868200774684
8.368,0.9999890062285228,-126.29551472780335
8.376,0.9999888905774598,-126.56213494696347
8.384,0.9999887747363342,-126.82854345806645
8.392,0.999988658743082,-127.0947410564809
8.4,0.9999885426358835,-127.36072854007578
8.408,0.9999884264531552,-127.62650670919082
8.416,0.9999883102335368,-127.89207636660775
8.424,0.9999881940158816,-128.1574383175213
8.432,0.9999880778392443,-128.42259336951088
8.44,0.9999879617428701,-128.6875423325118
8.448,0.9999878457661845,-128.95228601878785
8.456,0.9999877299487806,-129.21682524290262
8.464,0.9999876143304097,-129.4811608216925
8.472,0.9999874989509695,-129.74529357423881
8.48,0.9999873838504933,-130.00922432184092
8.488,0.9999872690691385,-130.2729538879889
8.496,0.999987154647176,-130.53648309833716
8.504,0.9999870406249793,-130.7998127806775
8.512,0.9999869270430141,-131.06294376491323
8.52,0.9999868139418252,-131.32587688303255
8.528,0.9999867013620287,-131.58861296908333
8.536,0.9999865893442995,-131.8511528591467
8.544,0.9999864779293592,-132.1134973913124
8.552,0.9999863671579687,-132.37564740565276
8.56,0.9999862570709138,-132.63760374419846
8.568,0.9999861477089965,-132.8993672509132
8.576,0.999986039113025,-133.1609387716694
8.584,0.9999859313238009,-133.42231915422377
8.592,0.9999858243821099,-133.6835092481933
8.6,0.9999857183287113,-133.944509905031
8.608,0.9999856132043272,-134.2053219780027
8.616,0.9999855090496322,-134.46594632216303
8.624,0.999985405905243,-134.72638379433263
8.632,0.9999853038117068,-134.9866352530747
8.64,0.9999852028094938,-135.2467015586724
8.648,0.9999851029389842,-135.50658357310596
8.656,0.9999850042404594,-135.7662821600305
8.664,0.9999849067540915,-136.0257981847536
8.672,0.9999848105199328,-136.28513251421336
8.68,0.9999847155779068,-136.54428601695653
8.688,0.9999846219677969,-136.80325956311705
8.696,0.9999845297292381,-137.0620540243943
8.704,0.9999844389017056,-137.3206702740324
8.712,0.999984349524506,-137.57910918679863
8.72,0.9999842616367667,-137.83737163896316
8.728,0.9999841752774274,-138.09545850827797
8.736,0.99998409048523,-138.35337067395693
8.744,0.9999840072987083,-138.61110901665506
8.752,0.9999839257561798,-138.86867441844907
8.76,0.9999838458957361,-139.12606776281712
8.768,0.9999837677552322,-139.3832899346194
8.776,0.9999836913722797,-139.6403418200787
8.784,0.9999836167842352,-139.89722430676125
8.792,0.9999835440281929,-140.15393828355738
8.8,0.9999834731409748,-140.41048464066313
8.808,0.9999834041591223,-140.66686426956107
8.815999999999999,0.9999833371188869,-140.92307806300252
8.824,0.9999832720562214,-141.1791269149886
8.832,0.9999832090067721,-141.43501172075253
8.84,0.9999831480058684,-141.69073337674146
8.847999999999999,0.9999830890885161,-141.94629278059924
8.856,0.9999830322893887,-142.20169083114834
8.864,0.999982977642818,-142.45692842837286
8.872,0.999982925182786,-142.71200647340098
8.879999999999999,0.9999828749429179,-142.9669258684886
8.888,0.9999828269564737,-143.221687517002
8.896,0.9999827812563384,-143.47629232340137
8.904,0.9999827378750168,-143.7307411932243
8.911999999999999,0.9999826968446234,-143.98503503306978
8.92,0.9999826581968756,-144.23917475058187
8.928,0.9999826219630868,-144.49316125443372
8.936,0.9999825881741573,-144.7469954543119
8.943999999999999,0.9999825568605679,-145.00067826090108
8.952,0.9999825280523721,-145.25421058586824
8.96,0.9999825017791896,-145.5075933418476
8.968,0.9999824780701971,-145.7608274424255
8.975999999999999,0.9999824569541238,-146.01391380212573
8.984,0.9999824384592425,-146.26685333639458
8.992,0.9999824226133639,-146.51964696158626
9.0,0.9999824094438288,-146.77229559494853
9.008,0.9999823989775021,-147.0248001546086
9.016,0.9999823912407659,-147.2771615595591
9.024000000000001,0.9999823862595129,-147.52938072964378
9.032,0.99998238405914,-147.78145858554407
9.04,0.9999823846645425,-148.03339604876555
9.048,0.9999823881001072,-148.2851940416244
9.056000000000001,0.9999823943897067,-148.53685348723405
9.064,0.9999824035566931,-148.78837530949207
9.072,0.9999824156238926,-149.03976043306733
9.08,0.9999824306135984,-149.29100978338735
9.088000000000001,0.999982448547567,-149.54212428662507
9.096,0.9999824694470106,-149.79310486968683
9.104,0.9999824933325935,-150.04395246019988
9.112,0.9999825202244247,-150.29466798650026
9.120000000000001,0.9999825501420534,-150.54525237762041
9.128,0.999982583104465,-150.79570656327763
9.136,0.9999826191300744,-151.04603147386214
9.144,0.9999826582367215,-151.29622804042552
9.152000000000001,0.9999827004416663,-151.54629719466908
9.16,0.9999827457615847,-151.79623986893264
9.168,0.9999827942125628,-152.04605699618344
9.176,0.999982845810093,-152.2957495100048
9.184000000000001,0.9999829005690697,-152.54531834458552
9.192,0.9999829585037839,-152.7947644347087
9.2,0.9999830196279205,-153.0440887157415
9.208,0.9999830839545524,-153.29329212362452
9.216000000000001,0.9999831514961385,-153.54237559486114
9.224,0.9999832222645174,-153.7913400665076
9.232,0.9999832962709057,-154.0401864761628
9.24,0.9999833735258932,-154.28891576195838
9.248000000000001,0.9999834540394384,-154.53752886254864
9.256,0.9999835378208681,-154.786026717101
9.264,0.9999836248788702,-155.03441026528643
9.272,0.9999837152214927,-155.28268044726994
9.280000000000001,0.9999838088561402,-155.53083820370114
9.288,0.9999839057895704,-155.77888447570513
9.296,0.999984006027891,-156.0268202048734
9.304,0.999984109576558,-156.27464633325482
9.312000000000001,0.999984216440371,-156.52236380334685
9.32,0.9999843266234728,-156.76997355808663
9.328,0.9999844401293446,-157.01747654084252
9.336,0.9999845569608053,-157.26487369540578
9.344,0.9999846771200089,-157.51216596598167
9.352,0.9999848006084414,-157.7593542971817
9.36,0.9999849274269194,-158.00643963401515
9.368,0.9999850575755881,-158.25342292188125
9.376,0.9999851910539189,-158.5003051065611
9.384,0.9999853278607089,-158.7470871342099
9.392,0.9999854679940772,-158.99376995134926
9.4,0.9999856114514651,-159.24035450485965
9.408,0.9999857582296346,-159.48684174197274
9.416,0.9999859083246655,-159.73323261026428
9.424,0.9999860617319558,-159.97952805764646
9.432,0.9999862184462196,-160.22572903236116
9.44,0.9999863784614865,-160.47183648297246
9.448,0.999986541771101,-160.71785135836015
9.456,0.9999867083677212,-160.9637746077122
9.464,0.9999868782433182,-161.2096071805187
9.472,0.9999870513891751,-161.45535002656476
9.48,0.999987227795888,-161.70100409592402
9.488,0.9999874074533642,-161.94657033895217
9.496,0.9999875903508223,-162.19204970628076
9.504,0.9999877764767924,-162.4374431488105
9.512,0.9999879658191154,-162.68275161770563
9.52,0.9999881583649446,-162.92797606438717
9.528,0.9999883541007434,-163.17311744052756
9.536,0.9999885530122882,-163.41817669804422
9.544,0.999988755084667,-163.66315478909416
9.552,0.9999889603022802,-163.90805266606776
9.56,0.9999891686488431,-164.1528712815836
9.568,0.999989380107383,-164.39761158848253
9.576,0.9999895946602436,-164.64227453982244
