freq,mag,phase
6.0,0.999975127758564,58.74389132481312
6.008,0.9999757833783853,58.560931004318356
6.016,0.9999764268862201,58.377901797343995
6.024,0.9999770584400131,58.19480373370679
6.032,0.9999776781963591,58.01163684384979
6.04,0.9999782863105071,57.828401158843164
6.048,0.9999788829363673,57.64509671038549
6.056,0.9999794682265155,57.4617235308047
6.064,0.9999800423322011,57.27828165305918
6.072,0.9999806054033512,57.09477111073874
6.08,0.9999811575885775,56.9111919380657
6.088,0.9999816990351816,56.7275441698959
6.096,0.9999822298891609,56.5438278417197
6.104,0.999982750295215,56.360042989662965
6.112,0.9999832603967512,56.176189650488126
6.12,0.9999837603358905,55.99226786159503
6.128,0.9999842502534729,55.80827766102203
6.136,0.9999847302890646,55.624219087446896
6.144,0.9999852005809626,55.44009218018778
6.152,0.9999856612662016,55.25589697920413
6.16,0.9999861124805584,55.07163352509762
6.168,0.9999865543585602,54.887301859113144
6.176,0.9999869870334878,54.70290202313964
6.184,0.9999874106373833,54.518434059711005
6.192,0.9999878253010562,54.333898012007
6.2,0.9999882311540874,54.149293923854174
6.208,0.9999886283248369,53.96462183972662
6.216,0.9999890169404494,53.77988180474696
6.224,0.9999893971268591,53.59507386468708
6.232,0.9999897690087969,53.41019806596906
6.24,0.9999901327097959,53.225254455665926
6.248,0.9999904883521968,53.040243081502524
6.256,0.9999908360571547,52.85516399185627
6.264,0.9999911759446443,52.670017235757996
6.272,0.9999915081334656,52.4848028628927
6.28,0.9999918327412507,52.29952092360032
6.288,0.9999921498844693,52.1141714688765
6.296,0.9999924596784343,51.92875455037335
6.304,0.9999927622373073,51.743270220400156
6.312,0.9999930576741067,51.55771853192414
6.32,0.9999933461007102,51.372099538571135
6.328,0.9999936276278641,51.18641329462638
6.336,0.9999939023651863,51.00065985503503
6.344,0.9999941704211744,50.81483927540307
6.352,0.9999944319032104,50.628951611997785
6.36,0.999994686917567,50.44299692174856
6.368,0.9999949355694129,50.2569752622474
6.376,0.9999951779628198,50.070886691749756
6.384,0.9999954142007675,49.88473126917485
6.392,0.9999956443851497,49.698509054106594
6.4,0.9999958686167808,49.51222010679402
6.408,0.9999960869954007,49.325864488151865
6.416,0.9999962996196803,49.13944225976124
6.424,0.9999965065872298,48.95295348387006
6.432,0.999996707994602,48.766398223393765
6.44,0.9999969039372992,48.579776541915706
6.448,0.9999970945097792,48.39308850368773
6.456,0.9999972798054614,48.206334173630715
6.464,0.9999974599167312,48.019513617334994
6.472,0.9999976349349476,47.832626901061
6.48,0.9999978049504487,47.645674091739565
6.4879999999999995,0.9999979700525565,47.458655256972484
6.496,0.9999981303295842,47.271570465032895
6.504,0.9999982858688411,47.08441978486592
6.5120000000000005,0.9999984367566382,46.897203286088725
6.52,0.9999985830782957,46.70992103899135
6.5280000000000005,0.9999987249181462,46.522573114536726
6.536,0.9999988623595436,46.3351595843614
6.5440000000000005,0.9999989954848663,46.147680520775616
6.552,0.9999991243755246,45.960135996763974
6.5600000000000005,0.9999992491119654,45.77252608598541
6.568,0.9999993697736798,45.584850862773955
6.5760000000000005,0.9999994864392069,45.39711040213866
6.584,0.9999995991861405,45.20930477976423
6.592,0.999999708091135,45.02143407201106
6.6,0.9999998132299117,44.83349835591573
6.608,0.9999999146772631,44.6454977091911
6.616,0.9999999999999999,44.45743221022669
6.624,1.0,44.269301938088894
6.632,1.0,44.08110697252114
6.64,1.0,43.89284739394419
6.648,0.9999999999999999,43.70452328345628
6.656,0.9999999999999999,43.51613472283337
6.664,1.0,43.327681794529276
6.672,1.0,43.139164581675814
6.68,0.9999999999999999,42.950583168083
6.688,1.0,42.76193763823915
6.696,1.0,42.57322807731095
6.704,1.0,42.384454571143685
6.712,0.9999999999999998,42.19561720626121
6.72,1.0,42.006716069866094
6.728,0.9999999999999999,41.81775124983968
6.736,1.0,41.628722834742035
6.744,0.9999999999999999,41.439630913812145
6.752,1.0,41.250475576967844
6.76,1.0,41.061256914805774
6.768,1.0,40.87197501860149
6.776,1.0,40.682629980309336
6.784,1.0,40.49322189256246
6.792,1.0,40.303750848672756
6.8,1.0,40.11421694263079
6.808,1.0,39.92462026910569
6.816,0.9999999999999999,39.7349609234451
6.824,1.0,39.54523900167506
6.832,0.9999999999999999,39.35545460049985
6.84,0.9999999999999998,39.16560781730185
6.848,1.0,38.97569875014142
6.856,0.9999999999999999,38.78572749775668
6.864,0.9999999999999999,38.59569415956343
6.872,1.0,38.40559883565478
6.88,1.0,38.21544162680107
6.888,0.9999999999999999,38.025222634449605
6.896,0.9999999999999999,37.83494196072441
6.904,0.9999999999999999,37.64459970842592
6.912,0.9999999999999999,37.4541959810308
6.92,1.0,37.26373088269155
6.928,0.9999999999999999,37.073204518236295
6.936,1.0,36.88261699316838
6.944,1.0,36.691968413666096
6.952,1.0,36.501258886582285
6.96,1.0,36.31048851944399
6.968,0.9999999999999999,36.11965742045212
6.976,1.0,35.928765698480944
6.984,1.0,35.73781346307775
6.992,1.0,35.54680082446244
7.0,1.0,35.35572789352697
7.008,1.0,35.164594781835056
7.016,0.9999999999999999,34.97340160162156
7.024,1.0,34.78214846579206
7.032,0.9999999999999999,34.590835487922334
7.04,1.0,34.3994627822578
7.048,1.0,34.208030463713044
7.056,1.0,34.01653864787121
7.064,0.9999999999999999,33.82498745098346
7.072,1.0,33.63337698996838
7.08,0.9999999999999999,33.441707382411344
7.088,1.0000000000000002,33.24997874656397
7.096,0.9999999999999999,33.0581912013434
7.104,0.9999999999999999,32.8663448663317
7.112,1.0,32.67443986177521
7.12,0.9999999999999999,32.48247630858382
7.128,0.9999999999999999,32.29045432833026
7.136,0.9999999999999998,32.09837404324943
7.144,0.9999999999999999,31.90623557623766
7.152,1.0,31.714039050851984
7.16,0.9999999999999999,31.521784591309267
7.168,0.9999999999999999,31.329472322485582
7.176,1.0,31.137102369915283
7.184,1.0,30.944674859790293
7.192,1.0,30.75218991895921
7.2,1.0,30.55964767492648
7.208,1.0,30.367048255851586
7.216,1.0,30.174391790548032
7.224,0.9999999999999999,29.981678408482665
7.232,1.0,29.78890823977455
7.24,0.9999999999999999,29.596081415194185
7.248,0.9999999999999999,29.403198066162492
7.256,0.9999999999999999,29.210258324749915
7.264,1.0,29.01726232367537
7.272,1.0,28.824210196305312
7.28,1.0,28.631102076652702
7.288,1.0,28.437938099375998
7.296,1.0,28.244718399778105
7.304,1.0,28.051443113805295
7.312,1.0,27.85811237804621
7.32,1.0,27.664726329730644
7.328,0.9999999999999999,27.471285106728583
7.336,0.9999999999999999,27.277788847548948
7.344,1.0,27.084237691338558
7.352,1.0,26.890631777880913
7.36,0.9999999999999999,26.696971247595048
7.368,1.0,26.503256241534306
7.376,1.0,26.309486901385213
7.384,1.0,26.115663369466162
7.392,0.9999999999999998,25.921785788726215
7.4,0.9999999999999999,25.72785430274388
7.4079999999999995,1.0,25.53386905572578
7.416,0.9999999999999999,25.339830192505342
7.4239999999999995,1.0,25.145737858541665
7.432,1.0,24.951592199917926
7.4399999999999995,1.0,24.75739336334031
7.448,0.9999999999999999,24.563141496136403
7.4559999999999995,0.9999999999999999,24.36883674625411
7.464,1.0,24.174479262259904
7.4719999999999995,1.0,23.980069193337822
7.48,1.0,23.785606689287654
7.4879999999999995,0.9999999999999999,23.591091900523892
7.496,0.9999999999999999,23.396524978073835
7.504,1.0,23.20190607357661
7.5120000000000005,1.0,23.0072353392812
7.52,1.0,22.812512928045354
7.5280000000000005,1.0,22.617738993333724
7.536,1.0,22.422913689216642
7.5440000000000005,0.9999999999999999,22.22803717036824
7.552,1.0,22.033109592065202
7.5600000000000005,0.9999999999999999,21.838131110184875
7.568,0.9999999999999999,21.643101881203968
7.5760000000000005,1.0,21.44802206219657
7.584,1.0,21.252891810832946
7.5920000000000005,0.9999999999999999,21.05771128537743
7.6,0.9999999999999999,20.862480644687185
7.6080000000000005,1.0,20.6672000482101
7.616,0.9999999999999999,20.471869655983483
7.6240000000000006,1.0,20.276489628631985
7.632,0.9999999999999999,20.08106012736621
7.640000000000001,0.9999999999999999,19.88558131398059
7.648,0.9999999999999999,19.690053350852
7.656000000000001,0.9999999992153649,19.494476400937597
7.664,0.9999999802673359,19.298850627773387
7.672,0.99999996152675,19.10317619547207
7.68,0.9999999429930029,18.90745326872144
7.688,0.9999999246652558,18.71168201278243
7.696,0.9999999065424372,18.51586259348728
7.704,0.9999998886232474,18.319995177237644
7.712,0.9999998709061636,18.12407993100268
7.72,0.9999998533894432,17.92811702231712
7.728,0.9999998360711277,17.732106619279417
7.736,0.9999998189490467,17.536048890549687
7.744,0.999999802020822,17.339944005347835
7.752,0.9999997852838719,17.143792133451516
7.76,0.9999997687354145,16.947593445194173
7.768,0.9999997523724719,16.75134811146302
7.776,0.9999997361918745,16.55505630369698
7.784,0.999999720190264,16.358718193884698
7.792,0.9999997043640978,16.162333954562435
7.8,0.999999688709653,15.965903758812013
7.808,0.9999996732230297,15.769427780258697
7.816,0.9999996579001552,15.57290619306914
7.824,0.9999996427367875,15.376339171949196
7.832,0.9999996277285188,15.179726892141824
7.84,0.9999996128707805,14.983069529424915
7.848,0.9999995981588445,14.78636726010914
7.856,0.9999995835878301,14.589620261035716
7.864,0.9999995691527044,14.392828709574264
7.872,0.9999995548482882,14.19599278362055
7.88,0.9999995406692582,13.999112661594268
7.888,0.9999995266101522,13.802188522436785
7.896,0.9999995126653709,13.605220545608885
7.904,0.9999994988291823,13.408208911088463
7.912,0.9999994850957251,13.21115379936828
7.92,0.9999994714590132,13.014055391453585
7.928,0.999999457912937,12.816913868859862
7.936,0.9999994444512684,12.619729413610424
7.944,0.9999994310676648,12.422502208234095
7.952,0.9999994177556704,12.225232435762829
7.96,0.9999994045087216,12.027920279729319
7.968,0.9999993913201495,11.830565924164599
7.976,0.9999993781831831,11.63316955359563
7.984,0.9999993650909529,11.435731353042858
7.992,0.9999993520364946,11.238251508017772
8.0,0.9999993390127515,11.040730204520454
8.008,0.9999993260125783,10.8431676290371
8.016,0.9999993130287446,10.645563968537443
8.024000000000001,0.9999993000539368,10.44791941047244
8.032,0.9999992870807629,10.250234142771617
8.04,0.9999992741017554,10.052508353840487
8.048,0.9999992611093731,9.854742232558046
8.056000000000001,0.9999992480960056,9.656935968274334
8.064,0.9999992350539763,9.459089750807737
8.072,0.9999992219755438,9.261203770442332
8.08,0.9999992088529082,9.063278217925351
8.088000000000001,0.9999991956782102,8.865313284464646
8.096,0.9999991824435372,8.667309161725976
8.104,0.9999991691409253,8.469266041830272
8.112,0.9999991557623612,8.271184117351035
8.120000000000001,0.9999991422997868,8.073063581311779
8.128,0.9999991287451009,7.874904627183228
8.136,0.999999115090163,7.676707448880532
8.144,0.9999991013267947,7.478472240760636
8.152000000000001,0.9999990874467845,7.280199197619626
8.16,0.9999990734418891,7.081888514689894
8.168,0.9999990593038369,6.883540387637314
8.176,0.9999990450243305,6.685155012558516
8.184000000000001,0.9999990305950495,6.486732585978214
8.192,0.9999990160076526,6.288273304846312
8.2,0.9999990012537823,6.08977736653499
8.208,0.9999989863250651,5.8912449688359745
8.216000000000001,0.9999989712131149,5.692676309957794
8.224,0.9999989559095376,5.4940715885228055
8.232,0.9999989404059297,5.295431003564283
8.24,0.9999989246938853,5.096754754523578
8.248000000000001,0.9999989087649951,4.898043041247355
8.256,0.9999988926108514,4.699296063984578
8.264,0.9999988762230488,4.500514023383493
8.272,0.9999988595931877,4.301697120488819
8.280000000000001,0.9999988427128764,4.102845556738853
8.288,0.9999988255737343,3.9039595339624458
8.296,0.9999988081673923,3.705039254375954
8.304,0.9999987904854978,3.5060849205803195
8.312,0.9999987725197149,3.3070967355582312
8.32,0.9999987542617277,3.1080749026707983
8.328,0.999998735703243,2.909019625654894
8.336,0.9999987168359914,2.709931108619761
8.344,0.999998697651731,2.5108095560443386
8.352,0.999998678142248,2.3116551727738317
8.36,0.9999986582993597,2.112468164017026
8.368,0.999998638114918,1.9132487353428378
8.376,0.9999986175808087,1.71399709267758
8.384,0.9999985966889566,1.5147134423015223
8.392,0.9999985754313251,1.3153979908461089
8.4,0.9999985537999203,1.116050945290514
8.408,0.9999985317867919,0.9166725129588158
8.416,0.9999985093840351,0.7172629015165473
8.424,0.9999984865837938,0.5178223189678504
8.432,0.9999984633782614,0.31835097365198345
8.44,0.9999984397596827,0.11884907424047367
8.448,0.9999984157203575,-0.08068317026640154
8.456,0.9999983912526403,-0.2802455505424921
8.464,0.999998366348944,-0.47983785693930503
8.472,0.9999983410017406,-0.6794598794889117
8.48,0.9999983152035631,-0.8791114079075024
8.488,0.9999982889470083,-1.0787922315982814
8.496,0.9999982622247378,-1.278502139655089
8.504,0.9999982350294797,-1.4782409208653
8.512,0.9999982073540308,-1.678008363713441
8.52,0.9999981791912583,-1.877804256384141
8.528,0.9999981505341003,-2.077628386765759
8.536,0.99999812137557,-2.277480542453346
8.544,0.9999980917087543,-2.4773605107523062
8.552,0.9999980615268179,-2.677268078681365
8.56,0.9999980308230038,-2.8772030329762592
8.568,0.9999979995906347,-3.077165160092712
8.576,0.9999979678231152,-3.2771542462101526
8.584,0.9999979355139326,-3.4771700772347125
8.592,0.9999979026566592,-3.6772124388029557
8.6,0.9999978692449529,-3.8772811162848884
8.608,0.9999978352725601,-4.077375894787712
8.616,0.9999978007333152,-4.277496559158867
8.624,0.9999977656211431,-4.47764289398978
8.632,0.9999977299300603,-4.677814683618929
8.64,0.9999976936541776,-4.8780117121356135
8.648,0.9999976567876989,-5.07823376338304
8.656,0.9999976193249245,-5.278480620962104
8.664,0.9999975812602518,-5.478752068234483
8.672,0.9999975425881762,-5.679047888326452
8.68,0.9999975033032927,-5.879367864131988
8.688,0.9999974634002975,-6.0797117783165895
8.696,0.9999974228739883,-6.280079413320397
8.704,0.9999973817192662,-6.480470551362051
8.712,0.9999973399311364,-6.68088497444181
8.72,0.9999972975047101,-6.8813224643454145
8.728,0.9999972544352038,-7.08178280264724
8.736,0.999997210717943,-7.282265770714168
8.744,0.9999971663483611,-7.482771149708739
8.752,0.9999971213220009,-7.683298720593068
8.76,0.9999970756345171,-7.883848264131974
8.768,0.9999970292816746,-8.084419560896942
8.776,0.9999969822593517,-8.28501239126926
8.784,0.9999969345635407,-8.485626535443963
8.792,0.9999968861903471,-8.686261773433023
8.8,0.9999968371359932,-8.886917885069284
8.808,0.9999967873968166,-9.087594650009674
8.815999999999999,0.9999967369692724,-9.288291847739107
8.824,0.9999966858499335,-9.489009257573919
8.832,0.9999966340354917,-9.689746658665387
8.84,0.999996581522758,-9.890503830003404
8.847999999999999,0.9999965283086641,-10.091280550420185
8.856,0.9999964743902623,-10.29207659859378
8.864,0.9999964197647265,-10.492891753051595
8.872,0.9999963644293539,-10.69372579217411
8.879999999999999,0.9999963083815637,-10.894578494198594
8.888,0.9999962516188994,-11.095449637222636
8.896,0.9999961941390281,-11.296338999207707
8.904,0.9999961359397433,-11.49724635798286
8.911999999999999,0.9999960770189625,-11.698171491248507
8.92,0.9999960173747304,-11.899114176579934
8.928,0.9999959570052173,-12.10007419143091
8.936,0.9999958959087214,-12.30105131313739
8.943999999999999,0.9999958340836685,-12.502045318921303
8.952,0.9999957715286117,-12.70305598589411
8.96,0.999995708242234,-12.904083091060382
8.968,0.9999956442233459,-13.105126411321592
8.975999999999999,0.9999955794708877,-13.306185723479853
8.984,0.9999955139839303,-13.507260804241502
8.992,0.9999954477616738,-13.708351430220743
9.0,0.999995380803449,-13.909457377943378
9.008,0.9999953131087178,-14.11057842385061
9.016,0.9999952446770727,-14.31171434430265
9.024000000000001,0.9999951755082379,-14.512864915582318
9.032,0.9999951056020692,-14.71402991389883
9.04,0.9999950349585544,-14.915209115391615
9.048,0.9999949635778126,-15.116402296133906
9.056000000000001,0.9999948914600962,-15.317609232136364
9.064,0.9999948186057899,-15.518829699350887
9.072,0.9999947450154102,-15.720063473674436
9.08,0.9999946706896072,-15.921310330952593
9.088000000000001,0.9999945956291638,-16.122570046983277
9.096,0.9999945198349955,-16.323842397520473
9.104,0.9999944433081509,-16.525127158278117
9.112,0.9999943660498124,-16.726424104933663
9.120000000000001,0.9999942880612944,-16.92773301313178
9.128,0.9999942093440457,-17.129053658488118
9.136,0.9999941298996472,-17.330385816593147
9.144,0.9999940497298136,-17.53172926301583
9.152000000000001,0.9999939688363924,-17.733083773307182
9.16,0.9999938872213645,-17.934449123004175
9.168,0.9999938048868435,-18.135825087633517
9.176,0.9999937218350762,-18.337211442715304
9.184000000000001,0.9999936380684417,-18.538607963766662
9.192,0.9999935535894519,-18.740014426305596
9.2,0.9999934684007518,-18.94143060585474
9.208,0.9999933825051175,-19.142856277945114
9.216000000000001,0.9999932959054585,-19.344291218119675
9.224,0.9999932086048154,-19.5457352019372
9.232,0.9999931206063611,-19.747188004976056
9.24,0.9999930319133993,-19.948649402837926
9.248000000000001,0.9999929425293654,-20.150119171151342
9.256,0.9999928524578253,-20.351597085575644
9.264,0.9999927617024765,-20.553082921804673
9.272,0.9999926702671454,-20.754576455570515
9.280000000000001,0.9999925781557895,-20.956077462647063
9.288,0.9999924853724953,-21.157585718853916
9.296,0.9999923919214793,-21.35910100006012
9.304,0.9999922978070858,-21.560623082187885
9.312000000000001,0.9999922030337888,-21.762151741216144
9.32,0.9999921076061894,-21.96368675318445
9.328,0.9999920115290167,-22.16522789419672
9.336,0.9999919148071273,-22.366774940424904
9.344,0.9999918174455046,-22.568327668112552
9.352,0.9999917194492575,-22.7698858535789
9.36,0.9999916208236211,-22.971449273222156
9.368,0.9999915215739563,-23.173017703523605
9.376,0.9999914217057474,-23.374590921050988
9.384,0.9999913212246045,-23.576168702462518
9.392,0.9999912201362599,-23.77775082451028
9.4,0.99999111844657,-23.97933706404427
9.408,0.9999910161615125,-24.18092719801573
9.416,0.9999909132871885,-24.382521003481244
9.424,0.9999908098298186,-24.58411825760602
9.432,0.9999907057957452,-24.785718737668
9.44,0.9999906011914306,-24.98732222106114
9.448,0.9999904960234556,-25.188928485299503
9.456,0.9999903902985201,-25.39053730802055
9.464,0.9999902840234418,-25.5921484669892
9.472,0.9999901772051557,-25.79376174010111
9.48,0.9999900698507134,-25.995376905386777
9.488,0.9999899619672815,-26.19699374101476
9.496,0.9999898535621423,-26.398612025295783
9.504,0.9999897446426922,-26.600231536685992
9.512,0.9999896352164407,-26.801852053790967
9.52,0.9999895252910104,-27.003473355369035
9.528,0.9999894148741353,-27.205095220335284
9.536,0.9999893039736605,-27.406717427764804
9.544,0.9999891925975417,-27.608339756896733
9.552,0.9999890807538434,-27.809961987137505
9.56,0.9999889684507387,-28.011583898064835
9.568,0.9999888556965087,-28.21320526943099
9.576,0.9999887424995407,-28.414825881166788
9.584,0.9999886288683283,-28.616445513384804
9.592,0.9999885148114692,-28.818063946383358
9.6,0.9999884003376666,-29.019680960649797
9.608,0.9999882854557254,-29.22129633686436
9.616,0.9999881701745528,-29.422909855903516
9.624,0.9999880545031581,-29.62452129884382
9.632,0.9999879384506498,-29.82613044696519
9.64,0.999987822026236,-30.027737081754807
9.648,0.9999877052392233,-30.22934098491034
9.656,0.9999875880990153,-30.430941938343835
9.664,0.9999874706151121,-30.63253972418495
9.672,0.999987352797108,-30.834134124784836
9.68,0.9999872346546929,-31.035724922719336
9.688,0.9999871161976489,-31.23731190079283
9.696,0.9999869974358504,-31.438894842041485
9.704,0.999986878379263,-31.640473529737065
9.712,0.9999867590379422,-31.842047747390136
9.72,0.9999866394220321,-32.043617278753835
9.728,0.9999865195417645,-32.245181907827174
9.736,0.9999863994074586,-32.44674141885869
9.744,0.9999862790295183,-32.64829559634977
9.752,0.9999861584184325,-32.84984422505831
9.76,0.9999860375847728,-33.051387090001974
9.768,0.9999859165391939,-33.25292397646188
