freq,mag,phase
6.0,0.9989185681955426,65.90585116037934
6.002287104,0.9989956518666098,65.74333054941381
6.004574208,0.9991357032967321,65.57925592645722
6.006861312,0.9993306709094631,65.41276573325862
6.009147904,0.9995680444771442,65.24313883648159
6.011435008,0.9998330515858733,65.06989698020746
6.013722112,1.0001089428852703,64.89273599564778
6.016009216,1.000378356983623,64.71164818954979
6.01829632,1.0006242465108472,64.5268234139785
6.020583424,1.0008312225789098,64.33875707658785
6.022870016,1.0009862734469117,64.14806114360204
6.02515712,1.0010796379321623,63.955599974049406
6.027444224,1.001105367449136,63.76225686785108
6.029731328,1.0010618935947326,63.569063318279554
6.032018432,1.0009519195585863,63.376998007404666
6.034305536,1.0007822004399323,63.18695040040465
6.036592128,1.00056345417431,62.99972356013929
6.038879232,1.0003095078525004,62.81592761917937
6.041166336,1.0000361012769918,62.635950841084174
6.04345344,0.9997606746920686,62.45996196073821
6.045740544,0.9995004360235313,62.287864188800505
6.048027648,0.9992717093077127,62.119335855185525
6.05031424,0.9990891289553293,61.9538198964604
6.052601344,0.9989642445808152,61.79051795501814
6.054888448,0.9989047447538854,61.628591143600744
6.057175552,0.9989146793591245,61.4670413167452
6.059462656,0.9989932607784523,61.30486663031236
6.06174976,0.9991356107710004,61.14107981678959
6.064036352,0.9993327646274413,60.974859869243865
6.066323456,0.9995723131438744,60.805451150836404
6.06861056,0.9998392404757148,60.63240136028391
6.070897664,1.0001165811698418,60.45542921444914
6.073184768,1.000386915382109,60.274487926167396
6.075471872,1.0006333678084876,60.08979484423537
6.077758464,1.0008402593143328,59.90186106356639
6.080045568,1.0009946362942308,59.71131282727321
6.082332672,1.0010867888059085,59.51897409319262
6.084619776,1.0011108301650862,59.32581430729409
6.08690688,1.0010654371411778,59.13281068177173
6.089193984,1.000953068225973,58.94097434244799
6.091481088,1.0007811356661716,58.75118419525429
6.09376768,1.0005602119360322,58.56423985810171
6.096054784,1.000304063973346,58.38074072239429
6.098341888,1.0000290678082497,58.20110975648427
6.100628992,0.999752272997918,58.025487777477515
6.102916096,0.9994912670848091,57.85376563794551
6.1052032,0.9992624706590886,57.68561647368636
6.107489792,0.9990803053738105,57.520465557997156
6.109776896,0.9989562587293938,57.357532732003726
6.112064,0.9988983192931646,57.19595367518508
6.114351104,0.9989099853706295,57.03470313276338
6.116638208,0.9989908551218536,56.87282475706792
6.118925312,0.9991354850949732,56.70928392052539
6.121211904,0.9993350053538949,56.543266167674275
6.123499008,0.999576802496973,56.37404939374462
6.125786112,0.999845588571676,56.2011408770121
6.128073216,1.0001244692028908,56.02428884431573
6.13036032,1.0003957802516643,55.84344076950608
6.132647424,1.0006427149098789,55.65884880755915
6.134934016,1.0008494535317431,55.470991169507464
6.13722112,1.0010031403948134,55.280529055939205
6.139508224,1.00109402811828,55.08829243331069
6.141795328,1.0011164034326454,54.895268484076986
6.144082432,1.0010688472234142,54.7024096735848
6.146369536,1.0009543897460393,54.51073263234049
6.148656128,1.0007799674161921,54.32115455016895
6.150943232,1.000556739080527,54.13444594221093
6.153230336,1.0002986539602787,53.9512236827574
6.15551744,1.0000217714928779,53.77187184028408
6.157804544,0.9997437638350317,53.59656980864198
6.160091648,0.9994819976846866,53.42517041167614
6.162378752,0.9992530784877881,53.25733736650588
6.164665344,0.9990713717969588,53.092529423523
6.166952448,0.9989483054192467,52.9299185025532
6.169239552,0.9988918365003556,52.76863578791535
6.171526656,0.9989055464906121,52.60765179241295
6.17381376,0.9989884762972808,52.446001604112226
6.176100864,0.999135545073058,52.28267140089078
6.178387456,0.9993374034629364,52.11681355159083
6.18067456,0.9995814117586208,51.94774099785475
6.182961664,0.9998521269718798,51.774930426662806
6.185248768,1.0001324947526988,51.59814481596786
6.187535872,1.0004049651784377,51.417345604865915
6.189822976,1.0006522353669602,51.2327979398911
6.192109568,1.0008588542610013,51.04497709977209
6.194396672,1.0010118015645857,50.85455124183858
6.196683776,1.0011014523954687,50.662365503404295
6.19897088,1.001122041684198,50.4694037987974
6.201257984,1.0010724311621684,50.27664104303781
6.203545088,1.0009555132031298,50.08509985864997
6.20583168,1.0007788181612343,49.895675412551725
6.208118784,1.000553226096237,49.70915628827629
6.210405888,1.0002930287225842,49.526184110654356
6.212692992,1.000014481661796,49.34708376068279
6.214980096,0.99973511826857,49.1720153257839
6.2172672,0.9994726286546822,49.000916092293416
6.219553792,0.9992435175796125,48.83338397952053
6.221840896,0.9990622743594548,48.66883879524339
6.224128,0.9989402599729118,48.50650716939859
6.226415104,0.9988853393151269,48.34547210119146
6.228702208,0.9989009401740966,48.18471224077062
6.230989312,0.9989862015156185,48.02323404646887
6.233275904,0.9991356750711772,47.86007218205318
6.235563008,0.9993399149210666,47.69434031749438
6.237850112,0.999586186011865,47.52534470173825
6.240137216,0.999858849224807,47.35258978286741
6.24242432,1.000140816152773,47.17581287454808
6.244711424,1.0004141465427956,46.99502167544778
6.246998528,1.000661939214702,46.8104622784233
6.24928512,1.0008684278431466,46.62261407063048
6.251572224,1.0010205484005221,46.43218053061194
6.253859328,1.0011088470841538,46.24000827811464
6.256146432,1.0011276781017988,46.04707119483967
6.258433536,1.0010759752936835,45.85436300467363
6.26072064,1.000956694268319,45.66289076585815
6.263007232,1.0007775113550967,45.47357059415244
6.265294336,1.0005495886943716,45.287208904897646
6.26758144,1.0002872302344104,45.104392434749826
6.269868544,1.0000068975450427,44.92549312632743
6.272155648,0.9997262640099598,44.75066912002014
6.274442752,0.9994630198195009,44.57980637718889
6.276729344,0.999233806449866,44.41251939055039
6.279016448,0.9990529653276905,44.248204010596865
6.281303552,0.9989320643686853,44.0861022338468
6.283590656,0.9988787245453514,43.92525259640027
6.28587776,0.9988963350451895,43.76469480081249
6.288164864,0.9989838436177731,43.6033601674435
6.290451456,0.9991358132120414,43.44027428723291
6.29273856,0.9993425330296806,43.27462667151287
6.295025664,0.999591057953696,43.105658169704455
6.297312768,0.999865671091917,42.93291770083904
6.299599872,1.0001491841666,42.75609783885892
6.301886976,1.0004237013510093,42.57526413451364
6.304173568,1.000671856641477,42.39065379516549
6.306460672,1.0008780873818648,42.20275388678075
6.308747776,1.001029491235197,42.01224955537163
6.31103488,1.0011164206778547,41.820042902368684
6.313321984,1.0011335018095788,41.62705942829653
6.315609088,1.0010795124064278,41.434353876124675
6.317896192,1.0009578212020611,41.242918588658355
6.320182784,1.0007761617704918,41.05368286350704
6.322469888,1.0005458858522702,40.86742492404491
6.324756992,1.0002813923310054,40.68473400797353
6.327044096,0.9999991929292266,40.50599867602924
6.3293312,0.9997172549509918,40.33134891715292
6.331618304,0.9994532827252126,40.16066712747255
6.333904896,0.9992239440611067,39.99358263681666
6.336192,0.9990435365717106,39.82944329195358
6.338479104,0.9989237475991903,39.667527376869764
6.340766208,0.9988720299589107,39.50683082010591
6.343053312,0.9988917193802159,39.34640201628626
6.345340416,0.9989816137912239,39.185186044872175
6.347627008,0.9991359880011441,39.02216742058001
6.349914112,0.9993452019875305,38.85651411068612
6.352201216,0.999595976912309,38.68754236484661
6.35448832,0.9998726654139434,38.514741325859426
6.356775424,1.0001577425845503,38.337863854376984
6.359062528,1.0004331712129424,38.1569288341414
6.36134912,1.0006818067497718,37.97218382431538
6.363636224,1.000887907984302,37.78416991424947
6.365923328,1.0010384773668433,37.593560235706114
6.368210432,1.001124042200776,37.401263616738895
6.370497536,1.0011391895639137,37.20822600711798
6.37278464,1.0010830528415637,37.0154731509217
6.375071232,1.0009589901583793,36.82401340243676
6.377358336,1.0007747253959598,36.63480710317295
6.37964544,1.0005420585146008,36.448580708238715
6.381932544,1.0002752675321847,36.265977109367114
6.384219648,0.999991338495406,36.08737616428022
6.386506752,0.99970812690755,35.91284941362891
6.388793344,0.9994434144292305,35.74231171253325
6.391080448,0.9992137994606561,35.57538679357871
6.393367552,0.9990340348787926,35.41142274023793
6.395654656,0.9989153497878323,35.24961498256483
6.39794176,0.9988652200997695,35.08904736283987
6.400228864,0.9988869771360237,34.92868518905312
6.402515968,0.9989792198487654,34.767513499477495
6.40480256,0.999136034471007,34.60450427918222
6.407089664,0.9993478446943641,34.43882882304533
6.409376768,0.9996009290664921,34.2698057560407
6.411663872,0.9998796882193942,34.09690297228988
6.413950976,1.0001662917477565,33.91989174193068
6.41623808,1.0004428973648543,33.73881323535609
6.418524672,1.0006918923661337,33.553924416509126
6.420811776,1.0008978240785276,33.36575284429555
6.42309888,1.0010475502080154,33.17497510204426
6.425385984,1.0011317306636516,32.98254857930227
6.427673088,1.0011450798479864,32.78937404892934
6.429960192,1.0010866338731135,32.59652572860615
6.432246784,1.0009601052536128,32.40501922764555
6.434533888,1.000773330486883,32.21576484869813
6.436820992,1.000538192449193,32.029568036053305
6.439108096,1.000269281266568,31.846993405179564
6.4413952,0.9999835066365091,31.668447392579523
6.443682304,0.9996989159928692,31.494018627295105
6.445968896,0.9994333846428662,31.323582643756108
6.448256,0.9992037604451722,31.156760465489345
6.450543104,0.9990244547255152,30.992875859337275
6.452830208,0.998906859745974,30.831170194802485
6.455117312,0.9988584045067898,30.67067360932243
6.457404416,0.9988821726600166,30.51035554282489
6.459691008,0.9989767752913336,30.34916221060013
6.461978112,0.9991362004340771,30.186161273074745
6.464265216,0.9993505221182343,30.020399688468615
6.46655232,0.9996060638946809,29.85125227577574
6.468839424,0.9998867301102127,29.678214799710588
6.471126528,1.0001750047655904,29.50103283102989
6.473413632,1.000452567083788,29.319761780321496
6.475700224,1.0007020902214057,29.134650128408587
6.477987328,1.0009077000290079,28.946263422210258
6.480274432,1.0010567018198224,28.75532058105769
6.482561536,1.0011395139732286,28.562673897271285
6.48484864,1.0011509508412757,28.369352626937413
6.487135744,1.0010902578513947,28.176375411003097
6.489422336,1.0009612991108938,27.984753588929852
6.49170944,1.0007719198766571,27.795419360721137
6.493996544,1.0005342386568519,27.609177922158405
6.496283648,1.0002631425816013,27.426599926969942
6.498570752,0.999975547094644,27.248082209569745
6.500857856,0.9996895212430011,27.073699658307984
6.503144448,0.9994233108415886,26.903326197291268
6.505431552,0.9991935217123564,26.736550192109796
6.507718656,0.9990147643413323,26.57274554163713
6.51000576,0.9988983036390775,26.411076956185845
6.512292864,0.9988514042584807,26.25058561980728
6.514579968,0.9988774137067657,26.090255143548085
6.51686656,0.9989743666616926,25.92905398363093
6.519153664,0.9991364172316534,25.765928363517805
6.521440768,0.999353211640346,25.600063498576034
6.523727872,0.9996111066970393,25.430746836363685
6.526014976,0.9998938379683102,25.25751262757036
6.52830208,1.0001837204919528,25.08012394870642
6.530588672,1.0004622908975414,24.89860825219234
6.532875776,1.000712257175894,24.71326230949598
6.53516288,1.000917812591248,24.52461948488306
6.537449984,1.001065931154373,24.33341688464946
6.539737088,1.0011472711830716,24.140529921188158
6.542024192,1.0011568658219274,23.946987230422156
6.544310784,1.0010937804039122,23.753818929397653
6.546597888,1.0009622798587452,23.562052640577257
6.548884992,1.000770460331128,23.37260638592407
6.551172096,1.000530377018236,23.186270099553024
6.5534592,1.0002569644967205,23.003662605884596
6.555746304,0.9999675211225572,22.82510321273167
6.558033408,0.9996801551702934,22.650724419959186
6.56032,0.9994131838959194,22.480354088324795
6.562607104,0.9991832007704203,22.31359326993131
6.564894208,0.9990049627726444,22.149790162431884
6.567181312,0.9988896393563953,21.98812791787458
6.569468416,0.99884450540648,21.8276369205548
6.57175552,0.9988725958232931,21.66725765182858
6.574042112,0.9989719640596646,21.505941475937625
6.576329216,0.9991365616545068,21.342682595036646
6.57861632,0.9993559047274471,21.176665411032673
6.580903424,0.9996161971810215,21.007158399657367
6.583190528,0.9999010522020063,20.833679595601254
6.585477632,1.000192549652845,20.656027810564762
6.587764224,1.000472273955966,20.474216333753994
6.590051328,1.000722679565767,20.288574026703962
6.592338432,1.0009280119861048,20.09962570123032
6.594625536,1.0010752727644034,19.90811542237547
6.59691264,1.001155245648198,19.714971920871722
6.599199744,1.0011629069330819,19.521143706764303
6.601486336,1.0010976148071395,19.327749803955957
6.60377344,1.0009635979022558,19.13578885641388
6.606060544,1.000769225099111,18.946174102469264
6.608347648,1.0005265155754477,18.75971370254728
6.610634752,1.0002508794618952,18.576988557263757
6.612921856,0.9999594745292928,18.398373288353362
6.615208448,0.9996708138838877,18.22394673613728
6.617495552,0.9994029766329036,18.053548591345734
6.619782656,0.9991728934384517,17.886751057890308
6.62206976,0.998995190426698,17.722929636997
6.624356864,0.9988808966480255,17.5612222662682
6.626643968,0.9988374604366713,17.400645233310918
6.628931072,0.9988676298979267,17.240155799616566
6.631217664,0.998969487449393,17.078711252608446
6.633504768,0.9991365492246193,16.9153194720732
6.635791872,0.9993584970931542,16.749081809954625
6.638078976,0.9996213023843401,16.579324909088374
6.64036608,0.999908266120302,16.405555607491458
6.642653184,1.0002013635434133,16.227584144495395
6.644939776,1.000482170538783,16.04547506966947
6.64722688,1.0007330305444473,15.859470604047527
6.649513984,1.0009381556453982,15.670175639159721
6.651801088,1.0010846464863814,15.47831954027225
6.654088192,1.001163193424804,15.284837313624056
6.656375296,1.0011689230864282,15.090726758593163
6.658661888,1.0011014019440325,14.897045987968665
6.660948992,1.0009648582104658,14.704823264665906
6.663236096,1.0007678166352016,14.515006191885751
6.6655232,1.0005225309180645,14.328373789675991
6.667810304,1.0002446487698293,14.145506969483005
6.670097408,0.9999514438232332,13.966779512840578
6.672384,0.9996613010169747,13.792266633921786
6.674671104,0.9993926543717142,13.621778334603539
6.676958208,0.9991624703752006,13.454918773152244
6.679245312,0.9989851882630643,13.291022833632333
6.681532416,0.9988720890154861,13.129193510439693
6.68381952,0.9988303102363875,12.968543685888097
6.686106112,0.9988626151152367,12.80790508583223
6.688393216,0.998966949617874,12.646288363398083
6.69068032,0.9991366812239343,12.482667927832868
6.692967424,0.9993611489218174,12.316183666426355
6.695254528,0.9996262940997617,12.146136438110426
6.697541632,0.9999153490370193,11.972048523045473
6.699828224,1.0002100958699218,11.793736350354143
6.702115328,1.0004921170955068,11.611220118576654
6.704402432,1.000743444292672,11.424853617127093
6.706689536,1.0009484268865778,11.235155054210079
6.70897664,1.0010940686774843,11.042923347376775
6.711263744,1.0011712250922398,10.849063077726806
6.713550848,1.001175086301748,10.65458121370748
6.71583744,1.0011052197129355,10.46059725770487
6.718124544,1.0009662077984198,10.268082255341342
6.720411648,1.0007665234149559,10.077994124864352
6.722698752,1.000518799425144,9.89114855237763
6.724985856,1.0002385359816073,9.708097583370927
6.72727296,0.999943368750369,9.529204516281613
6.729559552,0.9996518549350198,9.3545384745566
6.731846656,0.9993823580722505,9.183963069699264
6.73413376,0.9991520091340856,9.016979901562758
6.736420864,0.9989751769136678,8.852952037596848
6.738707968,0.9988632434077166,8.691028326852127
6.740995072,0.9988231487947488,8.530188423666711
6.743281664,0.9988575116715709,8.36938922461612
6.745568768,0.9989642112970709,8.207537888617916
6.747855872,0.9991365529431367,8.043672172933979
6.750142976,0.999363656989444,7.876880497033188
6.75243008,0.9996311647926447,7.706498254373068
6.754717184,0.9999224413792572,7.532050928573924
6.757003776,1.0002188930642741,7.3533321590820035
6.75929088,1.0005019733753864,7.170416004695734
6.761577984,1.000753852029943,6.983584344268092
6.763865088,1.0009587157345028,6.793462877581598
6.766152192,1.0011035350161235,6.600801431601578
6.768439296,1.001179422354415,6.406519023527017
6.770725888,1.001181284243069,6.211649956918191
6.773012992,1.001109214114829,6.0172795582279415
6.775300096,1.000967619833826,5.824439373027864
6.7775872,1.000765355579698,5.634073352364283
6.779874304,1.000515113745121,5.446945817995844
6.782161408,1.000232507942743,5.263670388148074
6.784448512,0.9999353825437095,5.084581497594886
6.786735104,0.9996424699808331,4.909741655620272
6.789022208,0.9993721728161642,4.738996974966253
6.791309312,0.9991416017299057,4.5718450661173895
6.793596416,0.998965179728972,4.407664532466981
6.79588352,0.9988542339492721,4.245562061015285
6.798170624,0.9988158863914494,4.0845327427565685
6.800457216,0.9988522985048932,3.9235051338163403
6.80274432,0.9989614148674891,3.761400264249567
6.805031424,0.9991363761685014,3.597243638318489
6.807318528,0.99936610394418,3.430113013714555
6.809605632,0.9996361679713645,3.2593533556156284
6.811892736,0.9999294930938762,3.0845024869316027
6.814179328,1.0002276282424611,2.905357248495717
6.816466432,1.000511923356941,2.72196090864479
6.818753536,1.0007642215883352,2.534660932278193
6.82104064,1.0009689394914973,2.3440582288386453
6.823327744,1.0011131582425858,2.150907871272643
6.825614848,1.0011876077997266,1.9561615506937688
6.82790144,1.0011876795891848,1.7608696229782914
6.830188544,1.0011132833334098,1.5660829092160167
6.832475648,1.0009692041577012,1.3728588786594353
6.834762752,1.0007642273958277,1.1821510179885957
6.837049856,1.0005113871344633,0.9947238804639378
6.83933696,1.000226484758258,0.8111799454469582
6.841623552,0.9999274613974038,0.6318247206848296
6.843910656,0.9996330122743239,0.4567819821854142
6.84619776,0.9993619084251028,0.2858075528615874
6.848484864,0.9991310742431901,0.11848957799714863
6.850771968,0.9989551533490396,-0.045917534461018775
6.853059072,0.9988452008909089,-0.20824519911564768
6.855345664,0.9988084127401063,-0.3695117354777133
6.857632768,0.9988469550957623,-0.5307981645969815
6.859919872,0.9989586233616812,-0.6931989875922351
6.862206976,0.9991360978870889,-0.857693197088316
6.86449408,0.9993684811032634,-1.0251831875136754
6.866781184,0.9996409341827778,-1.1963527119146886
6.869068288,0.9999364776035747,-1.371674774441163
6.87135488,1.0002363655164739,-1.5513035717396524
6.873641984,1.0005217326342752,-1.7351938380283092
6.875929088,1.0007748440382904,-1.9229912624502208
6.878216192,1.0009794736304332,-2.1141160293222443
6.880503296,1.0011227539614143,-2.307781792862094
6.8827904,1.0011959237623376,-2.5030465526593244
6.885076992,1.0011941590987894,-2.6988134028207575
6.887364096,1.0011175100605711,-2.8940655734254594
6.8896512,1.0009708297561797,-3.08769772512416
6.891938304,1.000763333099022,-3.2788080707297715
6.894225408,1.000507955041123,-3.466588948796137
6.896512512,1.0002207365076536,-3.650436782661649
6.898799104,0.9999197165869109,-3.830069278690011
6.901086208,0.9996238990641518,-4.005383186831925
6.903373312,0.9993518045915455,-4.176590530783728
6.905660416,0.999120608628156,-4.344183415546595
6.90794752,0.9989451427448075,-4.508811873276958
6.910234624,0.9988362143533365,-4.671383465154099
6.912521216,0.9988009986246171,-4.832927301323917
6.91480832,0.9988416375777166,-4.994523898934205
6.917095424,0.998955638203475,-5.157249934143099
6.919382528,0.9991356838577106,-5.3221381304584074
6.921669632,0.9993706020836253,-5.490047051233858
6.923956736,0.9996456393083674,-5.661671545687213
6.926243328,0.9999433549267659,-5.8374626522232855
6.928530432,1.0002449159938909,-6.017617522722426
6.930817536,1.0005315860820245,-6.202048555382484
