freq,mag,phase
6.0,0.9999957567668495,73.15394031287441
6.008,0.9999947333497721,73.00409907455155
6.016,0.9999937383550642,72.85423208465195
6.024,0.9999927713219027,72.70433935765718
6.032,0.9999918317942585,72.55442090795631
6.04,0.9999909193208704,72.40447674984848
6.048,0.9999900334552179,72.25450689754553
6.056,0.999989173755495,72.10451136517452
6.064,0.9999883397845822,71.95449016678036
6.072,0.99998753111002,71.80444331632832
6.08,0.9999867473039825,71.65437082770653
6.088,0.9999859879432487,71.50427271472843
6.096,0.9999852526091767,71.3541489911353
6.104,0.9999845408876757,71.20399967059865
6.112,0.9999838523691796,71.05382476672264
6.12,0.9999831866486187,70.90362429304648
6.128,0.9999825433253932,70.75339826304678
6.136,0.9999819220033448,70.60314669013994
6.144,0.9999813222907308,70.45286958768449
6.152,0.9999807438001955,70.30256696898324
6.16,0.9999801861487437,70.15223884728579
6.168,0.9999796489577126,70.00188523579057
6.176,0.9999791318527439,69.85150614764723
6.184,0.9999786344637577,69.7011015959588
6.192,0.999978156424924,69.55067159378387
6.2,0.9999776973746358,69.40021615413877
6.208,0.999977256955481,69.24973528999972
6.216,0.9999768348142155,69.09922901430495
6.224,0.9999764306017355,68.94869733995691
6.232,0.9999760439730494,68.79814027982411
6.24,0.999975674587252,68.64755784674351
6.248,0.9999753221074955,68.49695005352228
6.256,0.9999749862009621,68.34631691294004
6.264,0.9999746665388377,68.1956584377507
6.272,0.9999743627962833,68.04497464068454
6.28,0.9999740746524082,67.89426553445017
6.288,0.9999738017902424,67.74353113173648
6.296,0.9999735438967096,67.5927714452145
6.304,0.9999733006625998,67.44198648753938
6.312,0.9999730717825412,67.29117627135223
6.32,0.9999728569549737,67.14034080928204
6.328,0.9999726558821219,66.9894801139475
6.336,0.999972468269967,66.83859419795876
6.344,0.9999722938282207,66.6876830739194
6.352,0.9999721322702966,66.53674675442811
6.36,0.9999719833132846,66.38578525208044
6.368,0.999971846677923,66.23479857947063
6.376,0.9999717220885718,66.08378674919332
6.384,0.9999716092731858,65.93274977384532
6.392,0.9999715079632872,65.78168766602714
6.4,0.9999714178939387,65.6306004383449
6.408,0.9999713388037181,65.4794881034119
6.416,0.9999712704346894,65.32835067385012
6.424,0.9999712125323773,65.17718816229214
6.432,0.999971164845741,65.02600058138256
6.44,0.999971127127146,64.87478794377957
6.448,0.9999710991323395,64.72355026215672
6.456,0.999971080620422,64.57228754920423
6.464,0.9999710713538227,64.42099981763079
6.472,0.9999710710982711,64.26968708016484
6.48,0.9999710796227728,64.11834934955633
6.4879999999999995,0.9999710966995818,63.966986638578035
6.496,0.9999711221041753,63.81559896002703
6.504,0.9999711556152261,63.664186326726394
6.5120000000000005,0.9999711970145788,63.512748751526274
6.52,0.9999712460872215,63.361286247305685
6.5280000000000005,0.9999713026212622,63.209798826973646
6.536,0.9999713664079009,63.05828650347085
6.5440000000000005,0.9999714372414051,62.90674928977071
6.552,0.9999715149190841,62.75518719888108
6.5600000000000005,0.9999715992412627,62.60360024384535
6.568,0.999971690011256,62.45198843774394
6.5760000000000005,0.999971787035345,62.30035179369552
6.584,0.9999718901227495,62.14869032485841
6.592,0.9999719990856036,61.9970040444318
6.6,0.9999721137389318,61.84529296565705
6.608,0.9999722339006214,61.69355710181903
6.616,0.9999723593913993,61.541796466247234
6.624,0.9999724900348063,61.39001107231713
6.632,0.9999726256571733,61.23820093345134
6.64,0.9999727660875949,61.08636606312084
6.648,0.9999729111579059,60.93450647484616
6.656,0.9999730607026563,60.78262218219861
6.664,0.9999732145590874,60.630713198801345
6.672,0.9999733725671063,60.478779538330656
6.68,0.9999735345692627,60.326821214516976
6.688,0.9999737004107239,60.17483824114608
6.696,0.9999738699392512,60.022830632060206
6.704,0.9999740430051757,59.87079840115911
6.712,0.9999742194613737,59.71874156240117
6.72,0.9999743991632445,59.56666012980451
6.728,0.999974581968685,59.414554117447985
6.736,0.9999747677380668,59.262423539472266
6.744,0.999974956334213,59.11026841008086
6.752,0.9999751476223737,58.958088743541175
6.76,0.9999753414702035,58.805884554185496
6.768,0.9999755377477384,58.65365585641197
6.776,0.9999757363273719,58.50140266468565
6.784,0.9999759370838319,58.349124993539384
6.792,0.9999761398941597,58.19682285757488
6.8,0.9999763446376838,58.04449627146356
6.808,0.9999765511960003,57.892145249947575
6.816,0.9999767594529485,57.73976980784066
6.824,0.9999769692945885,57.58736996002913
6.832,0.99997718060918,57.4349457214727
6.84,0.9999773932871578,57.28249710720551
6.848,0.9999776072211122,57.130024132336786
6.856,0.9999778223057648,56.97752681205195
6.864,0.9999780384379469,56.82500516161331
6.872,0.9999782555165787,56.67245919636102
6.88,0.9999784734426461,56.5198889317138
6.888,0.9999786921191801,56.36729438316988
6.896,0.999978911451234,56.21467556630775
6.904,0.9999791313458635,56.06203249678698
6.912,0.9999793517121038,55.909365190349014
6.92,0.9999795724609492,55.75667366281797
6.928,0.9999797935053322,55.603957930101345
6.936,0.999980014760101,55.45121800819091
6.944,0.9999802361420008,55.298453913163286
6.952,0.999980457569651,55.1456656611809
6.96,0.9999806789635249,54.99285326849252
6.968,0.9999809002459302,54.84001675143408
6.976,0.9999811213409874,54.6871561264294
6.984,0.9999813421746094,54.53427140999084
6.992,0.999981562674482,54.38136261872003
7.0,0.999981782770043,54.22842976930854
7.008,0.9999820023924625,54.07547287853857
7.016,0.9999822214746223,53.92249196328356
7.024,0.9999824399510978,53.76948704050897
7.032,0.9999826577581362,53.616458127272765
7.04,0.9999828748336377,53.46340524072618
7.048,0.999983091117137,53.31032839811431
7.056,0.9999833065497815,53.15722761677668
7.064,0.9999835210743147,53.00410291414791
7.072,0.9999837346350553,52.85095430775835
7.08,0.9999839471778792,52.69778181523459
7.088,0.9999841586501993,52.544585454300105
7.096,0.9999843690009477,52.39136524277574
7.104,0.9999845781805567,52.238121198580444
7.112,0.9999847861409401,52.08485333973164
7.12,0.9999849928354749,51.931561684345944
7.128,0.9999851982189827,51.77824625063958
7.136,0.999985402247711,51.62490705692896
7.144,0.9999856048793165,51.471544121631226
7.152,0.9999858060728452,51.318157463264725
7.16,0.9999860057887157,51.1647471004496
7.168,0.9999862039887012,51.0113130519082
7.176,0.999986400635911,50.85785533646559
7.184,0.9999865956947741,50.70437397305009
7.192,0.999986789131021,50.55086898069369
7.2,0.9999869809116659,50.39734037853259
7.208,0.999987171004991,50.24378818580758
7.216,0.999987359380527,50.09021242186455
7.224,0.999987546009038,49.93661310615493
7.232,0.9999877308625049,49.782990258236076
7.24,0.9999879139141055,49.62934389777186
7.248,0.9999880951382019,49.47567404453286
7.256,0.9999882745103202,49.321980718396944
7.264,0.9999884520071374,49.16826393934969
7.272,0.9999886276064619,49.014523727484665
7.28,0.9999888012872198,48.86076010300394
7.288,0.9999889730294368,48.70697308621842
7.296,0.999989142814223,48.553162697548224
7.304,0.9999893106237575,48.399328957523096
7.312,0.9999894764412716,48.245471886782774
7.32,0.9999896402510337,48.091591506077265
7.328,0.9999898020383337,47.937687836267344
7.336,0.9999899617894663,47.783760898324786
7.344,0.9999901194917182,47.629810713332766
7.352,0.9999902751333504,47.47583730248614
7.36,0.9999904287035836,47.32184068709188
7.368,0.999990580192584,47.16782088856925
7.376,0.9999907295914476,47.01377792845025
7.384,0.9999908768921856,46.85971182837987
7.392,0.9999910220877096,46.705622610116386
7.4,0.9999911651718173,46.551510295531656
7.4079999999999995,0.9999913061391775,46.3973749066115
7.416,0.9999914449853156,46.243216465455774
7.4239999999999995,0.9999915817066004,46.08903499427898
7.432,0.9999917163002285,45.93483051541011
7.4399999999999995,0.9999918487642111,45.780603051293404
7.448,0.9999919790973597,45.62635262448809
7.4559999999999995,0.9999921072992727,45.472079257669186
7.464,0.9999922333703205,45.31778297362721
7.4719999999999995,0.9999923573116335,45.163463795268875
7.48,0.9999924791250872,45.00912174561699
7.4879999999999995,0.9999925988132895,44.85475684781098
7.496,0.9999927163795668,44.70036912510681
7.504,0.9999928318279515,44.54595860087756
7.5120000000000005,0.9999929451631682,44.391525298613246
7.52,0.9999930563906206,44.23706924192138
7.5280000000000005,0.99999316551638,44.08259045452694
7.536,0.9999932725471703,43.92808896027273
7.5440000000000005,0.9999933774903574,43.77356478311942
7.552,0.9999934803539345,43.6190179471459
7.5600000000000005,0.9999935811465125,43.46444847654932
7.568,0.9999936798773041,43.30985639564535
7.5760000000000005,0.9999937765561141,43.15524172886828
7.584,0.9999938711933263,43.00060450077136
7.5920000000000005,0.9999939637998915,42.845944736026716
7.6,0.9999940543873156,42.69126245942575
7.6080000000000005,0.9999941429676477,42.53655769587904
7.616,0.9999942295534677,42.381830470416766
7.6240000000000006,0.9999943141578764,42.22708080818861
7.632,0.9999943967944814,42.07230873446407
7.640000000000001,0.9999944774773881,41.91751427463247
7.648,0.9999945562211859,41.762697454203206
7.656000000000001,0.9999946330409398,41.60785829880571
7.664,0.9999947079521765,41.45299683418976
7.672,0.9999947809708745,41.298113086225435
7.68,0.9999948521134538,41.14320708090332
7.688,0.9999949213967643,40.98827884433456
7.696,0.9999949888380739,40.833328402751015
7.704,0.9999950544550605,40.678355782505285
7.712,0.9999951182657988,40.523361010070865
7.72,0.9999951802887513,40.36834411204222
7.728,0.9999952405427578,40.213305115134816
7.736,0.9999952990470246,40.05824404618526
7.744,0.9999953558211145,39.90316093215137
7.752,0.9999954108849366,39.74805580011222
7.76,0.9999954642587371,39.592928677268176
7.768,0.9999955159630881,39.43777959094107
7.776,0.9999955660188787,39.2826085685741
7.784,0.9999956144473059,39.12741563773205
7.792,0.9999956612698623,38.97220082610117
7.8,0.9999957065083298,38.81696416148938
7.808,0.9999957501847686,38.66170567182621
7.816,0.9999957923215079,38.50642538516287
7.824,0.9999958329411363,38.351123329672255
7.832,0.9999958720664942,38.19579953364901
7.84,0.999995909720663,38.04045402550956
7.848,0.9999959459269564,37.88508683379209
7.856,0.9999959807089135,37.7296979871566
7.864,0.9999960140902868,37.574287514384885
7.872,0.999996046095036,37.4188554443806
7.88,0.9999960767473187,37.26340180616916
7.888,0.9999961060714816,37.10792662889791
7.896,0.9999961340920519,36.95242994183591
7.904,0.9999961608337299,36.79691177437414
7.912,0.9999961863213795,36.64137215602535
7.92,0.9999962105800222,36.48581111642408
7.928,0.9999962336348257,36.33022868532668
7.936,0.9999962555110988,36.17462489261127
7.944,0.9999962762342826,36.018999768277666
7.952,0.9999962958299425,35.86335334244746
7.96,0.9999963143237601,35.707685645363895
7.968,0.9999963317415268,35.551996707391865
7.976,0.9999963481091352,35.39628655901787
7.984,0.9999963634525717,35.240555230849985
7.992,0.9999963777979102,35.084802753617836
8.0,0.9999963911713035,34.9290291581725
8.008,0.9999964035989763,34.77323447548649
8.016,0.999996415107219,34.61741873665367
8.024000000000001,0.9999964257223806,34.461581972889235
8.032,0.9999964354708597,34.30572421552972
8.04,0.9999964443791005,34.1498454960327
8.048,0.9999964524735842,33.99394584597694
8.056000000000001,0.9999964597808226,33.83802529706226
8.064,0.9999964663273525,33.68208388110951
8.072,0.9999964721397278,33.526121630060366
8.08,0.9999964772445132,33.370138575977286
8.088000000000001,0.9999964816682793,33.21413475104356
8.096,0.9999964854375948,33.05811018756315
8.104,0.9999964885790199,32.90206491796048
8.112,0.9999964911191024,32.74599897478045
8.120000000000001,0.9999964930843693,32.58991239068838
8.128,0.9999964945013224,32.43380519846992
8.136,0.9999964953964317,32.27767743103075
8.144,0.999996495796129,32.12152912139669
8.152000000000001,0.9999964957268038,31.96536030271353
8.16,0.9999964952147964,31.809171008246942
8.168,0.9999964942863924,31.65296127138226
8.176,0.9999964929678177,31.49673112562443
8.184000000000001,0.9999964912852325,31.340480604597982
8.192,0.9999964892647267,31.184209742046786
8.2,0.9999964869323139,31.027918571833958
8.208,0.999996484313926,30.871607127941697
8.216000000000001,0.9999964814354099,30.715275444471274
8.224,0.9999964783225196,30.55892355564283
8.232,0.9999964750009134,30.40255149579516
8.24,0.9999964714961488,30.246159299385628
8.248000000000001,0.9999964678336762,30.089747000990148
8.256,0.999996464038836,29.933314635302924
8.264,0.9999964601368524,29.77686223713623
8.272,0.9999964561528302,29.620389841420355
8.280000000000001,0.9999964521117487,29.463897483203546
8.288,0.9999964480384587,29.307385197651698
8.296,0.9999964439576773,29.15085302004819
8.304,0.9999964398939832,28.99430098579381
8.312,0.9999964358718137,28.83772913040665
8.32,0.9999964319154595,28.681137489521724
8.328,0.999996428049061,28.524526098891066
8.336,0.9999964242966038,28.367894994383306
8.344,0.9999964206819156,28.211244211983725
8.352,0.999996417228661,28.05457378779388
8.36,0.9999964139603394,27.89788375803162
8.368,0.9999964109002795,27.741174159030695
8.376,0.9999964080716365,27.584445027240804
8.384,0.9999964054973882,27.42769639922718
8.392,0.999996403200332,27.270928311670623
8.4,0.9999964012030803,27.11414080136707
8.408,0.9999963995280582,26.9573339052277
8.416,0.9999963981974994,26.800507660278402
8.424,0.9999963972334431,26.64366210365992
8.432,0.9999963966577307,26.486797272627328
8.44,0.9999963964920032,26.329913204550103
8.448,0.9999963967576965,26.173009936911733
8.456,0.9999963974760406,26.016087507309653
8.464,0.9999963986680548,25.85914595345486
8.472,0.9999964003545451,25.70218531317197
8.48,0.9999964025561027,25.54520562439864
8.488,0.9999964052930992,25.388206925185756
8.496,0.9999964085856848,25.231189253696876
8.504,0.9999964124537866,25.074152648208237
8.512,0.9999964169171038,24.91709714710838
8.52,0.999996421995107,24.760022788898098
8.528,0.9999964277070352,24.602929612189975
8.536,0.9999964340718929,24.44581765570843
8.544,0.9999964411084475,24.288686958289205
8.552,0.999996448835229,24.131537558879426
8.56,0.9999964572705252,23.974369496537076
8.568,0.9999964664323805,23.81718281043103
8.576,0.9999964763385941,23.659977539840572
8.584,0.999996487006718,23.502753724155387
8.592,0.9999964984540536,23.34551140287508
8.6,0.9999965106976519,23.188250615609174
8.608,0.9999965237543098,23.030971402076627
8.616,0.999996537640569,22.873673802105824
8.624,0.9999965523727137,22.716357855634072
8.632,0.9999965679667696,22.55902360270761
8.64,0.999996584438502,22.401671083481084
8.648,0.9999966018034134,22.24430033821757
8.656,0.999996620076743,22.08691140728804
8.664,0.9999966392734646,21.929504331171366
8.672,0.9999966594082845,21.7720791504538
8.68,0.9999966804956416,21.61463590582896
8.688,0.9999967025497051,21.45717463809731
8.696,0.9999967255843729,21.299695388166167
8.704,0.9999967496132708,21.142198197049154
8.712,0.9999967746497512,20.984683105866193
8.72,0.9999968007068921,20.82715015584294
8.728,0.9999968277974955,20.66959938831085
8.736,0.9999968559340873,20.51203084470655
8.744,0.9999968851289147,20.35444456657189
8.752,0.9999969153939464,20.196840595553336
8.76,0.9999969467408724,20.039218973402004
8.768,0.9999969791811011,19.88157974197309
8.776,0.9999970127257597,19.723922943225865
8.784,0.9999970473856941,19.56624861922307
8.792,0.9999970831714665,19.408556812130964
8.8,0.9999971200933558,19.250847564218713
8.808,0.9999971581613576,19.093120917858386
8.815999999999999,0.9999971973851816,18.935376915524426
8.824,0.9999972377742531,18.77761559979344
8.832,0.9999972793377113,18.619837013343965
8.84,0.99999732208441,18.46204119895614
8.847999999999999,0.9999973660229151,18.3042281995113
8.856,0.9999974111615068,18.14639805799174
8.864,0.9999974575081776,17.988550817480483
8.872,0.9999975050706332,17.83068652116093
8.879999999999999,0.9999975538562904,17.67280521231644
8.888,0.9999976038722792,17.514906934330114
8.896,0.9999976551254417,17.35699173068456
8.904,0.9999977076223311,17.199059644961487
8.911999999999999,0.9999977613692131,17.04111072084133
8.92,0.9999978163720653,16.883145002103017
8.928,0.9999978726365775,16.72516253262368
8.936,0.9999979301681503,16.56716335637835
8.943999999999999,0.9999979889718985,16.409147517439457
8.952,0.9999980490526472,16.25111505997664
8.96,0.9999981104149356,16.093066028256498
8.968,0.9999981730630146,15.935000466642167
8.975999999999999,0.999998237000849,15.77691841959293
8.984,0.9999983022321162,15.618819931663971
8.992,0.9999983687602076,15.460705047506101
9.0,0.9999984365882294,15.302573811865349
9.008,0.9999985057190013,15.14442626958259
9.016,0.9999985761550595,14.98626246559324
9.024000000000001,0.9999986478986542,14.828082444927023
9.032,0.9999987209517528,14.669886252707535
9.04,0.9999987953160392,14.511673934151858
9.048,0.9999988709929145,14.353445534570266
9.056000000000001,0.999998947983498,14.195201099365983
9.064,0.999999026288628,14.03694067403473
9.072,0.9999991059088615,13.878664304164353
9.08,0.9999991868444766,13.72037203543451
9.088000000000001,0.9999992690954721,13.562063913616416
9.096,0.9999993526615685,13.403739984572411
9.104,0.9999994375422095,13.245400294255537
9.112,0.9999995237365619,13.087044888709274
9.120000000000001,0.9999996112435177,12.928673814067235
9.128,0.9999997000616943,12.770287116552769
9.136,0.9999997901894355,12.611884842478474
9.144,0.9999998816248135,12.453467038246002
9.152000000000001,0.9999999743656279,12.295033750345683
9.16,1.0,12.13658502535615
9.168,1.0,11.978120909943872
9.176,1.0,11.8196414508629
9.184000000000001,0.9999999999999999,11.661146694954528
9.192,1.0,11.502636689146893
9.2,0.9999999999999999,11.34411148045452
9.208,1.0,11.185571115978021
9.216000000000001,1.0,11.02701564290382
9.224,1.0,10.868445108503684
9.232,0.9999999999999998,10.709859560134296
9.24,0.9999999999999999,10.55125904523694
9.248000000000001,0.9999999999999999,10.392643611337213
9.256,1.0,10.234013306044572
9.264,1.0,10.075368177051887
9.272,1.0,9.916708272135125
9.280000000000001,1.0,9.758033639153052
9.288,1.0,9.599344326046788
9.296,1.0,9.440640380839328
9.304,1.0,9.281921851635254
9.312000000000001,1.0,9.123188786620425
9.32,0.9999999999999998,8.964441234061495
9.328,0.9999999999999999,8.805679242305482
9.336,0.9999999999999999,8.646902859779443
9.344,0.9999999999999999,8.488112134990175
9.352,0.9999999999999999,8.32930711652361
9.36,1.0,8.170487853044685
9.368,1.0,8.01165439329666
9.376,1.0000000000000002,7.85280678610103
9.384,1.0,7.693945080356841
9.392,1.0,7.535069325040567
9.4,1.0,7.376179569205432
9.408,0.9999999999999999,7.217275861981315
9.416,0.9999999999999999,7.058358252574043
9.424,1.0,6.899426790265297
9.432,1.0,6.740481524411903
9.44,1.0,6.581522504445749
9.448,1.0,6.422549779873053
9.456,1.0,6.263563400274287
9.464,1.0,6.104563415303471
9.472,1.0,5.945549874688028
9.48,1.0,5.786522828228138
9.488,1.0,5.627482325796583
9.496,1.0,5.468428417338052
9.504,1.0,5.309361152869048
9.512,0.9999999999999999,5.150280582477151
9.52,0.9999999999999999,4.991186756320922
9.528,1.0,4.832079724629198
9.536,1.0,4.672959537700946
9.544,1.0,4.513826245904585
9.552,0.9999999999999999,4.354679899677851
9.56,1.0,4.195520549527091
9.568,0.9999999999999999,4.03634824602713
9.576,0.9999999999999999,3.8771630398205708
9.584,0.9999999999999999,3.7179649816176688
9.592,1.0,3.5587541221956083
9.6,1.0,3.399530512398378
9.608,0.9999999999999999,3.240294203136064
9.616,1.0,3.0810452453847117
9.624,0.9999999999999999,2.9217836901856193
9.632,0.9999999999999999,2.762509588645187
9.64,0.9999999999999998,2.603222991934224
9.648,1.0,2.4439239512877995
9.656,1.0,2.2846125180045282
9.664,0.9999999999999999,2.125288743446427
9.672,1.0,1.9659526790382156
9.68,1.0,1.8066043762671509
9.688,1.0,1.6472438866823302
9.696,1.0,1.4878712618945311
9.704,1.0,1.3284865535755106
9.712,0.9999999999999999,1.1690898134578442
9.72,1.0,1.009681093334211
9.728,0.9999999999999999,0.8502604450572494
