freq,mag,phase
6.0,0.9999912404937394,-122.38785870148749
6.008,0.9999923615254493,-122.78479629420852
6.016,0.9999934531515963,-123.18133580800212
6.024,0.999994515764089,-123.57747855005456
6.032,0.9999955497525244,-123.97322584655704
6.04,0.9999965555041651,-124.36857904248436
6.048,0.9999975334039238,-124.76353950137529
6.056,0.9999984838343416,-125.15810860511374
6.064,0.9999994071755716,-125.55228775371143
6.072,1.0,-125.94607836509138
6.08,1.0,-126.3394818748731
6.088,1.0,-126.73249973615869
6.096,1.0,-127.12513341932028
6.104,1.0,-127.51738441178905
6.112,0.9999999999999999,-127.90925421784497
6.12,1.0,-128.30074435840856
6.128,0.9999999999999999,-128.6918563708333
6.136,1.0,-129.08259180870004
6.144,1.0,-129.47295224161218
6.152,1.0,-129.86293925499257
6.16,1.0,-130.2525544498818
6.168,1.0,-130.64179944273783
6.176,0.9999999999999999,-131.03067586523676
6.184,1.0,-131.4191853640756
6.192,0.9999999999999999,-131.8073296007758
6.2,1.0,-132.19511025148879
6.208,1.0,-132.58252900680276
6.216,1.0,-132.96958757155056
6.224,1.0,-133.3562876646196
6.232,0.9999999999999999,-133.74263101876312
6.24,1.0,-134.12861938041237
6.248,0.9999999999999999,-134.5142545094911
6.256,1.0,-134.89953817923094
6.264,1.0,-135.2844721759885
6.272,1.0,-135.66905829906406
6.28,1.0,-136.0532983605215
6.288,1.0,-136.43719418500987
6.296,1.0,-136.82074760958662
6.304,1.0,-137.2039604835422
6.312,0.9999999999999998,-137.5868346682259
6.32,1.0,-137.9693720368738
6.328,1.0,-138.35157447443783
6.336,1.0,-138.7334438774164
6.344,1.0,-139.11498215368655
6.352,0.9999999999999999,-139.49619122233787
6.36,1.0000000000000002,-139.87707301350753
6.368,0.9999999999999999,-140.25762946821706
6.376,0.9999999999999999,-140.6378625382107
6.384,0.9999999999999998,-141.01777418579528
6.392,0.9999999999999999,-141.3973663836812
6.4,1.0000000000000002,-141.77664111482574
6.408,1.0,-142.155600372277
6.416,1.0,-142.53424615902
6.424,0.9999999999999999,-142.912580487824
6.432,1.0,-143.29060538109115
6.44,1.0,-143.66832287070733
6.448,0.9999999999999999,-144.04573499789365
6.456,1.0,-144.42284381305987
6.464,0.9999999999999999,-144.79965137565947
6.472,1.0,-145.17615975404578
6.48,1.0,-145.55237102532996
6.4879999999999995,1.0,-145.9282872752402
6.496,1.0,-146.30391059798276
6.504,1.0,-146.67924309610373
6.5120000000000005,0.9999999999999999,-147.05428688035346
6.52,1.0,-147.4290440695509
6.5280000000000005,1.0,-147.80351679045103
6.536,1.0,-148.17770717761223
6.5440000000000005,1.0,-148.55161737326645
6.552,0.9999999999999999,-148.92524952718938
6.5600000000000005,1.0,-149.29860579657355
6.568,1.0,-149.67168834590163
6.5760000000000005,1.0,-150.04449934682177
6.584,1.0,-150.41704097802403
6.592,1.0,-150.7893154251187
6.6,1.0,-151.16132488051522
6.608,0.9999999999999999,-151.53307154330324
6.616,1.0,-151.90455761913452
6.624,1.0,-152.2757853201065
6.632,0.9999999999999999,-152.64675686464707
6.64,1.0,-153.0174744774007
6.648,1.0,-153.38794038911604
6.656,1.0,-153.7581568365345
6.664,1.0,-154.1281260622807
6.672,0.9999999999999999,-154.49785031475358
6.68,0.9999999999999999,-154.8673318480193
6.688,0.9999999999999998,-155.2365729217053
6.696,0.9999999999999999,-155.60557580089542
6.704,0.9999999999999999,-155.9743427560266
6.712,1.0,-156.3428760627867
6.72,1.0,-156.71117800201338
6.728,1.0,-157.0792508595947
6.736,1.0,-157.44709692637036
6.744,1.0,-157.8147184980346
6.752,0.9999999999999999,-158.18211787504018
6.76,1.0,-158.54929736250332
6.768,1.0,-158.9162592701103
6.776,1.0,-159.28300591202478
6.784,0.9999999999999998,-159.64953960679657
6.792,1.0,-160.01586267727126
6.8,1.0,-160.3819774505015
6.808,1.0,-160.74788625765885
6.816,1.0,-161.11359143394697
6.824,1.0,-161.47909531851616
6.832,1.0,-161.84440025437854
6.84,1.0,-162.20950858832472
6.848,1.0,-162.5744226708413
6.856,0.9999999999999999,-162.93914485602951
6.864,0.9999999999999999,-163.30367750152493
6.872,1.0,-163.66802296841823
6.88,1.0,-164.0321836211769
6.888,0.9999999999999999,-164.396161827568
6.896,1.0,-164.7599599585821
6.904,1.0,-165.1235803883579
6.912,1.0,-165.48702549410808
6.92,1.0,-165.85029765604597
6.928,0.9999999999999998,-166.21339925731326
6.936,1.0,-166.5763326839088
6.944,0.9999999999999999,-166.93910032461787
6.952,0.9999999999999999,-167.30170457094303
6.96,1.0,-167.66414781703523
6.968,0.9999999999999999,-168.0264324596264
6.976,1.0,-168.3885608979624
6.984,1.0,-168.75053553373735
6.992,0.9999999999999999,-169.11235877102834
7.0,0.9999999999999998,-169.4740330162315
7.008,1.0,-169.8355606779983
7.016,1.0,-170.19694416717343
7.024,0.9999999999999999,-170.5581858967328
7.032,1.0,-170.91928828172271
7.04,1.0,-171.28025373919985
7.048,1.0,-171.6410846881718
7.056,1.0,-172.00178354953863
7.064,1.0,-172.36235274603504
7.072,0.9999999999999999,-172.72279470217333
7.08,0.9999999999999999,-173.0831118441871
7.088,1.0,-173.44330659997564
7.096,0.9999998404909746,-173.80338139904904
7.104,0.9999995331231717,-174.16333867247405
7.112,0.9999992271028483,-174.52318085282064
7.12,0.999998922506162,-174.88291037410906
7.128,0.9999986194076709,-175.2425296717578
7.136,0.9999983178803495,-175.602041182532
7.144,0.9999980179956006,-175.9614473444928
7.152,0.9999977198232685,-176.3207505969468
7.16,0.9999974234316521,-176.6799533803967
7.168,0.9999971288875195,-177.03905813649223
7.176,0.9999968362561172,-177.39806730798173
7.184,0.9999965456011888,-177.75698333866433
7.192,0.9999962569849825,-178.11580867334263
7.2,0.9999959704682674,-178.47454575777607
7.208,0.9999956861103455,-178.83319703863486
7.216,0.9999954039690641,-179.1917649634542
7.224,0.9999951241008295,-179.55025198058922
7.232,0.9999948465606199,-179.9086605391705
7.24,0.9999945714019952,179.73300691094008
7.248,0.9999942986771171,179.37474791919294
7.256,0.9999940284367501,179.0165600343939
7.264,0.9999937607302868,178.65844080474685
7.272,0.9999934956057517,178.30038777789585
7.28,0.9999932331098174,177.94239850096702
7.288,0.9999929732878151,177.58447052060976
7.296,0.9999927161837501,177.22660138303775
7.304,0.9999924618403108,176.8687886340693
7.312,0.9999922102988837,176.51102981916753
7.32,0.9999919615995628,176.15332248348014
7.328,0.9999917157811669,175.79566417187863
7.336,0.9999914728812452,175.43805242899737
7.344,0.9999912329360947,175.0804847992721
7.352,0.9999909959807703,174.72295882697844
7.36,0.999990762049097,174.36547205626948
7.368,0.9999905311736814,174.00802203121384
7.376,0.9999903033859243,173.6506062958327
7.384,0.9999900787160337,173.29322239413688
7.392,0.9999898571930339,172.93586787016372
7.4,0.99998963884478,172.57854026801348
7.4079999999999995,0.9999894236979682,172.22123713188554
7.416,0.999989211778148,171.8639560061142
7.4239999999999995,0.9999890031097343,171.5066944352049
7.432,0.9999887977160172,171.14944996386913
7.4399999999999995,0.9999885956191763,170.79222013706027
7.448,0.99998839684029,170.435002500008
7.4559999999999995,0.9999882013993475,170.077794598254
7.464,0.9999880093152613,169.7205939776858
7.4719999999999995,0.9999878206058769,169.36339818457202
7.48,0.9999876352879856,169.00620476559618
7.4879999999999995,0.9999874533773344,168.64901126789144
7.496,0.9999872748886379,168.29181523907397
7.504,0.9999870998355902,167.93461422727776
7.5120000000000005,0.9999869282308746,167.5774057811876
7.52,0.9999867600861756,167.22018745007347
7.5280000000000005,0.9999865954121887,166.86295678382353
7.536,0.9999864342186339,166.50571133297836
7.5440000000000005,0.9999862765142628,166.14844864876366
7.552,0.9999861223068737,165.79116628312434
7.5600000000000005,0.999985971603318,165.4338617887572
7.568,0.999985824409516,165.07653271914492
7.5760000000000005,0.9999856807304619,164.71917662858857
7.584,0.9999855405702394,164.36179107224152
7.5920000000000005,0.9999854039320294,164.00437360614214
7.6,0.9999852708181208,163.6469217872475
7.6080000000000005,0.9999851412299234,163.28943317346602
7.616,0.9999850151679743,162.9319053236915
7.6240000000000006,0.9999848926319524,162.57433579783557
7.632,0.9999847736206853,162.21672215686172
7.640000000000001,0.9999846581321621,161.8590619628181
7.648,0.9999845461635425,161.50135277887156
7.656000000000001,0.9999844377111674,161.14359216934054
7.664,0.9999843327705686,160.78577769972924
7.672,0.9999842313364786,160.42790693676082
7.68,0.9999841334028428,160.0699774484116
7.688,0.9999840389628256,159.71198680394468
7.696,0.9999839480088251,159.35393257394423
7.704,0.9999838605324791,158.99581233034937
7.712,0.9999837765246767,158.63762364648878
7.72,0.9999836959755688,158.27936409711492
7.728,0.9999836188745757,157.92103125843892
7.736,0.9999835452103988,157.56262270816515
7.744,0.9999834749710294,157.20413602552645
7.752,0.9999834081437589,156.84556879131912
7.76,0.9999833447151878,156.4869185879385
7.768,0.9999832846712357,156.12818299941452
7.776,0.9999832279971499,155.7693596114475
7.784,0.9999831746775166,155.4104460114444
7.792,0.999983124696269,155.051439788555
7.8,0.9999830780366971,154.69233853370858
7.808,0.9999830346814562,154.33313983965073
7.816,0.9999829946125782,153.97384130098058
7.824,0.9999829578114787,153.61444051418817
7.832,0.9999829242589678,153.2549350776922
7.84,0.9999828939352584,152.895322591878
7.848,0.999982866819975,152.535600659136
7.856,0.9999828428921647,152.1757668839004
7.864,0.9999828221303039,151.8158188726881
7.872,0.9999828045123087,151.45575423413814
7.88,0.9999827900155438,151.09557057905144
7.888,0.9999827786168308,150.73526552043086
7.896,0.9999827702924584,150.37483667352168
7.904,0.9999827650181896,150.01428165585256
7.912,0.9999827627692714,149.6535980872766
7.92,0.9999827635204444,149.2927835900133
7.928,0.9999827672459499,148.93183578869022
7.936,0.99998277391954,148.57075231038596
7.944,0.9999827835144857,148.20953078467278
7.952,0.999982796003586,147.84816884366018
7.96,0.9999828113591751,147.4866641220386
7.968,0.9999828295531338,147.1250142571239
7.976,0.9999828505568951,146.76321688890195
7.984,0.9999828743414543,146.40126966007412
7.992,0.9999829008773777,146.03917021610295
8.0,0.9999829301348104,145.6769162052583
8.008,0.9999829620834847,145.3145052786644
8.016,0.999982996692729,144.9519350903468
8.024000000000001,0.9999830339314765,144.5892032972807
8.032,0.9999830737682716,144.22630755943896
8.04,0.9999831161712813,143.86324553984105
8.048,0.9999831611083009,143.5000149046025
8.056000000000001,0.9999832085467633,143.1366133229854
8.064,0.9999832584537474,142.7730384674486
8.072,0.999983310795986,142.40928801369898
8.08,0.9999833655398739,142.0453596407433
8.088000000000001,0.9999834226514767,141.68125103094087
8.096,0.9999834820965379,141.3169598700564
8.104,0.9999835438404878,140.9524838473136
8.112,0.9999836078484516,140.5878206554494
8.120000000000001,0.999983674085257,140.22296799076943
8.128,0.9999837425154425,139.8579235532031
8.136,0.9999838131032652,139.49268504635998
8.144,0.9999838858127094,139.1272501775866
8.152000000000001,0.999983960607493,138.76161665802454
8.16,0.9999840374510782,138.39578220266824
8.168,0.9999841163066767,138.02974453042413
8.176,0.9999841971372591,137.66350136417023
8.184000000000001,0.9999842799055614,137.2970504308168
8.192,0.9999843645740953,136.9303894613674
8.2,0.9999844511051538,136.56351619098047
8.208,0.9999845394608194,136.1964283590321
8.216000000000001,0.9999846296029731,135.82912370917953
8.224,0.9999847214932998,135.46159998942503
8.232,0.9999848150932992,135.0938549521808
8.24,0.999984910364291,134.72588635433453
8.248000000000001,0.999985007267424,134.35769195731598
8.256,0.9999851057636825,133.98926952716423
8.264,0.9999852058138956,133.62061683459515
8.272,0.9999853073787432,133.2517316550707
8.280000000000001,0.9999854104187651,132.8826117688685
8.288,0.9999855148943678,132.51325496115211
8.296,0.9999856207658323,132.14365902204213
8.304,0.9999857279933211,131.77382174668847
8.312,0.9999858365368872,131.40374093534342
8.32,0.9999859463564802,131.03341439343495
8.328,0.9999860574119545,130.66283993164197
8.336,0.9999861696630769,130.29201536596912
8.344,0.9999862830695334,129.9209385178237
8.352,0.9999863975909384,129.54960721409256
8.36,0.9999865131868393,129.17801928722042
8.368,0.9999866298167268,128.80617257528868
8.376,0.9999867474400411,128.43406492209567
8.384,0.9999868660161789,128.06169417723686
8.392,0.9999869855045015,127.68905819618742
8.4,0.9999871058643424,127.31615484038392
8.408,0.9999872270550135,126.94298197730886
8.416,0.9999873490358138,126.5695374805742
8.424,0.9999874717660362,126.19581923000769
8.432,0.9999875952049746,125.8218251117385
8.44,0.9999877193119312,125.44755301828513
8.448,0.9999878440462246,125.07300084864322
8.456,0.999987969367196,124.69816650837511
8.464,0.9999880952342176,124.3230479096998
8.472,0.9999882216066989,123.94764297158441
8.48,0.9999883484440939,123.57194961983588
8.488,0.9999884757059099,123.19596578719471
8.496,0.9999886033517121,122.81968941342835
8.504,0.999988731341134,122.44311844542699
8.512,0.9999888596338808,122.06625083729911
8.52,0.9999889881897407,121.689084550469
8.528,0.9999891169685888,121.31161755377441
8.536,0.9999892459303956,120.93384782356617
8.544,0.9999893750352344,120.55577334380777
8.552,0.9999895042432876,120.17739210617704
8.56,0.9999896335148541,119.79870211016771
8.568,0.9999897628103571,119.41970136319318
8.576,0.9999898920903499,119.04038788069015
8.584,0.9999900213155245,118.66075968622437
8.592,0.9999901504467165,118.28081481159637
8.6,0.9999902794449146,117.90055129694935
8.608,0.9999904082712661,117.51996719087681
8.616,0.9999905368870833,117.13906055053266
8.624,0.9999906652538529,116.75782944174085
8.632,0.9999907933332401,116.37627193910768
8.64,0.9999909210870978,115.99438612613329
8.648,0.9999910484774722,115.6121700953263
8.656,0.9999911754666102,115.22962194831734
8.664,0.9999913020169665,114.84673979597558
8.672,0.9999914280912094,114.46352175852465
8.68,0.9999915536522294,114.07996596566105
8.688,0.9999916786631446,113.69607055667231
8.696,0.9999918030873081,113.31183368055746
8.704,0.9999919268883143,112.92725349614716
8.712,0.9999920500300072,112.54232817222645
8.72,0.9999921724764848,112.15705588765695
8.728,0.999992294192108,111.77143483150157
8.736,0.9999924151415053,111.38546320314892
8.744,0.9999925352895819,110.99913921244008
8.752,0.9999926546015242,110.61246107979512
8.76,0.9999927730428074,110.22542703634196
8.768,0.9999928905792024,109.83803532404484
8.776,0.9999930071767811,109.45028419583542
8.784,0.9999931228019255,109.06217191574324
8.792,0.9999932374213311,108.67369675902889
8.8,0.9999933510020153,108.28485701231656
8.808,0.9999934635113242,107.89565097372916
8.815999999999999,0.9999935749169379,107.50607695302308
8.824,0.9999936851868775,107.11613327172492
8.832,0.9999937942895113,106.72581826326903
8.84,0.9999939021935621,106.33513027313572
8.847999999999999,0.9999940088681117,105.9440676589906
8.856,0.9999941142826091,105.55262879082508
8.864,0.9999942184068756,105.160812051098
8.872,0.9999943212111122,104.76861583487775
8.879999999999999,0.9999944226659035,104.3760385499855
8.888,0.9999945227422271,103.98307861713972
8.896,0.9999946214114571,103.58973447010153
8.904,0.9999947186453717,103.19600455582076
8.911999999999999,0.9999948144161586,102.80188733458304
8.92,0.9999949086964208,102.40738128015792
8.928,0.9999950014591839,102.01248487994813
8.936,0.9999950926779003,101.61719663513934
8.943999999999999,0.9999951823264568,101.22151506085075
8.952,0.9999952703791789,100.8254386862871
8.96,0.9999953568108374,100.42896605489133
8.968,0.9999954415966555,100.03209572449796
8.975999999999999,0.999995524712311,99.63482626748726
8.984,0.9999956061339461,99.23715627094047
8.992,0.9999956858381701,98.83908433679623
9.0,0.9999957638020661,98.44060908200709
9.008,0.9999958400031971,98.04172913869695
9.016,0.9999959144196102,97.64244315431984
9.024000000000001,0.9999959870298432,97.24274979181921
9.032,0.999996057812929,96.84264772978777
9.04,0.9999961267484019,96.44213566262812
9.048,0.9999961938163018,96.04121230071435
9.056000000000001,0.9999962589971809,95.63987637055445
9.064,0.9999963222721067,95.23812661495306
9.072,0.9999963836226697,94.83596179317487
9.08,0.9999964430309866,94.4333806811091
9.088000000000001,0.9999965004797049,94.03038207143456
9.096,0.9999965559520104,93.62696477378508
9.104,0.999996609431629,93.22312761491544
9.112,0.9999966609028328,92.8188694388684
9.120000000000001,0.9999967103504452,92.41418910714219
9.128,0.9999967577598456,92.00908549885818
9.136,0.9999968031169727,91.60355751092926
9.144,0.9999968464083298,91.19760405822886
9.152000000000001,0.9999968876209896,90.79122407376065
9.16,0.9999969267425981,90.3844165088282
9.168,0.9999969637613787,89.9771803332053
9.176,0.9999969986661363,89.56951453530678
9.184000000000001,0.9999970314462626,89.16141812235998
9.192,0.9999970620917377,88.75289012057607
9.2,0.9999970905931373,88.34392957532187
9.208,0.9999971169416334,87.93453555129219
9.216000000000001,0.9999971411289998,87.52470713268264
9.224,0.9999971631476157,87.11444342336218
9.232,0.9999971829904686,86.70374354704607
9.24,0.9999972006511585,86.29260664746933
9.248000000000001,0.9999972161239005,85.88103188856039
9.256,0.9999972294035286,85.4690184546145
9.264,0.9999972404854995,85.05656555046747
9.272,0.9999972493658941,84.64367240166955
9.280000000000001,0.9999972560414223,84.2303382546597
9.288,0.9999972605094243,83.81656237693936
9.296,0.9999972627678746,83.40234405724628
9.304,0.9999972628153836,82.98768260572868
9.312000000000001,0.9999972606512021,82.57257735411943
9.32,0.9999972562752205,82.15702765590966
9.328,0.9999972496879751,81.74103288652235
9.336,0.9999972408906466,81.32459244348611
9.344,0.9999972298850653,80.90770574660884
9.352,0.9999972166737108,80.49037223815029
9.36,0.9999972012597159,80.07259138299571
9.368,0.9999971836468659,79.65436266882773
9.376,0.9999971638396026,79.23568560629946
9.384,0.9999971418430255,78.81655972920561
9.392,0.9999971176628913,78.39698459465487
9.4,0.9999970913056171,77.97695978324019
9.408,0.9999970627782807,77.55648489921013
9.416,0.9999970320886225,77.13555957063834
9.424,0.9999969992450444,76.71418344959366
9.432,0.9999969642566127,76.29235621230845
9.44,0.9999969271330582,75.87007755934759
9.448,0.9999968878847747,75.44734721577538
9.456,0.9999968465228233,75.02416493132316
9.464,0.9999968030589282,74.60053048055471
9.472,0.9999967575054791,74.17644366303236
9.48,0.999996709875532,73.75190430348066
9.488,0.999996660182806,73.32691225195076
9.496,0.9999966084416855,72.90146738398234
9.504,0.9999965546672187,72.47556960076594
9.512,0.9999964988751168,72.0492188293029
9.52,0.9999964410817528,71.62241502256578
9.528,0.9999963813041622,71.19515815965585
9.536,0.9999963195600393,70.76744824596133
9.544,0.9999962558677377,70.33928531331266
9.552,0.9999961902462688,69.91066942013802
9.56,0.9999961227152989,69.48160065161612
9.568,0.9999960532951476,69.05207911982922
9.576,0.9999959820067883,68.62210496391299
9.584,0.9999959088718418,68.19167835020669
9.592,0.9999958339125781,67.76079947240022
9.6,0.9999957571519115,67.32946855168109
9.608,0.999995678613398,66.89768583687844
9.616,0.9999955983212339,66.46545160460674
9.624,0.9999955163002514,66.03276615940642
9.632,0.999995432575916,65.5996298338842
9.64,0.9999953471743244,65.16604298885011
9.648,0.9999952601221974,64.73200601345427
9.656,0.9999951714468808,64.29751932532001
9.664,0.999995081176338,63.862583370676916
9.672,0.9999949893391478,63.42719862449
9.68,0.9999948959644993,62.991365590588615
9.688,0.999994801082188,62.5550848017915
9.696,0.9999947047226105,62.11835682003142
9.704,0.9999946069167606,61.68118223647594
9.712,0.9999945076962243,61.24356167164734
9.72,0.9999944070931734,60.80549577553904
9.728,0.9999943051403621,60.366985227730815
9.736,0.9999942018711194,59.92803073750027
9.744,0.999994097319345,59.48863304393325
9.752,0.999993991519503,59.04879291603031
9.76,0.9999938845066152,58.60851115281207
9.768,0.999993776316255,58.16778858342032
9.776,0.9999936669845424,57.72662606721815
9.784,0.9999935565481349,57.28502449388568
9.792,0.9999934450442226,56.84298478351446
9.8,0.9999933325105199,56.4005078866977
