freq,mag,phase
6.0,1.0007838325392917,71.47236221882865
6.002285056,1.000500849517401,71.32341816291222
6.004570112,1.000186188648063,71.1788509333483
6.006855168,0.9998602346342612,71.03889476618315
6.009140224,0.99954366451794,70.90363980500254
6.01142528,0.9992564618016624,70.7727628063141
6.013710336,0.999016922664262,70.64573179704738
6.015995392,0.9988403007872142,70.52173236604281
6.018280448,0.9987376477268636,70.39979853567007
6.020565504,0.9987158341243432,70.27873949801076
6.02285056,0.9987760765643341,70.157428149717
6.025135616,0.9989146269516936,70.03466763231624
6.027420672,0.9991226402036703,69.90937168798527
6.029705728,0.9993871007561121,69.78065287257077
6.031990784,0.9996910411744182,69.64778140808771
6.03427584,1.0000153089401667,69.51036622731665
6.036560896,1.0003394265140955,69.3682116870316
6.038845952,1.000642784751334,69.22150460698057
6.041131008,1.0009061874385263,69.07070221404304
6.043416064,1.0011131322957252,68.91647410922245
6.04570112,1.0012502592906294,68.75975159810547
6.047986176,1.0013091545557178,68.60158712669237
6.050271232,1.0012859524728914,68.443211063339
6.052556288,1.0011819777771254,68.28571598919368
6.054841344,1.00100390827321,68.13024484164502
6.0571264,1.0007629727027736,67.97780824310027
6.059411456,1.0004742555774813,67.82922885785192
6.061696512,1.0001560140459482,67.68504005550699
6.063981568,0.9998284450608421,67.54554329135387
6.066266624,0.9995121384446549,67.41070902372066
6.06855168,0.9992273308838857,67.28028744019142
6.070836736,0.9989919315347132,67.1536061765957
6.073121792,0.9988211284505323,67.02989424515681
6.075406848,0.9987254816326522,66.90811976705558
6.077691904,0.9987114301680174,66.78716802621508
6.07997696,0.9987797225880756,66.66583403155084
6.082262016,0.9989260712166237,66.54291597628425
6.084547072,0.9991412235727843,66.41733220431983
6.086832128,0.9994115920427937,66.2882468002403
6.089117184,0.999719924655013,66.1549576472073
6.09140224,1.0000467020552102,66.01701366376797
6.093687296,1.0003713859936283,65.87435567652695
6.095972352,1.000673269055151,65.72712104489813
6.098257408,1.0009332970437357,65.5758276166888
6.100542464,1.001135113057942,65.42118219554096
6.10282752,1.001265770821902,65.26411733342265
6.105112576,1.0013170781793987,65.10570162656347
6.107397632,1.001285839738742,64.94714972331631
6.1096832,1.0011740280765145,64.78962554301843
6.111968256,1.000988438458757,64.6342508474189
6.114253312,1.0007409474053854,64.48199357307844
6.116538368,1.0004471194667148,64.33367791859821
6.118823424,1.0001253810399156,64.18979974133399
6.12110848,0.9997962921245244,64.05061526056211
6.123393536,0.9994806210680126,63.916163706634535
6.125678592,0.9991982210839111,63.786031173038744
6.127963648,0.9989673388355118,63.65963917890057
6.130248704,0.998802358535302,63.53613760083444
6.13253376,0.9987139127813038,63.414470723195166
6.134818816,0.9987076830705446,63.293492775988994
6.137103872,0.9987841019419207,63.17201602281644
6.139388928,0.9989382805053693,63.048809975901506
6.141673984,0.999160414812737,62.92289272086642
6.14395904,0.9994365931913576,62.793351388793326
6.146244096,0.9997492101417874,62.659486536217116
6.148529152,1.0000783968852922,62.52095851590038
6.150814208,1.0004035188343454,62.3776793467745
6.153099264,1.0007037389898943,62.2298390125768
6.15538432,1.0009602598977552,62.07796810451219
6.157669376,1.0011567577470153,61.9227955458005
6.159954432,1.001280913837771,61.765275558319374
6.162239488,1.0013245996972118,61.60652874863901
6.164524544,1.0012853363029963,61.44775900118849
6.1668096,1.0011653859885403,61.290102876495425
6.169094656,1.000972411369297,61.1347091143774
6.171379712,1.0007184315375466,60.982556298437885
6.173664768,1.0004195237802616,60.83437304782255
6.175949824,1.0000945282710243,60.69073783176331
6.17823488,0.9997640993640663,60.551826532558074
6.180519936,0.9994490403608554,60.41761044596931
6.182804992,0.9991694445726031,60.28773895726297
6.185090048,0.9989430284651034,60.1615045194354
6.187375104,0.9987841438074292,60.038081725254045
6.18966016,0.9987029694696937,59.91640875154322
6.191945216,0.9987046288460822,59.79531656850193
6.194230272,0.9987891749207898,59.67357707293331
6.196515328,0.9989511097306023,59.550056872020136
6.198800384,0.999180340121796,59.423654158732425
6.20108544,0.9994622064329298,59.29350787115468
6.203370496,0.9997789171997311,59.15901306249421
6.205655552,1.000110415218609,59.01979752291564
6.207940608,1.0004356898148137,58.87580180557771
6.210225664,1.0007340952864432,58.72722538103173
6.21251072,1.0009869431687082,58.57469131707452
6.214795776,1.0011779917056438,58.418911112202956
6.217080832,1.0012953331876,58.260878461886534
6.219365888,1.0013314571411278,58.10170498025885
6.221650944,1.001284055386799,57.94261828012792
6.223936,1.0011560726591047,57.78478057726897
6.226221056,1.0009556826491104,57.62927213443318
6.228506112,1.0006953713967475,57.47714261914929
6.230791168,1.000391524651272,57.32904215779753
6.233076224,1.0000634362426348,57.185528622064226
6.23536128,0.9997317901506794,57.04680392769295
6.237646336,0.9994175901318338,56.912739854317174
6.239931392,0.9991407352982995,56.78295142507223
6.242216448,0.9989190463440489,56.656821887974075
6.244501504,0.9987663463220939,56.533385346667174
6.24678656,0.9986923799620664,56.41162653887421
6.249071616,0.9987020903433694,56.29029474243681
6.251356672,0.998794736249561,56.168220161164555
6.253641728,0.9989643489500705,56.044210023416944
6.255926784,0.9992004294554144,55.91723794634019
6.25821184,0.9994880231573479,55.78644523145044
6.260496896,0.9998087089191374,55.651198127876576
6.262781952,1.0001422568884692,55.51118455781635
6.265067008,1.0004675901904323,55.366356596619646
6.267352064,1.0007641125169144,55.21704163607569
6.26963712,1.0010130315663943,55.06370638545863
6.271922176,1.0011985022841596,54.90724674444988
6.274207232,1.0013090263118656,54.74859535158262
6.276492288,1.0013374548330927,54.58890611138594
6.278777344,1.0012819829763786,54.42942120310804
6.2810624,1.0011460743279006,54.271293590292444
6.283347456,1.0009383072238112,54.11563535389062
6.285632512,1.0006716644006814,53.96338243326158
6.287917568,1.0003630899079243,53.815273247899505
6.290202624,1.000031907617571,53.67182891148124
6.29248768,0.9996992469927493,53.53316161455344
6.294772736,0.9993861850042105,53.3991764670435
6.297057792,0.9991123537822327,53.26944045601927
6.299342848,0.9988953854998991,53.143290307729245
6.301627904,0.9987489628443557,53.01974888217792
6.30391296,0.9986825341658965,52.897735123941914
6.306198016,0.9987001556370604,52.776088176224924
6.308483072,0.9988009096287915,52.65355688282298
6.310768128,0.9989784453208874,52.52899641390235
6.313053184,0.9992214111897357,52.401337915948844
6.31533824,0.9995144715323987,52.26977795816717
6.317623296,0.9998390103223022,52.13367038016833
6.319908352,1.0001745086277314,51.99278106373918
6.322193408,1.0004996900292915,51.84704079734107
6.324478976,1.0007940968804283,51.69681198662294
6.326764032,1.0010389699711206,51.5426578489977
6.329049088,1.001219009542566,51.38538218820285
6.331334144,1.001322494465136,51.22604025565726
6.3336192,1.001343238667277,51.065754885574606
6.335904256,1.001279648865015,50.905775646408735
6.338189312,1.00113577154362,50.74727858848988
6.340474368,1.000920618014701,50.59136108091837
6.342759424,1.0006479149288137,50.43893154487054
6.34504448,1.0003346094488867,50.29072380697497
6.347329536,1.0000006152200909,50.147240042099206
6.349614592,0.9996671215196118,50.00854733630972
6.351899648,0.9993550884855401,49.874507892548095
6.354184704,0.9990844569692265,49.744728173556005
6.35646976,0.9988723897476625,49.618415053271455
6.358754816,0.9987324139598905,49.49468298140437
6.361039872,0.9986732626229613,49.372372519277825
6.363324928,0.9986989863994038,49.25029486267284
6.365609984,0.9988078720672454,49.12720766080772
6.36789504,0.9989930120775429,49.00195802496336
6.370180096,0.9992426361090675,48.873519851115326
6.372465152,0.9995411028727726,48.74105984248932
6.374750208,0.9998693796048792,48.604051372283095
6.377035264,1.0002066312742977,48.46214933346792
6.37932032,1.0005316928988146,48.315424425142034
6.381605376,1.0008237054423903,48.16419698063715
6.383890432,1.0010644331681717,48.00909879126587
6.386175488,1.0012386542475658,47.85093758226059
6.388460544,1.0013352664035815,47.69082395997308
6.3907456,1.001348196420679,47.52987554133953
6.393030656,1.0012765497634495,47.369322850058566
6.395315712,1.0011247706498656,47.21035723589591
6.397600768,1.0009024443021388,47.05406898093006
6.399885824,1.0006236129886474,46.901380914570986
6.40217088,1.0003057861903095,46.7530006140654
6.404455936,0.9999691199320617,46.60934657550646
6.406740992,0.9996348384928665,46.47053450664815
6.409026048,0.9993242533309135,46.336385282944846
6.411311104,0.9990568463455043,46.2064331936279
6.41359616,0.9988498128946472,46.07990960660928
6.415881216,0.9987162505520522,45.95585624496007
6.418166272,0.9986645916941873,45.83309891318223
6.420451328,0.9986983554554562,45.71049683487157
6.422736384,0.9988152591518987,45.586733070906725
6.42502144,0.9990079849594873,45.46071776912751
6.427306496,0.9992643335577115,45.33138975843506
6.429591552,0.9995680028463368,45.197989023469574
6.431876608,0.9998998405169424,45.05990120127242
6.434161664,1.0002387423846244,44.91693010754505
6.43644672,1.0005633498583095,44.76910686626895
6.438731776,1.0008530392249897,44.616802099296535
6.441016832,1.0010895347112136,44.46066325450384
6.443301888,1.0012579009299531,44.30155598470031
6.445586944,1.0013475358431978,44.14056021540587
6.447872,1.001352617292331,43.978832197416615
6.450157056,1.0012728834538573,43.817598126400654
6.452442112,1.0011132326783827,43.65806270147701
6.454727168,1.0008838478742332,43.501346872125
6.457012224,1.000599063232878,43.348287934567374
6.45929728,1.0002768190185947,43.19965403802184
6.461582336,0.9999375722279943,43.05575289956672
6.463867392,0.9996027346874296,42.91674052785644
6.466152448,0.9992935384651779,42.7823568720317
6.468437504,0.9990296186280555,42.6521382655892
6.47072256,0.9988276467696499,42.525261814121244
6.473007616,0.998700601912763,42.400797297135334
6.475292672,0.9986564563896704,42.27752457936054
6.477577728,0.9986981971088613,42.15425539308729
6.479862784,0.9988232096854751,42.029756728415336
6.48214784,0.9990233712333247,41.90284056616907
6.484432896,0.9992862194615704,41.77254401685792
6.486717952,0.9995951301148279,41.63804258865734
6.489003008,0.9999303119146065,41.49880544949013
6.491288064,1.000270820434028,41.354669810172794
6.49357312,1.0005948338337747,41.20568021262635
6.495858176,1.0008820238628016,41.052183095637986
6.498143232,1.0011142460947942,40.894924026886024
6.500428288,1.001276749132035,40.734754142791665
6.502713344,1.0013592560880797,40.572775584081846
6.5049984,1.0013565821673511,40.410186560730075
6.507283456,1.0012687556530466,40.24821210367357
6.509568512,1.0011014332118786,40.0880533772625
6.511853568,1.0008650516101094,39.93079195963615
6.514138624,1.000574415934048,39.77727794487248
6.51642368,1.0002479956192325,39.628240618860026
6.518708736,0.9999062652590942,39.48401685668514
6.520993792,0.9995709921701469,39.34465099739792
6.523278848,0.9992633131826245,39.209965286527705
6.525563904,0.9990028821395969,39.07937534993888
6.52784896,0.9988061754000372,38.95206681157741
6.530134016,0.9986856380803271,38.82703827073701
6.532419072,0.9986489966528935,38.703162434142016
6.534704128,0.9986987383441129,38.579155970655684
6.536989184,0.9988315501484104,38.45376560225707
6.53927424,0.9990392184527249,38.325863971259174
6.541559808,0.999308514817182,38.194473235408005
6.543844864,0.9996222695878741,38.05878656752158
6.54612992,0.9999607813808146,37.9183261217981
6.548414976,1.0003025453512124,37.772909277010726
6.550700032,1.000625971992532,37.622610361495816
6.552985088,1.000910527510859,37.46786551784353
6.555270144,1.0011382642472082,37.30937995994724
6.5575552,1.0012948971097129,37.148057955864054
6.559840256,1.0013703061574644,36.98503695562456
6.562125312,1.0013599032683895,36.821510762612135
6.564410368,1.0012641158340772,36.65867965752859
6.566695424,1.001089158216445,36.49776952147086
6.56898048,1.0008458306019627,36.33986356053576
6.571265536,1.0005495288096873,36.185840238518836
6.573550592,1.000218997676374,36.036308718718836
6.575835648,0.9998750265334903,35.89162974839115
6.578120704,0.9995394637510727,35.75187923360528
6.58040576,0.9992334843248657,35.61671533238544
6.582690816,0.9989766316806153,35.485645761377114
6.584975872,0.9987850810529786,35.35781241868452
6.587260928,0.9986711405475063,35.232162132074556
6.589545984,0.9986420438246398,35.10752770935938
6.59183104,0.9986996346150724,34.9826638115554
6.594116096,0.9988403831009182,34.85629861175045
6.596401152,0.9990552641956365,34.72729463163139
6.598686208,0.9993307997114464,34.594715924802266
6.600971264,0.9996494735844521,34.45775371520246
6.60325632,0.9999911121389682,34.31593735369637
6.605541376,1.000334128296982,34.16915040691623
6.607826432,1.0006567711746737,34.01749030623071
6.610111488,1.0009386344935505,33.86136305078774
6.612396544,1.0011619173345017,33.701567098729576
6.6146816,1.0013125392369446,33.53901095233557
6.616966656,1.0013809662841409,33.374846990450436
6.619251712,1.0013627689299285,33.21025655201989
6.621536768,1.001259212445325,33.04650186720774
6.623821824,1.0010765491738083,32.88477047168776
6.62610688,1.0008265546852353,32.72612486070735
6.628391936,1.000524672793068,32.57143899114503
6.630676992,1.000190164097061,32.42133292755093
6.632962048,0.999844034754911,32.27611503819979
6.635247104,0.9995083378703091,32.13581389514504
6.63753216,0.9992041460258544,32.00015974502602
6.639817216,0.9989508831892479,31.86849567864849
6.642102272,0.9987646681589044,31.73998548502739
6.644387328,0.9986572528176856,31.613581330218004
6.646672384,0.9986355883458589,31.488101745632655
6.64895744,0.9987010714603427,31.3622483844888
6.651242496,0.9988495408068157,31.234792364376208
6.653527552,0.9990716369298683,31.104606773670078
6.655812608,0.9993533113515666,30.97073361079234
6.658097664,0.9996766905293204,30.832405964894456
6.66038272,1.000021314075592,30.689160513619484
6.662667776,1.0003653800947754,30.54087358777032
6.664952832,1.000687129378962,30.38772543060277
6.667237888,1.0009662102567871,30.23017044791662
6.669522944,1.0011850509705658,30.06896409781904
6.671808,1.0013296960476126,29.90507115445821
6.674093056,1.001391008118303,29.739650877807136
6.676378112,1.0013652831386477,29.573922104849217
6.678663168,1.0012537838215527,29.40913034636255
6.680948224,1.0010637696809084,29.2464494628843
6.68323328,1.0008070500245894,29.086983557870646
6.685518336,1.0004998013436106,28.931573051258525
6.687803392,1.0001614225202218,28.780769954221068
6.690088448,0.9998133564222317,28.63490007692379
6.692373504,0.9994774958690763,28.493974733950346
6.69465856,0.999175221083903,28.357651581837494
6.696943616,0.9989257107683087,28.225283090758765
6.699228672,0.9987446736740695,28.096018554644495
6.701513728,0.9986438353215922,27.96877162857488
6.703798784,0.9986295049120544,27.842307068168946
6.70608384,0.9987027196598738,27.71539088043623
6.708368896,0.99885892199907,27.586737829463683
6.710653952,0.9990880581939166,27.455270210166553
6.712939008,0.9993757229414064,27.319962473556778
6.715224064,0.9997036191008658,27.180158978988
6.71750912,1.000051155999863,27.035389340447637
6.719794176,1.0003961781969082,26.88552723214634
6.722079232,1.0007170229840334,26.730787188156565
6.724364288,1.0009932775218053,26.57167450656615
6.726649344,1.001207527720692,26.4089807066315
6.7289344,1.0013462495367376,26.243658993101317
6.731219456,1.0014005475146524,26.076896538949892
6.733504512,1.0013672611133015,25.90991381618125
6.735789568,1.0012480579978311,25.74397429164938
6.738074624,1.0010507692730206,25.58030549444399
6.74035968,1.0007875985284462,25.419895396881756
6.742644736,1.0004750440324175,25.26363040505507
6.744929792,1.0001330378148596,25.112036115803114
6.747214848,0.9997829960801621,24.965423817911343
6.749499904,0.9994471981605363,24.823733202667558
6.75178496,0.9991467940257477,24.686640566602172
6.754070016,0.9989009892705107,24.553472286137765
6.756355072,0.9987253488610749,24.423327204447173
6.75864064,0.9986310460559887,24.29511496471666
6.760925696,0.9986240589513119,24.167580548683443
6.763210752,0.9987049296372547,24.03946027931049
6.765495808,0.9988685171408549,23.909523086995122
6.767780864,0.9991045604394524,23.77664125197864
6.77006592,0.9993980672926107,23.63983155269596
6.772350976,0.999730492853519,23.498427018807316
6.774636032,1.0000806998701253,23.35200184146648
6.776921088,1.0004265793121139,23.200486986122048
6.779206144,1.0007463444153801,23.04408235965681
6.7814912,1.0010197604798863,22.883326050634047
6.783776256,1.0012294717192172,22.719014116682406
6.786061312,1.0013622872139056,22.552149688802867
6.788346368,1.001409761531701,22.38395532463741
6.790631424,1.0013689302120439,22.21563797323964
6.79291648,1.0012422399219454,22.048493820445323
6.795201536,1.0010377981855083,21.88367803305489
6.797486592,1.0007681645392663,21.72222412804369
6.799771648,1.0004506604356487,21.564994160663566
6.802056704,1.0001050442031354,21.412484423828705
6.80434176,0.9997532790373254,21.265003938578086
6.806626816,0.9994175086105788,21.122480831386163
6.808911872,0.9991192031610328,20.984501555944846
6.811196928,0.9988771787218981,20.850393985371333
6.813481984,0.998706679695614,20.719262074496346
6.81576704,0.9986188613152304,20.589956799117772
6.818052096,0.9986191047463312,20.46123855675276
6.820337152,0.998707546514087,20.33183443900184
6.822622208,0.9988785287893284,20.200487701703125
6.824907264,0.9991212461031943,20.06607604112964
6.82719232,0.9994205002348205,19.92765068253426
6.829477376,0.9997571362430384,19.784547120745675
6.831762432,1.0001100415306872,19.636395657903986
6.834047488,1.000456654616051,19.483097978410992
6.836332544,1.0007753806486739,19.324919366159662
6.8386176,1.0010457681260339,19.16241746036811
6.840902656,1.0012509941642236,18.99639686397254
6.843187712,1.0013779264869818,18.82793417727107
6.845472768,1.0014185840645697,18.658173266606447
6.847757824,1.0013703679272286,18.488438777364284
6.85004288,1.001236276078021,18.31994042092839
6.852327936,1.0010246722822815,18.153875300283442
6.854612992,1.000748956822198,17.991296111301292
6.856898048,1.0004264495800443,17.832986437096903
6.859183104,1.000077402263661,17.679463152584596
6.86146816,0.9997239795999627,17.53100638389132
6.863753216,0.9993883383062737,17.38749104584853
6.866038272,0.9990920150435934,17.248531814039165
6.868323328,0.9988537482237176,17.11337942768983
6.870608384,0.9986885477934958,16.98115159324446
6.87289344,0.998607006146089,16.8506371634731
6.875178496,0.9986143026956035,16.72061527305678
6.877463552,0.9987101096654946,16.589798970872796
6.879748608,0.9988883910473645,16.456923666823613
6.882033664,0.9991378310768941,16.320900933656542
6.88431872,0.9994425301517444,16.180737439931416
6.886603776,0.9997833886021663,16.035858820534227
6.888888832,1.000138773863739,15.885857857835061
6.891173888,1.0004861541799301,15.730691459738862
6.893458944,1.0008036573870107,15.570634255969335
6.895744,1.0010711689461353,15.406278385097453
6.898029056,1.0012720012710588,15.238474530375486
6.900314112,1.001393110348705,15.068278542187626
6.902599168,1.001427113701217,14.896898344171682
6.904884224,1.0013716654595815,14.725600715295663
6.90716928,1.0012303093699364,14.555650960142401
6.909454336,1.0010118581785745,14.388234926091922
6.911739392,1.0007300379481745,14.224391537998228
6.914024448,1.0004026567980417,14.064886355107012
6.916309504,1.0000503483448868,13.91026054752774
6.91859456,0.9996952472215205,13.760708254145497
6.920879616,0.9993598940222038,13.616101320742402
6.923164672,0.9990655798929643,13.4760143402352
6.925449728,0.9988310110649224,13.339710623562254
6.927734784,0.9986708781333404,13.206239463955773
6.93001984,0.9985956603889026,13.074421407348577
6.932304896,0.9986099596420831,12.942985054245236
