freq,mag,phase
6.0,0.9999874676905985,-162.60669984089478
6.008,0.9999875758911029,-163.07698014629224
6.016,0.9999876728450549,-163.54706315547676
6.024,0.9999877588256352,-164.01694936313746
6.032,0.9999878341031098,-164.4866392890905
6.04,0.9999878989448259,-164.9561334780578
6.048,0.999987953615208,-165.42543249944518
6.056,0.9999879983757541,-165.89453694711966
6.064,0.9999880334850347,-166.36344743918647
6.072,0.9999880591986875,-166.8321646177649
6.08,0.9999880757694221,-167.30068914876406
6.088,0.9999880834470108,-167.76902172165796
6.096,0.9999880824782987,-168.23716304926003
6.104,0.9999880731071936,-168.70511386749735
6.112,0.9999880555746747,-169.1728749351843
6.12,0.9999880301187909,-169.64044703379614
6.128,0.9999879969746635,-170.1078309672419
6.136,0.9999879563744885,-170.57502756163737
6.144,0.9999879085475385,-171.04203766507754
6.152,0.9999878537201702,-171.5088621474089
6.16,0.9999877921158252,-171.97550190000186
6.168,0.9999877239550352,-172.4419578355226
6.176,0.9999876494554281,-172.90823088770497
6.184,0.9999875688317333,-173.37432201112267
6.192,0.9999874822957864,-173.84023218096073
6.2,0.9999873900565388,-174.30596239278768
6.208,0.999987292320061,-174.7715136623273
6.216,0.9999871892895545,-175.23688702523046
6.224,0.9999870811653563,-175.70208353684737
6.232,0.9999869681449474,-176.16710427199973
6.24,0.9999868504229624,-176.6319503247529
6.248,0.9999867281912012,-177.09662280818858
6.256,0.999986601638633,-177.56112285417748
6.264,0.9999864709514126,-178.0254516131522
6.272,0.9999863363128833,-178.48961025388067
6.28,0.9999861979035979,-178.95359996323944
6.288,0.9999860559013183,-179.41742194598783
6.296,0.9999859104810359,-179.88107742454181
6.304,0.9999857618149802,179.6554323612513
6.312,0.9999856100726287,179.19210615433772
6.32,0.999985455420724,178.7289426806821
6.328,0.9999852980232835,178.26594064949145
6.336,0.9999851380416137,177.80309875343906
6.344,0.9999849756343223,177.34041566888743
6.352,0.9999848109573363,176.87789005611154
6.36,0.999984644163909,176.4155205595204
6.368,0.9999844754046397,175.95330580787913
6.376,0.9999843048274897,175.4912444145299
6.384,0.9999841325777897,175.0293349776124
6.392,0.9999839587982651,174.5675760802839
6.4,0.999983783629041,174.10596629093826
6.408,0.9999836072076675,173.6445041634249
6.416,0.9999834296691292,173.18318823726636
6.424,0.9999832511458636,172.72201703787616
6.432,0.9999830717677781,172.26098907677485
6.44,0.9999828916622651,171.80010285180634
6.448,0.9999827109542211,171.33935684735306
6.456,0.9999825297660611,170.87874953455014
6.464,0.9999823482177377,170.4182793714996
6.472,0.9999821664267586,169.95794480348297
6.48,0.999981984508203,169.49774426317373
6.4879999999999995,0.9999818025747409,169.03767617084858
6.496,0.9999816207366495,168.57773893459807
6.504,0.999981439101834,168.1179309505368
6.5120000000000005,0.9999812577758425,167.6582506030118
6.52,0.9999810768618869,167.19869626481142
6.5280000000000005,0.9999808964608622,166.7392662973721
6.536,0.999980716671361,166.27995905098538
6.5440000000000005,0.9999805375896993,165.8207728650031
6.552,0.9999803593099291,165.36170606804276
6.5600000000000005,0.9999801819238612,164.9027569781908
6.568,0.9999800055210832,164.4439239032064
6.5760000000000005,0.9999798301889796,163.98520514072288
6.584,0.999979656012752,163.52659897844978
6.592,0.9999794830754363,163.06810369437252
6.6,0.9999793114579246,162.6097175569525
6.608,0.9999791412389842,162.15143882532527
6.616,0.9999789724952792,161.69326574949844
6.624,0.9999788053013866,161.2351965705482
6.632,0.9999786397298209,160.77722952081552
6.64,0.9999784758510515,160.31936282410066
6.648,0.9999783137335236,159.86159469585738
6.656,0.9999781534436787,159.40392334338583
6.664,0.9999779950459748,158.9463469660249
6.672,0.9999778386029072,158.48886375534295
6.68,0.9999776841750275,158.03147189532854
6.688,0.9999775318209668,157.57416956257936
6.696,0.9999773815974535,157.1169549264906
6.704,0.9999772335593355,156.6598261494425
6.712,0.9999770877596,156.20278138698654
6.72,0.9999769442493953,155.74581878803113
6.728,0.9999768030780497,155.28893649502604
6.736,0.9999766642930934,154.83213264414593
6.744,0.9999765279402798,154.37540536547309
6.752,0.9999763940636044,153.91875278317903
6.76,0.9999762627053271,153.4621730157053
6.768,0.9999761339059918,153.0056641759431
6.776,0.9999760077044481,152.54922437141227
6.784,0.9999758841378714,152.09285170443897
6.792,0.999975763241784,151.63654427233288
6.8,0.9999756450500757,151.18030016756296
6.808,0.9999755295950246,150.7241174779325
6.816,0.9999754169073165,150.26799428675338
6.824,0.9999753070160682,149.81192867301897
6.832,0.9999751999488459,149.35591871157655
6.84,0.9999750957316869,148.89996247329856
6.848,0.999974994389119,148.44405802525284
6.856,0.9999748959441831,147.98820343087215
6.864,0.9999748004184521,147.5323967501227
6.872,0.9999747078320514,147.07663603967148
6.88,0.9999746182036805,146.62091935305327
6.888,0.9999745315506323,146.16524474083602
6.896,0.9999744478888145,145.70961025078591
6.904,0.9999743672327679,145.25401392803113
6.912,0.9999742895956896,144.798453815225
6.92,0.9999742149894513,144.34292795270798
6.928,0.9999741434246189,143.88743437866884
6.936,0.9999740749104749,143.43197112930514
6.944,0.9999740094550364,142.97653623898253
6.952,0.999973947065076,142.52112774039324
6.96,0.999973887746141,142.06574366471398
6.968,0.999973831502575,141.61038204176248
6.976,0.9999737783375356,141.15504090015355
6.984,0.999973728253014,140.69971826745416
6.992,0.9999736812498586,140.2444121703375
7.0,0.9999736373277887,139.78912063473658
7.008,0.9999735964854175,139.33384168599642
7.016,0.9999735587202732,138.87857334902603
7.024,0.9999735240288129,138.42331364844893
7.032,0.9999734924064474,137.96806060875343
7.04,0.9999734638475567,137.51281225444154
7.048,0.9999734383455117,137.0575666101775
7.056,0.9999734158926908,136.60232170093522
7.064,0.9999733964805005,136.147075552145
7.072,0.9999733800993937,135.6918261898395
7.08,0.999973366738889,135.23657164079887
7.088,0.9999733563875874,134.78130993269488
7.096,0.9999733490331942,134.32603909423483
7.104,0.9999733446625343,133.87075715530395
7.112,0.999973343261572,133.4154621471076
7.12,0.9999733448154291,132.96015210231238
7.128,0.9999733493084052,132.5048250551867
7.136,0.99997335672399,132.0494790417404
7.144,0.9999733670448878,131.59411209986365
7.152,0.9999733802530312,131.13872226946526
7.16,0.9999733963296016,130.68330759261013
7.168,0.9999734152550439,130.22786611365598
7.176,0.999973437009087,129.77239587938917
7.184,0.9999734615707592,129.3168949391603
7.192,0.9999734889184074,128.8613613450186
7.2,0.9999735190297115,128.40579315184576
7.208,0.9999735518817051,127.95018841748916
7.216,0.999973587450789,127.49454520289429
7.224,0.9999736257127522,127.03886157223661
7.232,0.9999736666427848,126.58313559305245
7.24,0.9999737102154963,126.12736533636956
7.248,0.9999737564049321,125.67154887683677
7.256,0.9999738051845911,125.21568429285308
7.264,0.9999738565274403,124.75976966669604
7.272,0.9999739104059318,124.30380308464937
7.28,0.9999739667920187,123.84778263713028
7.288,0.999974025657172,123.39170641881563
7.296,0.9999740869723948,122.93557252876793
7.304,0.9999741507082397,122.47937907056043
7.312,0.9999742168348239,122.02312415240155
7.32,0.9999742853218445,121.56680588725887
7.328,0.9999743561385935,121.1104223929825
7.336,0.9999744292539748,120.65397179242744
7.344,0.9999745046365179,120.19745221357593
7.352,0.9999745822543923,119.74086178965868
7.36,0.9999746620754243,119.2841986592759
7.368,0.9999747440671116,118.82746096651736
7.376,0.9999748281966361,118.37064686108205
7.384,0.99997491443088,117.91375449839748
7.392,0.9999750027364401,117.45678203973779
7.4,0.9999750930796425,116.99972765234193
7.4079999999999995,0.9999751854265553,116.54258950953098
7.416,0.9999752797430032,116.08536579082447
7.4239999999999995,0.9999753759945835,115.62805468205735
7.432,0.9999754741466765,115.17065437549476
7.4399999999999995,0.999975574164462,114.71316306994791
7.448,0.9999756760129315,114.25557897088768
7.4559999999999995,0.9999757796569017,113.79790029055965
7.464,0.9999758850610273,113.34012524809636
7.4719999999999995,0.999975992189816,112.88225206963118
7.48,0.9999761010076396,112.4242789884099
7.4879999999999995,0.9999762114787485,111.96620424490308
7.496,0.9999763235672822,111.50802608691671
7.504,0.999976437237285,111.04974276970367
7.5120000000000005,0.9999765524527157,110.59135255607303
7.52,0.9999766691774612,110.13285371650065
7.5280000000000005,0.9999767873753495,109.67424452923734
7.536,0.9999769070101606,109.21552328041854
7.5440000000000005,0.9999770280456388,108.75668826417133
7.552,0.9999771504455048,108.29773778272303
7.5600000000000005,0.9999772741734676,107.83867014650734
7.568,0.9999773991932347,107.37948367427175
7.5760000000000005,0.9999775254685257,106.92017669318277
7.584,0.9999776529630828,106.46074753893224
7.5920000000000005,0.9999777816406804,106.00119455584158
7.6,0.9999779114651385,105.54151609696716
7.6080000000000005,0.9999780424003318,105.0817105242034
7.616,0.9999781744102028,104.62177620838715
7.6240000000000006,0.9999783074587685,104.16171152939992
7.632,0.9999784415101355,103.70151487627115
7.640000000000001,0.999978576528507,103.24118464727941
7.648,0.9999787124781945,102.78071925005472
7.656000000000001,0.9999788493236274,102.32011710167875
7.664,0.9999789870293632,101.85937662878612
7.672,0.9999791255600977,101.3984962676637
7.68,0.9999792648806738,100.9374744643506
7.688,0.9999794049560911,100.47630967473697
7.696,0.9999795457515167,100.01500036466248
7.704,0.9999796872322929,99.55354501001449
7.712,0.9999798293639466,99.09194209682538
7.72,0.9999799721121989,98.63019012136962
7.728,0.9999801154429737,98.16828759026032
7.736,0.9999802593224061,97.70623302054516
7.744,0.9999804037168512,97.2440249398019
7.752,0.9999805485928922,96.7816618862334
7.76,0.9999806939173503,96.31914240876203
7.768,0.9999808396572896,95.85646506712372
7.776,0.9999809857800287,95.39362843196135
7.784,0.9999811322531457,94.93063108491776
7.792,0.999981279044488,94.46747161872815
7.8,0.9999814261221784,94.00414863731196
7.808,0.9999815734546234,93.54066075586432
7.816,0.9999817210105201,93.0770066009469
7.824,0.9999818687588637,92.61318481057833
7.832,0.9999820166689544,92.14919403432383
7.84,0.9999821647104032,91.6850329333847
7.848,0.999982312853141,91.22070018068703
7.856,0.9999824610674224,90.75619446096988
7.864,0.9999826093238342,90.29151447087293
7.872,0.9999827575933007,89.82665891902371
7.88,0.9999829058470903,89.36162652612417
7.888,0.9999830540568211,88.8964160250366
7.896,0.9999832021944673,88.43102616086932
7.904,0.9999833502323643,87.96545569106141
7.912,0.9999834981432141,87.49970338546717
7.92,0.9999836459000921,87.03376802643992
7.928,0.9999837934764506,86.56764840891516
7.936,0.9999839408461251,86.10134334049322
7.944,0.9999840879833393,85.6348516415214
7.952,0.9999842348627085,85.16817214517529
7.96,0.9999843814592461,84.70130369753983
7.968,0.9999845277483677,84.2342451576894
7.976,0.9999846737058947,83.76699539776766
7.984,0.9999848193080587,83.29955330306649
7.992,0.9999849645315069,82.8319177721045
8.0,0.9999851093533044,82.36408771670487
8.008,0.9999852537509388,81.89606206207257
8.016,0.999985397702324,81.42783974687067
8.024000000000001,0.9999855411858031,80.95941972329675
8.032,0.9999856841801527,80.49080095715793
8.04,0.9999858266645849,80.02198242794526
8.048,0.9999859686187518,79.5529631289079
8.056000000000001,0.9999861100227475,79.08374206712672
8.064,0.99998625085711,78.61431826358651
8.072,0.9999863911028263,78.144690753248
8.08,0.9999865307413329,77.67485858511908
8.088000000000001,0.9999866697545187,77.20482082232573
8.096,0.999986808124727,76.73457654218157
8.104,0.9999869458347576,76.26412483625693
8.112,0.9999870828678697,75.79346481044733
8.120000000000001,0.9999872192077819,75.32259558504154
8.128,0.9999873548386751,74.85151629478825
8.136,0.9999874897451928,74.38022608896213
8.144,0.999987623912444,73.90872413142954
8.152000000000001,0.9999877573260031,73.43700960071341
8.16,0.9999878899719116,72.965081690057
8.168,0.9999880218366772,72.49293960748692
8.176,0.9999881529072785,72.02058257587564
8.184000000000001,0.9999882831711603,71.5480098330034
8.192,0.999988412616239,71.07522063161875
8.2,0.9999885412308991,70.60221423949828
8.208,0.9999886690039955,70.12898993950611
8.216000000000001,0.9999887959248522,69.65554702965234
8.224,0.999988921983264,69.18188482315038
8.232,0.9999890471694938,68.7080026484734
8.24,0.9999891714742739,68.23389984941034
8.248000000000001,0.9999892948888044,67.75957578512099
8.256,0.9999894174047531,67.28502983018991
8.264,0.9999895390142542,66.81026137467934
8.272,0.9999896597099082,66.33526982418174
8.280000000000001,0.9999897794847786,65.86005459987122
8.288,0.9999898983323932,65.384615138554
8.296,0.9999900162467407,64.90895089271751
8.304,0.99999013322227,64.43306133057933
8.312,0.9999902492538885,63.95694593613516
8.32,0.9999903643369598,63.48060420920463
8.328,0.9999904784673014,63.004035665478014
8.336,0.9999905916411838,62.52723983656006
8.344,0.9999907038553267,62.05021627001464
8.352,0.9999908151068977,61.572964529406626
8.36,0.9999909253935091,61.09548419434457
8.368,0.9999910347132152,60.617774860520505
8.376,0.9999911430645098,60.13983613975061
8.384,0.9999912504463231,59.66166766001294
8.392,0.9999913568580187,59.18326906548597
8.4,0.9999914622993886,58.704640016584314
8.408,0.9999915667706538,58.225780189995085
8.416,0.9999916702724564,57.74668927871143
8.424,0.9999917728058584,57.26736699206672
8.432,0.9999918743723378,56.78781305576595
8.44,0.9999919749737834,56.30802721191777
8.448,0.9999920746124924,55.8280092190635
8.456,0.9999921732911644,55.347758852206994
8.464,0.9999922710129002,54.86727590284134
8.472,0.9999923677811924,54.386560178976495
8.48,0.9999924635999258,53.90561150516367
8.488,0.9999925584733699,53.42442972252046
8.496,0.9999926524061752,52.943014688753124
8.504,0.9999927454033669,52.46136627817916
8.512,0.9999928374703425,51.979484381747206
8.52,0.9999929286128635,51.49736890705725
8.528,0.9999930188370525,51.015019778378054
8.536,0.9999931081493864,50.53243693666489
8.544,0.9999931965566918,50.04962033957452
8.552,0.9999932840661386,49.56656996148037
8.56,0.9999933706852344,49.08328579348505
8.568,0.9999934564218195,48.599767843432964
8.576,0.9999935412840598,48.116016135920184
8.584,0.9999936252804413,47.63203071230468
8.592,0.9999937084197643,47.14781163071335
8.6,0.9999937907111356,46.663358966049735
8.608,0.9999938721639637,46.17867280999847
8.616,0.999993952787952,45.693753271030225
8.624,0.9999940325930912,45.20860047440356
8.632,0.9999941115896542,44.72321456216708
8.64,0.9999941897881873,44.23759569315868
8.648,0.9999942671995053,43.7517440430049
8.656,0.9999943438346837,43.26565980411735
8.664,0.9999944197050507,42.77934318568941
8.672,0.9999944948221818,42.29279441368985
8.68,0.9999945691978906,41.80601373085663
8.688,0.9999946428442241,41.319001396687746
8.696,0.9999947157734519,40.831757687432244
8.704,0.9999947879980612,40.34428289607811
8.712,0.9999948595307483,39.856577332340485
8.72,0.9999949303844115,39.36864132264659
8.728,0.9999950005721421,38.88047521012108
8.736,0.9999950701072178,38.39207935456808
8.744,0.9999951390030942,37.903454132453525
8.752,0.9999952072733975,37.414599936884265
8.76,0.999995274931915,36.925517177587444
8.768,0.9999953419925887,36.43620628088666
8.776,0.9999954084695059,35.94666768967825
8.784,0.9999954743768918,35.456901863404575
8.792,0.9999955397291006,34.96690927802718
8.8,0.999995604540607,34.47669042599701
8.808,0.9999956688259993,33.98624581622468
8.815999999999999,0.9999957325999682,33.495575974047576
8.824,0.9999957958773014,33.004681441196574
8.832,0.9999958586728727,32.513562775761066
8.84,0.9999959210016341,32.022220552152
8.847999999999999,0.999995982878608,31.5306553610634
8.856,0.9999960443188773,31.038867809432638
8.864,0.9999961053375773,30.54685852039935
8.872,0.9999961659498867,30.054628133262188
8.879999999999999,0.9999962261710195,29.56217730343405
8.888,0.9999962860162145,29.06950670239613
8.896,0.9999963455007286,28.576617017650484
8.904,0.9999964046398261,28.083508952670478
8.911999999999999,0.9999964634487716,27.59018322684966
8.92,0.9999965219428185,27.09664057544958
8.928,0.9999965801372036,26.602881749545855
8.936,0.9999966380471346,26.108907515972366
8.943999999999999,0.9999966956877836,25.614718657263708
8.952,0.9999967530742766,25.120315971596604
8.96,0.9999968102216864,24.625700272729635
8.968,0.9999968671450213,24.13087238994097
8.975999999999999,0.9999969238592175,23.6358331679645
8.984,0.9999969803791303,23.14058346692474
8.992,0.9999970367195243,22.645124162270232
9.0,0.9999970928950657,22.149456144704807
9.008,0.9999971489203118,21.653580320117303
9.016,0.9999972048097026,21.157497609510127
9.024000000000001,0.9999972605775531,20.661208948926074
9.032,0.999997316238043,20.164715289373355
9.04,0.999997371805208,19.66801759674882
9.048,0.9999974272929316,19.171116851760043
9.056000000000001,0.9999974827149362,18.674014049845923
9.064,0.9999975380847734,18.17671020109514
9.072,0.9999975934158167,17.679206330163037
9.08,0.9999976487212516,17.181503476187412
9.088000000000001,0.9999977040140674,16.683602692702642
9.096,0.9999977593070493,16.185505047551842
9.104,0.9999978146127682,15.687211622797385
9.112,0.9999978699435739,15.188723514630382
9.120000000000001,0.9999979253115856,14.690041833278457
9.128,0.9999979807286834,14.191167702911653
9.136,0.9999980362065013,13.692102261546644
9.144,0.9999980917564175,13.192846660949964
9.152000000000001,0.9999981473895467,12.693402066539564
9.16,0.999998203116732,12.193769657284443
9.168,0.9999982589485369,11.693950625602756
9.176,0.9999983148952372,11.193946177258768
9.184000000000001,0.9999983709668129,10.69375753125837
9.192,0.9999984271729412,10.193385919742529
9.2,0.9999984835229875,9.6928325878793
9.208,0.9999985400259988,9.192098793754795
9.216000000000001,0.999998596690696,8.691185808262581
9.224,0.9999986535254655,8.19009491499121
9.232,0.9999987105383532,7.688827410110226
9.24,0.9999987677370562,7.18738460225523
9.248000000000001,0.9999988251289165,6.685767812411348
9.256,0.9999988827209119,6.183978373794972
9.264,0.9999989405196531,5.682017631733922
9.272,0.9999989985313722,5.179886943546698
9.280000000000001,0.9999990567619194,4.677587678420313
9.288,0.9999991152167546,4.175121217286253
9.296,0.9999991739009412,3.672488952695021
9.304,0.9999992328191403,3.169692288689835
9.312000000000001,0.9999992919756044,2.6667326406788376
9.32,0.999999351374171,2.1636114353055955
9.328,0.9999994110182556,1.6603301103182064
9.336,0.9999994709108484,1.156890114437503
9.344,0.9999995310545062,0.6532929072241568
9.352,0.9999995914513483,0.1495399589431932
9.36,0.99999965210305,-0.35436724957096155
9.368,0.9999997130108379,-0.8584272270525707
9.376,0.9999997741754844,-1.3626384719421463
9.384,0.9999998355973043,-1.8669994725269774
9.392,0.9999998972761471,-2.3715087070812495
9.4,0.9999999592113955,-2.876164644008978
9.408,1.0,-3.3809657419865173
9.416,0.9999999999999999,-3.8859104501079456
9.424,1.0,-4.390997208029827
9.432,1.0,-4.896224446119002
9.44,1.0,-5.401590585599614
9.448,1.0,-5.907094038703114
9.456,1.0,-6.412733208817555
9.464,1.0,-6.91850649063968
9.472,1.0,-7.424412270326512
9.48,1.0,-7.930448925649428
9.488,1.0,-8.436614826147826
9.496,1.0,-8.942908333285299
9.504,1.0,-9.44932780060522
9.512,1.0,-9.955871573888958
9.52,0.9999999999999998,-10.462537991313292
9.528,1.0,-10.969325383610528
9.536,1.0,-11.476232074227799
9.544,1.0,-11.983256379488967
9.552,1.0,-12.490396608755585
9.56,1.0,-12.997651064590654
9.568,1.0,-13.50501804292116
9.576,0.9999999999999998,-14.012495833203461
9.584,1.0,-14.520082718587496
9.592,0.9999999999999999,-15.027776976083658
9.6,0.9999999999999998,-15.535576876728486
9.608,1.0,-16.04348068575302
9.616,1.0,-16.551486662749948
9.624,1.0,-17.05959306184325
9.632,0.9999999999999999,-17.567798131856716
9.64,0.9999999999999999,-18.076100116484913
