freq,mag,phase
6.0,0.9999777041235768,-141.62500559098524
6.018691584,0.999975467543169,-142.66801210003376
6.037383168,0.9999741773969425,-143.71077328111565
6.056074752,0.9999739772195367,-144.75324741807756
6.074766336,0.9999749107512482,-145.7954232522465
6.09345792,0.9999768059822909,-146.83732220941965
6.112149504,0.9999798205720345,-147.87899288915122
6.130841088,0.9999836801578783,-148.9204137243087
6.149532672,0.9999882744237358,-149.96153451738493
6.168224256,0.9999935874965383,-151.00243282591026
6.18691584,0.9999992806212111,-152.04304487091963
6.205607424,1.0000053206664206,-153.0834258943437
6.224299008,1.000011291936211,-154.12357768461501
6.242990592,1.0000171367519286,-155.16342175212304
6.261682176,1.000022546170882,-156.20298683263078
6.28037376,1.0000275405789127,-157.24229183743685
6.299065344,1.000031733005458,-158.28131850902315
6.317756928,1.000035037957913,-159.32002280376545
6.336448512,1.00003730079497,-160.3584062277997
6.355140096,1.0000384776233515,-161.39643330296613
6.37383168,1.0000386022222707,-162.43412809262117
6.392523264,1.000037419665157,-163.47144635621666
6.411214848,1.0000352641295462,-164.50835472250984
6.429906432,1.0000319824648962,-165.54489234350694
6.448598016,1.0000277107275664,-166.58095571186655
6.4672896,1.0000227311967202,-167.61662611112132
6.485981184,1.0000170671708895,-168.65181192925766
6.504672768,1.000010893508909,-169.68658888570013
6.523364352,1.0000046439517392,-170.7208512028724
6.542055936,0.9999982102660318,-171.7546573777527
6.56074752,0.9999920598906555,-172.78798043399817
6.579439104,0.9999863439233551,-173.82085197309559
6.598130688,0.9999812312207021,-174.85324907374505
6.616822272,0.9999768112877285,-175.88510403099082
6.635513856,0.9999734912758298,-176.91657047825024
6.65420544,0.9999712205792458,-177.9475287602004
6.672897024,0.9999701119763869,-178.9780524847628
6.691588608,0.9999702673282356,179.99187842595103
6.710280192,0.9999715596183866,178.96222754388256
6.728971776,0.999974146205004,177.932985653187
6.74766336,0.9999777415127538,176.9042016140023
6.766354944,0.9999823398783108,175.87580925658114
6.785046528,0.9999877510769516,174.84781007527988
6.803738112,0.9999939052097048,173.82024535479033
6.822429696,1.000000454331004,172.7930223162937
6.84112128,1.0000071878843795,171.76621322248124
6.859812864,1.0000140237460713,170.739798142528
6.878504448,1.0000204647444553,169.71378730086184
6.897196032,1.0000263716973967,168.6881756850073
6.915887616,1.0000317481940864,167.66297526552668
6.9345792,1.000036130491795,166.63820874298682
6.953270784,1.0000395130596362,165.61388939888673
6.971962368,1.000041693942214,164.58999537133226
6.990653952,1.000042626911814,163.56659222873446
7.009346048,1.0000423393610285,162.5436530414231
7.028037632,1.0000406501486983,161.5212292152102
7.046729216,1.000037729798077,160.49933913337296
7.0654208,1.0000337639531112,159.47794188516923
7.084112384,1.0000286619993506,158.45711426645147
7.102803968,1.0000226150073035,157.436867168376
7.121495552,1.00001618223262,156.4171153455274
7.140187136,1.0000091056447558,155.39801068175714
7.15887872,1.0000020311021771,154.37945150101064
7.177570304,0.9999947723019955,153.36149098997996
7.196261888,0.9999879741986859,152.34411014925143
7.214953472,0.9999817573411087,151.32730483730347
7.233645056,0.9999763779868676,150.31108373208883
7.25233664,0.9999719024195187,149.29540504084187
7.271028224,0.9999684662994186,148.28028244271295
7.289719808,0.9999663901034964,147.26573591089704
7.308411392,0.9999655927407257,146.25172549860974
7.327102976,0.9999663722812686,145.23822461375087
7.34579456,0.9999682765845599,144.22522243052708
7.364486144,0.9999715822247937,143.21269059604012
7.383177728,0.9999761249547494,142.200680836319
7.401869312,0.9999816524463411,141.18912539732136
7.420560896,0.9999880454631731,140.1780210400935
7.43925248,0.999995144555266,139.1673717419488
7.457944064,1.0000026269506936,138.1571599046173
7.476635648,1.0000101555406344,137.147393736405
7.495327232,1.0000176243286083,136.1380803068758
7.514018816,1.0000247364989576,135.12919308339193
7.5327104,1.0000311496369372,134.1207943648799
7.551401984,1.000036708147739,133.1128327444033
7.570093568,1.0000411897983432,132.1053414566278
7.588785152,1.0000444931594474,131.09831329734962
7.607476736,1.0000463869638543,130.09179687386148
7.62616832,1.0000469425219027,129.0857970979976
7.644859904,1.0000459204954595,128.08027713069347
7.663551488,1.0000434794091932,127.07534739070482
7.682243072,1.0000397485453023,126.07096740503754
7.700934656,1.0000346004543215,125.06715243656366
7.71962624,1.0000285849669104,124.06391207684894
7.738317824,1.0000216131653799,123.06126243055358
7.757009408,1.0000140430688802,122.05922008216407
7.775700992,1.0000060747825912,121.05777349517128
7.794392576,0.9999980365257455,120.05693356813582
7.81308416,0.9999901777669435,119.0567164064963
7.831775744,0.9999827999705965,118.05706340012783
7.850467328,0.9999761212185555,117.05803883230908
7.869158912,0.9999705043898525,116.05956678622209
7.887850496,0.9999660952120304,115.06170029116998
7.90654208,0.9999628865975599,114.06436839984042
7.925233664,0.9999612240296205,113.06759263068673
7.943925248,0.9999610210492605,112.07132476169885
7.962616832,0.9999624373995112,111.07556770735586
7.981308416,0.9999654168803136,110.08028652273617
8.0,0.9999696696987246,109.085499307331
8.018691584,0.999975209694309,108.09114227614822
8.037383168,0.9999819952325076,107.097237188313
8.056074752,0.9999895149496217,106.10374810142243
8.074766336,0.9999976170579353,105.1106579690198
8.09345792,1.0000060539128146,104.11801349438781
8.112149504,1.0000144623856921,103.12577808866783
8.130841088,1.000022665318361,102.13392722992943
8.149532672,1.0000302939748582,101.1424864648829
8.168224256,1.0000370828368392,100.15147459670565
8.18691584,1.0000426591827059,99.16086921305714
8.205607424,1.000047166381029,98.17068623884788
8.224299008,1.0000500235621963,97.18096433769534
8.242990592,1.0000514312873745,96.19168748322868
8.261682176,1.0000511732540203,95.20288832605438
8.28037376,1.0000492338079634,94.21457817191532
8.299065344,1.0000457870949233,93.22676563113228
8.317756928,1.00004085428104,92.23947362651583
8.336448512,1.0000346805610993,91.25268679753759
8.355140096,1.0000272674005546,90.2664868917777
8.37383168,1.000019175352799,89.28080890873014
8.392523264,1.0000104971284853,88.29566413225439
8.411214848,1.0000014323966961,87.31110057551531
8.429906432,0.9999926124058583,86.3270785111528
8.448598016,0.9999841342697944,85.34361415996801
8.4672896,0.9999762453774445,84.36068035619083
8.485981184,0.9999693681681395,83.37828679103418
8.504672768,0.9999637025977189,82.39639596122625
8.523364352,0.99995943523378,81.41500759368556
8.542055936,0.9999567045046107,80.43411066198077
8.56074752,0.9999557131720243,79.45365385920816
8.579439104,0.99995652268763,78.4736208655296
8.598130688,0.9999588855437824,77.4940123375322
8.616822784,0.9999629299692905,76.51480674753836
8.635513856,0.9999685127728902,75.53596285766082
8.654205952,0.9999754711417908,74.55747507671137
8.672897024,0.9999833798167543,73.57932558975193
8.69158912,0.9999921637233868,72.60150008326198
8.710280192,1.0000014553900822,71.623990869053
8.728972288,1.0000109553772245,70.64678664862429
8.74766336,1.0000201924699306,69.66987136285753
8.766355456,1.0000290002809682,68.6932577354325
8.785046528,1.0000370684314925,67.71695528553292
8.803738624,1.0000439865093322,66.74095584993286
8.822429696,1.0000495495225086,65.76528912068287
8.841121792,1.00005360563005,64.7899229849194
8.859812864,1.000055939838106,63.81492749343154
8.87850496,1.0000564382786756,62.84027458638814
8.897196032,1.0000552196500165,61.866006979219485
8.915888128,1.0000520860893944,60.892123467853374
8.9345792,1.0000474549234306,59.91864188098718
8.953271296,1.0000410526192138,58.945578014898324
8.971962368,1.0000333981245682,57.97295511462811
8.990654464,1.0000247410055612,57.00076879414754
9.009345536,1.0000152999626886,56.02901815708218
9.028037632,1.000005444774465,55.05773816002863
9.046728704,0.999995346266994,54.086878409223864
9.0654208,0.9999856874338455,53.11646841828844
9.084111872,0.9999765830946107,52.14649059838277
9.102803968,0.9999684303146281,51.1769530313084
9.12149504,0.9999614967030124,50.20781520412125
9.140187136,0.9999560481939326,49.23906235274667
9.158878208,0.999952189507783,48.270667096327266
9.177570304,0.9999502747698787,47.302604717207004
9.196261376,0.9999502827353168,46.33488176420448
9.214953472,0.9999521415520825,45.36744472791381
9.233644544,0.9999558858243963,44.400266915679886
9.25233664,0.9999614052613806,43.433350952306945
9.271027712,0.9999684324478939,42.466633859581144
9.289719808,0.9999769056697472,41.5001325247641
9.30841088,0.9999862387146856,40.533835212426915
9.327102976,0.9999964481346293,39.56768325416627
9.345794048,1.0000068870943402,38.601691827844036
9.364486144,1.000017378272832,37.63584866103419
9.383177216,1.000027462766247,36.67015862550593
9.401869312,1.0000368163214672,35.70460739903088
9.420560384,1.0000450888933443,34.73924862112345
9.43925248,1.000051964542021,33.7740209465882
9.457943552,1.000057205384354,32.8089643873717
9.476635648,1.0000606461949602,31.844110864646872
9.49532672,1.000062043134266,30.879442580230105
9.514018816,1.0000614706363853,29.915013142354717
9.532709888,1.000058869518914,28.950821513410755
9.551401984,1.0000543745253874,27.986889199254332
9.570093056,1.000047968572401,27.02321862831621
9.588785152,1.0000400505148657,26.05984019510102
9.607476224,1.0000308319467408,25.09672948333882
9.62616832,1.000020584438434,24.133961362163774
9.644859392,1.0000096845117432,23.17147525537247
9.663551488,0.9999985870373701,22.209306327216595
9.68224256,0.9999875783308672,21.247437876055123
9.700934656,0.9999771345199349,20.285863966730282
9.719625728,0.9999676195777917,19.324574419531906
9.738317824,0.999959293149988,18.363554333499764
9.757008896,0.9999524537243977,17.402774052380252
9.775700992,0.9999473758348622,16.442221102588437
9.794392064,0.9999444185071534,15.481889093171738
9.81308416,0.9999436307159587,14.52170627499392
9.831775232,0.9999447769900917,13.561677424222268
9.850467328,0.9999481799433794,12.601751087626594
9.8691584,0.9999535169383018,11.641922108696258
9.887850496,0.9999608153929439,10.682163951180403
9.906541568,0.9999695706140646,9.722448934184845
9.925233664,0.9999797018558184,8.76274157103268
9.943924736,0.9999907248029638,7.803027857216379
9.962616832,1.0000024049531453,6.843324919770986
9.981307904,1.000014089295818,5.883570023339455
10.0,1.0000255662710422,4.923795024449245
10.018692096,1.0000364279791416,3.9640134732816987
10.037383168,1.0000460682390968,3.0041891574032946
10.056075264,1.0000544333663042,2.0443680319425153
10.074766336,1.0000609563792147,1.0845315251510546
10.093458432,1.0000656687536142,0.12470137200102675
10.112149504,1.0000680741336434,-0.8350877304986147
10.1308416,1.00006829190417,-1.794843741918122
10.149532672,1.0000663301232386,-2.754529054714998
10.168224768,1.0000620875759845,-3.7141212470614846
10.18691584,1.0000557566987387,-4.673628730801944
10.205607936,1.000047550228543,-5.633008886510051
10.224299008,1.0000377386254578,-6.592252930776259
10.242991104,1.0000267168922903,-7.551340720035997
10.261682176,1.0000148333977141,-8.5102728958224
10.280374272,1.000002492470773,-9.46907460713548
10.299065344,0.9999900818855691,-10.427723379929564
10.31775744,0.99997811825475,-11.386227314807979
10.336448512,0.9999670488175606,-12.344592408081253
10.355140608,0.9999571310668992,-13.302853395150533
10.37383168,0.9999488389866751,-14.260990011494563
10.392523776,0.9999425348749524,-15.219068812933198
10.411214848,0.9999382974133366,-16.17711071062919
10.429906944,0.9999363649614568,-17.135117442167243
10.448598016,0.9999368315532915,-18.093143346309024
10.467290112,0.9999397491112811,-19.05122681162233
10.485981184,0.9999449108997059,-20.009380072149824
10.50467328,0.9999522259129648,-20.967623512237758
10.523364352,0.9999614212229534,-21.92601428376364
10.542056448,0.9999721426489637,-22.884521813461426
10.56074752,0.9999842116454547,-23.84323887750102
10.579439616,0.999996923885827,-24.802157398836187
10.598130688,1.0000100380369141,-25.761266847907958
10.616822784,1.0000229706858548,-26.720567330416856
10.635513856,1.0000354376662042,-27.680110135599826
10.654205952,1.0000467880893198,-28.639840318862994
10.672897024,1.00005669020953,-29.599787221951047
10.69158912,1.0000649580670962,-30.559919923319754
10.710280192,1.0000709993873793,-31.520220933617754
10.728972288,1.0000746209300921,-32.480663344861135
10.74766336,1.0000758778702918,-33.44124048901376
10.766355456,1.0000745016273513,-34.401938480659666
10.785046528,1.0000707142653276,-35.362733453603646
10.803738624,1.00006445276058,-36.32357023403454
10.822429696,1.0000561246405169,-37.2844745763758
10.841121792,1.000045787362562,-38.24538862136656
10.859812864,1.0000338743542432,-39.20634016446295
10.87850496,1.0000209765460817,-40.16730075150504
10.897196032,1.0000071995861912,-41.12823118295331
10.915888128,0.9999932472700247,-42.08917876985385
10.9345792,0.9999796694676452,-43.05012027640523
10.953271296,0.9999668088842136,-44.01108356834974
10.971962368,0.9999552153727598,-44.97206150375283
10.990654464,0.9999451145076427,-45.93309836185396
11.009345536,0.9999372037703065,-46.894222252113074
11.028037632,0.9999315453080861,-47.85540973511192
11.046728704,0.9999284517678282,-48.81675951733703
11.0654208,0.9999278939117807,-49.77825237567689
11.084111872,0.9999301024895385,-50.73995251782869
11.102803968,0.9999349688434334,-51.701882128908906
11.12149504,0.9999422162619481,-52.66406765300026
11.140187136,0.9999518251344754,-53.62655404634127
11.158878208,0.9999632740874891,-54.58935479968816
11.177570304,0.9999762929904513,-55.552502405060835
11.196261376,0.9999902915894375,-56.51601217939472
11.214953472,1.000004900183621,-57.4798964432125
11.233644544,1.0000195843620556,-58.4441661395427
11.25233664,1.0000337536930695,-59.40882745208272
11.271027712,1.0000470704007929,-60.37387077723172
11.289719808,1.0000589145500647,-61.339294374196264
11.30841088,1.0000688185690496,-62.305074021138594
11.327102976,1.0000765230718442,-63.2712049921034
11.345794048,1.0000817129559598,-64.2376568313993
11.364486144,1.0000841779593113,-65.20442208647788
11.383177216,1.0000837397221498,-66.17145322027429
11.401869312,1.0000805091197917,-67.13874231207507
11.420560384,1.0000746243502192,-68.10625501800074
11.43925248,1.0000660842476559,-69.07394948529932
11.457943552,1.0000552725712917,-70.0418424782046
11.476635648,1.0000425469916665,-71.00988010090488
11.49532672,1.000028405138958,-71.97805607278131
11.514018816,1.0000132132040027,-72.94638154575281
11.532709888,0.9999976040236407,-73.91482422529081
11.551401984,0.9999820981732864,-74.88338707278207
11.570093056,0.9999672513913735,-75.85211528736988
11.588785152,0.9999535246120176,-76.8209636546394
11.607476224,0.9999415152043322,-77.79000778115845
11.62616832,0.9999317023171022,-78.75923536965907
11.644859392,0.9999243281825114,-79.72867811419536
11.663551488,0.9999196002813372,-80.6983862955405
11.68224256,0.999917866190006,-81.66837150392107
11.700934656,0.9999191865872478,-82.63869027126255
11.719625728,0.9999235051171848,-83.60936227766537
11.738317824,0.9999306495514764,-84.58044595617963
11.757008896,0.999940460499582,-85.55194212990814
11.775700992,0.9999525954124754,-86.52389785240503
11.794392064,0.9999665815284002,-87.49634840227502
11.81308416,0.9999820430919908,-88.46930224722745
11.831775232,0.9999982944439935,-89.44278615507909
11.850467328,1.0000149565617218,-90.41680448035196
11.8691584,1.0000312154087936,-91.39136058898507
11.887850496,1.0000467062976959,-92.36644822047137
11.906541568,1.000060690815227,-93.34207898249254
11.925233664,1.000072828353656,-94.3182153684442
11.943924736,1.0000825366399528,-95.2948645322977
11.962616832,1.0000895970322186,-96.27195453132609
11.981307904,1.0000936412319243,-97.24950731236106
12.0,1.0000944725517737,-98.22747281380703
12.018692096,1.000092092016178,-99.205818575486
12.037383168,1.0000865598577475,-100.18451502636317
12.056075264,1.0000781003708383,-101.16352907757732
12.074766336,1.0000668675920807,-102.14284342687307
12.093458432,1.0000533663848987,-103.12241896145137
12.112149504,1.0000379293266766,-104.10224926434552
12.1308416,1.000021152247575,-105.08231194995787
12.149532672,1.0000036710596885,-106.062589227768
12.168224768,0.9999860425168765,-107.04309032399121
12.18691584,0.9999688146618259,-108.02381257124627
12.205607936,0.9999528172750161,-109.00477146438668
12.224299008,0.9999383091537444,-109.98597028721831
12.242991104,0.9999261872667955,-110.96746193945485
12.261682176,0.999916551362972,-111.94924983662139
12.280374272,0.9999099567792455,-112.93137480104912
12.299065344,0.999906605421485,-113.91385997656619
12.31775744,0.9999067553016961,-114.8967500155524
12.336448512,0.999910224701246,-115.88008750317928
12.355140608,0.9999170576748552,-116.86393025052936
12.37383168,0.9999269054775761,-117.84828076789215
12.392523776,0.9999396221550992,-118.83320144083389
12.411214848,0.9999546253486978,-119.81868575398593
12.429906944,0.999971522079525,-120.80479075099764
12.448598016,0.9999896458130954,-121.791539183753
12.467290112,1.0000084672804106,-122.77891809354215
12.485981184,1.0000271433060504,-123.76696106472752
12.50467328,1.000045210509853,-124.75563954425714
12.523364352,1.0000618844290448,-125.74495326431843
12.542056448,1.0000766378358708,-126.7349043964538
12.56074752,1.0000889050191724,-127.7254575163966
12.579439616,1.0000983122309168,-128.7165877274247
12.598130688,1.0001043941263463,-129.70825368332794
12.616822784,1.0001069368801632,-130.70043822497865
12.635513856,1.0001057787012309,-131.69308565900812
12.654205952,1.000101079909716,-132.68617222403813
12.672897024,1.0000928013109593,-133.67965031622617
12.69158912,1.000081422482333,-134.67349303565825
12.710280192,1.0000671242461903,-135.66766776840598
12.728972288,1.0000504625941629,-136.66215085336978
12.74766336,1.000031937585019,-137.65689768571184
12.766355456,1.0000122797010624,-138.65189975080705
12.785046528,0.9999920853816563,-139.64718517637513
12.803738624,0.9999722416216712,-140.64271282627809
12.822429696,0.9999533765576382,-141.63848569755757
12.841121792,0.9999360512004473,-142.63453152801935
12.859812864,0.999920828783228,-143.63086612798628
12.87850496,0.9999085448991268,-144.62754692269576
12.897196032,0.9998994681666248,-145.6245657492714
12.915888128,0.9998939569840188,-146.62195388724757
12.9345792,0.9998923283002035,-147.61979878013267
12.953271296,0.9998945631480048,-148.61810288199723
12.971962368,0.9999006410383476,-149.61691594091639
12.990654464,0.9999104087090511,-150.6163067989685
13.009345536,0.9999234924027236,-151.6162615125769
13.028037632,0.9999395701516095,-152.61684842739302
13.046728704,0.99995802172555,-153.6180879932904
13.0654208,0.999978142980116,-154.62001519338173
13.084111872,0.999999381962934,-155.62264431288733
13.102803968,1.0000209569349805,-156.625954038723
13.12149504,1.0000421161370692,-157.62997915784536
13.140187136,1.000061974089893,-158.63470568670604
13.158878208,1.000080052822779,-159.6400938712856
13.177570304,1.0000954931638535,-160.64614608695015
13.196261376,1.000107774822306,-161.65282746258143
13.214953472,1.0001165526298745,-162.66009447616213
13.233644544,1.000121385285137,-163.667907378699
13.25233664,1.0001220952962822,-164.67620770352548
13.271027712,1.0001186421930295,-165.68497964082076
13.289719808,1.000111075586043,-166.6941720795804
13.30841088,1.0000995711713747,-167.70370614876117
13.327102976,1.0000846746074712,-168.71358382010072
13.345794048,1.000066712596596,-169.72374720886623
13.364486144,1.000046324252016,-170.73415809057073
13.383177216,1.000024333000692,-171.74481109152921
13.401869312,1.0000012534020857,-172.75568033939942
13.420560384,0.999978151856552,-173.76675739998146
13.43925248,0.999955678783209,-174.778034502917
13.457943552,0.9999347033598609,-175.78952757865684
