freq,mag,phase
6.0,0.9999991483251773,120.6942692550748
6.008,0.9999993233324482,120.60662881726739
6.016,0.9999994914047141,120.51895328690757
6.024,0.999999652663939,120.43124260687918
6.032,0.9999998072311973,120.34349672005003
6.04,0.9999999552266737,120.25571556927214
6.048,1.0,120.16789909738212
6.056,0.9999999999999999,120.08004724720102
6.064,0.9999999999999999,119.99215996153487
6.072,1.0,119.90423718317462
6.08,1.0,119.8162788548965
6.088,0.9999999999999999,119.72828491946217
6.096,1.0,119.6402553196189
6.104,1.0,119.55218999809979
6.112,0.9999999999999999,119.46408889762388
6.12,0.9999999999999999,119.37595196089659
6.128,0.9999999999999998,119.2877791306096
6.136,1.0,119.19957034944126
6.144,0.9999999999999999,119.11132556005674
6.152,1.0,119.02304470510826
6.16,1.0,118.93472772723514
6.168,0.9999999999999999,118.84637456906424
6.176,1.0,118.75798517320989
6.184,1.0,118.66955948227438
6.192,1.0,118.58109743884786
6.2,1.0,118.49259898550879
6.208,0.9999999999999999,118.40406406482396
6.216,1.0,118.31549261934879
6.224,1.0,118.22688459162751
6.232,1.0,118.13823992419339
6.24,0.9999999999999999,118.04955855956877
6.248,1.0,117.96084044026554
6.256,1.0,117.8720855087851
6.264,1.0,117.78329370761865
6.272,1.0,117.69446497924744
6.28,0.9999999999999999,117.60559926614285
6.288,1.0,117.5166965107667
6.296,0.9999999999999999,117.42775665557139
6.304,0.9999999999999999,117.33877964300012
6.312,1.0000000000000002,117.2497654154871
6.32,1.0,117.16071391545769
6.328,0.9999999999999999,117.07162508532872
6.336,1.0,116.98249886750851
6.344,1.0,116.89333520439726
6.352,1.0,116.80413403838716
6.36,1.0,116.71489531186253
6.368,1.0,116.62561896720014
6.376,1.0,116.53630494676936
6.384,1.0,116.44695319293231
6.392,1.0,116.35756364804416
6.4,0.9999999999999998,116.26813625445322
6.408,1.0,116.17867095450121
6.416,0.9999999999999999,116.08916769052351
6.424,1.0,115.99962640484915
6.432,0.9999999999999999,115.91004703980133
6.44,1.0,115.82042953769736
6.448,0.9999999999999998,115.7307738408489
6.456,1.0,115.6410798915623
6.464,0.9999999999999999,115.55134763213864
6.472,0.9999999999999999,115.46157700487406
6.48,1.0000000000000002,115.37176795205987
6.4879999999999995,1.0,115.28192041598275
6.496,0.9999999999999999,115.19203433892498
6.504,1.0,115.10210966316474
6.5120000000000005,1.0,115.01214633097611
6.52,1.0,114.9221442846294
6.5280000000000005,0.9999999999999999,114.8321034663913
6.536,1.0,114.74202381852521
6.5440000000000005,1.0,114.65190528329119
6.552,1.0,114.5617478029464
6.5600000000000005,1.0,114.47155131974516
6.568,1.0,114.38131577593929
6.5760000000000005,1.0,114.29104111377805
6.584,0.9999999999999999,114.20072727550873
6.592,0.9999999999999998,114.1103742033764
6.6,1.0,114.01998183962453
6.608,1.0,113.92955012649489
6.616,1.0,113.83907900622793
6.624,1.0,113.74856842106287
6.632,0.9999999517593907,113.65801831323797
6.64,0.9999998868072114,113.56742862499071
6.648,0.9999998219487928,113.47679929855799
6.656,0.9999997572412773,113.38613027617633
6.664,0.9999996927410679,113.29542150008204
6.672,0.9999996285038308,113.20467291251151
6.68,0.9999995645844971,113.11388445570131
6.688,0.9999995010372646,113.02305607188848
6.696,0.9999994379156022,112.93218770331059
6.704,0.9999993752722489,112.84127929220615
6.712,0.9999993131592192,112.75033078081466
6.72,0.999999251627804,112.65934211137684
6.728,0.9999991907285727,112.56831322613483
6.736,0.9999991305113756,112.47724406733245
6.744,0.9999990710253477,112.3861345772153
6.752,0.9999990123189089,112.29498469803107
6.76,0.9999989544397677,112.20379437202962
6.768,0.9999988974349231,112.11256354146332
6.776,0.9999988413506674,112.02129214858714
6.784,0.9999987862325878,111.9299801356589
6.792,0.9999987321255693,111.83862744493945
6.8,0.9999986790737979,111.74723401869291
6.808,0.9999986271207615,111.65579979918684
6.816,0.9999985763092525,111.56432472869243
6.824,0.9999985266813719,111.47280874948471
6.832,0.9999984782785294,111.38125180384282
6.84,0.9999984311414483,111.28965383405007
6.848,0.9999983853101655,111.19801478239428
6.856,0.9999983408240356,111.10633459116787
6.864,0.999998297721733,111.0146132026682
6.872,0.9999982560412543,110.9228505591976
6.88,0.99999821581992,110.8310466030637
6.888,0.9999981770943789,110.73920127657958
6.896,0.9999981399006088,110.64731452206397
6.904,0.9999981042739194,110.55538628184149
6.912,0.9999980702489563,110.46341649824278
6.92,0.9999980378597005,110.37140511360478
6.928,0.9999980071394746,110.27935207027089
6.936,0.9999979781209423,110.18725731059115
6.944,0.9999979508361125,110.09512077692249
6.952,0.9999979253163417,110.00294241162888
6.96,0.999997901592336,109.91072215708161
6.968,0.9999978796941547,109.81845995565938
6.976,0.999997859651212,109.72615574974863
6.984,0.9999978414922788,109.6338094817436
6.992,0.9999978252454886,109.54142109404665
7.0,0.9999978109383358,109.44899052906838
7.008,0.9999977985976817,109.3565177292279
7.016,0.9999977882497552,109.26400263695297
7.024,0.999997779920156,109.17144519468025
7.032,0.999997773633858,109.07884534485542
7.04,0.9999977694152109,108.98620302993353
7.048,0.9999977672879429,108.89351819237903
7.056,0.9999977672751644,108.80079077466608
7.064,0.9999977693993692,108.70802071927872
7.072,0.9999977736824388,108.61520796871105
7.08,0.999997780145644,108.52235246546748
7.088,0.9999977888096475,108.42945415206289
7.096,0.9999977996945074,108.33651297102283
7.104,0.9999978128196799,108.24352886488374
7.112,0.9999978282040206,108.15050177619315
7.12,0.9999978458657895,108.05743164750984
7.128,0.9999978658226517,107.96431842140413
7.136,0.9999978880916814,107.87116204045797
7.144,0.9999979126893642,107.7779624472652
7.152,0.9999979396316,107.68471958443176
7.16,0.9999979689337053,107.59143339457587
7.168,0.999998000610417,107.49810382032825
7.176,0.9999980346758943,107.40473080433223
7.184,0.999998071143722,107.31131428924411
7.192,0.9999981100269129,107.21785421773322
7.2,0.9999981513379114,107.12435053248215
7.208,0.9999981950885946,107.03080317618706
7.216,0.9999982412902773,106.93721209155771
7.224,0.9999982899537136,106.84357722131773
7.232,0.9999983410891004,106.7498985082049
7.24,0.999998394706079,106.65617589497123
7.248,0.9999984508137396,106.5624093243832
7.256,0.9999985094206233,106.46859873922199
7.264,0.9999985705347244,106.37474408228361
7.272,0.9999986341634948,106.28084529637924
7.28,0.9999987003138461,106.18690232433522
7.288,0.999998768992152,106.09291510899342
7.296,0.999998840204252,105.99888359321137
7.304,0.999998913955454,105.90480771986249
7.312,0.9999989902505376,105.8106874318362
7.32,0.9999990690937564,105.71652267203824
7.328,0.9999991504888407,105.6223133833908
7.336,0.9999992344390023,105.52805950883277
7.344,0.999999320946935,105.43376099131979
7.352,0.9999994100148196,105.33941777382465
7.36,0.9999995016443257,105.24502979933739
7.368,0.9999995958366151,105.15059701086544
7.376,0.9999996925923442,105.05611935143395
7.384,0.9999997919116684,104.96159676408588
7.392,0.9999998937942438,104.86702919188222
7.4,0.9999999982392306,104.77241657790223
7.4079999999999995,0.9999999999999998,104.67775886524363
7.416,0.9999999999999999,104.58305599702268
7.4239999999999995,1.0,104.48830791637458
7.432,1.0,104.39351456645348
7.4399999999999995,1.0,104.29867589043282
7.448,1.0,104.20379183150538
7.4559999999999995,0.9999999999999999,104.10886233288367
7.464,1.0,104.0138873377999
7.4719999999999995,1.0,103.91886678950637
7.48,1.0,103.82380063127552
7.4879999999999995,1.0,103.72868880640027
7.496,0.9999999999999999,103.63353125819404
7.504,1.0,103.53832792999114
7.5120000000000005,1.0,103.4430787651468
7.52,0.9999999999999999,103.34778370703746
7.5280000000000005,0.9999999999999998,103.25244269906092
7.536,0.9999999999999999,103.1570556846366
7.5440000000000005,0.9999999999999999,103.0616226072056
7.552,1.0,102.96614341023108
7.5600000000000005,1.0,102.87061803719828
7.568,1.0,102.77504643161483
7.5760000000000005,0.9999999999999999,102.67942853701089
7.584,1.0,102.58376429693938
7.5920000000000005,1.0,102.48805365497608
7.6,1.0,102.39229655472003
7.6080000000000005,0.9999999999999999,102.29649293979344
7.616,1.0,102.20064275384213
7.6240000000000006,0.9999999999999999,102.10474594053557
7.632,1.0,102.00880244356718
7.640000000000001,0.9999999999999999,101.9128122066544
7.648,1.0,101.81677517353904
7.656000000000001,1.0,101.7206912879873
7.664,1.0,101.62456049379013
7.672,1.0,101.52838273476324
7.68,0.9999999999999999,101.43215795474747
7.688,0.9999999999999999,101.33588609760889
7.696,1.0,101.23956710723895
7.704,0.9999999999999998,101.1432009275548
7.712,0.9999999999999999,101.04678750249936
7.72,1.0,100.95032677604156
7.728,0.9999999999999999,100.85381869217653
7.736,0.9999999999999999,100.75726319492576
7.744,1.0,100.66066022833739
7.752,1.0,100.56400973648624
7.76,0.9999999999999998,100.46731166347415
7.768,0.9999999999999999,100.37056595343007
7.776,1.0,100.2737725505103
7.784,1.0,100.17693139889865
7.792,0.9999999999999999,100.08004244280666
7.8,0.9999999999999999,99.98310562647373
7.808,1.0,99.88612089416742
7.816,1.0,99.7890881901835
7.824,1.0,99.69200745884623
7.832,1.0,99.59487864450854
7.84,1.0,99.49770169155217
7.848,1.0,99.40047654438787
7.856,1.0,99.30320314745568
7.864,0.9999999999999999,99.20588144522496
7.872,1.0,99.10851138219468
7.88,0.9999999999999999,99.01109290289361
7.888,1.0,98.91362595188042
7.896,1.0,98.81611047374399
7.904,1.0,98.71854641310348
7.912,0.9999999999999999,98.62093371460858
7.92,0.9999999999999999,98.52327232293969
7.928,0.9999999999999999,98.42556218280806
7.936,0.9999999999999999,98.32780323895604
7.944,1.0,98.22999543615718
7.952,1.0,98.13213871921656
7.96,1.0,98.03423303297077
7.968,1.0,97.93627832228829
7.976,1.0,97.83827453206949
7.984,0.9999999999999999,97.74022160724698
7.992,0.9999999999999999,97.64211949278571
8.0,0.9999999999999999,97.54396813368311
8.008,1.0,97.44576747496939
8.016,1.0,97.34751746170755
8.024000000000001,1.0,97.2492180389938
8.032,1.0,97.15086915195751
8.04,1.0,97.05247074576151
8.048,1.0,96.95402276560222
8.056000000000001,0.9999999999999998,96.85552515670989
8.064,0.9999999999999999,96.75697786434876
8.072,1.0,96.65838083381713
8.08,1.0,96.55973401044773
8.088000000000001,0.9999999999999999,96.46103733960774
8.096,1.0,96.36229076669909
8.104,1.0,96.2634942371585
8.112,1.0,96.16464769645775
8.120000000000001,0.9999999999999999,96.06575109010389
8.128,1.0,95.96680436363935
8.136,0.9999999999999999,95.86780746264208
8.144,0.9999999999999998,95.7687603327258
8.152000000000001,1.0,95.66966291954023
8.16,0.9999999999999999,95.5705151687711
8.168,1.0,95.47131702614045
8.176,0.9999999999999999,95.37206843740672
8.184000000000001,0.9999999999999999,95.2727693483651
8.192,0.9999999999999999,95.17341970484746
8.2,1.0,95.0740194527227
8.208,1.0,94.97456853789677
8.216000000000001,1.0,94.87506690631308
8.224,0.9999999999999998,94.7755145039525
8.232,1.0,94.67591127683345
8.24,1.0,94.57625717101226
8.248000000000001,0.9999999999999999,94.4765521325833
8.256,1.0,94.37679610767907
8.264,0.9999999999999999,94.27698904247045
8.272,1.0,94.17713088316675
8.280000000000001,0.9999999999999999,94.07722157601607
8.288,0.9999999999999999,93.97726106730536
8.296,1.0,93.87724930336051
8.304,0.9999999999999998,93.77718623054666
8.312,0.9999999999999999,93.67707179526835
8.32,0.9999999999999999,93.57690594396952
8.328,1.0,93.476688623134
8.336,0.9999999999999999,93.37641977928527
8.344,1.0,93.27609935898705
8.352,1.0,93.17572730884307
8.36,1.0,93.07530357549756
8.368,1.0,92.97482810563517
8.376,1.0,92.87430084598134
8.384,1.0,92.77372174330229
8.392,1.0,92.67309074440534
8.4,1.0,92.57240779613888
8.408,0.9999999999999999,92.47167284539275
8.416,1.0,92.37088583909824
8.424,0.9999999999999999,92.27004672422837
8.432,1.0,92.1691554477979
8.44,0.9999999999999999,92.06821195686373
8.448,1.0,91.96721619852472
8.456,1.0,91.86616811992225
8.464,1.0,91.76506766824
8.472,1.0,91.66391479070444
8.48,0.9999999999999999,91.56270943458469
8.488,1.0,91.46145154719294
8.496,0.9999999999999999,91.36014107588441
8.504,0.9999999999999999,91.25877796805766
8.512,0.9999999999999999,91.1573621711546
8.52,1.0,91.0558936326608
8.528,0.9999999999999999,90.95437230010549
8.536,0.9999999999999999,90.85279812106188
8.544,0.9999999999999999,90.75117104314712
8.552,1.0,90.6494910140227
8.56,0.9999999999999999,90.54775798139434
8.568,1.0,90.44597189301234
8.576,1.0,90.34413269667165
8.584,0.9999999999999999,90.24224034021209
8.592,1.0000000000000002,90.14029477151831
8.6,1.0,90.03829593852028
8.608,0.9999999999999999,89.93624378919303
8.616,0.9999999999999999,89.8341382715572
8.624,0.9999999999999999,89.73197933367885
8.632,1.0,89.62976692366992
8.64,0.9999999999999999,89.52750098968808
8.648,0.9999999999999999,89.4251814799371
8.656,0.9999999999999999,89.32280834266689
8.664,1.0,89.22038152617372
8.672,0.9999999999999999,89.11790097880024
8.68,0.9999999999999998,89.01536664893581
8.688,1.0,88.91277848501645
8.696,1.0,88.81013643552517
8.704,0.9999999999999999,88.70744044899195
8.712,0.9999999999999999,88.60469047399403
8.72,0.9999999999999999,88.50188645915591
8.728,0.9999999999999999,88.39902835314966
8.736,0.9999999999999999,88.29611610469486
8.744,0.9999999999999999,88.19314966255898
8.752,0.9999999999999999,88.09012897555726
8.76,1.0,87.98705399255311
8.768,0.9999999999999999,87.88392466245801
8.776,0.9999999999999999,87.78074093423187
8.784,1.0,87.67750275688297
8.792,1.0,87.57421007946829
8.8,0.9999999999999999,87.47086285109346
8.808,1.0,87.36746102091305
8.815999999999999,0.9999999999999999,87.26400453813065
8.824,0.9999999999999999,87.16049335199894
8.832,1.0,87.05692741181993
8.84,0.9999999999999999,86.95330666694508
8.847999999999999,1.0,86.84963106677539
8.856,0.9999999999999999,86.74590056076148
8.864,1.0,86.64211509840392
8.872,1.0,86.53827462925317
8.879999999999999,1.0,86.43437910290977
8.888,0.9999999999999998,86.33042846902451
8.896,0.9999999999999999,86.22642267729853
8.904,1.0,86.12236167748347
8.911999999999999,1.0,86.01824541938156
8.92,0.9999999999999999,85.91407385284572
8.928,0.9999999999999999,85.80984692777987
8.936,1.0,85.70556459413885
8.943999999999999,1.0,85.60122680192865
8.952,0.9999999999999999,85.49683350120647
8.96,1.0,85.39238464208094
8.968,1.0,85.28788017471223
8.975999999999999,1.0,85.18332004931204
8.984,0.9999999999999999,85.07870421614389
8.992,0.9999999999999999,84.9740326255232
9.0,1.0,84.86930522781735
9.008,0.9999999999999998,84.76452197344588
9.016,1.0,84.6596828128805
9.024000000000001,1.0,84.55478769664539
9.032,0.9999999999999999,84.44983657531722
9.04,0.9999999999999999,84.34482939952515
9.048,0.9999999999999999,84.23976611995117
9.056000000000001,1.0,84.13464668733009
9.064,1.0,84.02947105244971
9.072,1.0,83.92423916615088
9.08,1.0,83.81895097932762
9.088000000000001,1.0,83.71360644292736
9.096,1.0,83.60820550795091
9.104,0.9999999999999999,83.50274812545258
9.112,1.0,83.39723424654038
9.120000000000001,1.0,83.29166382237614
9.128,1.0,83.1860368041755
9.136,1.0,83.08035314320819
9.144,1.0,82.9746127907979
9.152000000000001,1.0,82.86881569832269
9.16,1.0,82.76296181721492
9.168,0.9999999999999998,82.65705109896132
9.176,1.0,82.55108349510323
9.184000000000001,0.9999999999999999,82.44505895723665
9.192,0.9999999999999999,82.33897743701236
9.2,0.9999999999999999,82.23283888613594
9.208,1.0,82.12664325636801
9.216000000000001,1.0,82.02039049952425
9.224,0.9999999999999998,81.91408056747561
9.232,0.9999999999999999,81.80771341214822
9.24,0.9999999999999998,81.70128898552362
9.248000000000001,1.0,81.59480723963893
9.256,1.0,81.48826812658687
9.264,0.9999999999999999,81.38167159851578
9.272,0.9999999999999998,81.27501760762985
9.280000000000001,1.0,81.1683061061892
9.288,0.9999999999999999,81.06153704650997
9.296,0.9999999999999998,80.95471038096434
9.304,1.0,80.84782606198073
9.312000000000001,0.9999999999999999,80.74088404204387
9.32,1.0,80.6338842736949
9.328,0.9999999999999998,80.52682670953146
9.336,1.0,80.41971130220769
9.344,1.0,80.31253800443456
9.352,1.0,80.2053067689797
9.36,1.0,80.09801754866768
9.368,0.9999999999999999,79.99067029638003
9.376,1.0,79.88326496505535
9.384,0.9999999999999999,79.77580150768934
9.392,0.9999999999999999,79.66827987733501
9.4,1.0,79.56070002710265
9.408,0.9999999999999999,79.45306191016006
9.416,1.0,79.34536547973241
9.424,0.9999999999999999,79.23761068910262
9.432,1.0,79.1297974916112
9.44,0.9999999999999999,79.02192584065651
9.448,1.0,78.91399568969469
9.456,0.9999999999999999,78.80600699223994
9.464,1.0,78.69795970186436
9.472,0.9999999999999999,78.58985377219832
9.48,0.9999999999999999,78.48168915693026
9.488,1.0,78.37346580980703
9.496,0.9999999999999999,78.26518368463371
9.504,1.0,78.15684273527398
9.512,0.9999999999999999,78.04844291564996
9.52,1.0,77.93998417974241
9.528,0.9999999999999999,77.83146648159078
9.536,1.0,77.72288977529335
9.544,1.0,77.61425401500716
9.552,1.0,77.50555915494827
9.56,1.0,77.3968051493917
9.568,1.0,77.28799195267159
9.576,0.9999999999999999,77.17911951918119
9.584,1.0,77.07018780337309
9.592,0.9999999999999998,76.9611967597591
9.6,0.9999999999999999,76.85214634291052
9.608,1.0,76.74303650745799
9.616,0.9999999999999999,76.63386720809183
9.624,0.9999999999999998,76.52463839956184
9.632,0.9999999999999999,76.41535003667767
9.64,1.0,76.30600207430854
9.648,1.0,76.19659446738366
9.656,0.9999999999999999,76.08712717089205
9.664,1.0,75.97760013988277
9.672,0.9999999999999999,75.86801332946483
9.68,0.9999999999999999,75.75836669480746
9.688,0.9999999999999999,75.64866019113998
9.696,0.9999999999999999,75.53889377375205
9.704,0.9999999999999999,75.42906739799356
9.712,0.9999999999999999,75.31918101927486
9.72,1.0,75.20923459306668
9.728,0.9999999999999999,75.09922807490037
9.736,1.0,74.98916142036774
9.744,0.9999999999999999,74.87903458512137
9.752,1.0,74.76884752487446
9.76,1.0,74.65860019540109
9.768,1.0,74.54829255253608
9.776,1.0,74.43792455217526
9.784,1.0,74.32749615027535
9.792,0.9999999999999999,74.21700730285417
9.8,1.0,74.10645796599059
9.808,0.9999999999999999,73.99584809582468
9.816,0.9999999999999999,73.88517764855773
9.824,0.9999999999999998,73.7744465804523
9.832,0.9999999999999999,73.6636548478323
9.84,0.9999999999999999,73.55280240708306
9.847999999999999,0.9999999999999999,73.44188921465138
9.856,1.0,73.33091522704555
9.864,0.9999999999999999,73.21988040083548
9.872,1.0,73.10878469265279
9.879999999999999,1.0,72.9976280591907
9.888,1.0,72.88641045720424
9.896,0.9999999999999999,72.7751318435103
9.904,0.9999999999999999,72.66379217498765
9.911999999999999,1.0,72.55239140857697
9.92,1.0,72.44092950128093
9.928,0.9999999999999999,72.32940641016435
9.936,1.0,72.21782209235411
9.943999999999999,1.0,72.10617650503929
9.952,0.9999999999999999,71.99446960547112
9.96,0.9999999999999999,71.88270135096327
9.968,0.9999999999999999,71.77087169889171
9.975999999999999,0.9999999999999999,71.65898060669477
9.984,0.9999999999999999,71.54702803187327
9.992,0.9999999999999999,71.43501393199057
10.0,1.0,71.32293826467267
10.008,0.9999999999999999,71.21080098760814
10.016,0.9999999999999998,71.09860205854825
10.024000000000001,0.9999999999999999,70.98634143530704
10.032,1.0,70.87401907576145
10.04,1.0,70.7616349378512
10.048,1.0,70.64918897957894
10.056000000000001,0.9999999999999999,70.53668115901036
10.064,1.0,70.42411143427421
10.072,0.9999999999999999,70.31147976356233
10.08,1.0,70.19878610512973
10.088000000000001,0.9999999999999999,70.08603041729465
10.096,0.9999999999999999,69.97321265843865
10.104,1.0,69.86033278700666
10.112,1.0,69.7473907615069
10.120000000000001,0.9999999999999999,69.63438654051123
10.128,1.0,69.52132008265498
10.136,1.0,69.40819134663707
10.144,1.0,69.29500029122005
10.152000000000001,0.9999999999999998,69.18174687523029
10.16,1.0,69.06843105755792
10.168,1.0,68.9550527971569
10.176,0.9999999999999999,68.84161205304511
10.184000000000001,0.9999999999999999,68.72810878430447
10.192,0.9999999999999999,68.61454295008096
10.2,1.0,68.50091450958463
10.208,0.9999999999999998,68.38722342208976
