freq,mag,phase
6.0,1.0,28.195394086634057
6.008,1.0,27.959310698510496
6.016,1.0,27.723155235720338
6.024,0.9999999999999999,27.486928059310806
6.032,1.0,27.250629531606954
6.04,1.0,27.014260016206883
6.048,1.0,26.777819877976984
6.056,1.0,26.541309483046962
6.064,0.9999999999999999,26.30472919880495
6.072,1.0,26.068079393892482
6.08,1.0,25.83136043819942
6.088,1.0,25.594572702858834
6.096,1.0,25.35771656024179
6.104,1.0,25.120792383952132
6.112,1.0,24.883800548821146
6.12,0.9999999999999999,24.646741430902185
6.128,1.0,24.409615407465246
6.136,1.0,24.17242285699148
6.144,0.9999999999999999,23.93516415916764
6.152,1.0,23.697839694880443
6.16,0.9999999999999999,23.460449846210913
6.168,1.0,23.222994996428678
6.176,0.9999999999999999,22.985475529986086
6.184,0.9999999999999999,22.747891832512476
6.192,0.9999999999999999,22.510244290808146
6.2,0.9999999999999999,22.27253329283848
6.208,0.9999998624566577,22.034759227727847
6.216,0.9999995483897788,21.79692248575353
6.224,0.9999992375541434,21.559023458339585
6.232,0.9999989299410467,21.321062538050644
6.24,0.9999986255417621,21.08304011858558
6.248,0.9999983243475417,20.844956594771308
6.256,0.9999980263496161,20.606812362556262
6.264,0.9999977315391951,20.368607819004016
6.272,0.9999974399074664,20.130343362286823
6.28,0.9999971514455968,19.89201939167897
6.288,0.9999968661447305,19.653636307550244
6.296,0.9999965839959917,19.41519451135915
6.304,0.9999963049904815,19.176694405646327
6.312,0.9999960291192806,18.938136394027634
6.32,0.9999957563734473,18.69952088118735
6.328,0.9999954867440183,18.46084827287128
6.336,0.9999952202220088,18.222118975879795
6.344,0.9999949567984119,17.983333398060793
6.352,0.9999946964641999,17.744491948302645
6.36,0.9999944392103215,17.505595036527065
6.368,0.9999941850277052,17.26664307368193
6.376,0.9999939339072571,17.02763647173402
6.384,0.9999936858398614,16.788575643661755
6.392,0.9999934408163801,16.549461003447835
6.4,0.9999931988276537,16.31029296607181
6.408,0.9999929598645007,16.071071947502677
6.416,0.9999927239177168,15.831798364691304
6.424,0.9999924909780772,15.592472635562915
6.432,0.9999922610363341,15.353095179009411
6.44,0.9999920340832175,15.113666414881791
6.448,0.999991810109436,14.874186763982314
6.456,0.9999915891056759,14.634656648056795
6.464,0.9999913710626007,14.395076489786767
6.472,0.9999911559708534,14.155446712781531
6.48,0.9999909438210528,13.915767741570308
6.4879999999999995,0.9999907346037976,13.67604000159421
6.496,0.9999905283096631,13.436263919198108
6.504,0.9999903249292029,13.196439921622808
6.5120000000000005,0.9999901244529481,12.956568436996518
6.52,0.999989926871408,12.716649894327087
6.5280000000000005,0.9999897321750695,12.476684723493323
6.536,0.9999895403543976,12.236673355237132
6.5440000000000005,0.9999893513998351,11.996616221154765
6.552,0.9999891653018019,11.75651375368882
6.5600000000000005,0.9999889820506969,11.5163663861194
6.568,0.9999888016368954,11.276174552556052
6.5760000000000005,0.999988624050752,11.035938687928779
6.584,0.9999884492825978,10.795659227979906
6.592,0.9999882773227425,10.555336609255031
6.6,0.9999881081614733,10.314971269094652
6.608,0.9999879417890553,10.074563645625295
6.616,0.9999877781957315,9.834114177750765
6.624,0.9999876173717225,9.593623305143346
6.632,0.999987459307227,9.353091468234917
6.64,0.9999873039924211,9.112519108208039
6.648,0.9999871514174591,8.871906666987027
6.656,0.9999870015724732,8.631254587228915
6.664,0.9999868544475732,8.390563312314429
6.672,0.9999867100328472,8.149833286338904
6.68,0.9999865683183604,7.909064954103147
6.688,0.9999864292941568,7.668258761104258
6.696,0.999986292950258,7.427415153526415
6.704,0.999986159276663,7.186534578231625
6.712,0.9999860282633497,6.945617482750405
6.72,0.999985899900273,6.704664315272462
6.728,0.9999857741773664,6.463675524637288
6.736,0.999985651084542,6.222651560324747
6.744,0.999985530611688,5.9815928724456215
6.752,0.9999854127486728,5.740499911732088
6.76,0.9999852974853417,5.499373129528181
6.768,0.9999851848115182,5.258212977780231
6.776,0.9999850747170043,5.017019909027217
6.784,0.9999849671915798,4.775794376391126
6.792,0.9999848622250034,4.534536833567249
6.8,0.9999847598070103,4.293247734814466
6.808,0.999984659927316,4.051927534945449
6.816,0.9999845625756134,3.8105766893168878
6.824,0.9999844677415738,3.569195653819626
6.832,0.9999843754148462,3.3277848848688043
6.84,0.9999842855850589,3.0863448393939383
6.848,0.9999841982418185,2.8448759748289785
6.856,0.9999841133747094,2.6033787491023346
6.864,0.9999840309732951,2.3618536206268614
6.872,0.9999839510271177,2.1203010482898157
6.88,0.9999838735256974,1.878721491442785
6.888,0.9999837984585334,1.6371154098915728
6.896,0.9999837258151031,1.395483263886063
6.904,0.9999836555848638,1.1538255141100517
6.912,0.99998358775725,0.9121426216710468
6.92,0.9999835223216758,0.6704350480900345
6.928,0.9999834592675342,0.42870325529122205
6.936,0.9999833985841968,0.1869477055917552
6.944,0.9999833402610147,-0.05483113830860539
6.952,0.9999832842873169,-0.2966328133378249
6.96,0.9999832306524127,-0.5384568560619686
6.968,0.9999831793455897,-0.7803028026955875
6.976,0.9999831303561149,-1.0221701891121582
6.984,0.9999830836732344,-1.2640585508545292
6.992,0.999983039286174,-1.5059674231453792
7.0,0.9999829971841385,-1.7478963408977444
7.008,0.9999829573563115,-1.9898448387255196
7.016,0.9999829197918574,-2.231812450954007
7.024,0.9999828844799187,-2.4737987116305082
7.032,0.9999828514096181,-2.7158031545348833
7.04,0.9999828205700579,-2.957825313190198
7.048,0.9999827919503207,-3.1998647208733275
7.056,0.999982765539467,-3.441920910625655
7.064,0.9999827413265392,-3.683993415263701
7.072,0.9999827193005585,-3.9260817673898427
7.08,0.9999826994505263,-4.168185499403058
7.088,0.9999826817654235,-4.410304143509606
7.096,0.999982666234212,-4.65243723173382
7.104,0.9999826528458332,-4.894584295928863
7.112,0.9999826415892088,-5.136744867787512
7.12,0.9999826324532411,-5.378918478852977
7.128,0.9999826254268122,-5.62110466052971
7.136,0.9999826204987852,-5.863302944094234
7.144,0.9999826176580028,-6.105512860706011
7.152,0.9999826168932899,-6.347733941418293
7.16,0.9999826181934508,-6.589965717188995
7.168,0.9999826215472704,-6.83220771889161
7.176,0.9999826269435153,-7.074459477326085
7.184,0.9999826343709319,-7.316720523229747
7.192,0.9999826438182491,-7.5589903872882465
7.2,0.999982655274175,-7.8012686001464635
7.208,0.9999826687274003,-8.043554692419475
7.216,0.9999826841665956,-8.285848194703524
7.224,0.9999827015804145,-8.52814863758694
7.232,0.9999827209574905,-8.770455551661184
7.24,0.9999827422864387,-9.01276846753176
7.248,0.9999827655558567,-9.255086915829265
7.256,0.9999827907543226,-9.497410427220341
7.264,0.9999828178703964,-9.739738532418707
7.272,0.999982846892621,-9.982070762196159
7.28,0.9999828778095193,-10.22440664739358
7.288,0.9999829106095981,-10.466745718931966
7.296,0.9999829452813447,-10.70908750782343
7.304,0.9999829818132292,-10.951431545182283
7.312,0.9999830201937039,-11.193777362235963
7.32,0.9999830604112033,-11.436124490336168
7.328,0.9999831024541443,-11.678472460969841
7.336,0.9999831463109269,-11.92082080577019
7.344,0.9999831919699321,-12.163169056527757
7.352,0.9999832394195253,-12.405516745201421
7.36,0.9999832886480533,-12.64786340392945
7.368,0.9999833396438467,-12.890208565040517
7.376,0.9999833923952189,-13.13255176106474
7.384,0.9999834468904656,-13.37489252474472
7.392,0.9999835031178662,-13.617230389046538
7.4,0.9999835610656833,-13.859564887170794
7.4079999999999995,0.999983620722163,-14.101895552563589
7.416,0.999983682075534,-14.344221918927666
7.4239999999999995,0.9999837451140093,-14.586543520233139
7.432,0.999983809825785,-14.828859890728872
7.4399999999999995,0.9999838761990412,-15.071170564953063
7.448,0.9999839442219417,-15.313475077744638
7.4559999999999995,0.9999840138826337,-15.555772964253824
7.464,0.9999840851692485,-15.798063759953527
7.4719999999999995,0.9999841580699026,-16.040347000649874
7.48,0.9999842325726948,-16.282622222493597
7.4879999999999995,0.9999843086657096,-16.524888961990538
7.496,0.9999843863370148,-16.767146756013005
7.504,0.9999844655746631,-17.00939514181028
7.5120000000000005,0.9999845463666921,-17.251633657019948
7.52,0.999984628701123,-17.493861839678345
7.5280000000000005,0.9999847125659623,-17.736079228231908
7.536,0.9999847979492018,-17.97828536154758
7.5440000000000005,0.9999848848388171,-18.2204797789241
7.552,0.9999849732227696,-18.462662020102446
7.5600000000000005,0.9999850630890053,-18.704831625277055
7.568,0.9999851544254553,-18.94698813510622
7.5760000000000005,0.9999852472200369,-19.18913109072329
7.584,0.9999853414606511,-19.431260033747055
7.5920000000000005,0.9999854371351856,-19.67337450629293
7.6,0.9999855342315134,-19.91547405098321
7.6080000000000005,0.9999856327374926,-20.157558210958303
7.616,0.9999857326409678,-20.399626529886955
7.6240000000000006,0.9999858339297685,-20.64167855197737
7.632,0.9999859365917108,-20.883713821987474
7.640000000000001,0.9999860406145961,-21.125731885235933
7.648,0.9999861459862124,-21.367732287612398
7.656000000000001,0.9999862526943338,-21.60971457558852
7.664,0.99998636072672,-21.851678296228066
7.672,0.9999864700711179,-22.093622997197937
7.68,0.9999865807152597,-22.335548226778368
7.688,0.9999866926468653,-22.577453533873538
7.696,0.9999868058536402,-22.81933846802212
7.704,0.999986920323277,-23.061202579407638
7.712,0.9999870360434543,-23.303045418868983
7.72,0.9999871530018388,-23.54486653791073
7.728,0.9999872711860828,-23.78666548871362
7.736,0.9999873905838258,-24.02844182414486
7.744,0.999987511182695,-24.270195097768422
7.752,0.9999876329703039,-24.511924863855388
7.76,0.999987755934253,-24.75363067739422
7.768,0.9999878800621312,-24.995312094100957
7.776,0.9999880053415134,-25.23696867042947
7.784,0.9999881317599627,-25.478599963581587
7.792,0.9999882593050291,-25.720205531517333
7.8,0.9999883879642504,-25.961784932964946
7.808,0.9999885177251514,-26.20333772743104
7.816,0.9999886485752456,-26.444863475210617
7.824,0.999988780502033,-26.686361737397092
7.832,0.9999889134930018,-26.927832075892333
7.84,0.9999890475356282,-27.169274053416515
7.848,0.9999891826173757,-27.41068723351815
7.856,0.9999893187256963,-27.652071180583892
7.864,0.9999894558480298,-27.89342545984844
7.872,0.9999895939718029,-28.13474963740433
7.88,0.9999897330844321,-28.37604328021171
7.888,0.9999898731733203,-28.617305956108112
7.896,0.9999900142258598,-28.858537233818105
7.904,0.9999901562294302,-29.099736682963034
7.912,0.9999902991713996,-29.340903874070587
7.92,0.999990443039124,-29.58203837858443
7.928,0.9999905878199481,-29.823139768873748
7.936,0.9999907335012047,-30.064207618242758
7.944,0.9999908800702143,-30.30524150094017
7.952,0.9999910275142867,-30.54624099216866
7.96,0.9999911758207188,-30.787205668094234
7.968,0.9999913249767974,-31.028135105855586
7.976,0.9999914749697961,-31.269028883573416
7.984,0.9999916257869775,-31.509886580359712
7.992,0.9999917774155929,-31.750707776326962
8.0,0.9999919298428809,-31.99149205259732
8.008,0.9999920830560695,-32.23223899131178
8.016,0.9999922370423745,-32.472948175639374
8.024000000000001,0.9999923917890006,-32.71361918978597
8.032,0.9999925472831394,-32.954251619003436
8.04,0.9999927035119727,-33.19484504959874
8.048,0.9999928604626689,-33.435399068942736
8.056000000000001,0.9999930181223855,-33.67591326547889
8.064,0.9999931764782682,-33.916387228732326
8.072,0.999993335517451,-34.15682054931862
8.08,0.9999934952270548,-34.39721281895248
8.088000000000001,0.9999936555941905,-34.637563630456306
8.096,0.9999938166059557,-34.87787257776897
8.104,0.9999939782494358,-35.11813925595449
8.112,0.9999941405117054,-35.35836326121046
8.120000000000001,0.999994303379826,-35.59854419087651
8.128,0.9999944668408466,-35.83868164344279
8.136,0.9999946308818051,-36.078775218558484
8.144,0.9999947954897256,-36.318824517040134
8.152000000000001,0.9999949606516206,-36.55882914087974
8.16,0.9999951263544903,-36.79878869325314
8.168,0.9999952925853212,-37.03870277852842
8.176,0.9999954593310879,-37.27857100227376
8.184000000000001,0.999995626578752,-37.51839297126564
8.192,0.9999957943152615,-37.75816829349689
8.2,0.9999959625275525,-37.997896578184694
8.208,0.9999961312025462,-38.2375774357787
8.216000000000001,0.9999963003271521,-38.477210477968484
8.224,0.9999964698882644,-38.71679531769182
8.232,0.9999966398727653,-38.95633156914224
8.24,0.9999968102675223,-39.195818847776955
8.248000000000001,0.9999969810593885,-39.435256770324244
8.256,0.9999971522352037,-39.67464495479124
8.264,0.9999973237817928,-39.91398302047164
8.272,0.9999974956859663,-40.15327058795313
8.280000000000001,0.9999976679345192,-40.392507279124594
8.288,0.9999978405142326,-40.631692717183796
8.296,0.9999980134118717,-40.87082652664483
8.304,0.9999981866141868,-41.109908333345174
8.312,0.9999983601079121,-41.34893776445289
8.32,0.9999985338797653,-41.5879144484742
8.328,0.9999987079164493,-41.82683801526006
8.336,0.999998882204649,-42.06570809601379
8.344,0.9999990567310341,-42.30452432329761
8.352,0.9999992314822561,-42.543286331040015
8.36,0.9999994064449497,-42.78199375454226
8.368,0.9999995816057319,-43.0206462304857
8.376,0.9999997569512015,-43.25924339693798
8.384,0.9999999324679392,-43.497784893360375
8.392,1.0,-43.73627036061395
8.4,1.0,-43.97469944096659
8.408,1.0,-44.21307177809914
8.416,1.0,-44.45138701711235
8.424,0.9999999999999999,-44.6896448045329
8.432,1.0,-44.927844788320066
8.44,1.0,-45.16598661787182
8.448,1.0,-45.40406994403142
8.456,1.0,-45.642094419093084
8.464,1.0,-45.88005969680874
8.472,0.9999999999999999,-46.11796543239353
8.48,1.0,-46.35581128253238
8.488,1.0,-46.59359690538538
8.496,1.0,-46.83132196059427
8.504,0.9999999999999999,-47.06898610928774
8.512,0.9999999999999998,-47.30658901408771
8.52,1.0,-47.544130339114545
8.528,1.0,-47.78160974999315
8.536,0.9999999999999999,-48.01902691385827
8.544,1.0,-48.256381499360195
8.552,1.0,-48.493673176670086
8.56,1.0,-48.73090161748557
8.568,0.9999999999999999,-48.96806649503585
8.576,0.9999999999999999,-49.205167484087255
8.584,1.0,-49.44220426094819
8.592,1.0,-49.679176503474594
8.6,1.0,-49.916083891074706
8.608,1.0,-50.152926104714496
8.616,1.0,-50.389702826922154
8.624,0.9999999999999999,-50.62641374179354
8.632,0.9999999999999999,-50.863058534996576
8.64,1.0,-51.099636893776335
8.648,1.0,-51.33614850695953
8.656,1.0,-51.57259306495946
8.664,0.9999999999999999,-51.80897025978025
8.672,0.9999999999999999,-52.04527978502179
8.68,1.0,-52.281521335883795
8.688,0.9999999999999999,-52.51769460917058
8.696,1.0,-52.75379930329509
8.704,1.0,-52.989835118283494
8.712,1.0,-53.22580175577905
8.72,0.9999999999999999,-53.46169891904667
8.728,0.9999999999999999,-53.69752631297653
8.736,1.0,-53.933283644088625
8.744,1.0,-54.168970620536264
8.752,1.0,-54.40458695211026
8.76,0.9999999999999999,-54.64013235024261
8.768,0.9999999999999999,-54.875606528010465
8.776,1.0,-55.11100920013952
8.784,0.9999999999999999,-55.34634008300803
8.792,1.0,-55.58159889465002
8.8,1.0,-55.81678535475914
8.808,0.9999999999999999,-56.05189918469181
8.815999999999999,0.9999999999999999,-56.28694010747088
8.824,0.9999999999999999,-56.52190784778881
8.832,1.0,-56.756802132010904
8.84,1.0,-56.99162268817847
8.847999999999999,1.0,-57.226369246012176
8.856,1.0,-57.461041536914955
8.864,1.0,-57.69563929397491
8.872,1.0,-57.93016225196836
8.879999999999999,0.9999999999999999,-58.164610147362815
8.888,0.9999999999999999,-58.39898271831965
8.896,1.0,-58.63327970469679
8.904,1.0,-58.86750084805151
8.911999999999999,1.0,-59.10164589164304
8.92,1.0,-59.33571458043513
8.928,0.9999999999999999,-59.56970666109837
8.936,1.0,-59.80362188201271
8.943999999999999,1.0,-60.03745999327
8.952,1.0,-60.271220746676015
8.96,1.0,-60.504903895752754
8.968,0.9999999999999999,-60.73850919574057
8.975999999999999,1.0,-60.97203640360041
8.984,0.9999999999999999,-61.2054852780158
8.992,1.0,-61.4388555793946
9.0,1.0,-61.672147069871095
9.008,1.0,-61.905359513307886
9.016,1.0,-62.13849267529756
9.024000000000001,1.0,-62.371546323164296
9.032,0.9999999999999999,-62.604520225965636
9.04,1.0,-62.837414154494084
9.048,0.9999999999999998,-63.07022788127859
9.056000000000001,1.0,-63.30296118058585
9.064,1.0,-63.53561382842177
9.072,0.9999999999999999,-63.76818560253293
9.08,1.0,-64.00067628240767
9.088000000000001,1.0,-64.23308564927719
9.096,1.0,-64.46541348611673
9.104,1.0,-64.69765957764683
9.112,1.0,-64.92982371033408
9.120000000000001,0.9999999999999999,-65.16190567239194
9.128,0.9999999999999999,-65.39390525378178
9.136,1.0,-65.62582224621369
9.144,1.0,-65.85765644314708
9.152000000000001,0.9999999999999999,-66.0894076397913
9.16,1.0,-66.32107563310623
9.168,1.0,-66.55266022180294
9.176,1.0,-66.78416120634401
9.184000000000001,1.0,-67.01557838894385
9.192,1.0,-67.24691157356904
9.2,1.0,-67.47816056593872
9.208,1.0,-67.70932517352462
9.216000000000001,1.0,-67.94040520555114
9.224,1.0000000000000002,-68.17140047299534
9.232,1.0,-68.40231078858719
9.24,0.9999999999999999,-68.63313596680915
9.248000000000001,0.9999999999999999,-68.86387582389607
9.256,0.9999999999999999,-69.09453017783498
9.264,1.0,-69.32509884836485
9.272,0.9999999999999999,-69.55558165697609
9.280000000000001,1.0,-69.78597842691003
9.288,1.0,-70.01628898315849
9.296,0.9999999999999999,-70.24651315246327
9.304,1.0,-70.47665076331529
9.312000000000001,1.0,-70.70670164595384
9.32,1.0,-70.9366656323658
9.328,1.0,-71.1665425562849
9.336,0.9999999999999999,-71.39633225319051
9.344,0.9999999999999999,-71.62603456030658
9.352,1.0,-71.85564931660076
9.36,0.9999999999999999,-72.08517636278289
9.368,0.9999999999999999,-72.31461554130397
9.376,1.0,-72.54396669635453
9.384,1.0,-72.77322967386357
9.392,1.0,-73.00240432149648
9.4,1.0,-73.2314904886541
9.408,1.0000000000000002,-73.46048802647032
9.416,0.9999999999999999,-73.68939678781096
9.424,1.0,-73.91821662727142
9.432,1.0,-74.14694740117504
9.44,1.0,-74.37558896757083
9.448,1.0,-74.60414118623166
9.456,1.0,-74.83260391865157
9.464,0.9999999999999999,-75.06097702804406
9.472,1.0,-75.28926037933914
9.48,1.0,-75.51745383918124
9.488,0.9999999999999999,-75.74555727592632
9.496,0.9999999999999999,-75.97357055963947
9.504,0.9999999999999999,-76.20149356209185
9.512,1.0,-76.42932615675804
9.52,1.0,-76.65706821881277
9.528,0.9999999999999999,-76.88471962512818
9.536,0.9999999999999999,-77.11228025427025
9.544,1.0000000000000002,-77.33974998649575
9.552,1.0,-77.56712870374858
9.56,1.0,-77.79441628965648
9.568,0.9999999999999998,-78.02161262952708
9.576,1.0,-78.24871761034439
9.584,1.0,-78.47573112076454
9.592,1.0,-78.70265305111215
9.6,1.0,-78.92948329337571
9.608,1.0,-79.15622174120371
9.616,1.0,-79.38286828989972
9.624,1.0,-79.60942283641828
9.632,0.9999999999999999,-79.83588527935962
9.64,0.9999999999999999,-80.06225551896533
9.648,1.0,-80.28853345711273
9.656,1.0,-80.51471899731021
9.664,1.0,-80.74081204469127
9.672,0.9999999999999999,-80.96681250600952
9.68,0.9999999999999999,-81.19272028963236
9.688,1.0,-81.41853530553566
9.696,1.0,-81.64425746529706
9.704,1.0,-81.86988668209008
9.712,0.9999999999999999,-82.0954228706773
9.72,1.0,-82.32086594740385
9.728,1.0,-82.54621583019018
9.736,0.9999999999999999,-82.77147243852515
9.744,0.9999999999999998,-82.99663569345827
9.752,1.0,-83.22170551759237
9.76,0.9999999999999999,-83.4466818350752
9.768,1.0,-83.67156457159167
9.776,1.0,-83.89635365435497
9.784,1.0,-84.121049012098
9.792,0.9999999999999999,-84.34565057506406
9.8,0.9999999999999999,-84.57015827499761
9.808,1.0,-84.79457204513427
9.816,1.0,-85.018891820191
9.824,1.0,-85.24311753635521
9.832,0.9999999999999999,-85.4672491312743
9.84,1.0,-85.69128654404395
9.847999999999999,0.9999999999999999,-85.91522971519683
9.856,1.0,-86.1390785866902
9.864,0.9999999999999999,-86.36283310189334
9.872,1.0,-86.58649320557441
9.879999999999999,0.9999999999999999,-86.81005884388705
9.888,1.0,-87.0335299643561
9.896,1.0,-87.25690651586282
9.904,0.9999999999999999,-87.4801884486297
9.911999999999999,1.0,-87.70337571420464
9.92,1.0,-87.92646826544427
