freq,mag,phase
6.0,0.9999968782307281,48.3311123563873
6.008,0.9999961090163014,48.06532363991974
6.016,0.9999953420300226,47.79925483544414
6.024,0.9999945774762645,47.5329067897032
6.032,0.9999938155558563,47.26628036014553
6.04,0.9999930564660986,46.999376414939036
6.048,0.9999923004007771,46.7321958329834
6.056,0.9999915475501789,46.46473950392188
6.064,0.999990798101107,46.197008328152215
6.072,0.9999900522368951,45.92900321683704
6.08,0.9999893101374244,45.660725091913044
6.088,0.9999885719791373,45.392174886099774
6.096,0.9999878379350546,45.12335354290734
6.104,0.9999871081747914,44.854262016643425
6.112,0.9999863828645711,44.58490127241953
6.12,0.9999856621672442,44.31527228615617
6.128,0.9999849462423029,44.045376044587485
6.136,0.9999842352458979,43.77521354526485
6.144,0.9999835293308549,43.50478579655975
6.152,0.9999828286466922,43.23409381766564
6.16,0.9999821333396361,42.963138638599084
6.168,0.9999814435526395,42.691921300199944
6.176,0.9999807594253972,42.42044285413079
6.184,0.9999800810943648,42.14870436287527
6.192,0.999979408692776,41.876706899735744
6.2,0.99997874235066,41.60445154882986
6.208,0.9999780821948584,41.33193940508645
6.216,0.9999774283490439,41.059171574240324
6.224,0.9999767809337397,40.78614917282619
6.232,0.9999761400663346,40.512873328171736
6.24,0.9999755058611048,40.2393451783897
6.248,0.9999748784292296,39.965565872369034
6.256,0.9999742578788114,39.69153656976517
6.264,0.9999736443148951,39.41725844098928
6.272,0.9999730378394859,39.142732667196604
6.28,0.9999724385515686,38.86796044027387
6.288,0.9999718465471276,38.59294296282575
6.296,0.9999712619191653,38.31768144816024
6.304,0.999970684757723,38.04217712027326
6.312,0.9999701151498991,37.766431213832114
6.32,0.9999695531798704,37.49044497415812
6.328,0.9999689989289107,37.214219657208034
6.336,0.9999684524754114,36.93775652955482
6.344,0.9999679138949031,36.661056868367126
6.352,0.9999673832600741,36.38412196138793
6.36,0.999966860640792,36.106953106912165
6.368,0.9999663461041243,35.829551613763215
6.376,0.9999658397143592,35.551918801268705
6.384,0.999965341533027,35.27405599923492
6.392,0.9999648516189203,34.99596454792047
6.4,0.999964370028116,34.717645798008874
6.408,0.999963896813997,34.43910111058008
6.416,0.999963432027273,34.16033185708096
6.424,0.9999629757160018,33.88133941929493
6.432,0.9999625279256136,33.60212518931031
6.44,0.9999620886989299,33.32269056948786
6.448,0.999961658076187,33.04303697242718
6.456,0.9999612360950586,32.76316582093216
6.464,0.9999608227906774,32.48307854797524
6.472,0.9999604181956583,32.20277659666086
6.48,0.9999600223401205,31.92226142018768
6.4879999999999995,0.9999596352517095,31.641534481809863
6.496,0.9999592569556222,31.36059725479721
6.504,0.9999588874746276,31.07945122239461
6.5120000000000005,0.9999585268290911,30.798097877779778
6.52,0.999958175036997,30.516538724020766
6.5280000000000005,0.9999578321139729,30.234775274031627
6.536,0.9999574980733124,29.952809050527883
6.5440000000000005,0.9999571729259983,29.670641585979997
6.552,0.9999568566807272,29.388274422566827
6.5600000000000005,0.999956549343933,29.105709112127048
6.568,0.9999562509198103,28.82294721611044
6.5760000000000005,0.9999559614103397,28.539990305527276
6.584,0.9999556808153094,28.256839960897608
6.592,0.9999554091323425,27.97349777219848
6.6,0.9999551463569193,27.689965338811056
6.608,0.9999548924824022,27.406244269466093
6.616,0.9999546475000601,27.12233618218862
6.624,0.9999544113990937,26.83824270424159
6.632,0.9999541841666594,26.553965472068434
6.64,0.999953965787894,26.26950613123464
6.648,0.9999537562459404,25.984866336368253
6.656,0.9999535555219717,25.700047751099476
6.664,0.9999533635952174,25.415052047999072
6.672,0.9999531804429864,25.129880908515933
6.68,0.9999530060406945,24.844536022913513
6.688,0.9999528403618883,24.559019090205304
6.696,0.9999526833782713,24.273331818089318
6.704,0.9999525350597284,23.987475922881526
6.712,0.9999523953743521,23.701453129448346
6.72,0.9999522642884676,23.41526517113814
6.728,0.9999521417666593,23.12891378971167
6.736,0.9999520277717946,22.84240073527163
6.744,0.9999519222650521,22.555727766191183
6.752,0.9999518252059446,22.26889664904152
6.76,0.9999517365523477,21.98190915851845
6.768,0.9999516562605234,21.69476707736806
6.776,0.9999515842851471,21.407472196311357
6.784,0.999951520579333,21.120026313968054
6.792,0.9999514650946612,20.832431236779303
6.8,0.9999514177812018,20.5446887789296
6.808,0.9999513785875429,20.256800762267673
6.816,0.9999513474608155,19.968769016226492
6.824,0.9999513243467194,19.68059537774238
6.832,0.9999513091895504,19.39228169117315
6.84,0.9999513019322254,19.103829808215412
6.848,0.9999513025163093,18.815241587820935
6.856,0.9999513108820398,18.52651889611218
6.864,0.9999513269683561,18.237663606296838
6.872,0.9999513507129224,17.94867759858169
6.88,0.9999513820521554,17.65956276008539
6.888,0.9999514209212504,17.370320984750567
6.896,0.9999514672542068,17.080954173255
6.904,0.999951520983855,16.79146423292195
6.912,0.999951582041883,16.50185307762971
6.92,0.9999516503588605,16.212122627720337
6.928,0.9999517258642668,15.922274809907504
6.936,0.999951808486517,15.632311557183666
6.944,0.9999518981529865,15.34223480872634
6.952,0.9999519947900382,15.052046509803693
6.96,0.9999520983230481,14.761748611679247
6.968,0.9999522086764322,14.471343071515967
6.976,0.99995232577367,14.180831852279535
6.984,0.9999524495373338,13.89021692264081
6.992,0.9999525798891108,13.599500256877736
7.0,0.9999527167498323,13.308683834776394
7.008,0.9999528600394968,13.017769641531391
7.016,0.9999530096772968,12.726759667645618
7.024,0.9999531655816452,12.435655908829217
7.032,0.999953327670198,12.144460365897993
7.04,0.999953495859884,11.853175044671096
7.048,0.9999536700669258,11.561801955868072
7.056,0.9999538502068686,11.27034311500533
7.064,0.9999540361946029,10.978800542291934
7.072,0.9999542279443913,10.687176262524801
7.08,0.9999544253698929,10.395472304983361
7.088,0.9999546283841882,10.103690703323526
7.096,0.9999548368998041,9.811833495471195
7.104,0.9999550508287389,9.51990272351517
7.112,0.9999552700824863,9.227900433599517
7.12,0.9999554945720609,8.935828675815396
7.128,0.9999557242080217,8.643689504092391
7.136,0.9999559589004974,8.351484976089386
7.144,0.9999561985592095,8.059217153084829
7.152,0.9999564430934984,7.766888099866659
7.16,0.9999566924123442,7.474499884621679
7.168,0.9999569464243936,7.182054578824543
7.176,0.9999572050379828,6.889554257126258
7.184,0.9999574681611588,6.59700099724236
7.192,0.9999577357017073,6.304396879840548
7.2,0.999958007567172,6.011743988428043
7.208,0.9999582836648798,5.719044409238596
7.216,0.9999585639019634,5.426300231118984
7.224,0.9999588481853835,5.13351354541534
7.232,0.9999591364219534,4.840686445859016
7.24,0.9999594285183598,4.547821028452239
7.248,0.9999597243811851,4.254919391353403
7.256,0.9999600239169313,3.9619836347620847
7.264,0.9999603270320407,3.669015860803802
7.272,0.9999606336329188,3.3760181734145385
7.28,0.9999609436259546,3.08299267822502
7.288,0.9999612569175439,2.789941482444661
7.296,0.9999615734141095,2.496866694745552
7.304,0.9999618930221231,2.203770425145983
7.312,0.9999622156481262,1.9106547848939637
7.32,0.9999625411987505,1.6175218863505392
7.328,0.9999628695807381,1.3243738428729284
7.336,0.9999632007009649,1.0312127686975507
7.344,0.9999635344664567,0.7380407788229836
7.352,0.9999638707844122,0.44485998889273753
7.36,0.9999642095622221,0.1516725150780517
7.368,0.9999645507074879,-0.14151952603948822
7.376,0.9999648941280438,-0.4347140175853016
7.384,0.9999652397319717,-0.7279088425092114
7.392,0.9999655874276255,-1.0211018837029207
7.4,0.9999659371236456,-1.3142910241174157
7.4079999999999995,0.9999662887289799,-1.6074741468803448
7.416,0.9999666421529011,-1.9006491354136137
7.4239999999999995,0.9999669973050261,-2.193813873550347
7.432,0.9999673540953322,-2.486966245652697
7.4399999999999995,0.9999677124341765,-2.7801041367285113
7.448,0.999968072232313,-3.0732254325489885
7.4559999999999995,0.9999684334009082,-3.366328019765204
7.464,0.9999687958515611,-3.6594097860254755
7.4719999999999995,0.9999691594963175,-3.952468620091633
7.48,0.9999695242476886,-4.245502411956152
7.4879999999999995,0.9999698900186652,-4.538509052958054
7.496,0.9999702567227361,-4.831486435899649
7.504,0.9999706242739013,-5.124432455162127
7.5120000000000005,0.9999709925866909,-5.417345006821877
7.52,0.999971361576177,-5.710221988765559
7.5280000000000005,0.9999717311579928,-6.003061300805994
7.536,0.9999721012483428,-6.2958608447967555
7.5440000000000005,0.9999724717640214,-6.588618524747483
7.552,0.9999728426224258,-6.8813322469378875
7.5600000000000005,0.9999732137415694,-7.173999920032524
7.568,0.9999735850400978,-7.466619455194121
7.5760000000000005,0.9999739564372998,-7.759188766197705
7.584,0.9999743278531227,-8.051705769543254
7.5920000000000005,0.9999746992081847,-8.344168384569077
7.6,0.9999750704237881,-8.636574533563762
7.6080000000000005,0.9999754414219318,-8.928922141878738
7.616,0.9999758121253234,-9.221209138039434
7.6240000000000006,0.9999761824573912,-9.513433453857017
7.632,0.9999765523422973,-9.805593024538656
7.640000000000001,0.9999769217049475,-10.097685788798403
7.648,0.9999772904710038,-10.389709688966537
7.656000000000001,0.9999776585668946,-10.681662671099458
7.664,0.9999780259198257,-10.973542685088095
7.672,0.9999783924577924,-11.265347684766756
7.68,0.9999787581095866,-11.557075628020657
7.688,0.9999791228048099,-11.84872447689341
7.696,0.9999794864738817,-12.14029219769377
7.704,0.999979849048049,-12.431776761101853
7.712,0.999980210459396,-12.723176142274816
7.72,0.9999805706408521,-13.01448832095187
7.728,0.9999809295262018,-13.305711281558773
7.736,0.9999812870500923,-13.596843013311675
7.744,0.9999816431480416,-13.887881510320339
7.752,0.9999819977564476,-14.178824771690708
7.76,0.9999823508125933,-14.469670801626874
7.768,0.9999827022546574,-14.760417609532315
7.776,0.9999830520217182,-15.051063210110538
7.784,0.999983400053763,-15.341605623464941
7.792,0.9999837462916922,-15.632042875198104
7.8,0.9999840906773289,-15.922372996510225
7.808,0.9999844331534219,-16.212594024296962
7.816,0.9999847736636527,-16.502704001246475
7.824,0.9999851121526406,-16.79270097593576
7.832,0.9999854485659494,-17.082583002926217
7.84,0.9999857828500908,-17.372348142858424
7.848,0.9999861149525292,-17.66199446254626
7.856,0.9999864448216875,-17.951520035070036
7.864,0.9999867724069504,-18.240922939869062
7.872,0.9999870976586681,-18.530201262833256
7.88,0.9999874205281609,-18.81935309639398
7.888,0.9999877409677221,-19.108376539614138
7.896,0.9999880589306214,-19.397269698277253
7.904,0.999988374371108,-19.68603068497593
7.912,0.9999886872444129,-19.97465761919933
7.92,0.9999889975067517,-20.263148627419806
7.928,0.9999893051153276,-20.551501843178674
7.936,0.999989610028331,-20.839715407171216
7.944,0.9999899122049446,-21.127787467330585
7.952,0.9999902116053421,-21.415716178911033
7.96,0.9999905081906907,-21.703499704570138
7.968,0.9999908019231524,-21.991136214450144
7.976,0.9999910927658836,-22.278623886258373
7.984,0.9999913806830368,-22.565960905346753
7.992,0.9999916656397615,-22.853145464790405
8.0,0.9999919476022013,-23.140175765465273
8.008,0.9999922265374974,-23.42705001612483
8.016,0.9999925024137863,-23.713766433475996
8.024000000000001,0.9999927752001989,-24.000323242253675
8.032,0.9999930448668612,-24.286718675294733
8.04,0.999993311384892,-24.57295097361112
8.048,0.999993574726402,-24.859018386461564
8.056000000000001,0.999993834864492,-25.14491917142246
8.064,0.9999940917732527,-25.430651594457974
8.072,0.9999943454277609,-25.716213929989117
8.08,0.999994595804078,-26.00160446096171
8.088000000000001,0.9999948428792483,-26.286821478913204
8.096,0.9999950866312961,-26.57186328403884
8.104,0.9999953270392226,-26.85672818525681
8.112,0.9999955640830034,-27.141414500272116
8.120000000000001,0.9999957977435853,-27.42592055563949
8.128,0.9999960280028833,-27.71024468682549
8.136,0.9999962548437757,-27.994385238269604
8.144,0.9999964782501027,-28.278340563444086
8.152000000000001,0.9999966982066604,-28.562109024912807
8.16,0.9999969146991979,-28.845688994389228
8.168,0.9999971277144125,-29.1290788527935
8.176,0.9999973372399453,-29.41227699030818
8.184000000000001,0.9999975432643772,-29.69528180643289
8.192,0.9999977457772228,-29.97809171003833
8.2,0.999997944768927,-30.260705119419125
8.208,0.9999981402308588,-30.543120462345478
8.216000000000001,0.999998332155306,-30.825336176113662
8.224,0.9999985205354701,-31.107350707595916
8.232,0.999998705365461,-31.389162513289182
8.24,0.9999988866402897,-31.670770059362482
8.248000000000001,0.9999990643558647,-31.95217182170344
8.256,0.9999992385089834,-32.23336628596391
8.264,0.9999994090973275,-32.514351947604524
8.272,0.9999995761194563,-32.79512731193804
8.280000000000001,0.9999997395747993,-33.07569089417161
8.288,0.9999998994636505,-33.35604121944828
8.296,1.0,-33.6361768228874
8.304,1.0,-33.91609624962382
8.312,1.0,-34.195798054845945
8.32,1.0000000000000002,-34.47528080383335
8.328,0.9999999999999999,-34.754543071992536
8.336,1.0,-35.03358344489252
8.344,1.0,-35.31240051829845
8.352,1.0,-35.59099289820528
8.36,1.0,-35.869359200869255
8.368,1.0,-36.14749805283951
8.376,1.0,-36.42540809098753
8.384,1.0,-36.7030879625367
8.392,0.9999999999999999,-36.980536325089844
8.4,1.0,-37.257751846656575
8.408,1.0,-37.53473320567887
8.416,1.0,-37.81147909105648
8.424,1.0,-38.08798820217041
8.432,1.0,-38.36425924890633
8.44,1.0,-38.64029095167611
8.448,1.0,-38.91608204143919
8.456,0.9999999999999999,-39.19163125972216
8.464,1.0,-39.46693735863818
8.472,1.0,-39.74199910090448
8.48,1.0000000000000002,-40.016815259860024
8.488,1.0,-40.29138461948089
8.496,1.0,-40.56570597439602
8.504,0.9999999999999999,-40.83977812990077
8.512,1.0,-41.11359990197062
8.52,0.9999999999999999,-41.38717011727294
8.528,0.9999999999999999,-41.66048761317865
8.536,0.9999999999999999,-41.93355123777219
8.544,1.0,-42.20635984986136
8.552,1.0,-42.478912318985245
8.56,1.0,-42.75120752542236
8.568,1.0,-43.023244360196685
8.576,1.0,-43.29502172508395
8.584,1.0000000000000002,-43.56653853261583
8.592,0.9999999999999999,-43.83779370608446
8.6,1.0,-44.10878617954489
8.608,0.9999999999999999,-44.379514897817664
8.616,1.0,-44.6499788164896
8.624,0.9999999999999999,-44.92017690191463
8.632,1.0,-45.19010813121275
8.64,1.0,-45.45977149226925
8.648,0.9999999999999999,-45.72916598373179
8.656,1.0,-45.99829061500797
8.664,1.0,-46.26714440626086
8.672,0.9999999999999999,-46.535726388404655
8.68,0.9999999999999999,-46.804035603098704
8.688,1.0,-47.07207110274149
8.696,1.0,-47.339831950462916
8.704,1.0000000000000002,-47.60731722011681
8.712,1.0,-47.87452599627151
8.72,1.0,-48.14145737420076
8.728,1.0,-48.40811045987286
8.736,0.9999999999999999,-48.67448436993979
8.744,0.9999999999999999,-48.940578231724906
8.752,0.9999999999999999,-49.20639118321065
8.76,1.0,-49.47192237302448
8.768,1.0,-49.73717096042531
8.776,1.0,-50.002136115287854
8.784,1.0,-50.26681701808748
8.792,1.0,-50.53121285988337
8.8,0.9999999999999999,-50.79532284230167
8.808,1.0,-51.05914617751735
8.815999999999999,1.0,-51.322682088235965
8.824,0.9999999999999999,-51.58592980767416
8.832,1.0,-51.8488885795398
8.84,1.0,-52.111557658011314
8.847999999999999,0.9999999999999999,-52.37393630771659
8.856,0.9999999999999999,-52.63602380371097
8.864,0.9999999999999999,-52.89781943145445
8.872,1.0,-53.159322486788696
8.879999999999999,1.0,-53.42053227591314
8.888,1.0,-53.68144811536048
8.896,1.0,-53.94206933197144
8.904,1.0,-54.20239526286913
8.911999999999999,1.0,-54.46242525543287
8.92,1.0,-54.72215866727117
8.928,0.9999999999999998,-54.98159486619403
8.936,1.0,-55.24073323018514
8.943999999999999,0.9999999999999999,-55.49957314737319
8.952,1.0,-55.75811401600263
8.96,0.9999999999999999,-56.01635524440381
8.968,1.0,-56.27429625096276
8.975999999999999,0.9999999999999999,-56.53193646409049
8.984,1.0,-56.78927532219152
8.992,1.0,-57.04631227363187
9.0,0.9999999999999999,-57.303046776706815
9.008,1.0,-57.5594782996081
9.016,0.9999999999999999,-57.81560632039042
9.024000000000001,1.0,-58.07143032693752
9.032,0.9999999999999999,-58.32694981692786
9.04,0.9999999999999999,-58.582164297800006
9.048,0.9999999999999999,-58.83707328671723
9.056000000000001,0.9999999999999999,-59.091676310531625
9.064,0.9999999999999999,-59.34597290574815
9.072,1.0,-59.59996261848803
9.08,0.9999999999999999,-59.853645004451764
9.088000000000001,1.0,-60.10701962888144
9.096,0.9999999999999999,-60.36008606652307
9.104,1.0,-60.612843901588406
9.112,1.0,-60.865292727716216
9.120000000000001,1.0,-61.11743214793316
9.128,1.0,-61.36926177461439
9.136,0.9999999999999999,-61.620781229443985
9.144,1.0,-61.871990143374695
9.152000000000001,1.0,-62.122888156587244
9.16,1.0,-62.37347491844969
9.168,1.0,-62.6237500874763
9.176,1.0000000000000002,-62.87371333128597
9.184000000000001,0.9999999103063596,-63.12336432656029
9.192,0.9999998197602143,-63.372702759001434
9.2,0.9999997290730843,-63.62172832328991
9.208,0.9999996382836357,-63.87044072304163
9.216000000000001,0.9999995474303499,-64.11883967076484
9.224,0.9999994565515181,-64.36692488781678
9.232,0.9999993656852345,-64.61469610436028
9.24,0.9999992748693891,-64.8621530593198
9.248000000000001,0.9999991841416616,-65.10929550033708
9.256,0.9999990935395152,-65.356123183727
9.264,0.9999990031001901,-65.60263587443295
9.272,0.9999989128606981,-65.84883334598186
9.280000000000001,0.9999988228578148,-66.0947153804391
9.288,0.9999987331280755,-66.3402817683631
9.296,0.9999986437077679,-66.58553230876
9.304,0.9999985546329273,-66.83046680903777
9.312000000000001,0.99999846593933,-67.07508508496022
9.32,0.9999983776624884,-67.31938696060078
9.328,0.999998289837645,-67.56337226829645
9.336,0.999998202499767,-67.80704084860103
9.344,0.9999981156835412,-68.05039255023834
9.352,0.9999980294233686,-68.29342723005567
9.36,0.9999979437533587,-68.53614475297637
9.368,0.9999978587073255,-68.77854499195307
9.376,0.9999977743187815,-69.02062782791988
9.384,0.9999976906209335,-69.26239314974542
9.392,0.9999976076466773,-69.50384085418467
9.4,0.9999975254285937,-69.74497084583182
9.408,0.9999974439989421,-69.98578303707174
9.416,0.9999973633896587,-70.2262773480327
9.424,0.9999972836323496,-70.46645370653762
9.432,0.9999972047582879,-70.70631204805646
9.44,0.9999971267984087,-70.9458523156574
9.448,0.9999970497833058,-71.18507445995894
9.456,0.9999969737432262,-71.42397843908098
9.464,0.9999968987080673,-71.6625642185967
9.472,0.999996824707373,-71.90083177148355
9.48,0.9999967517703294,-72.13878107807487
9.488,0.9999966799257606,-72.37641212601089
9.496,0.9999966092021269,-72.6137249101902
9.504,0.9999965396275187,-72.8507194327205
9.512,0.9999964712296558,-73.08739570287017
9.52,0.9999964040358822,-73.32375373701888
9.528,0.9999963380731626,-73.55979355860896
9.536,0.9999962733680808,-73.7955151980961
9.544,0.999996209946836,-74.03091869290063
9.552,0.9999961478352385,-74.26600408735811
9.56,0.9999960870587091,-74.5007714326707
9.568,0.999996027642274,-74.73522078685762
9.576,0.9999959696105637,-74.96935221470653
9.584,0.9999959129878094,-75.20316578772406
9.592,0.9999958577978411,-75.4366615840871
9.6,0.999995804064085,-75.66983968859341
9.608,0.9999957518095604,-75.90270019261295
9.616,0.9999957010568774,-76.1352431940385
9.624,0.9999956518282369,-76.36746879723702
9.632,0.9999956041454257,-76.5993771130004
9.64,0.9999955580298149,-76.8309682584968
9.648,0.9999955135023599,-77.0622423572215
9.656,0.9999954705835962,-77.2931995389484
9.664,0.9999954292936384,-77.52383993968084
9.672,0.9999953896521796,-77.75416370160332
9.68,0.9999953516784883,-77.98417097303232
9.688,0.9999953153914064,-78.21386190836822
9.696,0.9999952808093502,-78.44323666804627
9.704,0.9999952479503065,-78.67229541848855
9.712,0.9999952168318321,-78.9010383320551
9.72,0.9999951874710534,-79.12946558699612
9.728,0.9999951598846638,-79.35757736740321
9.736,0.9999951340889236,-79.58537386316169
9.744,0.9999951100996587,-79.81285526990209
