freq,mag,phase
6.0,0.999526952240376,92.52066718251439
6.002286592,0.9998144319724842,92.37218289952035
6.004572672,1.0001136874412335,92.21946068074455
6.006859264,1.000406164769794,92.0624998127083
6.009145344,1.000673559364912,91.90148087504838
6.011431936,1.000898792445508,91.73689597388699
6.013718016,1.0010679302992271,91.56949771226009
6.016004608,1.0011698767161459,91.4001738100109
6.018290688,1.0011986284544585,91.22987692977826
6.02057728,1.0011518704647855,91.05977892354709
6.022863872,1.001032954953776,90.89087645539043
6.025149952,1.0008490899731044,90.72421897930083
6.027436544,1.0006119928142778,90.56059488856384
6.029722624,1.0003364353325988,90.40071419310557
6.032009216,1.0000399005971266,90.24502571423707
6.034295296,0.9997411617806111,90.09367119684347
6.036581888,0.9994592247479959,89.94654835545458
6.03886848,0.9992116539549767,89.80334111704859
6.04115456,0.9990143974312083,89.66334018663093
6.043441152,0.9988797824077834,89.52583649921769
6.045727232,0.998816575556545,89.38976445326932
6.048013824,0.998828644655754,89.25412346512908
6.050299904,0.9989153614687784,89.11774714611198
6.052586496,0.9990711700672872,88.97965284728558
6.054872576,0.9992863825301327,88.8388824395347
6.057159168,0.9995470524843733,88.69467095531368
6.05944576,0.9998370146874811,88.54647177089812
6.06173184,1.00013769543198,88.39401136564663
6.064018432,1.0004302747431018,88.23725883183198
6.066304512,1.0006960698429277,88.07648681521523
6.068591104,1.0009184643943094,87.9122104133656
6.070877184,1.0010831878887603,87.74511834644076
6.073163776,1.0011801363582518,87.5762048369552
6.075450368,1.0012028568093303,87.40641128180022
6.077736448,1.001150099112261,87.23685176944294
6.08002304,1.0010250641993843,87.06860619700502
6.08230912,1.000835740859916,86.90263298242678
6.084595712,1.0005938659087998,86.73983547202548
6.086881792,1.0003148530187653,86.58081143621294
6.089168384,1.0000160065044796,86.42598162560053
6.091454464,0.9997166727842328,86.2755532343845
6.093741056,0.9994354480346,86.12935095325903
6.096027648,0.9991902900996825,85.98698992709384
6.098313728,0.9989966789605284,85.84785089242737
6.10060032,0.9988669030385042,85.71110970586146
6.1028864,0.998809258133053,85.57573600539928
6.105172992,0.998827449762596,85.44068985919297
6.107459072,0.9989203933637802,85.30484976217429
6.109745664,0.9990821404840002,85.16719410461137
6.112032256,0.9993023333828821,85.02676386292394
6.114318336,0.9995672567250994,84.88282517274375
6.116604928,0.9998600253612641,84.73483566241035
6.118891008,1.0001621891433128,84.58257124591994
6.1211776,1.0004545791078712,84.42597281363555
6.12346368,1.0007187192069216,84.26541059909367
6.125750272,1.0009378449453914,84.10135778782399
6.128036352,1.0010982693796933,83.93454219325679
6.130322944,1.0011898384214148,83.76592346695276
6.132609536,1.0012066518687819,83.59653916046904
6.134895616,1.001147614556913,83.42749090976724
6.137182208,1.001016553624306,83.25982576697272
6.139468288,1.0008216666643799,83.09452604314474
6.14175488,1.0005751375026122,82.93245172799554
6.14404096,1.000292457732758,82.7742337188518
6.146327552,0.9999916409315248,82.62025335462393
6.148614144,0.9996917227582628,82.4706708268945
6.150900224,0.9994114433494521,82.32531814585613
6.153186816,0.999168786902815,82.18379523657559
6.155472896,0.9989789900578298,82.04544089070615
6.157759488,0.9988542767888136,81.90938465683382
6.160045568,0.9988024284773545,81.77464911775976
6.16233216,0.9988268932483606,81.64015840458647
6.16461824,0.9989260482273999,81.50474848488334
6.166904832,0.9990935835170079,81.36741405471622
6.169191424,0.9993190472526654,81.22727200085889
6.171477504,0.9995881345436607,81.0835121815457
6.173764096,0.999883682555706,80.93570633108705
6.176050176,1.0001871929440944,80.78353791584586
6.178336768,1.0004792949697452,80.62707206998114
6.180622848,1.000741532274795,80.46660805826637
6.18290944,1.0009575708202816,80.30267925028865
6.18519552,1.0011133944755377,80.13608788187662
6.187482112,1.0011995581998048,79.96774062618562
6.189768704,1.0012102044943012,79.79872354028761
6.192054784,1.001144885117811,79.63009911372708
6.194341376,1.0010076419904768,79.46297214017373
6.196627456,1.000807167389858,79.29829649226143
6.198914048,1.0005559105479775,79.13692388816207
6.201200128,1.0002697240291554,78.97945318581557
6.20348672,0.9999668673484187,78.8262422624902
6.205773312,0.9996664338899258,78.67745986795643
6.208059392,0.9993873267933008,78.53288967104812
6.210345984,0.9991472718795874,78.39212638443688
6.212632064,0.9989615308840174,78.25446921517603
6.214918656,0.9988418261574302,78.11907883826814
6.217204736,0.9987959494071729,77.9848895061013
6.219491328,0.9988266121094428,77.85084302753278
6.221777408,0.9989320356802985,77.71582610804673
6.224064,0.9991056096609298,77.57879224542936
6.226350592,0.9993362827616336,77.43884462972672
6.228636672,0.9996094275673126,77.29522453799544
6.230923264,0.9999077109511988,77.1474681832939
6.233209344,1.0002124061024649,76.99535186995955
6.235495936,1.0005041296321489,76.83892142109066
6.237782016,1.0007644219812797,76.67850745756996
6.240068608,1.000976922293218,76.5146904063766
6.2423552,1.0011281915001415,76.34823580087198
6.24464128,1.0012086627991539,76.18010540386082
6.246927872,1.00121322999804,76.01138295623993
6.249213952,1.0011414832369456,75.84316121675747
6.251500544,1.0009980683636652,75.67649313729557
6.253786624,1.0007918700298268,75.51238990299248
6.256073216,1.0005360421761549,75.35161969192869
6.258359296,1.0002465147774544,75.19483573335556
6.260645888,0.9999417595140656,75.04238486225739
6.26293248,0.9996408020207485,74.89432778899189
6.26521856,0.9993628986520307,74.75052072607082
6.267505152,0.9991257415125758,74.61043118456583
6.269791232,0.998944143962635,74.47343645007568
6.272077824,0.9988296927318533,74.33861654239212
6.274363904,0.9987898457023068,74.20493362662249
6.276650496,0.9988269611118613,74.07129171150308
6.278937088,0.9989387321750901,73.93657298494342
6.281223168,0.9991183095474915,73.79972280782215
6.28350976,0.999354092628558,73.65992007263216
6.28579584,0.9996312391323916,73.51634546911623
6.288082432,0.999932244226955,73.36861834523101
6.290368512,1.000237944136336,73.216479074459
6.292655104,1.0005291850944629,73.06000727235589
6.294941184,1.0007874041803901,72.89960175445087
6.297227776,1.000996466993328,72.73578716828642
6.299514368,1.0011428448611746,72.56942666455328
6.301800448,1.0012175525374603,72.40144755331201
6.30408704,1.001215885243616,72.23296648934993
6.30637312,1.0011375796569444,72.06508982943102
6.308659712,1.0009879578340444,71.89883914760608
6.310945792,1.0007761751499638,71.73523627086799
6.313232384,1.0005156792169576,71.57507818086215
6.315518464,1.0002228341970087,71.41889646215206
6.317805056,0.9999162165374854,71.2671007703005
6.320091648,0.9996150332799969,71.11974403125686
6.322377728,0.9993386043806658,70.97656932066846
6.32466432,0.9991042207000657,70.83715465728471
6.3269504,0.9989269036899189,70.70072779475372
6.329236992,0.9988178798181065,70.56641283837656
6.331523072,0.9987840330368521,70.43316548204878
6.333809664,0.9988276770666669,70.29985243601266
6.336096256,0.9989460426166941,70.16536356408257
6.338382336,0.9991315654547402,70.02867346761883
6.340668928,0.999372518384007,69.88890683223302
6.342955008,0.9996536887845616,69.74534498127007
6.3452416,0.9999572191572692,69.59753440159038
6.34752768,1.0002639806523324,69.44530902854812
6.349814272,1.000554494816769,69.28875463874982
6.352100352,1.0008104402686293,69.12823060669625
6.354386944,1.001015709095314,68.9644110243571
6.356673536,1.001157186279081,68.7980543850037
6.358959616,1.0012260620518318,68.63019357893903
6.361246208,1.001217968310675,68.4619044790584
6.363532288,1.0011331953827185,68.29429556569553
6.36581888,1.0009772610815773,68.12842125359104
6.36810496,1.0007599016103708,67.96525035298579
6.370391552,1.0004947521839918,67.80561946986015
6.372678144,1.0001986493236166,67.65002491047156
6.374964224,0.9998902928931079,67.49883083913805
6.377250816,0.9995889324281164,67.35210057411004
6.379536896,0.9993140041691614,67.20953151644558
6.381823488,0.9990826789834477,67.07070062541432
6.384109568,0.9989098120344353,66.93481878002204
6.38639616,0.9988062483789312,66.80094750668225
6.38868224,0.9987787949855003,66.66803791611378
6.390968832,0.9988289633066225,66.53497690236924
6.393255424,0.998953794251277,66.40065697513064
6.395541504,0.9991452771976059,66.26404147871644
6.397828096,0.9993914084068245,66.12424292721029
6.400114176,0.9996764441161057,65.98060214489456
6.402400768,0.999982500757989,65.8326505564194
6.404686848,1.0002901414158154,65.68027748594947
6.40697344,1.0005799547278562,65.52356834900432
6.409260032,1.0008336115502845,65.36293575740108
6.411546112,1.0010350010620042,65.1989843102296
6.413832704,1.0011714605798756,65.03260440513743
6.416118784,1.0012343479166907,64.86479093137076
6.418405376,1.0012197385573103,64.69660652084089
6.420691456,1.0011284120365136,64.52920918469736
6.422978048,1.0009662337944993,64.3636432078847
6.425264128,1.0007432254198187,64.20088759566623
6.42755072,1.00047351991277,64.04170426670885
6.429837312,1.0001741981436965,63.886644801521896
6.432123392,0.9998641050550445,63.736018892562605
6.434409984,0.9995628026539821,63.58982301848689
6.436696064,0.9992895107635871,63.44783903331317
6.438982656,0.9990614255536983,63.309502653895535
6.441268736,0.9988930828622989,63.17406449880414
6.443555328,0.9987951542841771,63.04056143167145
6.44584192,0.9987739557497408,62.90795601529164
6.448128,0.9988307590637395,62.77510005984686
6.450414592,0.9989621564487516,62.640857715944854
6.452700672,0.9991596085205382,62.50424180622337
6.454987264,0.9994108612327396,62.36436336469792
6.457273344,0.9996997986747418,62.220575650109254
6.459559936,1.0000083180004133,62.07243828165824
6.461846016,1.0003167270280777,61.91983464703273
6.464132608,1.0006055913503937,61.762865671674824
6.4664192,1.0008566118723172,61.60204442934476
6.46870528,1.00105409726443,61.43793720012368
6.470991872,1.0011853890587188,61.27145928440652
6.473277952,1.0012422632419096,61.103609118783375
6.475564544,1.001220954021994,60.935509281836794
6.477850624,1.0011230746731616,60.76828534263566
6.480137216,1.0009544785633018,60.602999339355065
6.482423296,1.0007259625080809,60.44056441605623
6.484709888,1.0004518036322894,60.281790304231336
6.48699648,1.0001493133842188,60.127200914862584
6.48928256,0.9998376399658324,59.977066731593005
6.491569152,0.999536474662065,59.83138950328917
6.493855232,0.9992648536596332,59.68988287302775
6.496141824,0.9990401135639794,59.55199093022781
6.498427904,0.9988764336875565,59.41695212453808
6.500714496,0.9987842659166073,59.28374825007372
6.503001088,0.9987694392019838,59.151352598814086
6.505287168,0.9988330149326742,59.01863483143339
6.50757376,0.9989709571036387,58.88441835586442
6.50985984,0.9991743680605805,58.747733364574884
6.512146432,0.999430673978275,58.607692474644765
6.514432512,0.9997234282287758,58.4636820361513
6.516719104,1.000034190402064,58.3152704662414
6.519005184,1.0003432327675816,58.162376897357845
6.521291776,1.0006311223740378,58.005155180630695
6.523578368,1.0008795900482146,57.844030301385175
6.525864448,1.0010729039688597,57.67971429880453
6.52815104,1.0011989471886882,57.5130720004115
6.53043712,1.0012496401766964,57.34514535143635
6.532723712,1.0012218290625454,57.177086482236064
6.535009792,1.0011171322410661,57.0099792578829
6.537296384,1.000942277411078,56.84487240504776
6.539582976,1.0007081989931907,56.6827214230802
6.541869056,1.0004295683140147,56.52431202508594
6.544155648,1.0001240485420706,56.370121894187044
6.546441728,0.9998109025382433,56.22040540457991
6.54872832,0.9995099935559991,56.07517361813589
6.5510144,0.999240231684419,55.93411042008183
6.553300992,0.9990190087213714,55.79661199686498
6.555587072,0.9988601840837583,55.66188601159502
6.557873664,0.9987737398615593,55.52893819359527
6.560160256,0.9987655517852561,55.39668826640677
6.562446336,0.9988358042310332,55.264004107244396
6.564732928,0.9989802379699753,55.12975239598941
6.567019008,0.9991897579266673,54.99291819651457
6.5693056,0.9994510469149568,54.852669338263574
6.57159168,0.9997476313956699,54.70837690843234
6.573878272,1.00006048911443,54.559613507433674
6.576164864,1.0003701886788692,54.40635725368721
6.578450944,1.000656901222617,54.24877138525686
6.580737536,1.0009025276516472,54.08733928334258
6.583023616,1.0010916156720333,53.922716628684526
6.585310208,1.0012122672496355,53.75588330224582
6.587596288,1.0012566843984168,53.587838375969625
6.58988288,1.0012221811439717,53.419719841017724
6.59216896,1.0011108169635015,53.25264676605491
6.594455552,1.0009296416373556,53.08770033949563
6.596742144,1.000689980127773,52.925785963409815
6.599028224,1.00040700619718,52.76765047136159
6.601314816,1.0000984893453657,52.61381943097983
6.603600896,0.999783971760526,52.46449055851169
6.605887488,0.9994833876750554,52.319659060216836
6.608173568,0.9992157328948217,52.178934254011786
6.61046016,0.9989980480398656,52.04175728842759
6.612746752,0.9988440710458832,51.907289341102
6.615032832,0.9987636165069627,51.774535382482
6.617319424,0.9987619143525835,51.6423585810259
6.619605504,0.9988390112463167,51.50965477888373
6.621892096,0.9989900800442423,51.375294307614915
6.624178176,0.999205508620665,51.23825026726889
6.626464768,0.9994717245874952,51.097704714551604
6.628750848,0.9997719511434409,50.95303854438734
6.63103744,1.0000870246511624,50.80390366682674
6.633324032,1.0003970707580818,50.65021756596417
6.635610112,1.0006825695855455,50.49220131038165
6.637896704,1.000925347928793,50.330358283605406
6.640182784,1.001110137020831,50.16543677653702
6.642469376,1.001225219120991,49.99831938351603
6.644755456,1.0012633770217136,49.830096335465605
6.647042048,1.0012221803193837,49.661867400139926
6.649328128,1.001104052839479,49.494799718205826
6.65161472,1.0009164942328113,49.32992859079752
6.653901312,1.0006713868462866,49.16818476318667
6.656187392,1.0003841165407474,49.01030758045715
6.658473984,1.0000727302076886,48.85672995501896
6.660760064,0.9997569954604961,48.70775999478153
6.663046656,0.9994568647317966,48.56322380831206
6.665332736,0.9991913473900976,48.42281693062752
6.667619328,0.9989773877611735,48.28588371670003
6.66990592,0.9988283961358169,48.15161604341175
6.672192,0.9987539768503202,48.018957205884675
6.674478592,0.9987588086187176,47.88681121794722
6.676764672,0.9988427173407289,47.7540206845514
6.679051264,0.9990003775221674,47.619449933633184
6.681337344,0.9992217731846087,47.482145641375745
6.683623936,0.9994929806126901,47.341232831179596
6.685910016,0.9997966392399139,47.19612373924401
6.688196608,1.0001137120838277,47.04651804882182
6.6904832,1.000424123359525,46.892367733009046
6.69276928,1.0007081405450255,46.73388694874304
6.695055872,1.0009479712995493,46.57158947426032
6.697341952,1.0011282606669465,46.40625952872785
6.699628544,1.0012378495680392,46.23878943645017
6.701914624,1.0012696143915722,46.070318543846284
6.704201216,1.0012214991440915,45.90195161397193
6.706487808,1.0010966606951544,45.73481941015416
6.708773888,1.0009029024652265,45.570004714301895
6.71106048,1.0006522904035384,45.40836123961501
6.71334656,1.000360723653093,45.25066217668986
6.715633152,1.0000465657932307,45.09735447822061
6.717919232,0.9997297602437258,44.948600796276565
6.720205824,0.9994301687400189,44.804339493163745
6.722491904,0.9991669607359893,44.66416228637171
6.724778496,0.9989566856133472,44.52744454780538
6.727065088,0.9988127742782176,44.393291709284625
6.729351168,0.9987445046369808,44.26066912832678
6.73163776,0.9987560793599646,44.12846655829123
6.73392384,0.9988467965380513,43.9955295035874
6.736210432,0.9990110823096642,43.860712439843724
6.738496512,0.9992383493528284,43.723030801944574
6.740783104,0.9995143434766907,43.58170084077042
6.743069696,0.9998215348269128,43.43612778056343
6.745355776,1.0001405600768807,43.285982566959895
6.747642368,1.0004511395709397,43.1312687487909
6.749928448,1.0007337039369084,42.97222478068469
6.75221504,1.0009703176812108,42.80942935027197
6.75450112,1.001146188513569,42.64362924649878
6.756787712,1.0012499599167688,42.475788383215715
6.759073792,1.0012753626029707,42.30700613460002
6.761360384,1.00122053166299,42.138435956014575
6.763646976,1.0010888905112643,41.97118408945924
6.765933056,1.0008888542813206,41.80633084065876
6.768219648,1.000632887016165,41.644755747583496
6.770505728,1.000337187803214,41.4871735442009
6.77279232,1.0000203179254719,41.33404929403314
6.7750784,0.9997023935087204,41.18551607352149
6.777364992,0.999403616094753,41.04143404472372
6.779651584,0.9991427151935259,40.90143344364965
6.781937664,0.9989363833745462,40.76482988875502
6.784224256,0.9987977409137639,40.63074131869347
6.786510336,0.9987355096813291,40.49809611581545
6.788796928,0.998753816830387,40.36576290737492
6.791083008,0.9988513571671576,40.23260728834245
6.7933696,0.9990222011946481,40.0974590367657
6.79565568,0.9992553928194642,39.95937938652383
6.797942272,0.9995361368036955,39.81755008629626
6.800228864,0.9998467148642978,39.67139919446253
6.802514944,1.0001675549410014,39.52066488863895
6.804801536,1.0004782578106386,39.36532377266514
6.807087616,1.000759195630608,39.205683420729585
6.809374208,1.0009926203799826,39.0423087368089
6.811660288,1.0011638200766109,38.87600104529491
6.81394688,1.0012620077794245,38.70772139399049
6.81623296,1.0012808223540035,38.53857340065745
6.818519552,1.0012190939943852,38.36972324224587
6.820806144,1.0010808485044893,38.2023128649986
6.823092224,1.0008745798995269,38.03737264215703
6.825378816,1.0006132331009687,37.87581072763987
6.827664896,1.0003134281693695,37.718306235302656
6.829951488,0.9999940501686393,37.56526899428732
6.832237568,0.9996752177654257,37.41687576024752
6.83452416,0.999377182205251,37.27294874125744
6.836810752,0.9991188166111208,37.13304902465402
6.839096832,0.9989164780581464,36.996508864651595
6.841383424,0.9987830843846854,36.86238964452876
6.843669504,0.9987270707778872,36.72965844928474
6.845956096,0.9987520975513978,36.59713892670141
6.848242176,0.9988565430184315,36.46368031787064
6.850528768,0.9990338585408644,36.32814813201864
6.852814848,0.9992728273159969,36.189563195302554
6.85510144,0.9995583553279367,36.04717448136406
6.857388032,0.9998722081817009,35.900406856887514
6.859674112,1.000194680035423,35.7490108660993
6.861960704,1.0005053952297025,35.59299515082429
6.864246784,1.0007845615015483,35.43270087720725
6.866533376,1.0010147021466531,35.26869388810901
6.868819456,1.0011812187040539,35.10179897953955
6.871106048,1.001273543380873,34.93302381393018
6.87339264,1.0012858579847141,34.763452982144685
6.87567872,1.0012173510188305,34.59425820924685
6.877965312,1.0010723274565583,34.4266363115615
6.880251392,1.0008598630283032,34.26155537965416
6.882537984,1.0005933126279825,34.099937408754535
6.884824064,1.0002894889488478,33.942455787956725
6.887110656,0.9999675732825116,33.789462798314084
6.889396736,0.9996479566143103,33.641136188834096
6.891683328,0.9993508244088958,33.49728435315074
6.89396992,0.999095006260281,33.35743627718549
6.896256,0.9988967513195838,33.220895793455355
6.898542592,0.9987686541940601,33.08669111530486
6.900828672,0.9987189225457445,32.95381736299851
6.903115264,0.9987507394018685,32.8210258417689
6.905401344,0.9988619648261161,32.68719580684462
6.907687936,0.9990457990246552,32.55120920839116
6.909974528,0.9992905429324306,32.412066421205296
6.912260608,0.9995805998046522,32.26905229502026
6.9145472,0.9998977569951059,32.121604186489314
6.91683328,1.000221884022522,31.96947251699683
6.919119872,1.0005324504105475,31.812721885099727
6.921405952,1.0008098443156193,31.6516961479667
6.923692544,1.0010365735664035,31.486993270138
6.925978624,1.0011983167880079,31.31944713611386
6.928265216,1.0012847617803287,31.15009058317603
6.930551808,1.0012905779182384,30.980071956696168
6.932837888,1.0012152534979035,30.810541391525245
6.93512448,1.0010634780221,30.64259927753412
6.93741056,1.0008449076984123,30.47733770017097
