freq,mag,phase
6.0,0.9999924716093795,78.25808320718704
6.008,0.9999918482293971,78.1129148458344
6.016,0.9999912427745123,77.96771388370874
6.024,0.9999906550287724,77.82248026888631
6.032,0.9999900847765731,77.6772139499257
6.04,0.9999895318026869,77.53191487586535
6.048,0.9999889958922866,77.3865829962213
6.056,0.9999884768309738,77.2412182609848
6.064,0.9999879744048001,77.09582062061982
6.072,0.9999874884002948,76.9503900260609
6.08,0.9999870186044877,76.80492642871071
6.088,0.9999865648049325,76.65942978043769
6.096,0.9999861267897309,76.51390003357375
6.104,0.9999857043475562,76.36833714091193
6.112,0.9999852972676736,76.22274105570409
6.12,0.9999849053399648,76.07711173165868
6.128,0.9999845283549488,75.93144912293823
6.136,0.999984166103804,75.78575318415731
6.144,0.9999838183783878,75.6400238703801
6.152,0.9999834849712587,75.49426113711807
6.16,0.9999831656756967,75.34846494032783
6.168,0.9999828602857226,75.20263523640884
6.176,0.9999825685961174,75.05677198220107
6.184,0.9999822904024436,74.91087513498279
6.192,0.9999820255010604,74.76494465246842
6.2,0.9999817736891469,74.61898049280616
6.208,0.9999815347647162,74.47298261457587
6.216,0.999981308526635,74.32695097678683
6.224,0.9999810947746424,74.18088553887544
6.232,0.9999808933093639,74.03478626070319
6.24,0.999980703932332,73.88865310255433
6.248,0.9999805264460001,73.74248602513374
6.256,0.9999803606537588,73.59628498956478
6.264,0.9999802063599535,73.45004995738704
6.272,0.9999800633698983,73.30378089055426
6.28,0.9999799314898918,73.15747775143221
6.288,0.999979810527231,73.01114050279647
6.296,0.9999797002902292,72.86476910783024
6.304,0.9999796005882249,72.71836353012247
6.312,0.999979511231601,72.57192373366544
6.32,0.9999794320317941,72.42544968285291
6.328,0.9999793628013123,72.2789413424778
6.336,0.9999793033537435,72.1323986777303
6.344,0.999979253503772,71.98582165419563
6.352,0.9999792130671873,71.83921023785214
6.36,0.9999791818609,71.69256439506908
6.368,0.9999791597029517,71.54588409260467
6.376,0.9999791464125254,71.39916929760395
6.384,0.9999791418099587,71.2524199775969
6.392,0.999979145716755,71.10563610049623
6.4,0.999979157955592,70.95881763459555
6.408,0.9999791783503338,70.8119645485672
6.416,0.9999792067260407,70.6650768114604
6.424,0.9999792429089782,70.51815439269913
6.432,0.9999792867266282,70.37119726208023
6.44,0.9999793380076969,70.2242053897715
6.448,0.9999793965821245,70.0771787463095
6.456,0.9999794622810939,69.9301173025979
6.464,0.9999795349370387,69.78302102990533
6.472,0.9999796143836522,69.63588989986356
6.48,0.9999797004558946,69.4887238844655
6.4879999999999995,0.9999797929900021,69.34152295606336
6.496,0.999979891823492,69.19428708736667
6.504,0.9999799967951727,69.04701625144052
6.5120000000000005,0.9999801077451488,68.8997104217035
6.52,0.999980224514828,68.75236957192598
6.5280000000000005,0.9999803469469293,68.60499367622815
6.536,0.9999804748854856,68.45758270907822
6.5440000000000005,0.9999806081758545,68.31013664529056
6.552,0.9999807466647205,68.16265546002387
6.5600000000000005,0.9999808902001014,68.01513912877928
6.568,0.999981038631355,67.86758762739875
6.5760000000000005,0.9999811918091814,67.72000093206296
6.584,0.9999813495856312,67.57237901928981
6.592,0.9999815118141072,67.42472186593236
6.6,0.9999816783493709,67.27702944917733
6.608,0.9999818490475454,67.12930174654309
6.616,0.9999820237661207,66.98153873587812
6.624,0.9999822023639547,66.83374039535902
6.632,0.9999823847012805,66.68590670348901
6.64,0.9999825706397075,66.53803763909609
6.648,0.9999827600422243,66.39013318133127
6.656,0.9999829527732026,66.24219330966702
6.664,0.9999831486983998,66.09421800389539
6.672,0.9999833476849608,65.94620724412646
6.68,0.9999835496014212,65.79816101078663
6.688,0.9999837543177084,65.65007928461688
6.696,0.9999839617051451,65.50196204667124
6.704,0.999984171636449,65.353809278315
6.712,0.9999843839857366,65.20562096122319
6.72,0.9999845986285223,65.0573970773789
6.728,0.9999848154417209,64.90913760907165
6.736,0.9999850343036485,64.76084253889579
6.744,0.9999852550940234,64.61251184974891
6.752,0.9999854776939655,64.4641455248303
6.76,0.9999857019859985,64.31574354763926
6.768,0.9999859278540492,64.1673059019736
6.776,0.9999861551834468,64.01883257192812
6.784,0.9999863838609254,63.87032354189292
6.792,0.9999866137746207,63.72177879655206
6.8,0.9999868448140715,63.573198320881836
6.808,0.9999870768702185,63.424582100149394
6.816,0.9999873098354037,63.275930119911145
6.824,0.999987543603369,63.127242366011316
6.832,0.9999877780692562,62.97851882458042
6.84,0.9999880131296045,62.829759482033786
6.848,0.9999882486823499,62.68096432507009
6.856,0.999988484626824,62.53213334066993
6.864,0.9999887208637509,62.383266516094274
6.872,0.9999889572952465,62.23436383888314
6.88,0.9999891938248167,62.0854252968541
6.888,0.9999894303573543,61.93645087810083
6.896,0.9999896667991375,61.78744057099178
6.904,0.9999899030578269,61.63839436416867
6.912,0.9999901390424631,61.48931224654518
6.92,0.9999903746634649,61.34019420730557
6.928,0.9999906098326249,61.1910402359032
6.936,0.9999908444631068,61.04185032205928
6.944,0.9999910784694447,60.8926244557615
6.952,0.9999913117675356,60.74336262726257
6.96,0.9999915442746398,60.59406482707907
6.968,0.9999917759093754,60.44473104598997
6.976,0.999992006591715,60.29536127503537
6.984,0.999992236242983,60.14595550551522
6.992,0.9999924647858495,59.99651372898796
7.0,0.9999926921443287,59.847035937269325
7.008,0.9999929182437736,59.697522122430925
7.016,0.9999931430108714,59.547972276799136
7.024,0.9999933663736397,59.39838639295377
7.032,0.9999935882614229,59.24876446372668
7.04,0.9999938086048848,59.09910648220087
7.048,0.9999940273360077,58.94941244170888
7.056,0.9999942443880845,58.799682335831825
7.064,0.9999944596957153,58.649916158398085
7.072,0.9999946731948021,58.50011390348205
7.08,0.9999948848225433,58.35027556540309
7.088,0.9999950945174289,58.20040113872414
7.096,0.999995302219235,58.05049061825078
7.104,0.9999955078690193,57.90054399902983
7.112,0.9999957114091131,57.75056127634841
7.12,0.9999959127831181,57.60054244573255
7.128,0.9999961119359001,57.450487502946295
7.136,0.9999963088135824,57.30039644399044
7.144,0.9999965033635408,57.150269265101414
7.152,0.9999966955343966,57.000105962750204
7.16,0.9999968852760128,56.84990653364124
7.168,0.9999970725394836,56.69967097471126
7.176,0.9999972572771333,56.54939928312836
7.184,0.9999974394425056,56.399091456290705
7.192,0.9999976189903607,56.24874749182566
7.2,0.9999977958766663,56.098367387588624
7.208,0.9999979700585914,55.947951141662024
7.216,0.9999981414945005,55.79749875235424
7.224,0.9999983101439471,55.647010218198595
7.232,0.9999984759676651,55.49648553795238
7.24,0.9999986389275639,55.3459247105957
7.248,0.9999987989867201,55.19532773533067
7.256,0.9999989561093711,55.04469461158021
7.264,0.9999991102609079,54.89402533898723
7.272,0.9999992614078677,54.74331991741352
7.28,0.9999994095179264,54.5925783469389
7.288,0.9999995545598921,54.441800627860154
7.296,0.9999996965036984,54.29098676069009
7.304,0.9999998353203936,54.14013674615669
7.312,0.9999999709821374,53.98925058520207
7.32,1.0,53.83832827898156
7.328,1.0,53.68736982886287
7.336,0.9999999999999999,53.5363752364251
7.344,0.9999999999999999,53.38534450345786
7.352,0.9999999999999999,53.23427763196034
7.36,1.0,53.08317462414053
7.368,0.9999999999999999,52.93203548241417
7.376,1.0,52.780860209404075
7.384,1.0,52.62964880793914
7.392,0.9999999999999999,52.478401281053515
7.4,1.0,52.327117631985736
7.4079999999999995,1.0,52.17579786417804
7.416,1.0,52.02444198127523
7.4239999999999995,1.0,51.873049987124276
7.432,0.9999999999999998,51.721621885773
7.4399999999999995,1.0,51.570157681469794
7.448,1.0,51.418657378662324
7.4559999999999995,1.0,51.26712098199719
7.464,1.0,51.115548496318766
7.4719999999999995,1.0,50.963939926668694
7.48,0.9999999999999999,50.812295278284985
7.4879999999999995,1.0,50.66061455660132
7.496,1.0,50.50889776724616
7.504,0.9999999999999999,50.35714491604229
7.5120000000000005,0.9999999999999999,50.20535600900573
7.52,1.0000000000000002,50.05353105234535
7.5280000000000005,0.9999999999999999,49.90167005246181
7.536,1.0,49.74977301594716
7.5440000000000005,1.0,49.59783994958389
7.552,0.9999999999999999,49.44587086034441
7.5600000000000005,1.0,49.2938657553902
7.568,1.0,49.14182464207131
7.5760000000000005,0.9999999999999999,48.989747527925466
7.584,1.0,48.83763442067765
7.5920000000000005,0.9999999999999999,48.68548532823912
7.6,1.0,48.53330025870712
7.6080000000000005,0.9999999999999999,48.38107922036393
7.616,1.0,48.228822221676396
7.6240000000000006,0.9999999999999999,48.076529271295215
7.632,0.9999999999999999,47.924200378054394
7.640000000000001,0.9999999999999999,47.77183555097045
7.648,1.0,47.61943479924211
7.656000000000001,0.9999999999999999,47.466998132249294
7.664,1.0,47.314525559552926
7.672,0.9999999999999999,47.16201709089402
7.68,1.0,47.009472736193295
7.688,0.9999999999999999,46.8568925055505
7.696,1.0,46.704276409243846
7.704,0.9999999999999999,46.55162445772956
7.712,1.0,46.39893666164106
7.72,0.9999999999999999,46.24621303178873
7.728,1.0,46.0934535791591
7.736,1.0,45.9406583149145
7.744,1.0,45.7878272503924
7.752,1.0,45.63496039710491
7.76,0.9999999999999999,45.48205776673832
7.768,0.9999999999999999,45.32911937115252
7.776,1.0,45.17614522238055
7.784,1.0,45.023135332628
7.792,1.0,44.870089714272616
7.8,1.0,44.717008379863756
7.808,1.0,44.56389134212196
7.816,1.0,44.41073861393838
7.824,1.0,44.257550208374376
7.832,0.9999999999999998,44.10432613866108
7.84,0.9999999999999999,43.95106641819885
7.848,1.0,43.79777106055687
7.856,0.9999999999999999,43.644440079472645
7.864,0.9999999999999999,43.49107348885171
7.872,1.0,43.33767130276699
7.88,0.9999999999999999,43.18423353545852
7.888,0.9999999999999999,43.03076020133293
7.896,1.0,42.877251314963125
7.904,0.9999999999999999,42.72370689108774
7.912,1.0,42.57012694461081
7.92,0.9999999999999999,42.41651149060141
7.928,0.9999999999999998,42.26286054429316
7.936,0.9999999999999999,42.10917412108385
7.944,1.0,41.95545223653517
7.952,0.9999999233480337,41.801694906372155
7.96,0.9999997970287171,41.64790214648293
7.968,0.9999996682500382,41.49407397291829
7.976,0.999999537046539,41.34021040189135
7.984,0.9999994034531386,41.18631144977719
7.992,0.9999992675051255,41.03237713311246
8.0,0.9999991292381474,40.878407468595114
8.008,0.9999989886882037,40.72440247308397
8.016,0.9999988458916367,40.57036216359835
8.024000000000001,0.9999987008851221,40.41628655731792
8.032,0.9999985537056612,40.26217567158221
8.04,0.9999984043905719,40.10802952389027
8.048,0.9999982529774807,39.9538481319004
8.056000000000001,0.9999980995043131,39.7996315134299
8.064,0.999997944009286,39.64537968645465
8.072,0.999997786530899,39.49109266910884
8.08,0.9999976271079256,39.33677047968463
8.088000000000001,0.9999974657794055,39.182413136631986
8.096,0.9999973025846349,39.028020658558255
8.104,0.99999713756316,38.8735930642279
8.112,0.9999969707547663,38.71913037256217
8.120000000000001,0.9999968021994733,38.56463260263902
8.128,0.9999966319375228,38.41009977369261
8.136,0.9999964600093729,38.25553190511314
8.144,0.9999962864556904,38.10092901644648
8.152000000000001,0.9999961113173398,37.94629112739412
8.16,0.999995934635378,37.79161825781276
8.168,0.9999957564510445,37.63691042771395
8.176,0.9999955768057541,37.48216765726407
8.184000000000001,0.9999953957410886,37.32738996678398
8.192,0.9999952132987885,37.17257737674878
8.2,0.9999950295207461,37.01772990778752
8.208,0.999994844448996,36.86284758068299
8.216000000000001,0.9999946581257088,36.707930416371575
8.224,0.9999944705931814,36.552978435942975
8.232,0.9999942818938318,36.39799166063992
8.24,0.999994092070189,36.24297011185798
8.248000000000001,0.9999939011648856,36.08791381114546
8.256,0.9999937092206517,35.93282278020305
8.264,0.9999935162803056,35.77769704088365
8.272,0.9999933223867462,35.62253661519217
8.280000000000001,0.9999931275829468,35.46734152528539
8.288,0.9999929319119465,35.312111793471715
8.296,0.9999927354168427,35.156847442210896
8.304,0.9999925381407845,35.00154849411395
8.312,0.9999923401269638,34.84621497194303
8.32,0.9999921414186096,34.690846898610985
8.328,0.9999919420589798,34.53544429718154
8.336,0.9999917420913543,34.380007190868746
8.344,0.9999915415590269,34.22453560303712
8.352,0.9999913405052991,34.06902955720122
8.36,0.9999911389734735,33.913489077025694
8.368,0.9999909370068442,33.7579141863249
8.376,0.9999907346486928,33.602304909063015
8.384,0.99999053194228,33.44666126935353
8.392,0.9999903289308377,33.290983291459455
8.4,0.9999901256575642,33.13527099979281
8.408,0.9999899221656154,32.97952441891484
8.416,0.9999897184980999,32.823743573535516
8.424,0.99998951469807,32.66792848851371
8.432,0.9999893108085169,32.51207918885673
8.44,0.9999891068723635,32.35619569972049
8.448,0.9999889029324571,32.2002780464091
8.456,0.9999886990315636,32.044326254375015
8.464,0.9999884952123614,31.888340349218552
8.472,0.9999882915174333,31.73232035668817
8.48,0.9999880879892616,31.57626630267995
8.488,0.9999878846702219,31.420178213237747
8.496,0.9999876816025748,31.264056114552883
8.504,0.9999874788284623,31.107900032964245
8.512,0.9999872763898993,30.951709994957895
8.52,0.9999870743287697,30.79548602716718
8.528,0.999986872686818,30.63922815637249
8.536,0.9999866715056449,30.482936409501193
8.544,0.9999864708267006,30.32661081362751
8.552,0.9999862706912789,30.170251395972485
8.56,0.9999860711405113,30.013858183903704
8.568,0.9999858722153621,29.857431204935402
8.576,0.9999856739566212,29.700970486728167
8.584,0.9999854764048991,29.54447605708904
8.592,0.9999852796006209,29.387947943971152
8.6,0.9999850835840219,29.231386175474
8.608,0.9999848883951395,29.074790779842946
8.616,0.9999846940738111,28.918161785469447
8.624,0.9999845006596655,28.761499220890727
8.632,0.9999843081921196,28.6048031147899
8.64,0.9999841167103714,28.448073495995718
8.648,0.9999839262533969,28.291310393482565
8.656,0.9999837368599425,28.134513836370363
8.664,0.9999835485685218,27.977683853924486
8.672,0.9999833614174092,27.820820475555596
8.68,0.9999831754446351,27.66392373081978
8.688,0.9999829906879818,27.50699364941819
8.696,0.9999828071849763,27.350030261197254
8.704,0.999982624972889,27.19303359614833
8.712,0.999982444088725,27.036003684407834
8.72,0.9999822645692232,26.878940556257
8.728,0.9999820864508474,26.721844242122057
8.736,0.9999819097697848,26.564714772573772
8.744,0.9999817345619411,26.407552178327823
8.752,0.9999815608629338,26.2503564902444
8.76,0.9999813887080901,26.093127739328274
8.768,0.999981218132441,25.93586595672869
8.776,0.9999810491707182,25.778571173739394
8.784,0.9999808818573492,25.62124342179833
8.792,0.9999807162264518,25.46388273248794
8.8,0.9999805523118324,25.30648913753472
8.808,0.999980390146979,25.14906266880948
8.815999999999999,0.9999802297650603,24.991603358327044
8.824,0.9999800711989189,24.83411123824628
8.832,0.9999799144810687,24.676586340870106
8.84,0.9999797596436919,24.51902869864537
8.847999999999999,0.9999796067186318,24.361438344162707
8.856,0.9999794557373932,24.203815310156607
8.864,0.9999793067311364,24.046159629505322
8.872,0.9999791597306738,23.888471335230815
8.879999999999999,0.9999790147664656,23.73075046049864
8.888,0.9999788718686181,23.572997038617924
8.896,0.9999787310668793,23.41521110304137
8.904,0.9999785923906339,23.257392687365144
8.911999999999999,0.9999784558689035,23.099541825328757
8.92,0.9999783215303395,22.94165855081512
8.928,0.9999781894032228,22.783742897850455
8.936,0.9999780595154584,22.62579490060425
8.943999999999999,0.9999779318945736,22.467814593389154
8.952,0.9999778065677154,22.309802010660878
8.96,0.9999776835616455,22.151757187018323
8.968,0.9999775629027391,21.993680157203435
8.975999999999999,0.9999774446169819,21.83557095610104
8.984,0.999977328729966,21.677429618738884
8.992,0.999977215266888,21.519256180287655
9.0,0.999977104252548,21.361050676060806
9.008,0.9999769957113434,21.202813141514525
9.016,0.9999768896672685,21.044543612247665
9.024000000000001,0.999976786143912,20.886242124001818
9.032,0.9999766851644549,20.727908712661115
9.04,0.9999765867516658,20.569543414252205
9.048,0.9999764909279009,20.411146264944197
9.056000000000001,0.9999763977151014,20.25271730104861
9.064,0.9999763071347907,20.094256559019417
9.072,0.9999762192080711,19.93576407545281
9.08,0.9999761339556243,19.777239887087184
9.088000000000001,0.9999760513977086,19.61868403080322
9.096,0.9999759715541542,19.460096543623692
9.104,0.9999758944443651,19.301477462713393
9.112,0.9999758200873154,19.142826825379135
9.120000000000001,0.9999757485015462,18.984144669069764
9.128,0.999975679705167,18.825431031375942
9.136,0.9999756137158516,18.66668595003014
9.144,0.9999755505508371,18.507909462906575
9.152000000000001,0.9999754902269222,18.349101608021204
9.16,0.9999754327604663,18.19026242353167
9.168,0.9999753781673874,18.031391947737063
9.176,0.999975326463161,17.87249021907798
9.184000000000001,0.9999752776628185,17.71355727613654
9.192,0.9999752317809459,17.554593157636223
9.2,0.9999751888316833,17.39559790244176
9.208,0.9999751488287228,17.236571549559056
9.216000000000001,0.9999751117853085,17.07751413813522
9.224,0.9999750777142346,16.918425707458553
9.232,0.9999750466278429,16.75930629695824
9.24,0.9999750185380261,16.60015594620433
9.248000000000001,0.9999749934562226,16.440974694907922
9.256,0.9999749713934188,16.28176258292084
9.264,0.9999749523601451,16.122519650235553
9.272,0.9999749363664796,15.96324593698514
9.280000000000001,0.999974923422043,15.803941483443317
9.288,0.9999749135360009,15.644606330024278
9.296,0.999974906717062,15.485240517282527
9.304,0.9999749029734781,15.325844085912815
9.312000000000001,0.9999749023130438,15.166417076750257
9.32,0.999974904743096,15.006959530770027
9.328,0.9999749102705127,14.847471489087313
9.336,0.9999749189017145,14.687952992957221
9.344,0.9999749306426635,14.528404083774836
9.352,0.9999749454988621,14.368824803074848
9.36,0.9999749634753551,14.209215192531788
9.368,0.9999749845767284,14.04957529395957
9.376,0.9999750088071088,13.889905149311769
9.384,0.9999750361701643,13.730204800681198
9.392,0.9999750666691054,13.5704742903
9.4,0.9999751003066836,13.410713660539466
9.408,0.9999751370851924,13.250922953910028
9.416,0.9999751770064682,13.091102213060921
9.424,0.9999752200718889,12.931251480780432
9.432,0.9999752662823764,12.771370799995385
9.44,0.9999753156383965,12.611460213771421
9.448,0.999975368139958,12.45151976531252
9.456,0.9999754237866155,12.291549497961253
9.464,0.9999754825774679,12.131549455198261
9.472,0.9999755445111604,11.97151968064254
9.48,0.9999756095858854,11.811460218050966
9.488,0.9999756777993822,11.651371111318502
9.496,0.9999757491489392,11.491252404477704
9.504,0.9999758236313928,11.331104141698987
9.512,0.999975901243131,11.170926367290123
9.52,0.9999759819800921,11.010719125696454
9.528,0.999976065837767,10.850482461500416
9.536,0.9999761528111999,10.690216419421745
9.544,0.9999762428949899,10.529921044317009
9.552,0.9999763360832908,10.369596381179795
9.56,0.9999764323698146,10.209242475140218
9.568,0.9999765317478305,10.048859371465138
9.576,0.9999766342101684,9.888447115557646
9.584,0.9999767397492182,9.728005752957284
9.592,0.9999768483569333,9.56753532933953
9.6,0.9999769600248303,9.407035890515989
9.608,0.9999770747439917,9.246507482433897
9.616,0.9999771925050671,9.085950151176318
9.624,0.9999773132982754,8.9253639429616
9.632,0.999977437113405,8.764748904143588
9.64,0.9999775639398176,8.604105081211117
9.648,0.9999776937664486,8.443432520788146
9.656,0.9999778265818086,8.282731269633308
9.664,0.9999779623739874,8.122001374639982
9.672,0.9999781011306534,7.961242882835915
9.68,0.9999782428390575,7.800455841383212
9.688,0.9999783874860335,7.639640297577967
9.696,0.9999785350580016,7.478796298850318
9.704,0.99997868554097,7.317923892763965
9.712,0.9999788389205367,7.157023127016312
9.72,0.9999789951818924,6.996094049437932
9.728,0.999979154309822,6.835136707992677
