freq,mag,phase
6.0,0.9999976768609159,-163.10391091424026
6.008,0.9999976256582868,-163.45102704925648
6.016,0.9999975658781751,-163.79784757193895
6.024,0.9999974980676488,-164.14437793229945
6.032,0.9999974227529299,-164.49062357205017
6.04,0.999997340439956,-164.83658992471345
6.048,0.9999972516149265,-165.18228241573297
6.056,0.9999971567448378,-165.52770646258642
6.064,0.9999970562780134,-165.87286747489983
6.072,0.9999969506446139,-166.217770854563
6.08,0.9999968402571456,-166.56242199584656
6.088,0.9999967255109534,-166.90682628552025
6.096,0.9999966067847054,-167.25098910297245
6.104,0.9999964844408671,-167.5949158203312
6.112,0.9999963588261664,-167.938611802586
6.12,0.999996230272048,-168.28208240771116
6.128,0.9999960990951193,-168.6253329867901
6.136,0.9999959655975863,-168.96836888414077
6.144,0.9999958300676802,-169.31119543744217
6.152,0.999995692780076,-169.6538179778617
6.16,0.9999955539963004,-169.9962418301838
6.168,0.9999954139651336,-170.33847231293927
6.176,0.9999952729229996,-170.68051473853558
6.184,0.9999951310943495,-171.02237441338804
6.192,0.9999949886920371,-171.3640566380518
6.2,0.9999948459176854,-171.70556670735482
6.208,0.9999947029620451,-172.04690991053124
6.216,0.9999945600053449,-172.38809153135585
6.224,0.9999944172176366,-172.72911684827912
6.232,0.9999942747591275,-173.06999113456283
6.24,0.9999941327805103,-173.4107196584164
6.248,0.9999939914232839,-173.75130768313406
6.256,0.9999938508200651,-174.09176046723206
6.264,0.999993711094896,-174.43208326458694
6.272,0.9999935723635434,-174.77228132457412
6.28,0.9999934347337903,-175.11235989220702
6.288,0.9999932983057211,-175.45232420827648
6.296,0.9999931631720028,-175.79217950949078
6.304,0.9999930294181545,-176.13193102861626
6.312,0.9999928971228158,-176.4715839946177
6.32,0.9999927663580052,-176.81114363279974
6.328,0.9999926371893739,-177.15061516494814
6.336,0.9999925096764543,-177.49000380947155
6.344,0.9999923838728995,-177.82931478154353
6.352,0.9999922598267214,-178.16855329324477
6.36,0.9999921375805191,-178.5077245537055
6.368,0.9999920171717039,-178.84683376924815
6.376,0.9999918986327178,-179.18588614353015
6.384,0.9999917819912465,-179.5248868776868
6.392,0.9999916672704284,-179.86384117047442
6.4,0.9999915544890566,179.79724578158678
6.408,0.9999914436617774,179.4583687840691
6.416,0.9999913347992817,179.11952264449457
6.424,0.9999912279084935,178.7807021721915
6.432,0.9999911229927516,178.44190217815122
6.44,0.9999910200519899,178.10311747488515
6.448,0.9999909190829084,177.76434287628155
6.456,0.9999908200791434,177.42557319746237
6.464,0.9999907230314302,177.08680325464076
6.472,0.9999906279277652,176.74802786497787
6.48,0.9999905347535581,176.4092418464406
6.4879999999999995,0.999990443491787,176.07044001765902
6.496,0.9999903541231423,175.73161719778412
6.504,0.9999902666261711,175.39276820634618
6.5120000000000005,0.999990180977416,175.0538878631127
6.52,0.9999900971515492,174.7149709879473
6.5280000000000005,0.9999900151215046,174.3760124006684
6.536,0.9999899348586057,174.03700692090868
6.5440000000000005,0.9999898563326862,173.69794936797436
6.552,0.9999897795122139,173.3588345607058
6.5600000000000005,0.9999897043644043,173.01965731733702
6.568,0.9999896308553347,172.68041245535744
6.5760000000000005,0.9999895589500523,172.3410947913725
6.584,0.9999894886126824,172.00169914096594
6.592,0.9999894198065298,171.66222031856157
6.6,0.9999893524941774,171.32265313728658
6.608,0.9999892866375846,170.9829924088347
6.616,0.9999892221981797,170.64323294333013
6.624,0.9999891591369489,170.3033695491923
6.632,0.9999890974145256,169.96339703300097
6.64,0.9999890369912724,169.62331019936215
6.648,0.9999889778273648,169.28310385077467
6.656,0.9999889198828681,168.94277278749755
6.664,0.9999888631178131,168.602311807418
6.672,0.9999888074922711,168.26171570592024
6.68,0.9999887529664223,167.92097927575512
6.688,0.9999886995006246,167.58009730691072
6.696,0.9999886470554795,167.23906458648332
6.704,0.9999885955918932,166.8978758985501
6.712,0.999988545071139,166.55652602404174
6.72,0.9999884954549147,166.21500974061684
6.728,0.9999884467053977,165.8733218225368
6.736,0.9999883987852982,165.53145704054188
6.744,0.9999883516579128,165.1894101617283
6.752,0.9999883052871694,164.8471759494263
6.76,0.9999882596376791,164.50474916307948
6.768,0.9999882146747759,164.16212455812507
6.776,0.9999881703645627,163.8192968858755
6.784,0.9999881266739508,163.47626089340108
6.792,0.9999880835706989,163.1330113234139
6.8,0.9999880410234504,162.78954291415323
6.808,0.9999879990017666,162.4458503992716
6.816,0.9999879574761613,162.10192850772304
6.824,0.9999879164181317,161.75777196365203
6.832,0.9999878758001878,161.41337548628402
6.84,0.9999878355958799,161.06873378981768
6.848,0.9999877957798249,160.72384158331803
6.856,0.9999877563277314,160.37869357061172
6.864,0.9999877172164204,160.0332844501833
6.872,0.9999876784238495,159.68760891507358
6.88,0.9999876399291291,159.34166165277907
6.888,0.9999876017125445,158.99543734515356
6.896,0.9999875637555682,158.6489306683112
6.904,0.9999875260408797,158.30213629253115
6.912,0.9999874885523752,157.9550488821644
6.92,0.9999874512751827,157.60766309554185
6.928,0.9999874141956724,157.25997358488513
6.936,0.9999873773014656,156.91197499621833
6.944,0.9999873405814446,156.56366196928232
6.952,0.9999873040257584,156.21502913745095
6.96,0.9999872676258305,155.86607112764915
6.968,0.9999872313743617,155.51678256027336
6.976,0.9999871952653355,155.16715804911368
6.984,0.9999871592940192,154.81719220127883
6.992,0.9999871234569665,154.46687961712274
7.0,0.9999870877520162,154.11621489017364
7.008,0.9999870521782931,153.76519260706579
7.016,0.9999870167362046,153.413807347473
7.024,0.9999869814274397,153.06205368404514
7.032,0.9999869462549629,152.70992618234678
7.04,0.9999869112230112,152.35741940079848
7.048,0.9999868763370877,152.00452789062084
7.056,0.9999868416039547,151.65124619578083
7.064,0.9999868070316266,151.29756885294128
7.072,0.9999867726293605,150.94349039141278
7.08,0.9999867384076487,150.5890053331085
7.088,0.9999867043782075,150.23410819250205
7.096,0.9999866705539654,149.87879347658802
7.104,0.9999866369490525,149.5230556848458
7.112,0.9999866035787882,149.16688930920617
7.12,0.9999865704596675,148.8102888340213
7.128,0.999986537609347,148.45324873603786
7.136,0.9999865050466301,148.0957634843731
7.144,0.9999864727914524,147.73782754049475
7.152,0.9999864408648644,147.37943535820398
7.16,0.9999864092890169,147.0205813836219
7.168,0.9999863780871411,146.66126005517964
7.176,0.9999863472835325,146.3014658036118
7.184,0.9999863169035322,145.941193051954
7.192,0.9999862869735067,145.58043621554376
7.2,0.9999862575208291,145.21918970202537
7.208,0.99998622857386,144.85744791135872
7.216,0.9999862001619236,144.49520523583197
7.224,0.9999861723152901,144.1324560600783
7.232,0.999986145065151,143.76919476109688
7.24,0.9999861184435986,143.40541570827787
7.248,0.999986092483603,143.04111326343178
7.256,0.9999860672189878,142.6762817808233
7.264,0.9999860426844084,142.3109156072094
7.272,0.9999860189153261,141.94500908188223
7.28,0.9999859959479854,141.5785565367161
7.288,0.9999859738193874,141.21155229621988
7.296,0.9999859525672657,140.8439906775937
7.304,0.9999859322300607,140.47586599079062
7.312,0.999985912846893,140.1071725385833
7.32,0.9999858944575387,139.737904616636
7.328,0.9999858771024001,139.36805651358105
7.336,0.9999858608224822,138.9976225111014
7.344,0.9999858456593611,138.62659688401797
7.352,0.9999858316551614,138.2549739003825
7.36,0.9999858188525244,137.88274782157626
7.368,0.9999858072945821,137.50991290241393
7.376,0.9999857970249277,137.13646339125359
7.384,0.9999857880875888,136.76239353011252
7.392,0.9999857805269958,136.38769755478867
7.4,0.9999857743879548,136.01236969498837
7.4079999999999995,0.9999857697156194,135.63640417446032
7.416,0.999985766555458,135.25979521113553
7.4239999999999995,0.9999857649532264,134.88253701727407
7.432,0.9999857649549384,134.50462379961763
7.4399999999999995,0.9999857666068331,134.1260497595495
7.448,0.9999857699553488,133.74680909326028
7.4559999999999995,0.9999857750470887,133.3668959919217
7.464,0.999985781928793,132.9863046418657
7.4719999999999995,0.9999857906473074,132.6050292247724
7.48,0.9999858012495532,132.22306391786336
7.4879999999999995,0.9999858137824943,131.84040289410382
7.496,0.9999858282931106,131.45704032241105
7.504,0.999985844828362,131.07297036787108
7.5120000000000005,0.9999858634351613,130.68818719196233
7.52,0.9999858841603411,130.30268495278787
7.5280000000000005,0.9999859070506231,129.91645780531454
7.536,0.999985932152587,129.52949990162116
7.5440000000000005,0.9999859595126398,129.14180539115378
7.552,0.9999859891769831,128.75336842099028
7.5600000000000005,0.999986021191584,128.36418313611227
7.568,0.9999860556021409,127.97424367968668
7.5760000000000005,0.9999860924540561,127.58354419335467
7.584,0.9999861317924007,127.19207881753069
7.5920000000000005,0.999986173661885,126.79984169170915
7.6,0.9999862181068288,126.40682695478147
7.6080000000000005,0.9999862651711277,126.01302874536076
7.616,0.9999863148982233,125.61844120211752
7.6240000000000006,0.9999863673310719,125.22305846412306
7.632,0.9999864225121141,124.82687467120408
7.640000000000001,0.9999864804832428,124.42988396430567
7.648,0.9999865412857732,124.03208048586525
7.656000000000001,0.9999866049604121,123.63345838019532
7.664,0.9999866715472271,123.23401179387774
7.672,0.9999867410856165,122.83373487616689
7.68,0.9999868136142771,122.43262177940424
7.688,0.9999868891711772,122.03066665944309
7.696,0.9999869677935241,121.62786367608378
7.704,0.9999870495177355,121.22420699352023
7.712,0.9999871343794079,120.819690780797
7.72,0.99998722241329,120.41430921227763
7.728,0.9999873136532507,120.00805646812435
7.736,0.9999874081322506,119.6009267347889
7.744,0.9999875058823146,119.19291420551511
7.752,0.9999876069345004,118.78401308085301
7.76,0.9999877113188724,118.37421756918489
7.768,0.9999878190644725,117.9635218872631
7.776,0.9999879301992912,117.55192026076014
7.784,0.9999880447502417,117.13940692483081
7.792,0.9999881627431305,116.72597612468691
7.8,0.9999882842026315,116.31162211618418
7.808,0.9999884091522581,115.89633916642217
7.816,0.9999885376143369,115.4801215543566
7.824,0.999988669609983,115.06296357142485
7.832,0.99998880515907,114.64485952218435
7.84,0.9999889442802085,114.22580372496424
7.848,0.9999890869907181,113.80579051253024
7.856,0.9999892333066039,113.38481423276298
7.864,0.9999893832425308,112.96286924934995
7.872,0.9999895368118003,112.53994994249105
7.88,0.9999896940263253,112.11605070961801
7.888,0.9999898548966082,111.69116596612771
7.896,0.9999900194317164,111.26529014612959
7.904,0.9999901876392608,110.83841770320704
7.912,0.9999903595253727,110.41054311119353
7.92,0.9999905350946832,109.98166086496256
7.928,0.9999907143503001,109.55176548123254
7.936,0.9999908972937892,109.12085149938606
7.944,0.9999910839251526,108.68891348230403
7.952,0.9999912742428086,108.25594601721454
7.96,0.9999914682435738,107.82194371655663
7.968,0.9999916659226431,107.3869012188591
7.976,0.9999918672735716,106.95081318963442
7.984,0.9999920722882571,106.51367432228784
7.992,0.9999922809569229,106.07547933904178
8.0,0.9999924932681015,105.63622299187537
8.008,0.9999927092086169,105.1959000634798
8.016,0.9999929287635719,104.75450536822852
8.024000000000001,0.9999931519163309,104.31203375316392
8.032,0.9999933786485067,103.8684800989988
8.04,0.9999936089399474,103.42383932113357
8.048,0.9999938427687225,102.97810637068947
8.056000000000001,0.9999940801111109,102.5312762355578
8.064,0.99999432094159,102.08334394146415
8.072,0.9999945652328242,101.63430455304879
8.08,0.9999948129556537,101.18415317496299
8.088000000000001,0.9999950640790883,100.73288495298146
8.096,0.9999953185702946,100.28049507513002
8.104,0.9999955763945908,99.82697877282922
8.112,0.9999958375154385,99.37233132205424
8.120000000000001,0.999996101894436,98.91654804451052
8.128,0.9999963694913135,98.45962430882491
8.136,0.9999966402639268,98.00155553175254
8.144,0.9999969141682546,97.54233717939981
8.152000000000001,0.9999971911583951,97.08196476846311
8.16,0.9999974711865628,96.62043386748282
8.168,0.999997754203087,96.15774009811273
8.176,0.9999980401564125,95.69387913640549
8.184000000000001,0.9999983289930982,95.22884671411344
8.192,0.9999986206578181,94.76263862000431
8.2,0.9999989150933659,94.29525070119216
8.208,0.999999212240654,93.8266788644837
8.216000000000001,0.999999512038721,93.35691907773982
8.224,0.9999998144247338,92.88596737125121
8.232,0.9999999999999999,92.41381983912896
8.24,0.9999999999999999,91.94047264070976
8.248000000000001,1.0,91.46592200197567
8.256,1.0,90.99016421698754
8.264,0.9999999999999999,90.51319564933235
8.272,0.9999999999999998,90.03501273358467
8.280000000000001,1.0,89.55561197678172
8.288,1.0,89.0749899599111
8.296,1.0,88.59314333941175
8.304,1.0,88.11006884868787
8.312,0.9999999999999999,87.62576329963547
8.32,1.0,87.14022358418002
8.328,0.9999999999999998,86.6534466758276
8.336,1.0,86.16542963122573
8.344,1.0,85.67616959173718
8.352,0.9999999999999999,85.18566378502288
8.36,1.0,84.69390952663693
8.368,1.0,84.20090422162995
8.376,1.0,83.70664536616393
8.384,0.9999999999999999,83.21113054913431
8.392,1.0,82.71435745380285
8.4,1.0,82.21632385943691
8.408,0.9999999999999999,81.71702764295839
8.416,0.9999999999999999,81.2164667805982
8.424,1.0,80.71463934955945
8.432,1.0,80.21154352968514
8.44,0.9999999999999999,79.70717760513332
8.448,0.9999999999999999,79.20153996605582
8.456,0.9999999999999998,78.6946291102832
8.464,0.9999999999999999,78.18644364501223
8.472,1.0,77.67698228849825
8.48,1.0,77.16624387174869
8.488,1.0,76.65422734022053
8.496,1.0,76.14093175551717
8.504,1.0,75.62635629708825
8.512,0.9999999999999998,75.11050026392724
8.52,0.9999999999999999,74.5933630762705
8.528,0.9999999999999999,74.07494427729294
8.536,0.9999999999999999,73.5552435348032
8.544,0.9999999999999998,73.03426064293421
8.552,1.0,72.51199552383166
8.56,1.0,71.98844822933594
8.568,1.0,71.46361894266056
8.576,1.0,70.93750798006238
8.584,0.9999999999999998,70.41011579250643
8.592,0.9999999999999999,69.88144296732085
8.6,0.9999999999999999,69.35149022984444
8.608,1.0000000000000002,68.82025844506285
8.616,0.9999999999999999,68.28774861923513
8.624,1.0,67.75396190150718
8.632,0.9999999999999999,67.21889958551368
8.64,1.0,66.68256311096462
8.648,1.0,66.14495406521878
8.656,0.9999999999999999,65.60607418483933
8.664,1.0,65.06592535713452
8.672,1.0,64.52450962167845
8.68,1.0,63.98182917181459
8.688,1.0,63.43788635613731
8.696,1.0,62.892683679954075
8.704,1.0,62.34622380672331
8.712,1.0,61.79850955947071
8.72,0.9999999999999999,61.249543922179
8.728,1.0,60.69933004115392
8.736,1.0,60.147871226361254
8.744,1.0,59.59517095273768
8.752,1.0,59.04123286147054
8.76,1.0,58.486060761249064
8.768,1.0,57.92965862948193
8.776,0.9999999999999999,57.37203061348407
8.784,1.0,56.81318103162746
8.792,1.0,56.253114374458605
8.8,1.0,55.69183530577776
8.808,0.9999999999999999,55.12934866368228
8.815999999999999,0.9999999999999999,54.56565946156957
8.824,0.9999999999999999,54.00077288910091
8.832,1.0,53.43469431312428
8.84,1.0000000000000002,52.867429278553914
8.847999999999999,1.0,52.29898350920634
8.856,1.0,51.72936290859217
8.864,1.0,51.15857356066165
8.872,0.9999999999999999,50.5866217305028
8.879999999999999,1.0,50.013513864990834
8.888,1.0,49.43925659338885
8.896,1.0,48.863856727897584
8.904,1.0,48.28732126415311
8.911999999999999,0.9999999999999999,47.70965738167119
8.92,1.0,47.13087244423848
8.928,0.9999999999999999,46.55097400024826
8.936,1.0,45.96996978297967
8.943999999999999,0.9999999999999999,45.3878677108194
8.952,0.9999999999999999,44.80467588742575
8.96,1.0,44.22040260183334
8.968,1.0,43.635056328496816
8.975999999999999,0.9999999999999999,43.0486457272734
8.984,1.0,42.46117964334369
8.992,0.9999999999999999,41.87266710706928
9.0,1.0,41.28311733378575
9.008,0.9999999999999998,40.69253972353097
9.016,1.0,40.10094386070797
9.024000000000001,1.0,39.508339513681534
9.032,1.0,38.91473663430679
9.04,1.0,38.32014535739002
9.048,0.9999999999999999,37.72457600008123
9.056000000000001,1.0000000000000002,37.12803906119754
9.064,1.0,36.53054522047604
9.072,0.9999999999999999,35.932105337756234
9.08,1.0,35.33273045209204
9.088000000000001,1.0,34.732431780792496
9.096,0.9999999999999998,34.131220718389734
9.104,1.0,33.52910883553504
9.112,1.0,32.92610787782283
9.120000000000001,1.0,32.32222976454146
9.128,1.0,31.71748658735081
9.136,1.0,31.111890608886256
9.144,1.0,30.505454261290033
9.152000000000001,1.0,29.89819014466892
9.16,1.0,29.29011102547784
9.168,0.9999999999999999,28.68122983483028
9.176,1.0,28.07155966673543
9.184000000000001,1.0,27.461113776262337
9.192,0.9999999999999999,26.849905577630377
9.2,0.9999999999999999,26.23794864222692
9.208,0.9999999999999999,25.625256696553013
9.216000000000001,1.0,25.011843620096993
9.224,1.0,24.397723443135753
9.232,0.9999999999999999,23.78291034446495
9.24,0.9999999999999999,23.167418649058966
9.248000000000001,0.9999999999999999,22.551262825660842
9.256,1.0,21.934457484302374
9.264,1.0,21.317017373755387
9.272,1.0,20.698957378915786
9.280000000000001,1.0,20.080292518120643
9.288,0.9999999999999999,19.461037940398363
9.296,0.9999999999999998,18.841208922654015
9.304,0.9999999999999999,18.22082086679077
9.312000000000001,0.9999999999999999,17.599889296768517
9.32,1.0,16.97842985559986
9.328,0.9999999999999999,16.356458302285493
9.336,1.0,15.733990508690514
9.344,1.0,15.111042456362922
9.352,1.0,14.487630233293686
9.36,1.0,13.863770030623735
9.368,1.0,13.239478139294656
9.376,0.9999999999999999,12.61477094664928
9.384,1.0,11.989664932979192
9.392,0.9999999999999998,11.364176668025317
9.4,0.9999999999999999,10.73832280742866
9.408,0.9999999999999999,10.112120089137585
9.416,1.0,9.485585329768618
9.424,0.9999999999999999,8.858735420927422
9.432,1.0,8.231587325487022
9.44,1.0,7.6041580738297565
9.448,0.9999999999999999,6.976464760050429
9.456,1.0,6.348524538127035
9.464,1.0,5.720354618056663
9.472,1.0,5.091972261962935
9.48,1.0,4.46339478017283
9.488,0.9999999999999999,3.8346395272690947
9.496,0.9999999999999999,3.2057238981162746
9.504,0.9999999999999999,2.576665323866633
9.512,0.9999999999999999,1.947481267943952
9.52,1.0,1.3181892220115874
9.528,1.0,0.6888067019228297
9.536,0.9999999999999999,0.059351243659868
9.544,0.9999999999999999,-0.5701596007403915
9.552,0.9999999999999999,-1.1997082672674861
9.56,1.0,-1.8292771840272115
9.568,1.0,-2.458848775333813
9.576,0.9999999999999999,-3.0884054658063937
9.584,1.0,-3.717929684463141
9.592,1.0,-4.347403868815175
9.6,0.9999999999999998,-4.976810468953699
9.608,1.0,-5.606131951632371
9.616,0.9999999999999999,-6.235350804338283
9.624,1.0,-6.8644495393536955
9.632,0.9999999999999999,-7.493410697802017
9.64,0.9999999999999999,-8.122216853680039
9.648,1.0000000000000002,-8.750850617869798
9.656,1.0,-9.3792946421326
9.664,1.0,-10.00753162307826
9.672,1.0,-10.635544306111981
9.68,1.0,-11.263315489352483
9.688,1.0,-11.890828027523334
9.696,0.9999999999999999,-12.51806483581152
9.704,1.0,-13.145008893695193
9.712,0.9999999999999999,-13.77164324873446
9.72,0.9999999999999998,-14.39795102032745
9.728,1.0000000000000002,-15.023915403425644
9.736,1.0,-15.649519672210598
9.744,1.0,-16.274747183726262
9.752,1.0,-16.899581381468913
9.76,1.0,-17.52400579892926
9.768,1.0,-18.14800406308876
9.776,0.9999999999999999,-18.771559897864538
9.784,1.0,-19.394657127505358
9.792,1.0,-20.017279679932948
9.8,1.0,-20.63941159003149
9.808,0.9999999999999998,-21.261037002879245
9.816,1.0,-21.88214017692556
9.824,1.0,-22.502705487107285
9.832,0.9999996899529812,-23.12271742790788
9.84,0.9999993401319062,-23.742160616353402
9.847999999999999,0.9999989942591906,-24.36101979494857
9.856,0.9999986524850627,-24.97927983454829
9.864,0.9999983149569653,-25.596925737165037
9.872,0.9999979818194662,-26.213942638711615
9.879999999999999,0.999997653214172,-26.830315811677632
9.888,0.9999973292796435,-27.446030667738338
