freq,mag,phase
6.0,0.9999873141268789,-139.62351874234716
6.008,0.9999830018905538,-140.0494872764613
6.016,0.9999788602317234,-140.47530559645986
6.024,0.9999748857874275,-140.90097418626607
6.032,0.9999710752303714,-141.32649354054342
6.04,0.9999674252688501,-141.75186416459954
6.048,0.9999639326466796,-142.17708657429017
6.056,0.9999605941431102,-142.60216129592334
6.064,0.9999574065727509,-143.0270888661632
6.072,0.9999543667854799,-143.4518698319344
6.08,0.9999514716663525,-143.87650475032595
6.088,0.9999487181355121,-144.30099418849593
6.096,0.9999461031480857,-144.72533872357556
6.104,0.9999436236940902,-145.14953894257383
6.112,0.9999412767983222,-145.57359544228203
6.12,0.9999390595202529,-145.99750882917854
6.128,0.9999369689539133,-146.4212797193336
6.136,0.9999350022277844,-146.84490873831447
6.144,0.9999331565046736,-147.26839652109015
6.152,0.9999314289815988,-147.69174371193714
6.16,0.9999298168896591,-148.1149509643445
6.168,0.999928317493912,-148.53801894091967
6.176,0.99992692809324,-148.96094831329407
6.184,0.9999256460202166,-149.38373976202914
6.192,0.9999244686409722,-149.80639397652257
6.2,0.9999233933550552,-150.2289116549143
6.208,0.9999224175952905,-150.65129350399346
6.216,0.9999215388276306,-151.07354023910472
6.224,0.9999207545510126,-151.49565258405548
6.232,0.9999200622972104,-151.91763127102303
6.24,0.9999194596306762,-152.33947704046156
6.248,0.9999189441483919,-152.76119064101042
6.256,0.9999185134797085,-153.1827728294013
6.264,0.999918165286187,-153.60422437036667
6.272,0.9999178972614375,-154.0255460365482
6.28,0.9999177071309565,-154.44673860840507
6.288,0.9999175926519589,-154.8678028741228
6.296,0.9999175516132086,-155.28873962952264
6.304,0.9999175818348519,-155.70954967797067
6.312,0.9999176811682395,-156.13023383028755
6.32,0.9999178474957626,-156.55079290465824
6.328,0.9999180787306624,-156.9712277265424
6.336,0.9999183728168642,-157.3915391285848
6.344,0.9999187277287923,-157.811727950526
6.352,0.9999191414711863,-158.2317950391134
6.36,0.9999196120789254,-158.65174124801246
6.368,0.9999201376168333,-159.07156743771867
6.376,0.9999207161795026,-159.491274475469
6.384,0.9999213458910956,-159.9108632351546
6.392,0.9999220249051656,-160.33033459723305
6.4,0.9999227514044572,-160.7496894486412
6.408,0.9999235236007167,-161.16892868270844
6.416,0.9999243397345038,-161.5880531990701
6.424,0.999925198074988,-162.00706390358138
6.432,0.9999260969197559,-162.42596170823126
6.44,0.9999270345946153,-162.8447475310571
6.448,0.9999280094533949,-163.26342229605925
6.456,0.9999290198777454,-163.68198693311635
6.464,0.9999300642769348,-164.10044237790055
6.472,0.999931141087655,-164.51878957179335
6.48,0.9999322487738089,-164.93702946180176
6.4879999999999995,0.9999333858263146,-165.35516300047442
6.496,0.9999345507628955,-165.77319114581897
6.504,0.9999357421278766,-166.1911148612183
6.5120000000000005,0.9999369584919816,-166.60893511534886
6.52,0.9999381984521164,-167.0266528820977
6.5280000000000005,0.9999394606311731,-167.4442691404812
6.536,0.9999407436778117,-167.861784874563
6.5440000000000005,0.9999420462662557,-168.27920107337334
6.552,0.9999433670960813,-168.69651873082762
6.5600000000000005,0.9999447048920074,-169.11373884564662
6.568,0.9999460584036842,-169.53086242127563
6.5760000000000005,0.9999474264054805,-169.94789046580524
6.584,0.9999488076962735,-170.36482399189134
6.592,0.9999502010992357,-170.78166401667679
6.6,0.9999516054616223,-171.1984115617118
6.608,0.9999530196545587,-171.61506765287604
6.616,0.999954442572826,-172.03163332030059
6.624,0.9999558731346478,-172.44810959829002
6.632,0.9999573102814762,-172.86449752524518
6.64,0.9999587529777767,-173.28079814358628
6.648,0.9999602002108157,-173.69701249967605
6.656,0.9999616509904445,-174.11314164374355
6.664,0.9999631043488846,-174.5291866298083
6.672,0.9999645593405132,-174.94514851560447
6.68,0.9999660150416498,-175.361028362506
6.688,0.9999674705503395,-175.77682723545126
6.696,0.9999689249861365,-176.19254620286875
6.704,0.9999703774898951,-176.608186336603
6.712,0.9999718272235467,-177.0237487118405
6.72,0.999973273369894,-177.43923440703634
6.728,0.9999747151323883,-177.8546445038409
6.736,0.9999761517349215,-178.26998008702725
6.744,0.9999775824216064,-178.68524224441856
6.752,0.9999790064565661,-179.10043206681596
6.76,0.9999804231237207,-179.51555064792677
6.768,0.999981831726569,-179.9305990842931
6.776,0.9999832315879797,179.65442152477928
6.784,0.9999846220499775,179.23951007729167
6.792,0.9999860024735279,178.8246654686229
6.8,0.9999873722383266,178.40988659159945
6.808,0.9999887307425879,177.99517233656508
6.816,0.9999900774028314,177.58052159145035
6.824,0.999991411653672,177.16593324184174
6.832,0.9999927329476082,176.7514061710503
6.84,0.9999940407548117,176.33693926018006
6.848,0.9999953345629181,175.92253138819632
6.856,0.9999966138768168,175.50818143199314
6.864,0.9999978782184418,175.09388826646108
6.872,0.9999991271265645,174.67965076455403
6.88,1.0,174.26546779735622
6.888,1.0,173.85133823414873
6.896,0.9999999999999999,173.4372609424754
6.904,0.9999999999999999,173.02323478820898
6.912,0.9999999999999998,172.60925863561653
6.92,0.9999999999999999,172.19533134742449
6.928,1.0,171.78145178488393
6.936,1.0,171.36761880783493
6.944,1.0,170.95383127477083
6.952,1.0,170.5400880429024
6.96,1.0,170.12638796822145
6.968,1.0,169.71272990556417
6.976,1.0,169.2991127086744
6.984,0.9999999999999999,168.88553523026607
6.992,1.0,168.47199632208623
7.0,1.0,168.0584948349768
7.008,1.0,167.64502961893666
7.016,0.9999999999999998,167.23159952318346
7.024,1.0,166.8182033962146
7.032,1.0,166.4048400858687
7.04,1.0,165.99150843938608
7.048,0.9999999999999999,165.5782073034695
7.056,1.0,165.16493552434417
7.064,1.0,164.75169194781793
7.072,0.9999999999999999,164.33847541934085
7.08,1.0,163.9252847840646
7.088,1.0,163.51211888690167
7.096,1.0,163.09897657258432
7.104,1.0,162.68585668572308
7.112,0.9999999999999999,162.27275807086517
7.12,1.0,161.85967957255266
7.128,1.0,161.4466200353804
7.136,1.0,161.03357830405332
7.144,1.0,160.62055322344418
7.152,1.0,160.20754363865044
7.16,0.9999999999999999,159.79454839505115
7.168,1.0,159.3815663383637
7.176,0.9999999999999998,158.96859631470002
7.184,1.0,158.55563717062293
7.192,0.9999999999999999,158.1426877532018
7.2,1.0,157.7297469100685
7.208,1.0,157.3168134894727
7.216,1.0,156.90388634033707
7.224,1.0,156.49096431231234
7.232,1.0,156.07804625583202
7.24,0.9999999999999999,155.66513102216695
7.248,1.0,155.25221746347975
7.256,1.0,154.83930443287875
7.264,0.9999999999999999,154.42639078447203
7.272,1.0,154.0134753734211
7.28,1.0,153.60055705599422
7.288,1.0,153.18763468961995
7.296,1.0,152.77470713293988
7.304,1.0,152.36177324586188
7.312,0.9999999999999999,151.9488318896125
7.32,0.9999999999999999,151.53588192678947
7.328,0.9999999999999999,151.12292222141411
7.336,0.9999999999999999,150.70995163898323
7.344,0.9999999999999998,150.29696904652118
7.352,0.9999999999999999,149.88397331263147
7.36,0.9999999999999999,149.47096330754835
7.368,1.0,149.05793790318802
7.376,1.0,148.64489597319994
7.384,0.9999999999999999,148.23183639301772
7.392,1.0,147.81875803990988
7.4,1.0,147.4056597930305
7.4079999999999995,0.9999999999999999,146.99254053346988
7.416,1.0,146.57939914430423
7.4239999999999995,1.0,146.1662345106466
7.432,1.0000000000000002,145.75304551969603
7.4399999999999995,1.0,145.33983106078801
7.448,1.0,144.92659002544337
7.4559999999999995,1.0,144.51332130741847
7.464,1.0,144.10002380275395
7.4719999999999995,1.0,143.68669640982418
7.48,0.9999999999999999,143.27333802938597
7.4879999999999995,1.0,142.85994756462782
7.496,0.9999999999999999,142.44652392121796
7.504,1.0,142.0330660073536
7.5120000000000005,1.0,141.61957273380867
7.52,1.0,141.2060430139826
7.5280000000000005,1.0,140.79247576394783
7.536,1.0,140.37886990249848
7.5440000000000005,0.9999999999999999,139.9652243511973
7.552,0.9999999999999999,139.55153803442417
7.5600000000000005,1.0,139.13780987942295
7.568,0.9999999999999999,138.72403881634952
7.5760000000000005,1.0,138.31022377831823
7.584,0.9999999999999999,137.89636370144999
7.5920000000000005,0.9999999999999998,137.48245752491832
7.6,1.0,137.06850419099703
7.6080000000000005,0.9999999999999999,136.65450264510628
7.616,1.0,136.24045183585986
7.6240000000000006,0.9999999999999998,135.82635071511086
7.632,0.9999999999999999,135.41219823799904
7.640000000000001,1.0,134.997993362996
7.648,1.0,134.58373505195226
7.656000000000001,0.9999999999999998,134.1694222701425
7.664,1.0,133.75505398631196
7.672,1.0,133.34062917272195
7.68,1.0,132.9261468051955
7.688,0.9999999999999999,132.511605863163
7.696,0.9999999999999999,132.0970053297076
7.704,1.0,131.6823441916103
7.712,1.0,131.2676214393955
7.72,0.9999999999999998,130.85283606737576
7.728,1.0,130.43798707369697
7.736,1.0,130.02307346038313
7.744,0.9999999999999999,129.60809423338097
7.752,1.0,129.19304840260486
7.76,0.9999999999999999,128.7779349819812
7.768,1.0,128.36275298949278
7.776,1.0,127.94750144722319
7.784,0.9999999999999999,127.53217938140106
7.792,0.9999999999999999,127.11678582244409
7.8,1.0,126.70131980500305
7.808,1.0,126.28578036800582
7.816,1.0,125.87016655470103
7.824,1.0,125.45447741270185
7.832,0.9999999999999999,125.03871199402951
7.84,1.0,124.6228693551569
7.848,0.9999999999999999,124.20694855705179
7.856,1.0,123.79094866522036
7.864,1.0,123.37486874975014
7.872,1.0,122.95870788535323
7.88,1.0,122.5424651514093
7.888,1.0,122.12613963200836
7.896,0.9999999999999999,121.70973041599369
7.904,1.0,121.29323659700432
7.912,1.0,120.87665727351785
7.92,0.9999999999999998,120.45999154889273
7.928,1.0,120.04323853141078
7.936,1.0,119.6263973343193
7.944,1.0,119.20946707587339
7.952,0.9999999868797992,118.79244687937799
7.96,0.9999993012581255,118.37533587322977
7.968,0.9999986183287485,117.95813319095909
7.976,0.9999979383688268,117.54083797127163
7.984,0.9999972616529768,117.12344935809023
7.992,0.9999965884532153,116.70596650059625
8.0,0.999995919038898,116.28838855327118
8.008,0.9999952536766656,115.8707146759379
8.016,0.9999945926303844,115.45294403380174
8.024000000000001,0.999993936161093,115.03507579749201
8.032,0.9999932845269468,114.61710914310277
8.04,0.9999926379831655,114.19904325223358
8.048,0.9999919967819823,113.78087731203048
8.056000000000001,0.9999913611725909,113.36261051522683
8.064,0.999990731401098,112.94424206018373
8.072,0.9999901077104727,112.52577115093028
8.08,0.9999894903405007,112.1071969972041
8.088000000000001,0.9999888795277371,111.68851881449177
8.096,0.9999882755054598,111.26973582406882
8.104,0.999987678503628,110.85084725303936
8.112,0.9999870887488372,110.43185233437634
8.120000000000001,0.9999865064642769,110.01275030696138
8.128,0.9999859318696908,109.59354041562428
8.136,0.9999853651813355,109.17422191118227
8.144,0.9999848066119428,108.75479405047969
8.152000000000001,0.9999842563706813,108.33525609642734
8.16,0.9999837146631203,107.9156073180415
8.168,0.9999831816911928,107.49584699048268
8.176,0.9999826576531627,107.07597439509476
8.184000000000001,0.9999821427435898,106.65598881944383
8.192,0.9999816371532975,106.23588955735669
8.2,0.9999811410693424,105.81567590895907
8.208,0.9999806546749833,105.39534718071417
8.216000000000001,0.9999801781496511,104.97490268546103
8.224,0.9999797116689224,104.55434174245244
8.232,0.99997925540449,104.13366367739256
8.24,0.9999788095241381,103.71286782247495
8.248000000000001,0.9999783741917172,103.29195351642028
8.256,0.999977949567119,102.8709201045137
8.264,0.9999775358062546,102.44976693864187
8.272,0.9999771330610312,102.02849337733035
8.280000000000001,0.999976741479331,101.60709878578074
8.288,0.9999763612049931,101.1855825359073
8.296,0.9999759923777918,100.76394400637352
8.304,0.9999756351334197,100.34218258262871
8.312,0.9999752896034719,99.92029765694467
8.32,0.9999749559154282,99.49828862845119
8.328,0.9999746341926388,99.07615490317271
8.336,0.99997432455431,98.65389589406354
8.344,0.9999740271154924,98.23151102104411
8.352,0.9999737419870666,97.80899971103574
8.36,0.9999734692757344,97.38636139799661
8.368,0.999973209084008,96.96359552295611
8.376,0.9999729615101995,96.54070153405057
8.384,0.9999727266484155,96.11767888655707
8.392,0.9999725045885478,95.69452704292874
8.4,0.9999722954162674,95.27124547282835
8.408,0.9999720992130212,94.84783365316319
8.416,0.9999719160560246,94.42429106811812
8.424,0.9999717460182616,94.00061720919004
8.432,0.9999715891684796,93.57681157522067
8.44,0.99997144557119,93.15287367243053
8.448,0.9999713152866664,92.72880301445123
8.456,0.9999711983709462,92.304599122359
8.464,0.999971094875831,91.88026152470661
8.472,0.9999710048488892,91.45578975755649
8.48,0.9999709283334602,91.03118336451199
8.488,0.9999708653686572,90.60644189675021
8.496,0.9999708159893734,90.18156491305281
8.504,0.9999707802262862,89.75655197983812
8.512,0.9999707581058678,89.33140267119173
8.52,0.9999707496503885,88.90611656889797
8.528,0.9999707548779282,88.48069326247
8.536,0.9999707738023861,88.05513234918084
8.544,0.999970806433489,87.62943343409283
8.552,0.9999708527768054,87.20359613008826
8.56,0.9999709128337557,86.77762005789818
8.568,0.9999709866016263,86.35150484613261
8.576,0.9999710740735827,85.92525013130867
8.584,0.9999711752386856,85.49885555788032
8.592,0.9999712900819056,85.07232077826593
8.6,0.9999714185841397,84.64564545287732
8.608,0.9999715607222295,84.2188292501469
8.616,0.9999717164689786,83.79187184655608
8.624,0.9999718857931718,83.36477292666174
8.632,0.9999720686595945,82.93753218312408
8.64,0.9999722650290558,82.51014931673254
8.648,0.9999724748584058,82.08262403643286
8.656,0.9999726981005618,81.65495605935254
8.664,0.9999729347045289,81.22714511082717
8.672,0.9999731846154251,80.79919092442519
8.68,0.9999734477745061,80.37109324197372
8.688,0.9999737241191898,79.9428518135825
8.696,0.9999740135830828,79.51446639766908
8.704,0.9999743160960085,79.08593676098214
8.712,0.9999746315840333,78.65726267862593
8.72,0.9999749599694961,78.22844393408283
8.728,0.9999753011710373,77.79948031923722
8.736,0.9999756551036286,77.37037163439724
8.744,0.9999760216786043,76.94111768831785
8.752,0.9999764008036919,76.51171829822196
8.76,0.999976792383046,76.08217328982275
8.768,0.999977196317278,75.65248249734397
8.776,0.9999776125034934,75.22264576354152
8.784,0.9999780408353238,74.79266293972297
8.792,0.9999784812029621,74.3625338857684
8.8,0.9999789334931994,73.93225847014901
8.808,0.9999793975894601,73.50183656994729
8.815999999999999,0.9999798733718389,73.07126807087484
8.824,0.9999803607171402,72.64055286729119
8.832,0.9999808594989136,72.20969086222179
8.84,0.9999813695874952,71.77868196737542
8.847999999999999,0.9999818908500466,71.34752610316087
8.856,0.9999824231505948,70.916223198704
8.864,0.9999829663500729,70.48477319186392
8.872,0.9999835203063623,70.05317602924866
8.879999999999999,0.9999840848743339,69.62143166623024
8.888,0.999984659905892,69.18954006695975
8.896,0.9999852452500158,68.75750120438187
8.904,0.9999858407528045,68.32531506024864
8.911999999999999,0.9999864462575215,67.89298162513278
8.92,0.9999870616046395,67.46050089844078
8.928,0.999987686631885,67.0278728884257
8.936,0.9999883211742853,66.59509761219897
8.943999999999999,0.9999889650642148,66.16217509574174
8.952,0.999989618131442,65.7291053739162
8.96,0.9999902802031769,65.29588849047617
8.968,0.9999909511041204,64.86252449807726
8.975999999999999,0.9999916306565099,64.42901345828597
8.984,0.9999923186801724,63.99535544158908
8.992,0.9999930149925702,63.56155052740236
9.0,0.999993719408854,63.127598804078396
9.008,0.999994431741911,62.69350036891387
9.016,0.9999951518024174,62.25925532815677
9.024000000000001,0.9999958793988882,61.82486379701305
9.032,0.9999966143377317,61.39032589965224
9.04,0.9999973564232978,60.95564176921274
9.048,0.9999981054579339,60.520811547806744
9.056000000000001,0.9999988612420361,60.08583538652476
9.064,0.9999996235741029,59.65071344543906
9.072,0.9999999999999999,59.2154458936068
9.08,1.0,58.78003290907261
9.088000000000001,0.9999999999999999,58.34447467887097
9.096,1.0,57.90877139902732
9.104,0.9999999999999999,57.47292327455899
9.112,0.9999999999999999,57.036930519475376
9.120000000000001,1.0,56.60079335677813
9.128,1.0,56.16451201845994
9.136,0.9999999999999998,55.72808674550288
9.144,0.9999999999999999,55.29151778787659
9.152000000000001,1.0,54.854805404535796
9.16,0.9999999999999999,54.41794986341675
9.168,1.0,53.98095144143335
9.176,0.9999999999999998,53.5438104244726
9.184000000000001,1.0,53.10652710738993
9.192,1.0,52.66910179400308
9.2,0.9999999999999999,52.23153479708568
9.208,0.9999999999999999,51.793826438360405
9.216000000000001,1.0,51.35597704849153
9.224,1.0,50.917986967076565
9.232,1.0,50.47985654263709
9.24,1.0,50.04158613260944
9.248000000000001,1.0,49.60317610333475
9.256,0.9999999999999999,49.164626830047894
9.264,1.0,48.72593869686582
9.272,1.0,48.28711209677562
9.280000000000001,0.9999999999999998,47.84814743162194
9.288,1.0,47.409045112093224
9.296,0.9999999999999999,46.96980555770757
9.304,1.0,46.530429196797975
9.312000000000001,1.0,46.090916466497134
9.32,1.0,45.65126781272106
9.328,1.0,45.21148369015214
9.336,1.0,44.771564562221826
9.344,1.0,44.331510901092614
9.352,1.0,43.891323187638704
9.36,1.0,43.45100191142708
9.368,1.0,43.010547570696495
9.376,1.0,42.56996067233741
9.384,1.0,42.129241731869485
9.392,0.9999999999999999,41.688391273420045
9.4,0.9999999999999999,41.2474098297004
9.408,1.0,40.80629794198271
9.416,1.0,40.36505616007485
9.424,0.9999999999999998,39.92368504229614
9.432,1.0,39.482185155450615
9.44,1.0,39.04055707480133
9.448,1.0,38.59880138404224
9.456,0.9999999999999999,38.156918675271065
9.464,0.9999999999999999,37.714909548959916
9.472,1.0,37.27277461392649
9.48,1.0,36.830514487303326
9.488,0.9999999999999998,36.388129794507705
9.496,1.0,35.945621169209396
9.504,0.9999999999999999,35.502989253299035
9.512,1.0,35.06023469685455
9.52,1.0,34.617358158108104
9.528,0.9999999999999999,34.174360303410914
9.536,0.9999999999999999,33.73124180719903
9.544,1.0,33.28800335195653
9.552,1.0,32.84464562817982
9.56,0.9999999999999999,32.401169334339535
9.568,1.0,31.957575176843314
9.576,1.0,31.513863869996232
9.584,1.0000000000000002,31.0700361359622
9.592,1.0,30.62609270472298
9.6,0.9999999999999999,30.18203431403801
9.608,0.9999999999999999,29.737861709402072
9.616,1.0,29.293575644003734
9.624,1.0,28.849176878681483
9.632,1.0,28.40466618188079
9.64,0.9999999999999999,27.960044329608774
9.648,1.0,27.515312105389828
9.656,0.9999999999999999,27.07047030021892
9.664,1.0,26.62551971251574
9.672,0.9999999999999999,26.180461148076596
9.68,1.0,25.73529542002711
9.688,1.0,25.290023348772788
9.696,1.0000000000000002,24.844645761950172
9.704,0.9999999999999999,24.399163494376076
9.712,1.0,23.95357738799736
9.72,1.0,23.507888291838693
9.728,0.9999999999999999,23.062097061950993
9.736,0.9999999999999999,22.616204561357762
9.744,1.0,22.17021166000215
9.752,1.0,21.7241192346919
9.76,1.0,21.277928169045044
9.768,1.0,20.83163935343348
9.776,1.0,20.385253684927328
9.784,0.9999999999999999,19.93877206723705
9.792,1.0,19.492195410656567
9.8,1.0,19.04552463200402
9.808,0.9999999999999999,18.59876065456346
9.816,1.0,18.151904408024382
9.824,1.0,17.704956828422038
9.832,1.0,17.257918858075605
9.84,0.9999999999999999,16.81079144552732
9.847999999999999,1.0000000000000002,16.36357554547936
9.856,0.9999999999999999,15.916272118731179
9.864,1.0,15.468882132116025
9.872,0.9999999999999999,15.021406558436508
9.879999999999999,0.9999999999999999,14.573846376399475
9.888,1.0,14.126202570550653
9.896,0.9999999999999999,13.678476131208724
9.904,0.9999999999999999,13.230668054398354
9.911999999999999,0.9999999999999998,12.782779341782591
9.92,1.0,12.334811000595105
9.928,1.0,11.886764043571773
9.936,1.0,11.43863948888132
9.943999999999999,1.0,10.990438360055357
9.952,0.9999999999999998,10.542161685918199
9.96,1.0,10.093810500516144
9.968,1.0,9.645385843045792
9.975999999999999,1.0,9.196888757781753
9.984,1.0,8.748320294004222
9.992,0.9999999999999999,8.299681505926003
