freq,mag,phase
6.0,1.0000488990942034,-130.9121354969522
6.035555328,1.000052727528396,-132.8426164412134
6.071111168,1.0000561308622218,-134.77240658810308
6.106666496,1.0000588009760951,-136.70154004858583
6.142222336,1.0000605985135125,-138.62996384118895
6.177777664,1.0000616142722272,-140.55759812760158
6.213333504,1.000061697888773,-142.48443863994856
6.248888832,1.0000609403885623,-144.41042320851176
6.284444672,1.0000592891129552,-146.3354763191818
6.32,1.0000568667670873,-148.25960425669584
6.355555328,1.0000536389079877,-150.18271360941964
6.391111168,1.0000496208948744,-152.10480531214893
6.426666496,1.0000447997219726,-154.02577051860993
6.462222336,1.0000394800564436,-155.94568056357994
6.497777664,1.0000335885081835,-157.86440834453737
6.533333504,1.000027233665092,-159.7819094492029
6.568888832,1.0000204763807221,-161.6981785875075
6.604444672,1.0000134476224072,-163.61319892502217
6.64,1.0000063366346277,-165.52689423954192
6.675555328,0.9999991159644375,-167.43924788065002
6.711111168,0.9999920685112561,-169.35025129275175
6.746666496,0.9999850852870447,-171.25981082610969
6.782222336,0.999978412825732,-173.1679670948798
6.817777664,0.9999721512604255,-175.07468715184572
6.853333504,0.9999664219562511,-176.97991402720126
6.888888832,0.9999612137952153,-178.88365536507897
6.924444672,0.9999567288277772,179.21413465495004
6.96,0.9999529566311919,177.3134598122337
6.995555328,0.9999500324566492,175.4143764266632
7.031111168,0.9999480247662024,173.51684902939448
7.066666496,0.9999468510029442,171.62091531004117
7.102222336,0.9999465599660972,169.72659038605872
7.137777664,0.9999472096024914,167.8339057512032
7.173333504,0.9999488853961529,165.9428421678435
7.208888832,0.9999514156510605,164.05344536746506
7.244444672,0.9999547579750638,162.16569148339138
7.28,0.9999590710265656,160.2796136248202
7.315555328,0.9999640595636375,158.3952199040848
7.351111168,0.9999697370023591,156.51251341604402
7.386666496,0.9999760360211467,154.63151473386685
7.422222336,0.9999829498848113,152.75221305522948
7.457777664,0.9999901293606754,150.8746276102599
7.493333504,0.9999977153815391,148.99876605322999
7.528888832,1.0000054045708109,147.1246545116862
7.564444672,1.0000132010361915,145.25228199541152
7.6,1.0000209401335263,143.38166810515347
7.635555328,1.0000284404578736,141.51283029933776
7.671111168,1.0000357175972465,139.6457197378503
7.706666496,1.0000425834130129,137.78042067407213
7.742222336,1.0000488421153402,135.9169102031155
7.777777664,1.000054484587904,134.05516763636174
7.813333504,1.0000593370975275,132.19524238939437
7.848888832,1.000063500973066,130.33713838332352
7.884444672,1.0000668330227604,128.4808490786865
7.92,1.000069103630436,126.62636080726597
7.955555328,1.000070432735861,124.77374164882976
7.991111168,1.0000708155687612,122.922935907119
8.026666496,1.0000700591678005,121.07400386846295
8.062222336,1.0000683961541563,119.22688789809493
8.097777664,1.000065621679376,117.38163566755848
8.133333504,1.000061992374149,115.53823812067462
8.168888832,1.0000574407343445,113.69669940408302
8.204444672,1.000052036652218,111.85703193754031
8.24,1.0000458229764115,110.01920645269121
8.275555328,1.0000389807768886,108.18324846733668
8.311111168,1.0000316166107464,106.3491550369957
8.346666496,1.0000237344411391,104.51688400202204
8.382222336,1.0000154693987031,102.68646209957015
8.417777664,1.000007071198684,100.85787438314468
8.453333504,0.9999986188406004,99.03109378641223
8.488888832,0.999990231523317,97.20615674745028
8.524444672,0.9999820562178837,95.38300469829845
8.56,0.9999741753255514,93.561645945366
8.595555328,0.9999666640725798,91.74203386166648
8.631110656,0.9999597478445162,89.92420113699463
8.666667008,0.9999536406549836,88.10807227757385
8.702222336,0.9999483137344737,86.29367927591352
8.737777664,0.9999438272679003,84.48097113704834
8.773332992,0.9999402701829726,82.6699218897386
8.808889344,0.9999377973675396,80.86049700705911
8.844444672,0.9999363300781983,79.05271756397157
8.88,0.9999359605934713,77.24650504313455
8.915555328,0.9999368071789224,75.44187376559144
8.951110656,0.9999387871078482,73.63877028427952
8.986667008,0.9999417376318686,71.83716304463888
9.022222336,0.9999458045970229,70.037042978081
9.057777664,0.9999508302535963,68.23836902142409
9.093332992,0.9999568065314635,66.44112264168699
9.128889344,0.9999636642100223,64.6452571756585
9.164444672,0.999971183917182,62.85076295538446
9.2,0.9999792806347814,61.05762065892798
9.235555328,0.9999880034883194,59.26575350961892
9.271110656,0.9999970421714551,57.47519054610143
9.306667008,1.000006208725668,55.685872774188844
9.342222336,1.000015517610789,53.89778500960922
9.377777664,1.0000246743797998,52.11090434259083
9.413332992,1.0000337128332932,50.325210245677596
9.448889344,1.0000423585212668,48.54065249699767
9.484444672,1.0000504190045647,46.75724610389408
9.52,1.0000579040157291,44.97494027665317
9.555555328,1.0000645596698414,43.19372252623217
9.591110656,1.0000703872249574,41.41355431888625
9.626667008,1.0000751145638107,39.63445662949569
9.662222336,1.0000788189451741,37.856365832085764
9.697777664,1.0000814043012518,36.07928855877744
9.733332992,1.0000828249107436,34.303189990175945
9.768889344,1.0000829583859452,32.52806974536153
9.804444672,1.0000818791267443,30.75387058444377
9.84,1.0000795237949442,28.980614583398136
9.875555328,1.000075996550161,27.208243673612724
9.911110656,1.0000712807004075,25.43677688516127
9.946667008,1.0000655211973273,23.66615257508855
9.982222336,1.0000587614963181,21.896392040019297
10.017777664,1.000051042892822,20.127430944798757
10.053332992,1.0000426156416098,18.359258490007353
10.088889344,1.0000333425698156,16.591856647626027
10.124444672,1.0000236762518395,14.825190905262897
10.16,1.000013598581124,13.059246529719754
10.195555328,1.0000032677565478,11.293980297752029
10.231110656,0.9999929771909897,9.529386193606442
10.266667008,0.99998279201501,7.7654110389841575
10.302222336,0.9999727949460112,6.0020165443461915
10.337777664,0.999963339550231,4.2391745717807
10.373332992,0.999954416770302,2.476856204563194
10.408889344,0.9999462587875277,0.7150322233509626
10.444444672,0.9999389887350758,-1.046343584414268
10.48,0.9999327120605914,-2.807314158751643
10.515555328,0.9999276266164085,-4.567916379671194
10.551110656,0.9999236957503777,-6.328172931865405
10.586667008,0.9999211055169099,-8.088146205839932
10.622222336,0.9999198044949645,-9.847887996368842
10.657777664,0.9999199042671622,-11.607423863279902
10.693332992,0.9999213770445903,-13.366783685360033
10.728889344,0.9999242595151094,-15.126029117139474
10.764444672,0.999928425025024,-16.885192861862073
10.8,0.9999340080706725,-18.644321772993692
10.835555328,0.9999407011329902,-20.403477180790198
10.871110656,0.9999484271699917,-22.162654651844456
10.906667008,0.9999572415426231,-23.921909820248505
10.942222336,0.999967022637794,-25.681307733210144
10.977777664,0.9999773897919869,-27.440874580495805
11.013332992,0.9999883471426041,-29.20062009669514
11.048889344,0.9999997211428922,-30.960630150598238
11.084444672,1.000011266266124,-32.72088753639815
11.12,1.000022808348758,-34.48145223710972
11.155555328,1.0000342456191382,-36.24235085727839
11.191110656,1.000045263616001,-38.00364429241013
11.226667008,1.0000557987181322,-39.765299245621335
11.262222336,1.0000656977788922,-41.527380935596945
11.297777664,1.0000746269463148,-43.28991588692378
11.333332992,1.000082511513437,-45.052919198679966
11.368889344,1.0000893368117663,-46.81640575996248
11.404444672,1.0000948033175485,-48.580425791839
11.44,1.0000989634624449,-50.34498530456117
11.475555328,1.0001014725129749,-52.110087809742716
11.511110656,1.000102615491229,-53.875788115313384
11.546667008,1.000102269592252,-55.64206497394242
11.582222336,1.0001001959351439,-57.408975741494125
11.617777664,1.0000966376686593,-59.17651774296688
11.653332992,1.0000916580597758,-60.944709006329525
11.688889344,1.0000850926532159,-62.713562129593015
11.724444672,1.0000772016686412,-64.48309944281024
11.76,1.000068144875719,-66.25336762468011
11.795555328,1.000057916604881,-68.02434579141911
11.831110656,1.0000468334995969,-69.79607841262239
11.866667008,1.0000348745967444,-71.56858626269413
11.902222336,1.0000224236706314,-73.34188034175764
11.937777664,1.0000094683382754,-75.11598938103774
11.973332992,0.9999963075643644,-76.89093467640494
12.008889344,0.999983229427536,-78.66674090173055
12.044444672,0.999970239780465,-80.44344682526066
12.08,0.999957772827809,-82.22107549442573
12.115555328,0.9999459580495994,-83.99964228157909
12.151110656,0.9999349230733591,-85.77918198635095
12.186667008,0.9999249555894352,-87.55975339040468
12.222222336,0.9999161625054608,-89.34135041532309
12.257777664,0.9999086296783398,-91.12402329752614
12.293332992,0.9999025609767838,-92.907801327597
12.328889344,0.9998982126753468,-94.69273099463518
12.364444672,0.9998954316634281,-96.47883229642663
12.4,0.9998944166830428,-98.26614652010636
12.435555328,0.9998951700352975,-100.05471513604068
12.471110656,0.999897696213623,-101.84455279871628
12.506667008,0.9999019206821961,-103.63570416238237
12.542222336,0.9999079514213495,-105.42821791225575
12.577777664,0.9999155440491563,-107.22210249440617
12.613332992,0.9999247134155741,-109.0173969169211
12.648889344,0.9999352639136737,-110.81414295215454
12.684444672,0.9999470452891734,-112.61235002848356
12.72,0.9999600021983618,-114.41207041139286
12.755555328,0.9999737311216724,-116.2132941511596
12.791110656,0.9999882655758069,-118.01608427027193
12.826667008,1.00000312632708,-119.82042312678288
12.862222336,1.000018240097111,-121.62636214188262
12.897777664,1.0000333269883461,-123.43391692197875
12.933332992,1.000048223792201,-125.24307350835089
12.968889344,1.0000625902087352,-127.05386715484485
13.004444672,1.0000762037929856,-128.86630164298302
13.04,1.000088949507448,-130.68037394804028
13.075555328,1.0001005010783455,-132.49611436145776
13.111110656,1.0001105856406123,-134.31350938688456
13.146667008,1.000119289045953,-136.13255736733646
13.182222336,1.000126275450492,-137.95326804931886
13.217777664,1.0001313023954215,-139.7756258667004
13.253332992,1.0001345765906722,-141.59963800144808
13.288889344,1.0001357622301084,-143.42530534004663
13.324444672,1.0001349544300369,-145.25260304888928
13.36,1.0001320609645652,-147.08154063994817
13.395555328,1.000127063570531,-148.91209181861163
13.431110656,1.0001201212865278,-150.74425386533233
13.466667008,1.0001112667349927,-152.5780312838683
13.502222336,1.0001006889075506,-154.4134103203686
13.537777664,1.0000884104755352,-156.25036410448826
13.573332992,1.0000745938382631,-158.08890261572225
13.608889344,1.000059592785018,-159.9290155840094
13.644444672,1.0000434896030628,-161.7706722837741
13.68,1.0000264943345267,-163.61390106399023
13.715555328,1.0000089957644018,-165.45865899797687
13.751110656,0.99999113126179,-167.30496245707818
13.786667008,0.9999733263802669,-169.152827608691
13.822222336,0.9999556387826453,-171.00219357148742
13.857777664,0.9999384541257744,-172.8531080985196
13.893332992,0.9999221356424041,-174.70556477733084
13.928889344,0.9999068757340738,-176.5595479295726
13.964444672,0.9998929401871581,-178.4150738489958
14.0,0.9998805044146786,179.72787973784315
