freq,mag,phase
6.0,0.9999908287418269,-169.630215967544
6.008,0.999992924681476,-170.1029823716328
6.016,0.9999949420272947,-170.57558004042252
6.024,0.9999968822005799,-171.04800980998473
6.032,0.9999987466102085,-171.52027253579493
6.04,1.0,-171.9923690925217
6.048,1.0,-172.46430037381583
6.056,1.0,-172.93606729209958
6.064,0.9999999999999999,-173.40767077835582
6.072,1.0,-173.87911178191723
6.08,0.9999999999999999,-174.3503912702556
6.088,1.0,-174.8215102287712
6.096,1.0,-175.29246966058216
6.104,1.0,-175.76327058631418
6.112,1.0,-176.23391404389025
6.12,0.9999999999999999,-176.70440108832074
6.128,0.9999999999999999,-177.17473279149343
6.136,0.9999999999999999,-177.6449102419639
6.144,1.0,-178.11493454474655
6.152,1.0,-178.58480682110513
6.16,0.9999999999999999,-179.05452820834427
6.168,0.9999999999999999,-179.5240998596011
6.176,0.9999999999999999,-179.99352294363703
6.184,1.0,179.5372013553697
6.192,1.0,179.06807183803153
6.2,1.0,178.59908728995828
6.208,1.0,178.13024648196375
6.216,0.9999999999999999,177.66154817027157
6.224,1.0,177.19299109672087
6.232,1.0,176.72457398897126
6.24,0.9999999999999999,176.25629556070737
6.248,0.9999999999999999,175.78815451184315
6.256,0.9999999999999999,175.3201495287248
6.264,1.0,174.85227928433446
6.272,1.0,174.384542438492
6.28,1.0,173.91693763805716
6.288,0.9999999999999999,173.4494635171308
6.296,0.9999999999999999,172.98211869725537
6.304,0.9999999999999999,172.51490178761495
6.312,1.0,172.04781138523478
6.32,0.9999999999999999,171.5808460751798
6.328,1.0,171.11400443075283
6.336,0.9999999999999999,170.64728501369194
6.344,1.0,170.1806863743673
6.352,0.9999999999999999,169.71420705197707
6.36,1.0,169.2478455747428
6.368,1.0,168.78160046010407
6.376,0.9999999999999999,168.31547021491252
6.384,0.9999999999999999,167.84945333562476
6.392,0.9999999999999999,167.38354830849522
6.4,0.9999999999999998,166.9177536097674
6.408,0.9999999999999999,166.45206770586532
6.416,0.9999999999999998,165.98648905358326
6.424,1.0,165.5210161002755
6.432,1.0,165.0556472840448
6.44,1.0,164.59038103393047
6.448,1.0,164.1252157700952
6.456,0.9999999999999999,163.6601499040115
6.464,1.0,163.19518183864724
6.472,0.9999999999999999,162.73030996865023
6.48,0.9999999999999999,162.26553268053217
6.4879999999999995,1.0,161.80084835285177
6.496,1.0,161.33625535639666
6.504,1.0,160.87175205436554
6.5120000000000005,0.9999999999999999,160.4073368025479
6.52,0.9999999999999999,159.94300794950462
6.5280000000000005,0.9999999999999999,159.4787638367461
6.536,1.0,159.01460279891137
6.5440000000000005,0.9999999999999999,158.55052316394426
6.552,1.0,158.08652325327074
6.5600000000000005,1.0,157.62260138197388
6.568,1.0,157.15875585896924
6.5760000000000005,0.9999999999999999,156.69498498717795
6.584,0.9999999999999999,156.23128706370073
6.592,1.0,155.76766037998922
6.6,1.0,155.304103222018
6.608,0.9999999999999999,154.84061387045475
6.616,1.0,154.37719060083006
6.624,1.0,153.9138316837062
6.632,1.0,153.45053538484527
6.64,1.0,152.987299965376
6.648,1.0,152.52412368196036
6.656,1.0,152.06100478695885
6.664,1.0,151.5979415285951
6.672,1.0,151.1349321511196
6.68,1.0,150.6719748949727
6.688,1.0,150.20906799694652
6.696,1.0,149.74620969034638
6.704,1.0,149.28339820515097
6.712,0.9999999999999999,148.82063176817206
6.72,0.9999996897190407,148.35790860321313
6.728,0.9999989459850139,147.89522693122728
6.736,0.9999982027992457,147.43258497047435
6.744,0.9999974605458182,146.969980936677
6.752,0.9999967195999715,146.50741304317617
6.76,0.999995980328184,146.04487950108586
6.768,0.9999952430882542,145.5823785194465
6.776,0.999994508229378,145.11990830537835
6.784,0.9999937760922317,144.65746706423315
6.792,0.9999930470090516,144.19505299974594
6.8,0.9999923213037154,143.73266431418517
6.808,0.9999915992918215,143.27029920850273
6.816,0.9999908812807725,142.8079558824826
6.824,0.9999901675698537,142.34563253488915
6.832,0.9999894584503155,141.88332736361446
6.84,0.9999887542054561,141.4210385658248
6.848,0.9999880551106994,140.9587643381064
6.856,0.9999873614336792,140.49650287661046
6.864,0.9999866734343194,140.03425237719736
6.872,0.9999859913649146,139.57201103558003
6.88,0.9999853154702139,139.10977704746676
6.888,0.9999846459875,138.6475486087029
6.896,0.9999839831466705,138.1853239154121
6.904,0.9999833271703212,137.72310116413686
6.912,0.9999826782738257,137.26087855197778
6.92,0.9999820366654165,136.79865427673286
6.928,0.9999814025462673,136.3364265370354
6.936,0.999980776110573,135.87419353249152
6.944,0.9999801575456316,135.4119534638167
6.952,0.9999795470319254,134.949704532972
6.96,0.9999789447431993,134.4874449432989
6.968,0.9999783508465451,134.02517289965428
6.976,0.9999777655024783,133.56288660854372
6.984,0.999977188865023,133.10058427825504
6.992,0.9999766210817883,132.63826411899024
7.0,0.9999760622940488,132.1759243429976
7.008,0.9999755126368288,131.71356316470226
7.016,0.9999749722389765,131.25117880083693
7.024,0.9999744412232466,130.78876947057103
7.032,0.99997391970638,130.32633339564003
7.04,0.9999734077991831,129.8638688004734
7.048,0.9999729056066046,129.40137391232227
7.056,0.9999724132278186,128.9388469613864
7.064,0.9999719307562991,128.47628618094026
7.072,0.9999714582799014,128.0136898074589
7.08,0.9999709958809381,127.55105608074238
7.088,0.99997054363626,127.08838324404044
7.096,0.9999701016173305,126.62566954417608
7.104,0.9999696698903072,126.1629132316683
7.112,0.9999692485161151,125.70011256085463
7.12,0.9999688375505266,125.23726579001286
7.128,0.9999684370442364,124.77437118148192
7.136,0.9999680470429407,124.3114270017826
7.144,0.9999676675874101,123.84843152173713
7.152,0.9999672987135688,123.38538301658845
7.16,0.9999669404525668,122.92227976611892
7.168,0.9999665928308599,122.45912005476818
7.176,0.9999662558702811,121.99590217175066
7.184,0.9999659295881163,121.53262441117215
7.192,0.9999656139971803,121.0692850721462
7.2,0.9999653091058899,120.60588245890949
7.208,0.999965014918338,120.14241488093717
7.216,0.9999647314343664,119.67888065305677
7.224,0.9999644586496426,119.21527809556245
7.232,0.9999641965557269,118.7516055343281
7.24,0.9999639451401506,118.2878613009199
7.248,0.9999637043864865,117.82404373270856
7.256,0.9999634742744193,117.36015117298079
7.264,0.9999632547798196,116.89618197105028
7.272,0.999963045874814,116.43213448236791
7.28,0.9999628475278552,115.96800706863186
7.288,0.9999626597037956,115.50379809789676
7.296,0.9999624823639551,115.03950594468222
7.304,0.9999623154661916,114.57512899008137
7.312,0.9999621589649706,114.11066562186801
7.32,0.9999620128114348,113.64611423460408
7.328,0.9999618769534725,113.1814732297459
7.336,0.999961751335787,112.71674101575032
7.344,0.9999616358999625,112.25191600817992
7.352,0.9999615305845356,111.78699662980809
7.36,0.999961435325058,111.32198131072344
7.368,0.9999613500541674,110.85686848843326
7.376,0.999961274701652,110.39165660796716
7.384,0.9999612091945177,109.92634412197967
7.392,0.9999611534570538,109.46092949085242
7.4,0.9999611074108964,108.9954111827958
7.4079999999999995,0.9999610709750985,108.52978767395038
7.416,0.9999610440661876,108.06405744848693
7.4239999999999995,0.9999610265982364,107.59821899870735
7.432,0.9999610184829231,107.13227082514345
7.4399999999999995,0.9999610196295958,106.6662114366566
7.448,0.9999610299453352,106.20003935053569
7.4559999999999995,0.9999610493350172,105.73375309259578
7.464,0.9999610777013765,105.26735119727492
7.4719999999999995,0.9999611149450667,104.80083220773166
7.48,0.999961160964722,104.33419467594096
7.4879999999999995,0.9999612156570188,103.8674371627907
7.496,0.9999612789167357,103.40055823817626
7.504,0.9999613506368136,102.93355648109635
7.5120000000000005,0.999961430708417,102.46643047974632
7.52,0.9999615190209907,101.99917883161302
7.5280000000000005,0.9999616154623203,101.53180014356705
7.536,0.9999617199185903,101.06429303195645
7.5440000000000005,0.999961832274442,100.59665612269814
7.552,0.9999619524130312,100.12888805137037
7.5600000000000005,0.9999620802160853,99.66098746330316
7.568,0.9999622155639595,99.19295301366971
7.5760000000000005,0.9999623583356944,98.72478336757571
7.584,0.9999625084090699,98.25647720014982
7.5920000000000005,0.9999626656606622,97.78803319663183
7.6,0.9999628299658982,97.31945005246205
7.6080000000000005,0.9999630011991097,96.85072647336841
7.616,0.9999631792335877,96.38186117545479
7.6240000000000006,0.9999633639416359,95.9128528852871
7.632,0.999963555194624,95.4437003399804
7.640000000000001,0.9999637528630394,94.97440228728401
7.648,0.9999639568165412,94.50495748566742
7.656000000000001,0.9999641669240116,94.03536470440442
7.664,0.9999643830536049,93.56562272365784
7.672,0.999964605072802,93.09573033456257
7.68,0.9999648328484567,92.62568633930913
7.688,0.9999650662468502,92.15548955122577
7.696,0.9999653051337367,91.68513879486065
7.704,0.9999655493743935,91.21463290606299
7.712,0.9999657988336709,90.743970732064
7.72,0.999966053376039,90.27315113155696
7.728,0.9999663128656356,89.80217297477697
7.736,0.9999665771663128,89.33103514357981
7.744,0.9999668461416843,88.85973653152057
7.752,0.9999671196551709,88.38827604393134
7.76,0.9999673975700479,87.91665259799862
7.768,0.9999676797494874,87.44486512283984
7.776,0.9999679660566054,86.9729125595795
7.784,0.9999682563545054,86.50079386142454
7.792,0.9999685505063214,86.02850799373923
7.8,0.9999688483752627,85.55605393411932
7.808,0.9999691498246541,85.08343067246567
7.816,0.9999694547179817,84.61063721105714
7.824,0.9999697629189321,84.13767256462292
7.832,0.9999700742914335,83.66453576041424
7.84,0.9999703886996988,83.19122583827533
7.848,0.9999707060082633,82.71774185071381
7.856,0.9999710260820269,82.24408286297046
7.864,0.9999713487862913,81.77024795308814
7.872,0.9999716739868,81.29623621198037
7.88,0.9999720015497772,80.82204674349877
7.888,0.9999723313419634,80.34767866450031
7.896,0.9999726632306549,79.87313110491351
7.904,0.9999729970837399,79.39840320780414
7.912,0.9999733327697341,78.92349412944012
7.92,0.9999736701578174,78.44840303935571
7.928,0.9999740091178684,77.97312912041512
7.936,0.9999743495205005,77.49767156887523
7.944,0.999974691237094,77.02202959444763
7.952,0.9999750341398318,76.54620242035999
7.96,0.9999753781017315,76.07018928341661
7.968,0.9999757229966788,75.59398943405832
7.976,0.9999760686994588,75.11760213642137
7.984,0.9999764150857878,74.641026668396
7.992,0.9999767620323456,74.16426232168374
8.0,0.9999771094168051,73.68730840185425
8.008,0.9999774571178618,73.21016422840145
8.016,0.9999778050152646,72.7328291347982
8.024000000000001,0.9999781529898444,72.25530246855133
8.032,0.9999785009235419,71.77758359125485
8.04,0.999978848699437,71.29967187864251
8.048,0.9999791962017743,70.82156672063982
8.056000000000001,0.9999795433159917,70.34326752141551
8.064,0.9999798899287464,69.86477369943138
8.072,0.9999802359279389,69.38608468749156
8.08,0.9999805812027421,68.90719993279123
8.088000000000001,0.9999809256436216,68.42811889696439
8.096,0.9999812691423632,67.94884105613053
8.104,0.9999816115920958,67.46936590094029
8.112,0.9999819528873127,66.98969293662056
8.120000000000001,0.9999822929238971,66.50982168301886
8.128,0.9999826315991419,66.0297516746463
8.136,0.9999829688117724,65.54948246071962
8.144,0.9999833044619665,65.06901360520267
8.152000000000001,0.9999836384513755,64.5883446868471
8.16,0.9999839706831442,64.10747529923144
8.168,0.9999843010619297,63.6264050507996
8.176,0.9999846294939205,63.14513356489834
8.184000000000001,0.9999849558868542,62.66366047981419
8.192,0.9999852801500367,62.18198544880883
8.2,0.9999856021943565,61.70010814015327
8.208,0.9999859219323048,61.21802823716176
8.216000000000001,0.9999862392779884,60.73574543822459
8.224,0.9999865541471465,60.25325945683931
8.232,0.9999868664571667,59.77057002164109
8.24,0.9999871761270968,59.28767687643242
8.248000000000001,0.999987483077661,58.80457978021175
8.256,0.9999877872312718,58.32127850720059
8.264,0.9999880885120432,57.83777284686964
8.272,0.9999883868458027,57.35406260396432
8.280000000000001,0.9999886821601032,56.87014759852898
8.288,0.9999889743842328,56.38602766592994
8.296,0.9999892634492277,55.90170265687707
8.304,0.9999895492878798,55.41717243744493
8.312,0.9999898318347472,54.932436889092806
8.32,0.9999901110261625,54.44749590868268
8.328,0.9999903868002424,53.962349408497346
8.336,0.9999906590968929,53.47699731625609
8.344,0.9999909278578192,52.99143957513058
8.352,0.9999911930265306,52.50567614375812
8.36,0.9999914545483476,52.01970699625528
8.368,0.9999917123704057,51.5335321222287
8.376,0.9999919664416627,51.04715152678649
8.384,0.9999922167129017,50.56056523054659
8.392,0.999992463136735,50.07377326964568
8.4,0.999992705667608,49.586775695745246
8.408,0.9999929442618015,49.09957257603799
8.416,0.999993178877434,48.61216399325152
8.424,0.9999934094744637,48.12455004565218
8.432,0.9999936360146897,47.63673084704619
8.44,0.9999938584617513,47.148706526781304
8.448,0.9999940767811305,46.66047722974509
8.456,0.9999942909401491,46.17204311636418
8.464,0.9999945009079692,45.683404362600015
8.472,0.9999947066555911,45.19456115994549
8.48,0.9999949081558522,44.70551371541825
8.488,0.9999951053834216,44.216262251554525
8.496,0.9999952983148003,43.72680700639991
8.504,0.9999954869283163,43.237148233500676
8.512,0.9999956712041198,42.747286201891846
8.52,0.9999958511241782,42.257221196085695
8.528,0.999996026672273,41.76695351605737
8.536,0.9999961978339923,41.27648347723069
8.544,0.9999963645967245,40.785811410460994
8.552,0.9999965269496521,40.294937662018235
8.56,0.9999966848837444,39.803862593567075
8.568,0.9999968383917496,39.312586582147446
8.576,0.9999969874681863,38.82111002015169
8.584,0.9999971321093347,38.32943331530239
8.592,0.9999972723132287,37.837556890626885
8.6,0.9999974080796432,37.34548118443214
8.608,0.9999975394100865,36.85320665027661
8.616,0.9999976663077893,36.360733756942224
8.624,0.9999977887776913,35.86806298840348
8.632,0.9999979068264316,35.375194843796685
8.64,0.9999980204623359,34.882129837386
8.648,0.9999981296954039,34.38886849853006
8.656,0.9999982345372955,33.89541137164509
8.664,0.9999983350013183,33.40175901616865
8.672,0.9999984311024119,32.907912006519894
8.68,0.9999985228571361,32.41387093206048
8.688,0.9999986102836526,31.919636397051978
8.696,0.999998693401712,31.425209020613746
8.704,0.9999987722326373,30.930589436677625
8.712,0.9999988467993073,30.435778293942786
8.72,0.9999989171261394,29.9407762558276
8.728,0.9999989832390744,29.445584000421576
8.736,0.9999990451655568,28.950202220434253
8.744,0.9999991029345172,28.45463162314429
8.752,0.9999991565763554,27.958872930345407
8.76,0.9999992061229196,27.462926878292556
8.768,0.9999992516074887,26.96679421764491
8.776,0.9999992930647514,26.47047571340918
8.784,0.9999993305307878,25.97397214487959
8.792,0.9999993640430473,25.477284305578312
8.8,0.9999993936403292,24.98041300319248
8.808,0.9999994193627606,24.48335905951172
8.815999999999999,0.9999994412517754,23.98612331036235
8.824,0.999999459350093,23.488706605541328
8.832,0.9999994737016954,22.991109808748647
8.84,0.9999994843518034,22.493333797517774
8.847999999999999,0.9999994913468567,21.99537946314459
8.856,0.9999994947344887,21.497247710615405
8.864,0.9999994945635027,20.998939458533453
8.872,0.9999994908838491,20.5004556390435
8.879999999999999,0.9999994837466009,20.001797197755007
8.888,0.9999994732039287,19.502965093664216
8.896,0.9999994593090766,19.003960299074944
8.904,0.9999994421163373,18.50478379951728
8.911999999999999,0.9999994216810254,18.005436593665046
8.92,0.9999993980594539,17.50591969325203
8.928,0.9999993713089058,17.006234122987067
8.936,0.9999993414876103,16.506380920466984
8.943999999999999,0.9999993086547151,16.006361136088255
8.952,0.9999992728702599,15.50617583295764
8.96,0.99999923419515,15.005826086801454
8.968,0.9999991926911288,14.505312985872887
8.975999999999999,0.9999991484207503,14.004637630857998
8.984,0.9999991014473518,13.503801134780746
8.992,0.9999990518350272,13.002804622906543
9.0,0.9999989996485964,12.501649232644162
9.008,0.9999989449535802,12.000336113446004
9.016,0.9999988878161696,11.498866426707652
9.024000000000001,0.9999988283031997,10.997241345665994
9.032,0.9999987664821185,10.495462055295473
9.04,0.99999870242096,9.993529752203106
9.048,0.9999986361883142,9.491445644522503
9.056000000000001,0.9999985678532989,8.98921095180662
9.064,0.9999984974855297,8.48682690491869
9.072,0.9999984251550919,7.984294745921886
9.08,0.9999983509325093,7.481615727968095
9.088000000000001,0.9999982748887161,6.978791115185412
9.096,0.999998197095027,6.475822182563872
9.104,0.9999981176231069,5.972710215839933
9.112,0.9999980365449427,5.469456511380146
9.120000000000001,0.9999979539328109,4.966062376063561
9.128,0.9999978698592509,4.462529127162392
9.136,0.9999977843970321,3.958858092221555
9.144,0.9999976976191257,3.455050608937346
9.152000000000001,0.9999976095986748,2.9511080250349364
9.16,0.9999975204089636,2.447031698144236
9.168,0.9999974301233875,1.9428229956745535
9.176,0.9999973388154235,1.4384832946885433
9.184000000000001,0.9999972465586002,0.9340139817750317
9.192,0.9999971534264681,0.4294164529201426
9.2,0.9999970594925681,-0.07530788662257631
9.208,0.9999969648304039,-0.5801576224627735
9.216000000000001,0.9999968695134102,-1.085131331205017
9.224,0.9999967736149246,-1.590227580582005
9.232,0.9999966772081562,-2.09544492958892
9.24,0.9999965803661576,-2.6007819286183187
9.248000000000001,0.999996483161794,-3.106237119596118
9.256,0.9999963856677143,-3.611809036119068
9.264,0.9999962879563222,-4.117496203593138
9.272,0.9999961900997464,-4.623297139372608
9.280000000000001,0.9999960921698113,-5.129210352900007
9.288,0.9999959942380089,-5.635234345847515
9.296,0.9999958963754686,-6.141367612259337
9.304,0.9999957986529301,-6.647608638694505
9.312000000000001,0.9999957011407135,-7.153955904370618
9.32,0.9999956039086927,-7.660407881308956
9.328,0.9999955070262655,-8.16696303448042
9.336,0.9999954105623253,-8.67361982195193
9.344,0.9999953145852363,-9.1803766950335
9.352,0.9999952191628022,-9.687232098427332
9.36,0.9999951243622416,-10.194184470375966
9.368,0.9999950302501589,-10.701232242813042
9.376,0.9999949368925196,-11.208373841513046
9.384,0.9999948443546216,-11.715607686243576
9.392,0.9999947527010699,-12.222932190916564
9.4,0.9999946619957496,-12.730345763741987
9.408,0.9999945723018022,-13.237846807380476
9.416,0.9999944836815966,-13.745433719098422
9.424,0.9999943961967068,-14.2531048909219
9.432,0.9999943099078855,-14.760858709793037
9.44,0.9999942248750393,-15.2686935577252
9.448,0.9999941411572052,-15.776607811960574
9.456,0.9999940588125257,-16.28459984512645
9.464,0.9999939778982252,-16.792668025394025
9.472,0.9999938984705875,-17.300810716635713
9.48,0.99999382058493,-17.809026278584998
9.488,0.9999937442955856,-18.31731306699466
9.496,0.9999936696558757,-18.825669433797717
9.504,0.9999935967180912,-19.33409372726653
9.512,0.9999935255334697,-19.84258429217448
9.52,0.9999934561521737,-20.351139469956088
9.528,0.9999933886232713,-20.859757598869376
9.536,0.9999933229947151,-21.368437014156672
9.544,0.999993259313321,-21.877176048207794
9.552,0.9999931976247506,-22.385973030721452
9.56,0.9999931379734899,-22.894826288868984
9.568,0.9999930804028321,-23.40373414745645
9.576,0.9999930249548585,-23.912694929088726
9.584,0.9999929716704208,-24.421706954332144
9.592,0.9999929205891229,-24.930768541879154
9.6,0.9999928717493045,-25.43987800871115
9.608,0.999992825188025,-25.949033670263535
9.616,0.999992780941046,-26.458233840588885
9.624,0.9999927390428166,-26.96747683252225
9.632,0.9999926995264576,-27.476760957844547
9.64,0.9999926624237476,-27.986084527447947
9.648,0.9999926277651071,-28.495445851499493
9.656,0.9999925955795878,-29.004843239606462
9.664,0.9999925658948546,-29.514275000980067
9.672,0.9999925387371777,-30.02373944460083
9.68,0.9999925141314171,-30.533234879382185
9.688,0.9999924921010117,-31.04275961433571
9.696,0.9999924726679684,-31.552311958734617
9.704,0.9999924558528509,-32.06189022227884
9.712,0.9999924416747689,-32.57149271525822
