freq,mag,phase
6.0,1.0004871958537451,-112.84624720742268
6.003019776,1.0003640719000209,-113.01864044692876
6.006040064,1.0002176412113777,-113.18913127671556
6.00905984,1.0000576043936056,-113.35736219166127
6.012080128,0.9998936964615699,-113.52331615897732
6.015099904,0.9997361533737992,-113.6869923128733
6.018120192,0.9995946851496634,-113.84849169763599
6.021139968,0.9994782974043748,-114.0081428852797
6.024160256,0.9993939050374382,-114.16639381855359
6.027180032,0.9993470580913536,-114.32366983144922
6.03020032,0.999340672185318,-114.4805784975663
6.033220096,0.9993750344354414,-114.63770200576806
6.036239872,0.9994481180157688,-114.79559807964532
6.03926016,0.9995552933719359,-114.9548638532449
6.042279936,0.9996900706639388,-115.11584084841716
6.045300224,0.9998439433095405,-115.27886097660515
6.04832,1.0000072251028331,-115.44425380519222
6.051340288,1.0001700931535171,-115.61192719707546
6.054360064,1.0003221382985235,-115.78196325445217
6.057380352,1.0004541092562724,-115.9540077588331
6.060400128,1.0005577697081967,-116.12777034001549
6.063419904,1.0006265982959746,-116.30277958473557
6.066440192,1.000656454696554,-116.4784869426984
6.069459968,1.0006453331606289,-116.65437591232077
6.072480256,1.0005939585235968,-116.82982238728084
6.075500032,1.000505484250673,-117.00424168196405
6.07852032,1.0003854181932985,-117.17719613602395
6.081540096,1.0002412245674097,-117.34828491169108
6.084560384,1.0000818209234676,-117.51720388457028
6.08758016,0.9999170997820606,-117.68378483846409
6.090600448,0.9997571233534618,-117.84805712576774
6.093620224,0.9996121843770802,-118.01008893488344
6.09664,0.9994909616362234,-118.17023034029515
6.099660288,0.9994012202116174,-118.32890128601909
6.102680064,0.9993485063205582,-118.48654601115875
6.105700352,0.9993360718219723,-118.64369764566638
6.108720128,0.9993647457628195,-118.8010352923026
6.111740416,0.9994327864443062,-118.95900683884757
6.114760192,0.9995358782392474,-119.11825750092291
6.11778048,0.9996677056116616,-119.27921724256784
6.120800256,0.9998199723479297,-119.44222770659873
6.123820544,0.9999833955530967,-119.60751488765933
6.12684032,1.000147662799479,-119.7751612074457
6.129860096,1.0003027280334524,-119.94512975960531
6.132880384,1.0004387685949383,-120.11722928728963
6.13590016,1.0005474384043753,-120.29107887789183
6.138920448,1.0006219964165675,-120.46622550361916
6.141940224,1.000657844587711,-120.64221682191689
6.144960512,1.0006527088090023,-120.81839022142061
6.147980288,1.000606799457173,-120.99426913395986
6.151000576,1.0005230425385716,-121.16919528030436
6.154020352,1.0004066244041827,-121.34268793890801
6.15704064,1.0002647275936416,-121.51434074285211
6.160060416,1.000106209872918,-121.68384010720278
6.163080192,0.9999406277601679,-121.85107201925987
6.16610048,0.999778813355425,-122.01590559727039
6.169120256,0.9996302473214652,-122.17850486992984
6.172140544,0.9995045514776153,-122.3391777180296
6.17516032,0.9994093597433961,-122.49823219499352
6.178180608,0.999350705450007,-122.65621559699747
6.181200384,0.9993322147051309,-122.81361831118066
6.184220672,0.9993550406082404,-122.97110967981114
6.187240448,0.9994178499022992,-123.12919092361074
6.190260224,0.9995165567822056,-123.28842622218154
6.193280512,0.999645307723009,-123.44931800394465
6.196300288,0.9997959405124609,-123.6122628347374
6.199320576,0.9999591148040701,-123.77745577164035
6.202340352,1.0001247697125308,-123.9450326571113
6.20536064,1.0002823686263966,-124.11490423322398
6.208380416,1.0004224856188626,-124.28698607745615
6.211400704,1.0005361893530267,-124.46089915473866
6.21442048,1.0006164746046813,-124.6361670691229
6.217440768,1.0006583475726387,-124.8123553213006
6.220460544,1.0006592499520808,-124.98886529225604
6.22348032,1.0006189733209663,-125.16510048821574
6.226500608,1.0005400810104248,-125.3404805241592
6.229520384,1.000427427987743,-125.51448761439623
6.232540672,1.0002881474668925,-125.68672036869793
6.235560448,1.0001305965378968,-125.85682309523972
6.238580736,0.9999647433791867,-126.02461288405088
6.241600512,0.9998008566664794,-126.19001270309376
6.2446208,0.9996490732486096,-126.35317693984624
6.247640576,0.9995188220861179,-126.51429350503186
6.250660864,0.9994183560941143,-126.67377110146339
6.25368064,0.9993537220917655,-126.83206057957152
6.256700416,0.9993290572249073,-126.9896956173716
6.259720704,0.9993460133078115,-127.14731138516363
6.26274048,0.9994033405958213,-127.30547222399687
6.265760768,0.9994977211708718,-127.46469239847944
6.268780544,0.9996231896173807,-127.6255576373098
6.271800832,0.9997718415389298,-127.78837667447836
6.274820608,0.9999346044182824,-127.95344452320154
6.277840896,1.0001012441193884,-128.1208782780925
6.280860672,1.0002615686855807,-128.29069251298176
6.28388096,1.0004055192441152,-128.46269831213002
6.286900736,1.0005241197017962,-128.63661922860192
6.289920512,1.0006099872113992,-128.81200889549729
6.2929408,1.0006579478927655,-128.98837262289825
6.295960576,1.0006649306478648,-129.16512114228186
6.298980864,1.0006303783161907,-129.34170681973714
6.30200064,1.0005566653495732,-129.5175045913071
6.305020928,1.0004480788701098,-129.69200739381733
6.308040704,1.0003114463311766,-129.86476921242408
6.311060992,1.000155316327356,-130.03542530589874
6.314080768,0.9999892820422337,-130.20376499003277
6.317100544,0.9998236102394656,-130.36972424379738
6.320120832,0.9996686400734521,-130.53338988017768
6.323140608,0.9995341427177246,-130.69500175242374
6.326160896,0.9994282134563137,-130.85485669859924
6.329180672,0.9993577601106305,-131.01344031684403
6.33220096,0.9993269330208746,-131.17132733573789
6.335220736,0.9993377796550701,-131.32906980747785
6.338241024,0.9993896907676999,-131.4872765605645
6.3412608,0.9994793200787717,-131.6465010231022
6.344281088,0.9996012454922809,-131.80724541737496
6.347300864,0.9997477769859816,-131.96993038214444
6.35032064,0.999909942533295,-132.13485867533305
6.353340928,1.0000775039537586,-132.3021634025044
6.356360704,1.000240125705407,-132.47188017387023
6.359380992,1.000387797249845,-132.64379396259835
6.362400768,1.0005112728305845,-132.81769154680026
6.365421056,1.0006028304820846,-132.9930823908759
6.368440832,1.000656857632973,-133.16959707477744
6.37146112,1.0006699986170287,-133.3465847286905
6.374480896,1.0006413807604675,-133.52346618504575
6.377501184,1.0005727420339665,-133.69966885965158
6.38052096,1.0004683953694975,-133.87461205546828
6.383540736,1.0003347593425531,-134.04786819721235
6.386561024,1.0001801286882852,-134.2190665843348
6.3895808,1.0000140468565046,-134.38796146622317
6.392601088,0.9998468705427812,-134.55448171146514
6.395620864,0.9996888949853524,-134.7186577458552
6.398641152,0.9995500835393863,-134.88067262006697
6.401660928,0.9994390527061005,-135.04093754277295
6.404681216,0.9993626889103265,-135.1998226616469
6.407700992,0.9993257034352835,-135.3579316817013
6.41072128,0.9993304279345936,-135.5157919367161
6.413741056,0.9993766556832806,-135.67399636308647
6.416760832,0.9994615611527569,-135.83315705576265
6.41978112,0.99957968545882,-135.9938395290959
6.422800896,0.9997238290770517,-136.15637284517013
6.425821184,0.9998850649045095,-136.32112894159783
6.42884096,1.0000533498966724,-136.4882647867436
6.431861248,1.000218131558004,-136.65777817181524
6.434881024,1.0003694122256659,-136.82960070359658
6.437901312,1.0004975490588928,-137.0034385864408
6.440921088,1.000594731993971,-137.17886830245604
6.443940864,1.0006548976986558,-137.35544390963048
6.446961152,1.000674232812533,-137.53264822692924
6.449980928,1.000651538076611,-137.70979540090534
6.453001216,1.0005882893723712,-137.88634212143566
6.456020992,1.0004883151882331,-138.06172414731685
6.45904128,1.000357813175917,-138.2354603128513
6.462061056,1.0002049295112847,-138.407168814881
6.465081344,1.0000390623278292,-138.57659721995137
6.46810112,0.99987055053856,-138.74361322830262
6.471121408,0.9997098160557201,-138.90823672290188
6.474141184,0.9995669435148118,-139.07071217343346
6.47716096,0.9994507039674708,-139.23133195194828
6.480181248,0.9993684168392407,-139.39051577440995
6.483201024,0.9993252286579466,-139.54878871716832
6.486221312,0.9993237805110323,-139.7067700313569
6.489241088,0.9993641835670672,-139.8650296789589
6.492261376,0.999444042920795,-140.02414090598964
6.495281152,0.9995582305462742,-140.18467111881216
6.49830144,0.9996998565321404,-140.34705259752727
6.501321216,0.9998599861660387,-140.5115854066486
6.504341504,1.000028832520696,-140.67850997732776
6.50736128,1.0001956010667679,-140.84783415990339
6.510381056,1.0003502371832105,-141.01951052930877
6.513401344,1.0004830104671694,-141.1932248813143
6.51642112,1.0005856917186524,-141.36866759487404
6.519441408,1.0006519000936198,-141.54530418044686
6.522461184,1.0006775752323456,-141.72265435306764
6.525481472,1.0006609752509286,-141.90004192918633
6.528501248,1.0006032299263832,-142.0768921606263
6.531521536,1.0005078954012765,-142.25266908635462
6.534541312,1.0003807698247529,-142.4268429846531
6.537561088,1.0002298504142175,-142.59903232004373
6.540581376,1.000064390200205,-142.76896330381953
6.543601152,0.999894761872994,-142.93647033385224
6.54662144,0.9997314856623063,-143.10158890220765
6.549641216,0.9995845384804732,-143.2644644072807
6.552661504,0.9994632702045771,-143.4254417811436
6.55568128,0.9993751905237833,-143.58491101564792
6.558701568,0.9993257062258678,-143.74338202016855
6.561721344,0.9993180717235085,-143.90141113878133
6.564741632,0.9993525115642826,-144.0596671087701
6.567761408,0.9994272129900901,-144.21871618220337
6.570781184,0.9995373301045899,-144.37910135729746
6.573801472,0.9996761144108981,-144.54126518383427
6.576821248,0.9998349429186635,-144.70558271058786
6.579841536,1.0000038971390275,-144.87229106879514
6.582861312,1.0001725639621255,-145.04142846046543
6.5858816,1.0003304618377888,-145.21289140494048
6.588901376,1.0004676824836796,-145.38648692141305
6.591921664,1.000575824470336,-145.5618582192235
6.59494144,1.0006480838760157,-145.73855085201558
6.597961728,1.0006800413071464,-145.91596050776357
6.600981504,1.0006696538235713,-146.09355413163652
6.60400128,1.000617473042203,-146.27071515101719
6.607021568,1.0005268745202691,-146.44683644871122
6.610041344,1.0004034444752434,-146.62143329780093
6.613061632,1.00025463940028,-146.79406194774054
6.616081408,1.0000899268529477,-146.96445712412475
6.619101696,0.9999192296757485,-147.13245889632694
6.622121472,0.9997535461392693,-147.29799776378968
6.62514176,0.9996028169321532,-147.4613069643371
6.628161536,0.9994765223107884,-147.6226150299642
6.631181824,0.999382625294684,-147.78233845634483
6.6342016,0.9993269484810301,-147.94097039065997
6.637221376,0.9993128954065015,-148.09911603837304
6.640241664,0.9993413696908081,-148.25734196651496
6.64326144,0.9994107355325877,-148.41633728774443
6.646281728,0.9995165029325302,-148.57653495965278
6.649301504,0.9996523060690983,-148.73848994867961
6.652321792,0.9998095911385332,-148.90254959877558
6.655341568,0.9999785391922311,-149.06898858733746
6.658361856,1.0001488162917835,-149.2378496170879
6.661381632,1.0003097772862715,-149.40909995556282
6.664401408,1.000451384117353,-149.5825606711285
6.667421696,1.0005648815637955,-149.7578157665719
6.670441472,1.000643296087913,-149.93448240617752
6.67346176,1.0006815476284678,-150.11198644136385
6.676481536,1.0006773509761313,-150.28973330086527
6.679501824,1.0006310695237082,-150.46712622062014
6.6825216,1.0005453978929586,-150.64357493170235
6.685541888,1.0004256720261941,-150.81855983820986
6.688561664,1.000279345839767,-150.99160834055243
6.691581952,1.000115523516068,-151.16247066118066
6.694601728,0.9999441917076779,-151.33091363737717
6.697621504,0.9997760845624913,-151.49689260691906
6.700641792,0.9996217560098319,-151.66058306457703
6.703661568,0.9994907324897289,-151.82221007971066
6.706681856,0.9993910636385761,-151.9821572251953
6.709701632,0.999329079475056,-152.14096910182414
6.71272192,0.9993086674139225,-152.29920052580286
6.715741696,0.9993310072150909,-152.4574180752959
6.718761984,0.9993948386189271,-152.61626187323628
6.72178176,0.9994961909626197,-152.77629276178823
6.724802048,0.9996287347536602,-152.93802051086413
6.727821824,0.9997842081470647,-153.10180349263916
6.7308416,0.9999530311843892,-153.2679131760172
6.733861888,1.0001246985400174,-153.43653393850462
6.736881664,1.0002885048104122,-153.60751669490793
6.739901952,1.000434351908757,-153.78077776403856
6.742921728,1.0005532214636206,-153.95590291280504
6.745942016,1.0006375341601124,-154.1325081950242
6.748961792,1.0006822135894735,-154.310010288718
6.75198208,1.0006844642209365,-154.4878976037578
6.755001856,1.0006439853430051,-154.66550486894914
6.758022144,1.0005634809342423,-154.84224037735717
6.76104192,1.0004477604575455,-155.01758297512598
6.764061696,1.000304093452268,-155.19103056708985
6.767081984,1.0001413486099486,-155.36232111332995
6.77010176,0.9999695432408672,-155.53120789072548
6.773122048,0.9997994171355857,-155.69760490837947
6.776141824,0.9996416119641802,-155.86166369388732
6.779162112,0.999505745493712,-156.02362339924238
6.782181888,0.9994004511602776,-156.1838179640185
6.785202176,0.9993322085025858,-156.34274787738946
6.788221952,0.9993053536943827,-156.50100856907565
6.791241728,0.9993215530852153,-156.659209577443
6.794262016,0.9993796925467135,-156.8179309267153
6.797281792,0.9994763427277721,-156.9777663349345
6.80030208,0.9996053802797272,-157.1392099507189
6.803321856,0.999758979753427,-157.3027143004658
6.806342144,0.9999272985603106,-157.4685291525524
6.80936192,1.000100170735272,-157.6368018439768
6.812382208,1.0002666824151045,-157.8074892844406
6.815401984,1.00041666115147,-157.98051435283995
6.818422272,1.000540580876149,-158.1554657237092
6.821442048,1.0006310142220278,-158.3320037057833
6.824461824,1.0006819753658072,-158.50952775685076
6.827482112,1.0006906485260807,-158.68745535029825
6.830501888,1.00065629011931,-158.86524941396596
6.833522176,1.0005810020642292,-159.04223554520996
6.836541952,1.0004695111236994,-159.21789635043024
6.83956224,1.0003287370981848,-159.39174747199897
6.842582016,1.0001672737713863,-159.5634171758832
6.845602304,0.9999951739243319,-159.73268345115903
6.84862208,0.9998231853117965,-159.89949978755755
6.851642368,0.9996620115830979,-160.06389868808125
6.854662144,0.999521583822397,-160.2261417892467
6.85768192,0.9994107321379506,-160.38655882393053
6.860702208,0.9993362883374716,-160.54563529445318
6.863721984,0.9993028876235689,-160.7039388167629
6.866742272,0.9993126953448508,-160.86207517290683
6.869762048,0.9993650810917455,-161.02066179919717
6.872782336,0.9994568552530926,-161.1802693670031
6.875802112,0.9995823411489497,-161.34146312325174
6.8788224,0.9997335488073397,-161.50462440892437
6.881842176,0.9999013814719557,-161.67013835389866
6.884862464,1.0000752124878205,-161.8380311254395
6.88788224,1.000244216170409,-162.00845053340333
6.890902016,1.0003980638624062,-162.18119094197846
6.893922304,1.0005271774578037,-162.35592357778867
6.89694208,1.0006234584278828,-162.53229574968717
6.899962368,1.000680887191866,-162.70978317376375
6.902982144,1.0006959864016072,-162.88778996581797
6.906002432,1.0006677323323518,-163.06570563120843
6.909022208,1.0005979293304117,-163.24292515320187
6.912042496,1.0004908350835695,-163.41884687680064
6.915062272,1.0003531054009136,-163.5930506094446
6.918082048,1.0001932654097831,-163.76509201968517
6.921102336,1.0000211810262227,-163.9347659817402
6.924122112,0.9998474911437474,-164.1019462603579
6.9271424,0.9996831288462359,-164.26668708678403
6.930162176,0.999538260974324,-164.4292091830208
6.933182464,0.9994217841120144,-164.5898212289126
6.93620224,0.9993412120389459,-164.7490270386737
6.939222528,0.9993012629447099,-164.90736439992398
6.942242304,0.9993047302227853,-165.06542042027945
6.945262592,0.999351266273007,-165.22385849318184
6.948282368,0.9994379251364544,-165.38323768930871
6.951302144,0.9995594965036754,-165.5441540529177
6.954322432,0.9997082846834989,-165.70697626452636
6.957342208,0.9998751686335812,-165.8720699565064
6.960362496,1.0000497184422512,-166.03963087677107
6.963382272,1.0002211861130372,-166.20967451567378
6.96640256,1.0003787802312973,-166.38209132426556
6.969422336,1.0005128157325358,-166.55659839367513
6.972442624,1.0006149242430644,-166.73280978969314
6.9754624,1.000678824063121,-166.9102041165498
6.978482688,1.0007004172544234,-167.0882259564426
6.981502464,1.0006784547953353,-167.26626710412236
6.98452224,1.0006142949312535,-167.44365910376763
6.987542528,1.000511710936781,-167.6198439783188
6.990562304,1.0003772942584628,-167.79433805526534
6.993582592,1.0002192482004515,-167.96674843211022
6.996602368,1.0000473474658278,-168.13677343521397
6.999622656,0.9998722411902645,-168.3043175699453
7.002642432,0.9997049184187932,-168.4693491739431
7.00566272,0.9995557246235969,-168.63215116394105
7.008682496,0.999433947138788,-168.79298985078745
7.011702784,0.999347059195211,-168.95230078948103
7.01472256,0.999300696827641,-169.11065485933386
7.017742336,0.999297623165942,-169.2686419938195
7.020762624,0.9993380127264644,-169.42689888293444
7.0237824,0.9994195239968933,-169.58603500620143
7.026802688,0.9995370458443302,-169.74661711273362
7.029822464,0.9996832084093096,-169.909082082797
7.032842752,0.9998488864414943,-170.07376239987778
7.035862528,1.0000240391777457,-170.24092230195356
7.038882816,1.0001975825578118,-170.41061229874117
7.041902592,1.0003587971456656,-170.5826870173148
7.044922368,1.0004977157620338,-170.75690539111068
7.047942656,1.0006055900755433,-170.93292614116044
7.050962432,1.0006758692543445,-171.11020275045348
7.05398272,1.000704057622784,-171.28819312370774
7.057002496,1.0006884193589898,-171.46627216327897
7.060022784,1.0006299302284543,-171.64380901911784
7.06304256,1.0005322814793074,-171.82023422455254
7.066062848,1.000401349184859,-171.99501538954317
7.069082624,1.000245266363001,-172.1677305583663
7.072102912,1.0000737965462703,-172.33811633862217
7.075122688,0.9998975164542314,-172.50597067183946
7.078142464,0.9997273703534044,-172.67133238781338
7.081162752,0.999574024005736,-172.83436605766806
7.084182528,0.9994468140176019,-172.9953910951772
7.087202816,0.9993538327581821,-173.1548029785507
7.090222592,0.9993009397542191,-173.31315533692862
7.09324288,0.9992912945122973,-173.4710835857648
7.096262656,0.9993255599341896,-173.62918127814265
7.099282944,0.9994016290145835,-173.78804577677818
7.10230272,0.9995148139822295,-173.94827623579965
7.105323008,0.9996581024704481,-174.11033449215455
7.108342784,0.9998225430503005,-174.27461678012307
7.11136256,0.9999979996844535,-174.44135553327453
7.114382848,1.0001733351378648,-174.61063050619708
7.117402624,1.0003380871697998,-174.78230787291278
7.120422912,1.0004816053142562,-174.95621378655753
7.123442688,1.0005952983379227,-175.13198267071093
7.126462976,1.0006719269707989,-175.30909408885378
7.129482752,1.000706772870552,-175.48703194726446
7.13250304,1.0006975943065695,-175.66513385923048
7.135522816,1.0006450142907004,-175.84281543258516
7.138542592,1.0005522546669723,-176.01945934684684
7.14156288,1.0004250806760115,-176.19445405391454
7.144582656,1.0002712544515049,-176.36747284833208
7.147602944,1.0001004589747913,-176.53816598601233
7.15062272,0.999923194693739,-176.70636309750222
7.153643008,0.999750418881318,-176.87200142265775
7.156662784,0.999592957202946,-177.03528067429875
7.159683072,0.9994606142978385,-177.19645437495188
7.162702848,0.999361543348723,-177.35596241900004
7.165723136,0.9993021331867723,-177.51432464067204
7.168742912,0.9992858268098449,-177.67215094773022
7.171762688,0.9993138642465945,-177.83004354672096
7.174782976,0.9993843721007561,-177.98862100876315
7.177802752,0.9994930914405226,-178.1485073313779
7.18082304,0.9996331598761331,-178.31018398449518
7.183842816,0.9997960904136747,-178.47399659705616
7.186863104,0.9999715692788058,-178.6402798695589
7.18988288,1.0001487369192716,-178.80911246003726
7.192903168,1.0003166937711512,-178.98039952498254
7.195922944,1.0004649075083534,-179.15396392710036
