freq,mag,phase
6.0,0.9999912965125648,-104.58631927437999
6.008,0.9999933946331715,-104.99431729766513
6.016,0.9999954230194795,-105.40214156184814
6.024,0.9999973828480019,-105.80979157520062
6.032,0.9999992752853495,-106.21726685946854
6.04,1.0,-106.62456694983089
6.048,1.0,-107.03169139485743
6.056,1.0,-107.43863975646592
6.064,1.0,-107.84541160987838
6.072,1.0,-108.25200654357687
6.08,1.0,-108.65842415925829
6.088,1.0,-109.06466407178873
6.096,1.0,-109.47072590915707
6.104,1.0,-109.87660931242776
6.112,0.9999999999999999,-110.28231393569314
6.12,1.0,-110.68783944602504
6.128,0.9999999999999999,-111.09318552342562
6.136,1.0,-111.49835186077789
6.144,1.0,-111.90333816379527
6.152,1.0,-112.30814415097079
6.16,0.9999999999999999,-112.71276955352566
6.168,1.0,-113.11721411535716
6.176,1.0,-113.52147759298602
6.184,0.9999999999999999,-113.92555975550337
6.192,1.0,-114.32946038451715
6.2,1.0,-114.73317927409757
6.208,1.0,-115.13671623072263
6.216,1.0,-115.54007107322302
6.224,0.9999999999999999,-115.94324363272598
6.232,1.0,-116.34623375259945
6.24,0.9999999999999999,-116.74904128839536
6.248,1.0,-117.15166610779245
6.256,0.9999999999999999,-117.55410809053856
6.264,1.0,-117.95636712839297
6.272,1.0,-118.35844312506762
6.28,1.0,-118.76033599616858
6.288,1.0,-119.16204566913648
6.296,1.0,-119.56357208318725
6.304,1.0,-119.96491518925187
6.312,1.0,-120.36607494991608
6.32,0.9999999999999999,-120.7670513393596
6.328,1.0000000000000002,-121.16784434329517
6.336,0.9999999999999999,-121.56845395890694
6.344,1.0,-121.9688801947891
6.352,1.0,-122.3691230708833
6.36,0.9999999999999999,-122.76918261841682
6.368,1.0,-123.16905887983962
6.376,0.9999999999999999,-123.56875190876148
6.384,1.0000000000000002,-123.96826176988877
6.392,0.9999999999999999,-124.36758853896107
6.4,0.9999999999999998,-124.76673230268736
6.408,0.9999999999999999,-125.16569315868206
6.416,1.0,-125.5644712154009
6.424,0.9999999999999999,-125.96306659207647
6.432,1.0,-126.36147941865343
6.44,0.9999999999999999,-126.75970983572394
6.448,1.0,-127.15775799446241
6.456,1.0,-127.55562405656035
6.464,1.0,-127.95330819416088
6.472,1.0,-128.35081058979327
6.48,1.0,-128.74813143630715
6.4879999999999995,1.0,-129.14527093680653
6.496,0.9999999999999999,-129.54222930458405
6.504,1.0,-129.93900676305438
6.5120000000000005,0.9999999999999999,-130.33560354568843
6.52,1.0,-130.73201989594637
6.5280000000000005,0.9999999999999998,-131.1282560672117
6.536,1.0,-131.52431232272423
6.5440000000000005,1.0,-131.92018893551355
6.552,1.0,-132.31588618833197
6.5600000000000005,1.0,-132.71140437358827
6.568,1.0,-133.10674379327992
6.5760000000000005,1.0000000000000002,-133.50190475892677
6.584,0.9999999999999999,-133.89688759150357
6.592,1.0,-134.2916926213732
6.6,1.0,-134.68632018821913
6.608,1.0,-135.08077064097876
6.616,1.0,-135.47504433777556
6.624,1.0,-135.86914164585255
6.632,0.9999999999999999,-136.26306294150467
6.64,1.0,-136.6568086100115
6.648,1.0,-137.0503790455703
6.656,1.0,-137.44377465122872
6.664,0.9999999999999999,-137.83699583881736
6.672,1.0,-138.23004302888287
6.68,0.9999999999999999,-138.6229166506208
6.688,0.9999999999999999,-139.01561714180818
6.696,0.9999999999999999,-139.40814494873692
6.704,1.0,-139.8005005261463
6.712,1.0,-140.19268433715635
6.72,1.0,-140.58469685320082
6.728,1.0,-140.97653855396032
6.736,1.0,-141.36820992729548
6.744,0.9999999999999998,-141.75971146918042
6.752,1.0,-142.15104368363598
6.76,1.0,-142.54220708266325
6.768,1.0,-142.93320218617714
6.776,1.0,-143.32402952193993
6.784,1.0,-143.71468962549523
6.792,0.9999999999999998,-144.10518304010165
6.8,0.9999999999999999,-144.49551031666684
6.808,1.0,-144.8856720136816
6.816,1.0,-145.27566869715417
6.824,0.9999999999999999,-145.66550094054432
6.832,1.0,-146.0551693246981
6.84,1.0,-146.44467443778225
6.848,1.0,-146.83401687521908
6.856,0.9999999999999999,-147.22319723962121
6.864,1.0,-147.61221614072664
6.872,1.0,-148.0010741953341
6.88,1.0,-148.3897720272381
6.888,1.0,-148.7783102671646
6.896,0.9999999999999999,-149.16668955270666
6.904,0.9999996028681885,-149.55491052826017
6.912,0.9999990108986286,-149.9429738449599
6.92,0.9999984231366184,-150.33088016061566
6.928,0.9999978397917857,-150.7186301396486
6.936,0.999997261068077,-151.10622445302778
6.944,0.9999966871638192,-151.4936637782067
6.952,0.9999961182717805,-151.88094879906046
6.96,0.9999955545792313,-152.26808020582257
6.968,0.9999949962680048,-152.65505869502238
6.976,0.9999944435145591,-153.04188496942234
6.984,0.9999938964900369,-153.42855973795585
6.992,0.9999933553603262,-153.81508371566503
7.0,0.9999928202861207,-154.20145762363865
7.008,0.9999922914229821,-154.58768218895054
7.016,0.9999917689213974,-154.97375814459804
7.024,0.9999912529268418,-155.3596862294405
7.032,0.9999907435798366,-155.74546718813838
7.04,0.9999902410160111,-156.13110177109215
7.048,0.9999897453661605,-156.51659073438165
7.056,0.9999892567563062,-156.90193483970566
7.064,0.999988775307756,-157.2871348543216
7.072,0.9999883011371618,-157.6721915509855
7.08,0.9999878343565797,-158.0571057078921
7.088,0.9999873750735286,-158.44187810861538
7.096,0.9999869233910492,-158.82650954204917
7.104,0.9999864794077604,-159.2110008023479
7.112,0.9999860432179217,-159.59535268886773
7.12,0.9999856149114865,-159.97956600610794
7.128,0.9999851945741638,-160.3636415636525
7.136,0.9999847822874729,-160.74758017611163
7.144,0.9999843781288029,-161.13138266306407
7.152,0.9999839821714682,-161.51504984899915
7.16,0.9999835944847669,-161.89858256325937
7.168,0.9999832151340365,-162.2819816399831
7.176,0.99998284418071,-162.66524791804756
7.184,0.999982481682373,-163.0483822410119
7.192,0.9999821276928192,-163.43138545706083
7.2,0.9999817822621057,-163.81425841894816
7.208,0.9999814454366087,-164.19700198394074
7.216,0.9999811172590779,-164.5796170137627
7.224,0.9999807977686945,-164.96210437453968
7.232,0.9999804870011197,-165.3444649367437
7.24,0.999980184988555,-165.72669957513787
7.248,0.9999798917597925,-166.10880916872162
7.256,0.9999796073402696,-166.4907946006761
7.264,0.9999793317521241,-166.87265675830966
7.272,0.9999790650142433,-167.25439653300384
7.28,0.999978807142321,-167.63601482015952
7.288,0.9999785581489075,-168.01751251914305
7.296,0.999978318043463,-168.39889053323316
7.304,0.9999780868324082,-168.78014976956763
7.312,0.9999778645191771,-169.16129113909037
7.32,0.999977651104268,-169.54231555649872
7.328,0.9999774465852932,-169.92322394019126
7.336,0.9999772509570319,-170.30401721221537
7.344,0.9999770642114785,-170.6846962982154
7.352,0.9999768863378937,-171.0652621273811
7.36,0.9999767173228531,-171.44571563239597
7.368,0.9999765571502972,-171.8260577493862
7.376,0.9999764058015816,-172.20628941786964
7.384,0.9999762632555218,-172.5864115807052
7.392,0.9999761294884465,-172.96642518404224
7.4,0.9999760044742415,-173.3463311772704
7.4079999999999995,0.9999758881843994,-173.7261305129697
7.416,0.9999757805880666,-174.10582414686067
7.4239999999999995,0.9999756816520898,-174.48541303775477
7.432,0.9999755913410633,-174.86489814750553
7.4399999999999995,0.9999755096173734,-175.24428044095885
7.448,0.9999754364412471,-175.62356088590488
7.4559999999999995,0.9999753717707955,-176.002740453029
7.464,0.9999753155620599,-176.38182011586386
7.4719999999999995,0.9999752677690567,-176.76080085074076
7.48,0.9999752283438204,-177.13968363674266
7.4879999999999995,0.9999751972364508,-177.51846945565552
7.496,0.9999751743951532,-177.89715929192192
7.504,0.9999751597662847,-178.27575413259302
7.5120000000000005,0.9999751532943959,-178.65425496728238
7.52,0.9999751549222736,-179.03266278811876
7.5280000000000005,0.9999751645909831,-179.41097858969997
7.536,0.9999751822399112,-179.78920336904628
7.5440000000000005,0.9999752078068069,179.83266187444502
7.552,0.9999752412278224,179.45461613904612
7.5600000000000005,0.9999752824375551,179.07665842074354
7.568,0.9999753313690869,178.69878771328422
7.5760000000000005,0.9999753879540252,178.32100300821972
7.584,0.9999754521225431,177.94330329495224
7.5920000000000005,0.9999755238034176,177.5656875607781
7.6,0.9999756029240693,177.18815479093328
7.6080000000000005,0.999975689410602,176.81070396863683
7.616,0.9999757831878392,176.43333407513558
7.6240000000000006,0.9999758841793644,176.05604408974736
7.632,0.9999759923075563,175.6788329899051
7.640000000000001,0.9999761074936284,175.30169975119983
7.648,0.999976229657664,174.92464334742434
7.656000000000001,0.9999763587186543,174.54766275061547
7.664,0.9999764945945329,174.1707569310978
7.672,0.9999766372022134,173.7939248575253
7.68,0.9999767864576242,173.41716549692433
7.688,0.999976942275743,173.0404778147356
7.696,0.9999771045706322,172.6638607748561
7.704,0.9999772732554728,172.2873133396809
7.712,0.999977448242599,171.91083447014486
7.72,0.9999776294435322,171.5344231257638
7.728,0.9999778167690123,171.15807826467574
7.736,0.9999780101290335,170.78179884368214
7.744,0.9999782094328742,170.40558381828825
7.752,0.9999784145891314,170.02943214274424
7.76,0.9999786255057512,169.65334277008523
7.768,0.9999788420900605,169.27731465217178
7.776,0.9999790642487992,168.90134673972986
7.784,0.9999792918881496,168.52543798239068
7.792,0.9999795249137671,168.14958732873055
7.8,0.9999797632308116,167.77379372631034
7.808,0.9999800067439758,167.39805612171477
7.816,0.9999802553575152,167.0223734605917
7.824,0.9999805089752766,166.64674468769095
7.832,0.9999807675007283,166.27116874690344
7.84,0.9999810308369862,165.89564458129962
7.848,0.9999812988868441,165.520171133168
7.856,0.9999815715527994,165.14474734405354
7.864,0.9999818487370816,164.76937215479592
7.872,0.9999821303416789,164.39404450556728
7.88,0.9999824162683651,164.01876333591034
7.888,0.9999827064187252,163.64352758477597
7.896,0.9999830006941821,163.26833619056083
7.904,0.9999832989960218,162.89318809114457
7.912,0.9999836012254186,162.51808222392725
7.92,0.9999839072834605,162.14301752586636
7.928,0.9999842170711732,161.76799293351374
7.936,0.9999845304895445,161.39300738305235
7.944,0.9999848474395487,161.01805981033309
7.952,0.9999851678221697,160.64314915091097
7.96,0.9999854915384245,160.26827434008183
7.968,0.9999858184893858,159.89343431291832
7.976,0.9999861485762046,159.5186280043061
7.984,0.9999864817001335,159.1438543489798
7.992,0.9999868177625475,158.76911228155873
8.0,0.999987156664966,158.39440073658272
8.008,0.9999874983090736,158.01971864854767
8.016,0.9999878425967429,157.6450649519406
8.024000000000001,0.9999881894300522,157.27043858127564
8.032,0.9999885387113094,156.89583847112883
8.04,0.9999888903430686,156.5212635561729
8.048,0.999989244228152,156.14671277121266
8.056000000000001,0.9999896002696689,155.77218505121976
8.064,0.9999899583710347,155.39767933136736
8.072,0.9999903184359887,155.0231945470644
8.08,0.9999906803686142,154.64872963399046
8.088000000000001,0.9999910440733563,154.27428352813016
8.096,0.9999914094550387,153.89985516580725
8.104,0.9999917764188822,153.52544348371865
8.112,0.9999921448705218,153.15104741896866
8.120000000000001,0.9999925147160237,152.77666590910297
8.128,0.9999928858619015,152.40229789214254
8.136,0.9999932582151333,152.027942306617
8.144,0.9999936316831776,151.65359809159852
8.152000000000001,0.9999940061739883,151.27926418673556
8.16,0.9999943815960312,150.90493953228608
8.168,0.9999947578582983,150.53062306915083
8.176,0.9999951348703238,150.15631373890673
8.184000000000001,0.9999955125421978,149.78201048384028
8.192,0.9999958907845801,149.4077122469804
8.2,0.9999962695087167,149.03341797213133
8.208,0.9999966486264509,148.65912660390578
8.216000000000001,0.9999970280502376,148.28483708775778
8.224,0.9999974076931575,147.91054837001553
8.232,0.9999977874689281,147.5362593979137
8.24,0.9999981672919187,147.16196911962624
8.248000000000001,0.999998547077161,146.78767648429925
8.256,0.9999989267403615,146.41338044208305
8.264,0.9999993061979144,146.03907994416463
8.272,0.9999996853669111,145.6647739427999
8.280000000000001,1.0,145.2904613913464
8.288,1.0,144.916141244295
8.296,0.9999999999999999,144.54181245730211
8.304,1.0,144.1674739872218
8.312,1.0,143.7931247921381
8.32,1.0,143.41876383139615
8.328,1.0,143.0443900656352
8.336,1.0,142.6700024568193
8.344,1.0,142.29559996826987
8.352,1.0,141.92118156469692
8.36,1.0,141.54674621223123
8.368,0.9999999999999999,141.17229287845527
8.376,1.0,140.79782053243548
8.384,1.0,140.42332814475319
8.392,1.0,140.04881468753658
8.4,0.9999999999999999,139.67427913449154
8.408,1.0,139.29972046093386
8.416,0.9999999999999999,138.92513764381948
8.424,0.9999999999999998,138.55052966177698
8.432,1.0,138.17589549513778
8.44,1.0,137.8012341259682
8.448,0.9999999999999999,137.42654453809988
8.456,0.9999999999999999,137.05182571716168
8.464,1.0,136.6770766506102
8.472,1.0,136.3022963277612
8.48,0.9999999999999999,135.92748373982042
8.488,0.9999999999999999,135.55263787991495
8.496,0.9999999999999999,135.17775774312364
8.504,0.9999999999999999,134.80284232650877
8.512,0.9999999999999998,134.42789062914633
8.52,1.0,134.0529016521575
8.528,1.0,133.67787439873896
8.536,1.0,133.30280787419443
8.544,0.9999999999999999,132.92770108596474
8.552,1.0,132.55255304365943
8.56,1.0,132.1773627590868
8.568,1.0,131.8021292462855
8.576,1.0,131.4268515215544
8.584,1.0000000000000002,131.0515286034842
8.592,1.0,130.67615951298745
8.6,1.0,130.3007432733299
8.608,1.0,129.92527891016056
8.616,0.9999999999999999,129.54976545154304
8.624,1.0,129.1742019279856
8.632,1.0,128.7985873724724
8.64,1.0,128.42292082049363
8.648,1.0,128.04720131007682
8.656,1.0,127.67142788181654
8.664,1.0,127.29559957890609
8.672,1.0,126.91971544716725
8.68,1.0,126.54377453508151
8.688,1.0,126.16777589382023
8.696,1.0,125.7917185772757
8.704,1.0,125.41560164209122
8.712,1.0,125.03942414769232
8.72,0.9999999999999999,124.66318515631669
8.728,1.0,124.28688373304546
8.736,1.0,123.91051894583306
8.744,1.0,123.53408986553868
8.752,0.9999999999999999,123.15759556595594
8.76,1.0,122.78103512384433
8.768,1.0,122.40440761895904
8.776,1.0,122.02771213408232
8.784,0.9999999999999999,121.6509477550533
8.792,1.0,121.27411357079936
8.8,1.0,120.89720867336594
8.808,1.0,120.5202321579479
8.815999999999999,0.9999999999999999,120.14318312291964
8.824,1.0,119.76606066986562
8.832,1.0,119.38886390361155
8.84,1.0,119.01159193225453
8.847999999999999,0.9999999999999999,118.63424386719366
8.856,1.0,118.25681882316074
8.864,0.9999999999999999,117.87931591825115
8.872,1.0,117.50173427395421
8.879999999999999,1.0,117.12407301518373
8.888,1.0,116.74633127030876
8.896,1.0000000000000002,116.36850817118442
8.904,0.9999999999999999,115.99060285318234
8.911999999999999,1.0,115.6126144552212
8.92,0.9999999999999999,115.23454211979755
8.928,0.9999999999999999,114.85638499301653
8.936,1.0,114.47814222462247
8.943999999999999,1.0,114.09981296802931
8.952,1.0,113.72139638035148
8.96,0.9999999999999999,113.34289162243473
8.968,1.0,112.96429785888662
8.975999999999999,0.9999999999999999,112.58561425810699
8.984,1.0,112.20683999231886
8.992,1.0,111.82797423759925
9.0,1.0,111.44901617390967
9.008,1.0,111.06996498512665
9.016,1.0,110.69081985907258
9.024000000000001,0.9999999999999999,110.31157998754658
9.032,1.0,109.93224456635492
9.04,1.0,109.55281279534165
9.048,1.0,109.17328387841938
9.056000000000001,0.9999999999999999,108.79365702360008
9.064,0.9999999999999999,108.41393144302566
9.072,1.0,108.03410635299839
9.08,1.0,107.65418097401182
9.088000000000001,0.9999999999999999,107.2741545307815
9.096,1.0,106.89402625227551
9.104,0.9999999999999999,106.51379537174498
9.112,1.0,106.13346112675474
9.120000000000001,1.0,105.75302275921432
9.128,0.9999999999999999,105.37247951540824
9.136,0.9999999999999999,104.99183064602654
9.144,1.0,104.61107540619545
9.152000000000001,1.0,104.2302130555082
9.16,0.9999999999999999,103.84924285805546
9.168,1.0,103.46816408245562
9.176,1.0,103.08697600188557
9.184000000000001,0.9999999999999999,102.70567789411139
9.192,0.9999999999999999,102.32426904151862
9.2,1.0,101.94274873114269
9.208,1.0,101.56111625469939
9.216000000000001,0.9999999999999999,101.17937090861564
9.224,1.0,100.79751199405963
9.232,1.0,100.4155388169711
9.24,0.9999999999999998,100.03345068809183
9.248000000000001,1.0,99.65124692299625
9.256,1.0,99.26892684212142
9.264,1.0,98.88648977079727
9.272,0.9999999999999999,98.50393503927697
9.280000000000001,1.0,98.12126198276734
9.288,1.0,97.73846994145883
9.296,0.9999999999999999,97.35555826055547
9.304,1.0,96.97252629030525
9.312000000000001,1.0,96.58937338603023
9.32,1.0,96.20609890815648
9.328,1.0,95.82270222224382
9.336,1.0,95.43918269901599
9.344,1.0,95.05553971439076
9.352,0.9999999999999999,94.67177264950918
9.36,1.0,94.287880890766
9.368,1.0,93.90386382983883
9.376,1.0,93.51972086371833
9.384,0.9999999999999999,93.13545139473739
9.392,1.0,92.75105483060112
9.4,0.9999999999999999,92.3665305844158
9.408,0.9999999999999999,91.98187807471903
9.416,1.0,91.59709672550834
9.424,1.0,91.21218596627116
9.432,1.0,90.82714523201354
9.44,1.0,90.44197396328971
9.448,1.0,90.05667160623078
9.456,0.9999999999999999,89.67123761257423
9.464,1.0,89.28567143969222
9.472,0.9999999999999999,88.89997255062116
9.48,1.0,88.51414041408972
9.488,1.0,88.12817450454826
9.496,1.0,87.74207430219666
9.504,0.9999999999999999,87.35583929301359
9.512,1.0,86.96946896878414
9.52,0.9999999999999999,86.58296282712887
9.528,1.0,86.19632037153134
9.536,1.0,85.8095411113668
9.544,0.9999999999999999,85.42262456192965
9.552,0.9999999999999999,85.03557024446191
9.56,0.9999999999999999,84.64837768618032
9.568,1.0,84.26104642030474
9.576,1.0,83.87357598608506
9.584,1.0,83.48596592882915
9.592,1.0,83.09821579992965
9.6,0.9999999999999999,82.71032515689176
9.608,0.9999999999999999,82.32229356335965
9.616,0.9999999999999998,81.93412058914407
9.624,0.9999999999999999,81.54580581024844
9.632,0.9999999999999998,81.15734880889616
9.64,1.0,80.76874917355653
9.648,1.0,80.38000649897175
9.656,0.9999999999999998,79.99112038618246
9.664,1.0,79.60209044255454
9.672,0.9999999999999999,79.21291628180434
9.68,0.9999999999999999,78.82359752402509
9.688,1.0,78.4341337957119
9.696,0.9999999999999999,78.04452472978784
9.704,0.9999999999999999,77.65476996562859
9.712,1.0,77.26486914908817
9.72,0.9999999999999999,76.87482193252329
9.728,0.9999999999999999,76.4846279748187
9.736,1.0,76.09428694141117
9.744,0.9999999999999999,75.70379850431459
9.752,1.0,75.31316234214346
9.76,0.9999999999999999,74.92237814013758
9.768,1.0,74.53144559018527
9.776,0.9999999999999999,74.14036439084774
9.784,1.0,73.74913424738168
9.792,0.9999999999999999,73.35775487176335
9.8,0.9999999999999999,72.96622598271084
9.808,0.9999999999999999,72.57454730570761
9.816,1.0,72.18271857302436
9.824,1.0,71.79073952374225
9.832,0.9999999999999999,71.39860990377417
9.84,0.9999999999999999,71.00632946588753
9.847999999999999,1.0,70.61389796972531
9.856,1.0,70.2213151818278
9.864,0.9999999999999999,69.82858087565401
9.872,1.0,69.43569483160256
9.879999999999999,0.9999999999999998,69.04265683703218
9.888,0.9999999999999999,68.64946668628247
9.896,1.0,68.25612418069421
9.904,0.9999999999999999,67.86262912862945
9.911999999999999,0.9999999999999998,67.46898134549073
9.92,0.9999999999999999,67.07518065374103
9.928,1.0,66.681226882923
9.936,0.9999999999999999,66.28711986967778
9.943999999999999,1.0,65.8928594577635
9.952,1.0,65.49844549807385
9.96,1.0,65.10387784865631
9.968,1.0,64.70915637472984
9.975999999999999,1.0,64.31428094870223
9.984,1.0,63.919251450187566
9.992,1.0,63.52406776602318
10.0,1.0,63.12872979028628
10.008,1.0,62.73323742431004
10.016,1.0,62.33759057669978
10.024000000000001,1.0,61.94178916334884
10.032,1.0,61.54583310745386
10.04,1.0,61.14972233952956
10.048,1.0,60.753456797423745
10.056000000000001,0.9999999999999999,60.35703642633185
10.064,1.0,59.960461178810824
10.072,0.9999999999999999,59.563731014792715
10.08,1.0,59.16684590159822
10.088000000000001,0.9999999999999999,58.76980581394996
10.096,0.9999999999999999,58.37261073398491
10.104,1.0,57.97526065126664
10.112,0.9999999999999998,57.57775556279744
10.120000000000001,1.0,57.18009547303017
