freq,mag,phase
6.0,0.9999891584380819,-8.254498205405651
6.008,0.9999904476616828,-8.609029141394762
6.016,0.9999916673542786,-8.96347869271228
6.024,0.9999928190362372,-9.31784345969707
6.032,0.9999939042124294,-9.672120049319087
6.04,0.9999949243722049,-10.026305075429445
6.048,0.99999588098937,-10.38039515900931
6.056,0.999996775522169,-10.73438692841753
6.064,0.9999976094132663,-11.088277019636967
6.072,0.9999983840897325,-11.442062076519457
6.08,0.9999991009630326,-11.795738751029441
6.088,0.9999997614290153,-12.149303703486117
6.096,0.9999999999999999,-12.502753602804168
6.104,0.9999999999999999,-12.856085126732909
6.112,0.9999999999999999,-13.209294962094004
6.12,1.0,-13.562379805017452
6.128,0.9999999999999999,-13.915336361176065
6.136,0.9999999999999999,-14.268161346018175
6.144,0.9999999999999999,-14.620851484998719
6.152,1.0,-14.973403513808497
6.16,0.9999999999999999,-15.32581417860177
6.168,1.0,-15.67808023622186
6.176,0.9999999999999999,-16.030198454425054
6.184,1.0,-16.38216561210251
6.192,1.0,-16.73397849950036
6.2,1.0,-17.085633918437665
6.208,1.0,-17.437128682522573
6.216,1.0,-17.7884596173663
6.224,0.9999999999999999,-18.13962356079515
6.232,0.9999999999999999,-18.490617363060373
6.24,1.0,-18.841437887045952
6.248,1.0,-19.192082008474188
6.256,0.9999999999999999,-19.542546616109167
6.264,0.9999999999999999,-19.892828611957913
6.272,0.9999999999999999,-20.24292491146948
6.28,0.9999999999999999,-20.59283244373148
6.288,1.0,-20.942548151664706
6.296,1.0,-21.29206899221507
6.304,0.9999999999999999,-21.641391936543382
6.312,1.0,-21.990513970212763
6.32,0.9999999999999999,-22.33943209337361
6.328,0.9999996316165225,-22.688143320946143
6.336,0.9999991509223064,-23.03664468280049
6.344,0.9999986503088548,-23.384933223934436
6.352,0.9999981306665899,-23.73300600464854
6.36,0.9999975928713537,-24.080860100718763
6.368,0.9999970377844747,-24.42849260356669
6.376,0.9999964662528377,-24.77590062042709
6.384,0.999995879108953,-25.123081274512973
6.392,0.9999952771710298,-25.47003170517802
6.4,0.9999946612430485,-25.81674906807651
6.408,0.9999940321148383,-26.163230535320537
6.416,0.9999933905621525,-26.50947329563464
6.424,0.9999927373467489,-26.85547455450781
6.432,0.9999920732164694,-27.201231534342835
6.44,0.9999913989053225,-27.546741474602975
6.448,0.9999907151335669,-27.892001631955953
6.456,0.9999900226077956,-28.23700928041524
6.464,0.9999893220210244,-28.581761711478688
6.472,0.9999886140527783,-28.926256234264454
6.48,0.9999878993691819,-29.270490175644124
6.4879999999999995,0.9999871786230494,-29.61446088037312
6.496,0.9999864524539772,-29.958165711218694
6.504,0.9999857214884379,-30.301602049084423
6.5120000000000005,0.9999849863398742,-30.64476729313295
6.52,0.9999842476087958,-30.987658860904993
6.5280000000000005,0.999983505882875,-31.33027418843656
6.536,0.9999827617370477,-31.67261073037235
6.5440000000000005,0.9999820157336111,-32.01466596007754
6.552,0.999981268422325,-32.356437369745564
6.5600000000000005,0.9999805203405137,-32.69792247050445
6.568,0.9999797720131685,-33.03911879251906
6.5760000000000005,0.9999790239530518,-33.38002388509182
6.584,0.9999782766608024,-33.72063531675946
6.592,0.9999775306250407,-34.06095067538816
6.6,0.9999767863224759,-34.40096756826491
6.608,0.9999760442180134,-34.74068362218685
6.616,0.9999753047648635,-35.0800964835474
6.624,0.9999745684046506,-35.41920381841981
6.632,0.9999738355675236,-35.75800331263804
6.64,0.999973106672266,-36.0964926718746
6.648,0.9999723821264087,-36.434669621715976
6.656,0.9999716623263416,-36.772531907735136
6.664,0.9999709476574264,-37.11007729556131
6.672,0.9999702384941107,-37.44730357094712
6.68,0.999969535200042,-37.784208539832896
6.688,0.9999688381281817,-38.12079002840841
6.696,0.9999681476209221,-38.45704588317182
6.704,0.9999674640102009,-38.79297397098597
6.712,0.9999667876176174,-39.12857217913194
6.72,0.9999661187545492,-39.463838415360065
6.728,0.9999654577222704,-39.79877060793815
6.736,0.9999648048120678,-40.13336670569723
6.744,0.9999641603053592,-40.46762467807437
6.752,0.9999635244738109,-40.80154251515338
6.76,0.9999628975794576,-41.13511822770225
6.768,0.9999622798748193,-41.46834984720866
6.776,0.9999616716030205,-41.801235425912424
6.784,0.9999610729979113,-42.13377303683568
6.792,0.999960484284183,-42.4659607738103
6.8,0.9999599056774902,-42.797796751503014
6.808,0.9999593373845692,-43.12927910543782
6.816,0.9999587796033583,-43.46040599201597
6.824,0.9999582325231157,-43.79117558853354
6.832,0.99995769632454,-44.12158609319651
6.84,0.9999571711798912,-44.45163572513328
6.848,0.9999566572531072,-44.78132272440492
6.856,0.9999561546999257,-45.110645352013
6.864,0.9999556636680021,-45.43960188990493
6.872,0.9999551842970299,-45.768190640977046
6.88,0.9999547167188586,-46.09640992907529
6.888,0.9999542610576139,-46.42425809899358
6.896,0.9999538174298138,-46.751733516469876
6.904,0.9999533859444908,-47.078834568179964
6.912,0.9999529667033079,-47.405559661729065
6.92,0.9999525598006761,-47.73190722564097
6.928,0.9999521653238735,-48.05787570934523
6.936,0.9999517833531615,-48.38346358316198
6.944,0.9999514139619025,-48.70866933828467
6.952,0.9999510572166767,-49.033491486760575
6.96,0.9999507131773969,-49.35792856146928
6.968,0.9999503818974262,-49.681979116098965
6.976,0.9999500634236923,-50.005641725120626
6.984,0.9999497577968027,-50.328914983760356
6.992,0.9999494650511594,-50.65179750796941
7.0,0.9999491852150718,-50.974287934392365
7.008,0.9999489183108722,-51.29638492033332
7.016,0.9999486643550263,-51.618087143720125
7.024,0.9999484233582484,-51.93939330306656
7.032,0.9999481953256099,-52.260302117432865
7.04,0.9999479802566532,-52.580812326383985
7.048,0.9999477781455013,-52.90092268994644
7.056,0.9999475889809679,-53.22063198856296
7.064,0.9999474127466659,-53.53993902304549
7.072,0.9999472494211182,-53.858842614526466
7.08,0.9999470989778634,-54.17734160440817
7.088,0.9999469613855639,-54.49543485431049
7.096,0.9999468366081141,-54.81312124601691
7.104,0.9999467246047435,-55.13039968141889
7.112,0.9999466253301244,-55.44726908245849
7.12,0.9999465387344741,-55.76372839106942
7.128,0.9999464647636606,-56.07977656911655
7.136,0.9999464033593044,-56.39541259833372
7.144,0.9999463544588804,-56.71063548026014
7.152,0.9999463179958197,-57.02544423617514
7.16,0.9999462938996109,-57.339837907031516
7.168,0.9999462820958971,-57.65381555338739
7.176,0.9999462825065772,-57.967376255336575
7.184,0.999946295049904,-58.280519112437574
7.192,0.9999463196405791,-58.59324324364122
7.2,0.9999463561898515,-58.905547787216875
7.208,0.9999464046056113,-59.21743190067734
7.216,0.9999464647924851,-59.52889476070235
7.224,0.9999465366519298,-59.83993556306112
7.232,0.9999466200823243,-60.150553522533095
7.24,0.9999467149790625,-60.46074787282796
7.248,0.999946821234643,-60.77051786650418
7.256,0.9999469387387604,-61.07986277488641
7.264,0.9999470673783932,-61.38878188798181
7.272,0.9999472070378922,-61.697274514395154
7.28,0.9999473575990683,-62.00533998124289
7.288,0.9999475189412771,-62.31297763406605
7.296,0.9999476909415059,-62.620186836742214
7.304,0.9999478734744581,-62.92696697139647
7.312,0.9999480664126338,-63.23331743831102
7.32,0.9999482696264159,-63.53923765583446
7.328,0.9999484829841487,-63.844727060289465
7.336,0.9999487063522197,-64.1497851058799
7.344,0.9999489395951383,-64.45441126459696
7.352,0.9999491825756147,-64.75860502612443
7.36,0.9999494351546374,-65.06236589774308
7.368,0.9999496971915499,-65.36569340423421
7.376,0.9999499685441249,-65.66858708778247
7.384,0.9999502490686404,-65.97104650787783
7.392,0.9999505386199523,-66.27307124121677
7.4,0.9999508370515675,-66.5746608816029
7.4079999999999995,0.9999511442157151,-66.87581503984659
7.416,0.9999514599634164,-67.17653334366436
7.4239999999999995,0.9999517841445554,-67.47681543757692
7.432,0.9999521166079475,-67.77666098280744
7.4399999999999995,0.9999524572014055,-68.07606965717834
7.448,0.9999528057718072,-68.37504115500828
7.4559999999999995,0.9999531621651624,-68.6735751870078
7.464,0.999953526226674,-68.97167148017526
7.4719999999999995,0.9999538978008055,-69.26932977769127
7.48,0.9999542767313396,-69.56654983881374
7.4879999999999995,0.9999546628614444,-69.86333143877131
7.496,0.9999550560337301,-70.1596743686573
7.504,0.9999554560903103,-70.45557843532247
7.5120000000000005,0.9999558628728606,-70.75104346126795
7.52,0.9999562762226762,-71.04606928453724
7.5280000000000005,0.9999566959807289,-71.3406557586084
7.536,0.9999571219877227,-71.6348027522852
7.5440000000000005,0.9999575540841478,-71.92851014958876
7.552,0.9999579921103361,-72.22177784964798
7.5600000000000005,0.9999584359065127,-72.51460576659056
7.568,0.9999588853128477,-72.8069938294329
7.5760000000000005,0.9999593401695093,-73.09894198197051
7.584,0.9999598003167104,-73.3904501826675
7.5920000000000005,0.9999602655947607,-73.68151840454648
7.6,0.9999607358441134,-73.97214663507764
7.6080000000000005,0.999961210905413,-74.26233487606835
7.616,0.999961690619541,-74.55208314355167
7.6240000000000006,0.9999621748276619,-74.84139146767593
7.632,0.9999626633712669,-75.13025989259273
7.640000000000001,0.9999631560922184,-75.4186884763464
7.648,0.9999636528327922,-75.70667729076182
7.656000000000001,0.9999641534357191,-75.99422642133355
7.664,0.9999646577442258,-76.28133596711375
7.672,0.9999651656020749,-76.56800604060093
7.68,0.9999656768536047,-76.85423676762815
7.688,0.9999661913437663,-77.14002828725135
7.696,0.9999667089181615,-77.4253807516378
7.704,0.9999672294230794,-77.71029432595435
7.712,0.9999677527055323,-77.99476918825602
7.72,0.999968278613289,-78.27880552937422
7.728,0.9999688069949115,-78.56240355280555
7.736,0.9999693376997855,-78.84556347460017
7.744,0.9999698705781537,-79.12828552325065
7.752,0.999970405481148,-79.41056993958072
7.76,0.9999709422608193,-79.69241697663425
7.768,0.9999714807701676,-79.97382689956424
7.776,0.9999720208631706,-80.25479998552213
7.784,0.9999725623948135,-80.5353365235471
7.792,0.9999731052211153,-80.81543681445575
7.8,0.999973649199155,-81.09510117073171
7.808,0.9999741941870992,-81.37432991641569
7.816,0.9999747400442267,-81.65312338699559
7.824,0.9999752866309516,-81.93148192929691
7.832,0.9999758338088497,-82.20940590137339
7.84,0.9999763814406795,-82.48689567239789
7.848,0.9999769293904043,-82.76395162255348
7.856,0.9999774775232156,-83.04057414292491
7.864,0.9999780257055524,-83.31676363539027
7.872,0.9999785738051217,-83.59252051251299
7.88,0.9999791216909185,-83.86784519743408
7.888,0.9999796692332439,-84.14273812376483
7.896,0.9999802163037236,-84.41719973547968
7.904,0.9999807627753249,-84.69123048680946
7.912,0.9999813085223742,-84.96483084213503
7.92,0.9999818534205729,-85.23800127588125
7.928,0.9999823973470123,-85.51074227241129
7.936,0.999982940180189,-85.78305432592131
7.944,0.9999834818000191,-86.05493794033553
7.952,0.9999840220878518,-86.32639362920172
7.96,0.9999845609264819,-86.59742191558705
7.968,0.9999850982001631,-86.86802333197436
7.976,0.9999856337946191,-87.13819842015876
7.984,0.9999861675970553,-87.4079477311449
7.992,0.9999866994961684,-87.67727182504431
8.0,0.9999872293821581,-87.94617127097348
8.008,0.9999877571467353,-88.21464664695219
8.016,0.9999882826831317,-88.48269853980254
8.024000000000001,0.9999888058861076,-88.75032754504798
8.032,0.9999893266519606,-89.0175342668132
8.04,0.9999898448785329,-89.2843193177246
8.048,0.999990360465217,-89.55068331881075
8.056000000000001,0.9999908733129632,-89.81662689940362
8.064,0.9999913833242848,-90.08215069704026
8.072,0.9999918904032639,-90.34725535736519
8.08,0.9999923944555564,-90.61194153403294
8.088000000000001,0.9999928953883943,-90.8762098886111
8.096,0.9999933931105928,-91.14006109048421
8.104,0.9999938875325518,-91.40349581675798
8.112,0.9999943785662581,-91.666514752164
8.120000000000001,0.9999948661252905,-91.92911858896481
8.128,0.9999953501248193,-92.19130802685986
8.136,0.9999958304816092,-92.45308377289189
8.144,0.9999963071140208,-92.71444654135374
8.152000000000001,0.9999967799420099,-92.97539705369552
8.16,0.9999972488871297,-93.2359360384328
8.168,0.9999977138725297,-93.49606423105509
8.176,0.9999981748229552,-93.75578237393485
8.184000000000001,0.9999986316647472,-94.01509121623693
8.192,0.9999990843258412,-94.27399151382885
8.2,0.999999532735764,-94.53248402919164
8.208,0.9999999768256347,-94.79056953133097
8.216000000000001,1.0,-95.04824879568895
8.224,0.9999999999999999,-95.3055226040566
8.232,1.0,-95.56239174448699
8.24,1.0,-95.81885701120865
8.248000000000001,1.0,-96.07491920453967
8.256,1.0,-96.33057913080248
8.264,1.0,-96.58583760223927
8.272,1.0,-96.84069543692776
8.280000000000001,1.0,-97.09515345869767
8.288,1.0,-97.34921249704766
8.296,1.0,-97.60287338706333
8.304,1.0,-97.85613696933518
8.312,0.9999999999999999,-98.10900408987736
8.32,0.9999999999999999,-98.36147560004743
8.328,1.0,-98.61355235646593
8.336,1.0,-98.86523522093746
8.344,1.0,-99.11652506037143
8.352,1.0,-99.36742274670424
8.36,0.9999999999999999,-99.6179291568213
8.368,1.0,-99.86804517248041
8.376,1.0,-100.11777168023494
8.384,1.0,-100.3671095713584
8.392,0.9999999999999999,-100.61605974176884
8.4,0.9999999999999999,-100.86462309195463
8.408,1.0,-101.11280052689996
8.416,0.9999999999999999,-101.36059295601191
8.424,0.9999999999999999,-101.60800129304712
8.432,1.0,-101.85502645604004
8.44,1.0,-102.1016693672308
8.448,0.9999999999999999,-102.34793095299466
8.456,1.0,-102.59381214377102
8.464,1.0,-102.83931387399417
8.472,0.9999999999999999,-103.08443708202338
8.48,1.0,-103.32918271007487
8.488,1.0,-103.5735517041531
8.496,1.0,-103.8175450139839
8.504,1.0,-104.06116359294701
8.512,1.0,-104.30440839801028
8.52,0.9999999999999999,-104.54728038966347
8.528,0.9999999999999999,-104.7897805318536
8.536,1.0,-105.03190979191986
8.544,0.9999999999999999,-105.27366914053026
8.552,1.0,-105.51505955161767
8.56,1.0,-105.7560820023175
8.568,1.0,-105.99673747290504
8.576,0.9999999999999999,-106.23702694673429
8.584,1.0,-106.4769514101764
8.592,0.9999999999999999,-106.71651185255963
8.6,1.0,-106.95570926610908
8.608,1.0,-107.19454464588763
8.616,1.0,-107.43301898973685
8.624,1.0,-107.67113329821913
8.632,0.9999999999999999,-107.90888857455974
8.64,1.0,-108.14628582459004
8.648,1.0,-108.38332605669055
8.656,1.0,-108.62001028173549
8.664,1.0,-108.85633951303691
8.672,0.9999999999999999,-109.09231476629026
8.68,1.0,-109.32793705951961
8.688,0.9999999999999999,-109.56320741302446
8.696,0.9999999999999999,-109.798126849326
8.704,0.9999999999999999,-110.0326963931149
8.712,0.9999999999999999,-110.26691707119888
8.72,1.0,-110.50078991245137
8.728,1.0,-110.73431594776022
8.736,1.0,-110.96749620997753
8.744,1.0,-111.20033173386933
8.752,1.0,-111.43282355606654
8.76,1.0,-111.6649727150156
8.768,1.0,-111.89678025093053
8.776,1.0,-112.12824720574476
8.784,1.0,-112.359374623064
8.792,1.0,-112.59016354811921
8.8,1.0,-112.82061502772056
8.808,0.9999999999999999,-113.0507301102113
8.815999999999999,1.0,-113.28050984542283
8.824,0.9999999999999999,-113.50995528462967
8.832,0.9999999999999999,-113.73906748050524
8.84,1.0,-113.96784748707805
8.847999999999999,1.0,-114.19629635968856
8.856,1.0,-114.42441515494637
8.864,0.9999999999999999,-114.65220493068769
8.872,1.0,-114.87966674593375
8.879999999999999,1.0,-115.10680166084946
8.888,0.9999999999999999,-115.33361073670267
8.896,1.0,-115.56009503582348
8.904,0.9999999999999998,-115.78625562156468
8.911999999999999,1.0,-116.01209355826226
8.92,0.9999999999999999,-116.2376099111965
8.928,1.0,-116.46280574655334
8.936,1.0,-116.68768213138647
8.943999999999999,1.0,-116.91224013357994
8.952,0.9999999999999999,-117.13648082181108
8.96,0.9999999999999998,-117.36040526551342
8.968,1.0,-117.58401453484106
8.975999999999999,0.9999999999999999,-117.80730970063273
8.984,0.9999999999999999,-118.03029183437661
8.992,1.0,-118.25296200817523
9.0,0.9999999999999999,-118.47532129471129
9.008,1.0,-118.69737076721385
9.016,0.9999999999999999,-118.91911149942457
9.024000000000001,0.9999999999999999,-119.14054456556464
9.032,1.0,-119.36167104030213
9.04,1.0,-119.58249199871999
9.048,1.0,-119.80300851628397
9.056000000000001,1.0,-120.02322166881122
9.064,1.0,-120.24313253243947
9.072,0.9999999999999999,-120.46274218359646
9.08,1.0,-120.6820516989697
9.088000000000001,1.0,-120.9010621554767
9.096,1.0,-121.11977463023565
9.104,1.0,-121.33819020053664
9.112,1.0,-121.55630994381289
9.120000000000001,1.0,-121.7741349376127
9.128,1.0,-121.99166625957164
9.136,1.0,-122.20890498738528
9.144,1.0,-122.42585219878218
9.152000000000001,0.9999999999999999,-122.64250897149714
9.16,0.9999999999999999,-122.85887638324509
9.168,1.0,-123.07495551169535
9.176,1.0,-123.29074743444603
9.184000000000001,1.0,-123.50625322899882
9.192,1.0,-123.72147397273439
9.2,1.0,-123.93641074288814
9.208,1.0,-124.15106461652594
9.216000000000001,0.9999999999999999,-124.36543667052058
9.224,1.0,-124.57952798152849
9.232,0.9999999999999999,-124.79333962596672
9.24,1.0,-125.0068726799906
9.248000000000001,1.0,-125.22012821947102
9.256,1.0,-125.43310731997286
9.264,0.9999999999999998,-125.64581105673354
9.272,0.9999999999999999,-125.8582405046414
9.280000000000001,1.0,-126.07039673821512
9.288,1.0,-126.28228083158291
9.296,1.0,-126.49389385846254
9.304,1.0,-126.70523689214134
9.312000000000001,1.0,-126.9163110054564
9.32,1.0,-127.12711727077554
9.328,1.0,-127.33765675997842
9.336,1.0,-127.54793054443775
9.344,0.9999999999999998,-127.75793969500083
9.352,1.0,-127.96768528197198
9.36,1.0,-128.17716837509437
9.368,0.9999999999999999,-128.3863900435329
9.376,1.0,-128.595351355857
9.384,0.9999999999999999,-128.8040533800239
9.392,1.0,-129.01249718336186
9.4,1.0,-129.2206838325545
9.408,1.0,-129.42861439362412
9.416,1.0,-129.6362899319168
9.424,1.0,-129.84371151208654
9.432,0.9999999999999999,-130.05088019808045
9.44,0.9999999999999999,-130.25779705312368
9.448,0.9999999999999999,-130.46446313970546
9.456,1.0,-130.670879519564
9.464,1.0,-130.87704725367342
9.472,0.9999999999999999,-131.08296740222937
9.48,1.0,-131.288641024636
9.488,1.0,-131.49406917949247
9.496,1.0,-131.6992529245804
9.504,1.0,-131.90419331685078
9.512,1.0,-132.1088914124121
9.52,1.0,-132.31334826651758
9.528,0.9999999999999999,-132.5175649335539
9.536,0.9999999999999998,-132.72154246702905
9.544,0.9999999999999999,-132.92528191956131
9.552,1.0,-133.1287843428677
9.56,1.0,-133.33205078775362
9.568,1.0,-133.53508230410145
9.576,0.9999999999999998,-133.73787994086086
9.584,0.9999999999999998,-133.940444746038
9.592,1.0000000000000002,-134.14277776668592
9.6,1.0,-134.34488004889462
9.608,1.0,-134.5467526377816
9.616,0.9999999999999999,-134.74839657748257
9.624,1.0,-134.94981291114243
9.632,0.9999999303732691,-135.15100268090617
9.64,0.9999996398553558,-135.35196692791075
9.648,0.9999993490172631,-135.55270669227602
9.656,0.9999990579102672,-135.75322301309714
9.664,0.999998766585393,-135.95351692843616
9.672,0.9999984750934079,-136.15358947531445
9.68,0.9999981834848153,-136.35344168970505
9.688,0.9999978918098505,-136.55307460652537
9.696,0.9999976001184732,-136.75248925962984
9.704,0.9999973084603632,-136.95168668180324
9.712,0.9999970168849138,-137.15066790475367
9.72,0.9999967254412279,-137.34943395910614
9.728,0.999996434178111,-137.54798587439606
9.736,0.9999961431440676,-137.74632467906318
9.744,0.9999958523872946,-137.94445140044547
9.752,0.9999955619556767,-138.14236706477354
9.76,0.9999952718967824,-138.34007269716466
9.768,0.9999949822578579,-138.53756932161772
9.776,0.9999946930858218,-138.73485796100763
9.784,0.9999944044272624,-138.93193963708057
9.792,0.9999941163284315,-139.12881537044868
9.8,0.9999938288352397,-139.32548618058593
9.808,0.9999935419932529,-139.52195308582287
9.816,0.9999932558476866,-139.71821710334294
9.824,0.9999929704434037,-139.9142792491777
9.832,0.9999926858249076,-140.11014053820327
9.84,0.9999924020363397,-140.30580198413605
9.847999999999999,0.999992119121475,-140.50126459952938
9.856,0.999991837123718,-140.69652939576974
9.864,0.9999915560860985,-140.8915973830736
9.872,0.9999912760512679,-141.08646957048376
