freq,mag,phase
6.0,0.9994125159734816,-118.68232825625711
6.002285056,0.9995794491395561,-118.81197248052295
6.004570112,0.9997725871884312,-118.94425939208958
6.006855168,0.9999803102285992,-119.07940189822963
6.009140224,1.0001894021779398,-119.2176537105438
6.01142528,1.0003866419952059,-119.35881723488407
6.013710336,1.0005594880260749,-119.50267009552488
6.015995392,1.000696969289262,-119.64880019714411
6.018280448,1.0007905789442963,-119.79660950342421
6.020565504,1.0008340803089881,-119.94542742787809
6.02285056,1.0008249108162235,-120.09447943939396
6.025135616,1.0007636924802514,-120.24304163360485
6.027420672,1.0006541057396003,-120.3903772827647
6.029705728,1.0005030354894904,-120.53582235202242
6.031990784,1.0003201637784918,-120.67881532063143
6.03427584,1.0001169479382195,-120.81903441488599
6.036560896,0.9999063186202389,-120.95622978895668
6.038845952,0.9997016331500352,-121.09043920332292
6.041131008,0.9995156777951063,-121.22178944703599
6.043416064,0.9993605071584448,-121.35063145123826
6.04570112,0.9992458259437117,-121.47757547673969
6.047986176,0.9991789041031998,-121.60318047942806
6.050271232,0.9991642006436452,-121.7281492733539
6.052556288,0.9992024865166517,-121.8533179786021
6.054841344,0.999291516254519,-121.97940112337068
6.0571264,0.9994254852821981,-122.10711283063127
6.059411456,0.9995960100659671,-122.23705272873431
6.061696512,0.9997923168651064,-122.3696434698843
6.063981568,1.0000018180906285,-122.50518731843758
6.066266624,1.0002113385974345,-122.64378953548386
6.06855168,1.0004076732846319,-122.78534950948048
6.070836736,1.000578351520326,-122.929563893584
6.073121792,1.000712403267462,-123.07599805839499
6.075406848,1.0008015846371094,-123.22407068159124
6.077691904,1.0008400774418562,-123.37304125994383
6.07997696,1.0008254645971963,-123.52220699068602
6.082262016,1.0007586714700638,-123.67078342823908
6.084547072,1.0006438860911115,-123.81801892549748
6.086832128,1.0004882834894786,-123.96333866451378
6.089117184,1.0003018476157035,-124.10616539005525
6.09140224,1.0000961317714594,-124.24618892346449
6.093687296,0.9998843326034775,-124.38311251662128
6.095972352,0.9996797685994545,-124.51701908290183
6.098257408,0.999495574532643,-124.64812961667079
6.100542464,0.999343280089427,-124.77677410089724
6.10282752,0.9992325636602287,-124.90347854307012
6.105112576,0.9991706236666419,-125.02895965445876
6.107397632,0.9991612055490185,-125.15390782083041
6.1096832,0.9992050701565679,-125.27911625832873
6.111968256,0.9992994590482932,-125.40530803153959
6.114253312,0.9994383803459673,-125.53322654724946
6.116538368,0.9996130163377304,-125.66342324664537
6.118823424,0.9998121986573223,-125.79630586838276
6.12110848,1.0000234898834415,-125.93218709467234
6.123393536,1.0002334323487065,-126.07117333823754
6.125678592,1.0004287088800297,-126.21305215500789
6.127963648,1.0005970527310815,-126.357582117943
6.130248704,1.0007275678588754,-126.50431709165261
6.13253376,1.000812206559096,-126.65259151948528
6.134818816,1.0008455334477206,-126.80169233996737
6.137103872,1.0008254402882186,-126.95092357776349
6.139388928,1.0007530356794998,-127.09952705652451
6.141673984,1.0006330356244284,-127.24667053604202
6.14395904,1.0004730796472447,-127.39180475149897
6.146244096,1.0002829604141996,-127.53441393723858
6.148529152,1.0000749733363798,-127.67412878037094
6.150814208,0.9998621788871183,-127.81077789358343
6.153099264,0.9996579873854616,-127.9444040357511
6.15538432,0.9994755587576837,-128.07522835462456
6.157669376,0.9993262234579324,-128.20361084818285
6.159954432,0.9992196687945143,-128.33011867255718
6.162239488,0.9991625649947053,-128.45546942183034
6.164524544,0.999158669962919,-128.5803631812039
6.1668096,0.9992081088752791,-128.7055695020633
6.169094656,0.9993078778174097,-128.83187158404706
6.171379712,0.999451604423814,-128.9599473648101
6.173664768,0.9996302648864193,-129.0903637343939
6.175949824,0.9998324389267396,-129.22354348570946
6.17823488,1.0000453109351801,-129.35973661803718
6.180519936,1.0002555894079261,-129.4990343207884
6.182804992,1.000449710376302,-129.6412256888944
6.185090048,1.0006154480015537,-129.78607394871162
6.187375104,1.000742367604776,-129.93301776377336
6.18966016,1.0008225153252628,-130.08147674558083
6.191945216,1.0008505849795826,-130.23072929162828
6.194230272,1.0008248598240692,-130.37999717740905
6.196515328,1.0007469841879413,-130.5284753759715
6.198800384,1.0006217943390794,-130.6755171569097
6.20108544,1.0004573705518047,-130.82045484782617
6.203370496,1.0002638835385664,-130.96281283828156
6.205655552,1.000053609194428,-131.10222625670076
6.207940608,0.9998399095025334,-131.23854235886904
6.210225664,0.9996362830014751,-131.37184335265272
6.21251072,0.9994556905320404,-131.5023330601618
6.214795776,0.9993096035959431,-131.6304651704937
6.217080832,0.9992071923356077,-131.7567457442386
6.219365888,0.9991551404308993,-131.88193746913677
6.221650944,0.9991566440868774,-132.00672884258873
6.223936,0.9992117287183869,-132.13193543047947
6.226221056,0.9993168732979975,-132.25832374920296
6.228506112,0.9994654452510455,-132.38653452614787
6.230791168,0.9996480087161939,-132.5171506827005
6.233076224,0.9998530158807515,-132.6506065602794
6.23536128,1.0000674352324002,-132.7870944374693
6.237646336,1.0002776970709464,-132.92666241178327
6.239931392,1.000470572043491,-133.069176042011
6.242216448,1.0006336673649994,-133.21426169789152
6.244501504,1.0007568370029074,-133.3614102260714
6.24678656,1.0008322850794116,-133.5100432590601
6.249071616,1.0008550035154384,-133.65932134114087
6.251356672,1.0008236423158194,-133.80859155878682
6.253641728,1.0007402443654305,-133.95702206366184
6.255926784,1.0006100773688102,-134.1039151297691
6.25821184,1.000441184254046,-134.24860273512422
6.260496896,1.0002442685364936,-134.39066641743534
6.262781952,1.0000318993453234,-134.52971547525885
6.265067008,0.9998174800486556,-134.66568023910781
6.267352064,0.9996145694356601,-134.7986429361129
6.26963712,0.9994359870220414,-134.9287897556848
6.271922176,0.9992930781874451,-135.05662448808926
6.274207232,0.9991950826936975,-135.18266551514768
6.276492288,0.9991481832502629,-135.3076384122244
6.278777344,0.9991552745372461,-135.4323618503816
6.2810624,0.9992159427071997,-135.55753181431766
6.283347456,0.9993265352794953,-135.68396736591097
6.285632512,0.9994798563978216,-135.81229843464334
6.287917568,0.9996662263424788,-135.94310471165255
6.290202624,0.9998739382658061,-136.07678637396296
6.29248768,1.0000897596916185,-136.21352893561163
6.294772736,1.0003000252911616,-136.3533999276087
6.297057792,1.0004914533382858,-136.4961601661281
6.299342848,1.0006518577536745,-136.64147534650309
6.301627904,1.0007711229598069,-136.78881482267593
6.30391296,1.0008416483582045,-136.93757003929247
6.306198016,1.000858992876226,-137.08690630700596
6.308483072,1.0008220575087101,-137.23610731225145
6.310768128,1.0007330902202871,-137.38442732582786
6.313053184,1.0005976914955956,-137.53110274785075
6.31533824,1.0004245018353566,-137.67553617321244
6.317623296,1.0002243428652162,-137.81722899632746
6.319908352,1.0000099703814964,-137.9559452267051
6.322193408,0.9997948497457484,-138.09155740185685
6.324478976,0.9995926645873306,-138.22407971652763
6.326764032,0.9994163162409667,-138.3538994159519
6.329049088,0.9992768882967922,-138.48137025733962
6.331334144,0.999183343601268,-138.60712246803857
6.3336192,0.999141574435498,-138.73192748759018
6.335904256,0.9991542842287948,-138.85650646880634
6.338189312,0.9992206910629683,-138.98164452059012
6.340474368,0.9993366268234743,-139.1080928153918
6.342759424,0.9994946449815751,-139.23652633752192
6.34504448,0.9996848756717737,-139.36752995500817
6.347329536,0.9998951475699142,-139.50139114215915
6.349614592,1.0001122841395986,-139.63840099223899
6.351899648,1.0003224094561198,-139.77851224492736
6.354184704,1.0005122213887814,-139.9215035158031
6.35646976,1.0006697902169832,-140.06700183244257
6.358754816,1.0007849798610577,-140.2145304974145
6.361039872,1.0008506240601425,-140.36331240725352
6.363324928,1.0008624957352434,-140.51269416416008
6.365609984,1.0008198490374898,-140.6618059722902
6.36789504,1.000725326506003,-140.8099396175798
6.370180096,1.0005848584048571,-140.95637653579328
6.372465152,1.0004072707322405,-141.10053798205968
6.374750208,1.0002039700887286,-141.24186608428946
6.377035264,0.999987663770109,-141.38018268817194
6.37932032,0.9997720159877922,-141.51534668871756
6.381605376,0.9995707865480308,-141.64749312710344
6.383890432,0.9993967758248928,-141.77686618879284
6.386175488,0.9992609446872546,-141.90399692516374
6.388460544,0.9991719152534366,-142.0294676260471
6.3907456,0.9991353517323283,-142.15405421304524
6.393030656,0.9991537678134557,-142.27845424086368
6.395315712,0.9992258836203133,-142.4035369114518
6.397600768,0.9993472199314746,-142.5300165704883
6.399885824,0.9995099501165936,-142.6585480614446
6.40217088,0.9997039206004193,-142.78969631783963
6.404455936,0.999916732312757,-142.92374949187135
6.406740992,1.000134981547855,-143.0609689811213
6.409026048,1.000344833348856,-143.2012613829604
6.411311104,1.0005328488232104,-143.3444989009162
6.41359616,1.0006874140512378,-143.4901558456006
6.415881216,1.0007984341944682,-143.63777342886317
6.418166272,1.000859150713405,-143.78663258263327
6.420451328,1.000865405724179,-143.9359723818611
6.422736384,1.0008169700321121,-144.0849632374407
6.42502144,1.0007169011197456,-144.23293422506543
6.427306496,1.0005714142458344,-144.37909055360086
6.429591552,1.0003896846389444,-144.52286007539726
6.431876608,1.0001832548449523,-144.66386075586766
6.434161664,0.9999651624251894,-144.80173681751768
6.43644672,0.9997491865857079,-144.93644032364617
6.438731776,0.9995490430735389,-145.06812984234736
6.441016832,0.999377350894054,-145.1970741697749
6.443301888,0.9992452165489112,-145.32383980640137
6.445586944,0.9991608590854306,-145.4490075647939
6.447872,0.999129776223846,-145.5733176338746
6.450157056,0.9991539266263317,-145.69759661278044
6.452442112,0.9992317412174891,-145.8225650046043
6.454727168,0.9993583812088395,-145.94902306198588
6.457012224,0.9995258041268398,-146.07764023248416
6.45929728,0.9997233880309732,-146.2089202768742
6.461582336,0.9999386951450648,-146.34312263912804
6.463867392,1.0001579686748994,-146.4805510437575
6.466152448,1.0003673201454328,-146.6210553940631
6.468437504,1.0005536169220937,-146.76445740573317
6.47072256,1.0007049515315745,-146.91027094263728
6.473007616,1.0008117735163142,-147.05797800687438
6.475292672,1.0008672394662028,-147.20683740533434
6.477577728,1.0008678919971414,-147.35610804521843
6.479862784,1.0008136852132306,-147.50498634349515
6.48214784,1.0007080423751418,-147.652698733279
6.484432896,1.000557502013555,-147.7985380295542
6.486717952,1.0003715705331007,-147.94195965990798
6.489003008,1.0001621792306072,-148.0825104823646
6.491288064,0.9999423180208734,-148.21991049746134
6.49357312,0.9997261608021774,-148.35413584788944
6.495858176,0.9995272433477972,-148.48533269976318
6.498143232,0.9993582129925513,-148.6138843577163
6.500428288,0.9992298797058015,-148.7402098364702
6.502713344,0.9991503163757868,-148.86504935835566
6.5049984,0.9991247282757935,-148.98909270923494
6.507283456,0.9991546590857159,-149.11318891760584
6.509568512,0.9992383178794157,-149.23803214758044
6.511853568,0.9993702578773209,-149.36450700123646
6.514138624,0.9995423205921371,-149.4931379894859
6.51642368,0.9997435110933188,-149.6245092051537
6.518708736,0.9999610634303072,-149.75892570701873
6.520993792,1.0001812142584092,-149.8964901238373
6.523278848,1.0003900229105442,-150.03716195856882
6.525563904,1.0005742512225089,-150.18068788663453
6.52784896,1.000722277099086,-150.32665678569788
6.530134016,1.0008246171052997,-150.4743798368233
6.532419072,1.0008749208192553,-150.6232541321191
6.534704128,1.0008698220886267,-150.77242051943136
6.536989184,1.0008097819861235,-150.92113138406918
6.53927424,1.0006984847127902,-151.0685656060354
6.541559808,1.0005429438206441,-151.2140612212955
6.543844864,1.0003529756458558,-151.3570795441477
6.54612992,1.000140610515825,-151.49714697982714
6.548414976,0.999919251645289,-151.63405994446595
6.550700032,0.9997028941420499,-151.7678082296549
6.552985088,0.9995053814155014,-151.89851441011763
6.555270144,0.9993390610072238,-152.0265533376181
6.5575552,0.9992146603030224,-152.15244791167578
6.559840256,0.9991400801769555,-152.27692393822983
6.562125312,0.9991200867343522,-152.40069135956298
6.564410368,0.9991558694414396,-152.5245311411475
6.566695424,0.9992452192395131,-152.64933087150843
6.56898048,0.999382625407092,-152.7757120372911
6.571265536,0.9995591790491506,-152.90441245685415
6.573550592,0.9997638378514819,-153.0358625205131
6.575835648,0.9999835667164942,-153.17037644181354
6.578120704,1.0002045187283084,-153.30809309487177
6.58040576,1.0004126661407349,-153.44893138048758
6.582690816,1.0005946860425332,-153.59259851949727
6.584975872,1.0007391921999245,-153.7386034551295
6.587260928,1.0008371318809357,-153.88638985664346
6.589545984,1.0008820055490948,-154.03518164939615
6.59183104,1.0008711872339728,-154.1842179534951
6.594116096,1.0008052574753679,-154.33274273554827
6.596401152,1.00068833480347,-154.47986728835897
6.598686208,1.0005278275920413,-154.6250238746092
6.600971264,1.0003338368675116,-154.76758849522884
6.60325632,1.0001185898957596,-154.90714853771328
6.605541376,0.9998958479437525,-155.0435240739261
6.607826432,0.9996795476457565,-155.17672247851928
6.610111488,0.9994835188858187,-155.30688909162487
6.612396544,0.9993201632060821,-155.43443594309267
6.6146816,0.999199877264645,-155.55989920838002
6.616966656,0.9991303305546494,-155.68398516129486
6.619251712,0.9991158982110251,-155.8074477823022
6.621536768,0.9991576686017034,-155.93107367938535
6.623821824,0.9992529410390021,-156.05573249749582
6.62610688,0.9993956348977536,-156.18206564800326
6.628391936,0.9995767690656301,-156.3107775056422
6.630676992,0.9997847864447278,-156.44228894832207
6.632962048,1.0000066227984485,-156.57693478157904
6.635247104,1.0002281320913557,-156.7147511274581
6.63753216,1.0004354103156543,-156.85571688673488
6.639817216,1.0006151176926912,-156.99947302172615
6.642102272,1.0007560716798665,-157.14557048896967
6.644387328,1.0008493413361133,-157.29332007892867
6.646672384,1.0008887029156217,-157.4420579575857
6.64895744,1.0008720315255804,-157.59093257151306
6.651242496,1.000800180047977,-157.73915983844776
6.653527552,1.0006776065615421,-157.8859886436607
6.655812608,1.000512161653901,-158.03072025284428
6.658097664,1.0003142402696377,-158.17278326344348
6.66038272,1.000096286163816,-158.31181720456505
6.662667776,0.9998721884753029,-158.4476732545073
6.664952832,0.9996560734329085,-158.58027919788114
6.667237888,0.9994617119417828,-158.70991771694898
6.669522944,0.9993014276863812,-158.8369450602104
6.671808,0.9991853817569935,-158.96194838172852
6.674093056,0.9991209853998374,-159.08559266978898
6.676378112,0.9991124019700168,-159.20872825223222
6.678663168,0.9991601343434849,-159.332160012988
6.680948224,0.9992611696195555,-159.45661604767878
6.68323328,0.9994091919075468,-159.5828910727919
6.685518336,0.999594749010678,-159.71159822788053
6.687803392,0.9998061072834513,-159.84317162193636
6.690088448,1.0000299427241652,-159.9778741815236
6.692373504,1.0002520175744662,-160.1158375357159
6.69465856,1.0004581449203303,-160.25689501698264
6.696943616,1.0006354914731688,-160.40073888900167
6.699228672,1.0007726595946382,-160.54684980266657
6.701513728,1.0008610506686026,-160.6945641795153
6.703798784,1.0008949710220558,-160.84319415228697
6.70608384,1.0008722790486977,-160.99188467473937
6.708368896,1.0007944580535852,-161.1398343838984
6.710653952,1.0006662633964554,-161.28626912038868
6.712939008,1.0004958869786278,-161.4305519427909
6.715224064,1.0002940303522123,-161.5721405693775
6.71750912,1.0000734881839428,-161.710607871616
6.719794176,0.9998482341796026,-161.8458494682359
6.722079232,0.9996324213484028,-161.9778966474975
6.724364288,0.9994399475380874,-162.10691006866887
6.726649344,0.9992828691517278,-162.2334128424752
6.7289344,0.999171189048695,-162.35791413293575
6.731219456,0.9991121542765741,-162.48115059255565
6.733504512,0.9991093676393238,-162.6039835493939
6.735789568,0.9991631145661669,-162.72709135721453
6.738074624,0.9992701123120422,-162.85140540674004
6.74035968,0.9994234595597157,-162.97759366805425
6.742644736,0.9996133492517488,-163.10629571839948
6.744929792,0.9998280797254011,-163.2378727381099
6.747214848,1.0000536517872889,-163.3726794262437
6.749499904,1.000276052572378,-163.51073252539982
6.75178496,1.0004810598162643,-163.6518696358873
6.754070016,1.000655668975761,-163.79572997713225
6.756355072,1.0007890259338856,-163.9418429474856
6.75864064,1.00087238918821,-164.0895290378929
6.760925696,1.000900664704909,-164.23800365796012
6.763210752,1.000871929559547,-164.38646612095002
6.765495808,1.0007880233587743,-164.5340885588478
6.767780864,1.0006542556352744,-164.68013728465664
6.77006592,1.000478862342226,-164.82395932119488
6.772350976,1.0002732737126188,-164.9649803798645
6.774636032,1.000050256902771,-165.10286838340446
6.776921088,0.9998239780124432,-165.23750486021152
6.779206144,0.9996086173212386,-165.36890671066897
6.7814912,0.9994180727828149,-165.49732610206456
6.783776256,0.9992644214578895,-165.62326151934042
6.786061312,0.9991572611208028,-165.74727101943472
6.788346368,0.9991036614607076,-165.8700708410242
6.790631424,0.9991068970709182,-165.99252361410703
6.79291648,0.9991667274082553,-166.1153534627962
6.795201536,0.9992796179671144,-166.23950664533743
6.797486592,0.9994381750458361,-166.36557235215446
6.799771648,0.9996324820981252,-166.49422609337554
6.802056704,0.9998502416494086,-166.62586246585488
6.80434176,1.0000775935187083,-166.76068349004592
6.806626816,1.0003002289334157,-166.89880849763847
6.808911872,1.000503867193074,-167.0400153038364
6.811196928,1.000675756218306,-167.1839137605084
6.813481984,1.0008049782923392,-167.33001251686164
6.81576704,1.0008832731524995,-167.477577490268
6.818052096,1.000905783004894,-167.62588186351886
6.820337152,1.0008709744967672,-167.7741106104684
6.822622208,1.000780977851493,-167.92139162920896
6.824907264,1.0006415232631554,-168.06700465821982
6.82719232,1.0004614172695252,-168.21031497514417
6.829477376,1.0002519840283683,-168.35074676218542
6.831762432,1.0000265297717839,-168.4880398211072
6.834047488,0.9997992759175548,-168.62200136605796
6.836332544,0.9995846532195065,-168.7527667558738
6.8386176,0.9993963561077496,-168.8805815435752
6.840902656,0.9992462057492969,-169.00589313985907
6.843187712,0.9991438201074974,-169.12938924999003
6.845472768,0.9990957219362636,-169.25175000328036
6.847757824,0.9991049618028945,-169.37378214865254
6.85004288,0.9991710936768752,-169.49639773547767
6.852327936,0.9992899062551946,-169.62030786476834
6.854612992,0.9994537510950244,-169.74627421466147
6.856898048,0.9996524042859565,-169.8748775714672
6.859183104,0.9998731840380823,-170.00651074227804
6.86146816,1.0001021603288118,-170.14140944125046
6.863753216,1.0003247443031893,-170.27956799252902
6.866038272,1.0005269337026763,-170.42081363222792
6.868323328,1.0006958084121234,-170.56470626638736
6.870608384,1.0008208695452214,-170.71072421835794
6.87289344,1.0008939258163467,-170.8582090462089
6.875178496,1.0009104604201637,-171.0063151333599
6.877463552,1.0008693838922755,-171.1542361770282
6.879748608,1.000773358117545,-171.30112897032492
6.882033664,1.0006281840187221,-171.4462947354382
6.88431872,1.000443364843322,-171.5890654259349
6.886603776,1.0002303182183439,-171.72889290025566
6.888888832,1.0000024851264724,-171.8655096572686
6.891173888,0.9997745358257374,-171.99883575046326
6.893458944,0.9995606700912341,-172.12890187010828
6.895744,0.9993746476892627,-172.2560753244148
6.898029056,0.9992282179698333,-172.3807821060944
6.900314112,0.999130636509156,-172.5037227663465
6.902599168,0.9990882669994074,-172.6256191517555
6.904884224,0.9991037544293625,-172.74726417869746
