freq,mag,phase
6.0,0.9991982630915064,90.93583868757693
6.002285568,0.9995271637947541,90.7772920840062
6.004571648,0.999887196766806,90.61376082140272
6.006857216,1.0002547557019839,90.44497740284167
6.009142784,1.0006066417978219,90.27098701805652
6.011428352,1.000920876755303,90.09221251027866
6.013714432,1.0011774922187888,89.9093102091776
6.016,1.0013601741596594,89.72328053789053
6.018285568,1.0014578547810842,89.53524424918236
6.020571648,1.0014639515795964,89.34645004733531
6.022857216,1.0013783533922744,89.15826901203025
6.025142784,1.0012061501093312,88.97195453575438
6.027428352,1.0009582486928976,88.78869828052949
6.029714432,1.0006503936366884,88.60947961034873
6.032,1.000301585696915,88.43503425508163
6.034285568,0.999934003757874,88.26581398804339
6.036571648,0.9995707560893432,88.10189747867355
6.038857216,0.9992346736337542,87.94307515826087
6.041142784,0.9989472019136968,87.78882612337058
6.043428352,0.9987263376581672,87.6382950089236
6.045714432,0.9985863005487682,87.49041849430087
6.048,0.9985357617975162,87.34394698335261
6.050285568,0.9985780079537048,87.19757013088162
6.052571648,0.9987105189950313,87.0499308417222
6.054857216,0.9989248875417277,86.8997848945316
6.057142784,0.9992074379724484,86.74607704941295
6.059428352,0.9995405260641942,86.58791818299609
6.061714432,0.9999030421683622,86.42469656622958
6.064,1.0002719776144475,86.25621977906162
6.066285568,1.0006243247655384,86.08253540803818
6.068571648,1.0009376503169038,85.90404081989361
6.070857216,1.001192445816606,85.72143588464526
6.073142784,1.0013725456942573,85.53574357472388
6.075428352,1.0014665752166623,85.3480629481505
6.077714432,1.0014685414994944,85.15971880684384
6.08,1.0013784984282132,84.97202245388692
6.082285568,1.0012019829816203,84.78625860671329
6.084571648,1.000949954248472,84.60362748187303
6.086857216,1.0006383666782408,84.42509924291808
6.089142784,1.00028672925382,84.25136125046467
6.091428352,0.9999170774309446,84.08287426461567
6.093714432,0.9995529150599122,83.91973803912708
6.096,0.9992171323628917,83.76170113265295
6.098285568,0.9989309880109828,83.60820143922528
6.100571648,0.9987125248412055,83.45840991429307
6.102857216,0.9985757413571084,83.31121847403078
6.105142784,0.9985292014201552,83.1653824795479
6.107428352,0.9985758423622435,83.01959042694216
6.109714432,0.9987128655756582,82.87246173683096
6.112,0.9989315673887454,82.72276291215529
6.114285568,0.9992181922530999,82.56941387558341
6.116571648,0.9995546690978502,82.41157067383554
6.118857216,0.9999194919683366,82.24863691120915
6.121142784,1.000289991322046,82.08041830273372
6.123428352,1.0006425605628098,81.90694062101727
6.125714432,1.0009551051836563,81.72869307201162
6.128,1.0012079567569914,81.54636430831032
6.130285568,1.0013850951786123,81.36094898092554
6.132571648,1.0014753661141884,81.17359945641437
6.134857216,1.0014731982114702,80.98565691242881
6.137142784,1.0013785863481635,80.79840761729793
6.139428352,1.0011974442770841,80.61318167253253
6.141714432,1.0009411374121762,80.43112610757203
6.144,1.000625834294615,80.25320526212985
6.146285568,1.0002711837738862,80.08016347719831
6.148571648,0.9998996241729247,79.91240256555858
6.150857216,0.9995346188727376,79.74999722461577
6.153142784,0.9991991248089024,79.59270746382857
6.155428352,0.998914374127231,79.43992699783225
6.157714432,0.9986984358287742,79.29082845239556
6.16,0.9985649411108843,79.14428229001835
6.162285568,0.9985224856398139,78.99904741676467
6.164571648,0.9985736372974275,78.85377945170991
6.166857216,0.9987152877380285,78.70712449435837
6.169142784,0.9989385277962776,78.5578218485402
6.171428352,0.9992291897900196,78.4048003435148
6.173714432,0.999568970870056,78.24722486606241
6.176,0.9999362992770439,78.08454278424858
6.178285568,1.0003081659411084,77.91651193162858
6.180571648,1.0006609611487538,77.74323082992757
6.182857216,1.000972657719677,77.56517984437762
6.185142784,1.0012233615046862,77.38305201274365
6.187428352,1.0013975609524028,77.19789355978587
6.189714432,1.0014840977100634,77.01084452412735
6.192,1.0014774656278587,76.82323576045428
6.194285568,1.0013782550050245,76.63641468204341
6.196571648,1.0011924290608443,76.45166084108443
6.198857216,1.0009318293166825,76.27015138800743
6.201142784,1.0006126804210047,76.092824965153
6.203428352,1.0002551473134684,75.920420269664
6.205714432,0.9998816425052719,75.75334833076809
6.208,0.9995158434378604,75.59163118848564
6.210285568,0.9991806914119934,75.43505244921265
6.212571648,0.9988974423378898,75.2829711501569
6.214857216,0.9986841209750962,75.13451336717306
6.217142784,0.9985541715047336,74.98857693765078
6.219428352,0.9985158763159285,74.84390794642187
6.221714432,0.9985717061309327,74.69911011222527
6.224,0.9987181397682864,74.55287785492224
6.226285568,0.9989459264965729,74.40392290923606
6.228571648,0.9992407503297254,74.25118931576924
6.230857216,0.9995838750165436,74.0938359577458
6.233142784,0.999953680923441,73.93132602952163
6.235428352,1.0003269070333607,73.76344692594797
6.237714432,1.0006799232534809,73.59031028994222
6.24,1.0009905034845783,73.41238688934405
6.242285568,1.0012391818693502,73.23042989887357
6.244571648,1.001410180228823,73.04547282328492
6.246857216,1.0014928133262027,72.85865928866446
6.249142784,1.0014817361350818,72.67137859805158
6.251428352,1.0013777011696743,72.48491680717375
6.253714432,1.0011871943781494,72.30060156241042
6.256,1.0009221661503824,72.11958868335516
6.258285568,1.0005992386890172,71.94284109431207
6.260571648,1.0002387394061565,71.77105052826451
6.262857216,0.9998633340078676,71.6046193930426
6.265142784,0.9994966624874454,71.44357573932832
6.267428352,0.9991620352553137,71.28764959621178
6.269714432,0.9988804018730743,71.13620090996663
6.272,0.998669707229196,70.98836840981102
6.274285568,0.9985434592697155,70.8429975673447
6.276571648,0.9985094079907311,70.69882173359727
6.278857216,0.9985699540504994,70.55447752746775
6.281142784,0.9987212842563256,70.40860382730854
6.283428352,0.9989536225241858,70.25995062580174
6.285714432,0.9992525756743517,70.1074708365755
6.288,0.999599118939273,69.95027362239144
6.290285568,0.9999713600849771,69.78788543606574
6.292571648,1.0003459759670663,69.62009837054566
6.294857216,1.0006991674362213,69.44708389405423
6.297142784,1.001008637293943,69.26924949847209
6.299428352,1.001255025825795,69.08740481455634
6.301714432,1.001422870193149,68.90259335687963
6.304,1.0015013079407693,68.71600000723613
6.306285568,1.001485721385879,68.52897027512485
6.308571648,1.0013767820983,68.34285183732818
6.310857216,1.0011814806360992,68.1589362783986
6.313142784,1.0009120031289682,67.97838252263081
6.315428352,1.0005852002172844,67.80215889004498
6.317714432,1.0002216842976832,67.63094863406974
6.32,0.9998444011171659,67.4651032477499
6.322285568,0.999476985294636,67.30468634044954
6.324571648,0.999142873782452,67.14940096334982
6.326857216,0.9988629552882483,66.99855804673976
6.329142784,0.998655118184411,66.85130164251538
6.331428352,0.9985324877351639,66.70645579882954
6.333714432,0.9985029508735043,66.56275570367923
6.336,0.9985683720958064,66.41880421241753
6.338285568,0.9987244509315284,66.27322686959945
6.340571648,0.9989616512810177,66.12482676612736
6.342857216,0.999264856512903,65.97252088729049
6.345142784,0.9996147804055268,65.81546259804244
6.347428352,0.9999895789996703,65.65315932223116
6.349714432,1.00036537742499,65.4854340959273
6.352,1.0007186664823573,65.3124326772463
6.354285568,1.0010270561595505,65.13464804572783
6.356571648,1.0012710830934624,64.95289555859118
6.358857216,1.0014355102560373,64.76818467780134
6.361142784,1.001509949804027,64.58175101283774
6.363428352,1.0014895289479502,64.39494943137315
6.365714432,1.0013757860383563,64.209102607429
6.368,1.0011755307517103,64.02556546500956
6.370285568,1.0009015913062915,63.8454349595866
6.372571648,1.000570893771813,63.66968772067572
6.374857216,1.0002044251778188,63.499017216051136
6.377142784,0.9998252451041919,63.33373830907356
6.379428352,0.9994571552543308,63.17391222546231
6.381714432,0.999123559220857,63.01919512413601
6.384,0.9988454759759503,62.86892647758498
6.386285568,0.9986404981530782,62.72219706755535
6.388571648,0.9985217496206038,62.57783271871126
6.390857216,0.9984966917026963,62.43453530266091
6.393142784,0.9985669813007456,62.29092673767097
6.395428352,0.9987281957110326,62.145643509201435
6.397714432,0.9989700781163321,61.997445386035785
6.4,0.999277510021523,61.845257704552075
6.402285568,0.9996309467603437,61.688277057910724
6.404571648,1.00000816925342,61.52600561074423
6.406857216,1.0003852589806688,61.358287814527735
6.409142784,1.0007385292126207,61.18526732993849
6.411428352,1.0010455781922047,61.00749351208624
6.413714432,1.0012872623694251,60.8257415904823
6.416,1.0014482392555788,60.641105129172175
6.418285568,1.0015183906134504,60.45479017964311
6.420571648,1.0014932535235506,60.26815598416672
6.422857216,1.0013744145690573,60.08258852705236
6.425142784,1.0011692684341853,59.89935391112873
6.427428352,1.0008906380357065,59.71959865085904
6.429714432,1.0005561419796423,59.54430663524291
6.432,1.000186644610344,59.37412372438511
6.434285568,0.9998055775290728,59.20939442560078
6.436571648,0.9994369398368067,59.050102695626215
6.438857216,0.9991039572225597,58.8959206828858
6.441142784,0.9988278076273486,58.74617552273785
6.443428352,0.9986258500350005,58.5999541706565
6.445714432,0.9985110000488274,58.45601226883199
6.448,0.9984905991073978,58.31309054279553
6.450285568,0.9985658357969384,58.169770398130765
6.452571648,0.9987321232772424,58.024716826468804
6.454857216,0.9989789281652626,57.87665752699908
6.457142784,0.9992905908113948,57.72456676913074
6.459428352,0.9996475002718872,57.56760867124608
6.461714432,1.000027114713025,57.40531792474941
6.464,1.000405448167178,57.23753183904384
6.466285568,1.0007586534632953,57.06447311912423
6.468571648,1.0010645180857123,56.88663258497805
6.470857216,1.0013036351265279,56.704865184510396
6.473142784,1.0014610833353474,56.5202427449707
6.475428352,1.001526915152207,56.333997590653944
6.477714432,1.001496896139019,56.147496839668925
6.48,1.0013729203147221,55.96213092286473
6.482285568,1.0011627309322335,55.77917391432747
6.484571648,1.0008795150842895,55.599784954333444
6.486857216,1.0005410348064503,55.424903108057684
6.489142784,1.0001686047779457,55.255161908692344
6.491428352,0.9997856377716249,55.09091689716976
6.493714432,0.9994164040418033,54.93212167769982
6.496,0.999084191003026,54.77844879606415
6.498285568,0.9988099427268111,54.629195722508555
6.500571648,0.9986111482010077,54.4834010419283
6.502857216,0.9985002327007679,54.33987421243616
6.505142784,0.9984845652762393,54.19727088927474
6.507428352,0.9985648855358641,54.05420525477919
6.509714432,0.9987363056211592,53.90931341220017
6.512,0.9989879968400522,53.76135593874113
6.514285568,0.9993039566872188,53.60928554073647
6.516571648,0.9996643777055519,53.45230683661257
6.518857216,1.0000463785945872,53.28996118921513
6.521142784,1.0004258492482565,53.12207278803153
6.523428352,1.00077901825327,52.94891056040919
6.525714432,1.0010833347442734,52.770964301156624
6.528,1.001319920540726,52.58913199556248
6.530285568,1.001473716313123,52.40446730848754
6.532571648,1.0015351470186467,52.2182509445773
6.534857216,1.0015002238442154,52.03186164499337
6.537142784,1.0013710401567422,51.84665034822668
6.539428352,1.0011557884068878,51.66393017926902
6.541714432,1.000867953201766,51.484845307588145
6.544,1.0005255421068975,51.31032074505212
6.546285568,1.0001501479138313,51.14100184455267
6.548571648,0.9997654378190787,50.97721728470843
6.550857216,0.9993956461292652,50.818891283561
6.553142784,0.9990641981105053,50.66566701393228
6.555428352,0.9987920066631727,50.51686066067615
6.557714432,0.9985963654140845,50.37146461231504
6.56,0.9984896390262011,50.228265633530754
6.562285568,0.9984786623945107,50.08594930425995
6.564571648,0.9985642626221316,49.94307760639759
6.566857216,0.9987408610897928,49.798316020521874
6.569142784,0.998997457357161,49.65042043129637
6.571428352,0.9993178151398638,49.498315318855774
6.573714432,0.9996816871583534,49.34126841080546
6.576,1.000066057583431,49.178788978134364
6.578285568,1.0004467814328668,49.010762523675965
6.580571648,1.00079965243252,48.83742883654282
6.582857216,1.0011025508676368,48.659347606320836
6.585142784,1.0013365057130532,48.47737543863028
6.587428352,1.00148660053001,48.29265498362041
6.589714432,1.0015433855529632,48.10642570763168
6.592,1.0015033925636248,47.92008134047289
6.594285568,1.0013690056817566,47.73497902356903
6.596571648,1.001148572685621,47.55246520428567
6.598857216,1.0008560698014697,47.373636809133906
6.601142784,1.00050973108177,47.19944646565711
6.603428352,1.0001313894757913,47.030509365817764
6.605714432,0.9997448519352855,46.867110748577524
6.608,0.9993746072660464,46.70922024775211
6.610285568,0.9990439361630794,46.55642589714956
6.612571648,0.9987738906683361,46.408003070730636
6.614857216,0.9985814777130062,46.26295510548465
6.617142784,0.9984790540639221,46.12006385438442
6.619428352,0.9984729547867364,45.97796063916469
6.621714432,0.998563727280041,45.83527271125036
6.624,0.9987455786150601,45.69059411969385
6.626285568,0.9990071791296056,45.54267527330229
6.628571648,0.9993319463214269,45.39053289652347
6.630857216,0.9996992940986912,45.2333319445766
6.633142784,1.0000859647839555,45.07068103703148
6.635428352,1.000467702658658,44.902478923054716
6.637714432,1.0008204050995138,44.72890485095388
6.64,1.0011217847922431,44.550644399333834
6.642285568,1.001352982400321,44.368509400980486
6.644571648,1.0014993065812894,44.183663027930514
6.646857216,1.0015515892295312,43.99737674018794
6.649142784,1.0015064406381382,43.81103426934608
6.651428352,1.0013666830287544,43.62602321077118
6.653714432,1.0011411833133819,43.443652681140726
6.656,1.0008438443298673,43.265051952004455
6.658285568,1.0004935911651003,43.09116076465316
6.660571648,1.0001123533701712,42.9225599572128
6.662857216,0.999724090096769,42.75951137740208
6.665142784,0.9993534554052999,42.602000343650865
6.667428352,0.9990236673864433,42.44958112697939
6.669714432,0.9987557695842125,42.30151933434786
6.672,0.9985667167846712,42.15677624654481
6.674285568,0.9984684725024968,42.01413330802136
6.676571648,0.9984673691438372,41.87222803098557
6.678857216,0.9985634584480667,41.72963596858716
6.681142784,0.9987507513425277,41.58497485823355
6.683428352,0.9990172967354398,41.437020345960676
6.685714432,0.9993464085240935,41.28475279547408
6.688,0.9997172189606505,41.127392097784764
6.690285568,1.0001062179487339,40.96451360984135
6.692571648,1.0004890354317055,40.796042406505684
6.694857216,1.0008414662745728,40.62224088412305
6.697142784,1.0011412899111316,40.443730223680674
6.699428352,1.0013695837897778,40.261386074692155
6.701714432,1.0015120006148388,40.07636453750356
6.704,1.001559642485602,39.88997589314087
6.706285568,1.0015093230475873,39.70360026564087
6.708571648,1.0013642056267047,39.51862770406416
6.710857216,1.0011334365432027,39.33635920545328
6.713142784,1.0008314722111236,39.157958204967095
6.715428352,1.000477201805586,38.98429244154817
6.717714432,1.0000930099325414,38.81598919908673
6.72,0.9997031116500454,38.65326319559252
6.722285568,0.9993320258456074,38.49609999473253
6.724571648,0.9990032064497375,38.34399668202718
6.726857216,0.9987376870915786,38.19625584447479
6.729142784,0.9985519621448239,38.05175815595895
6.731428352,0.9984581421439752,37.90933686656501
6.733714432,0.9984620278628232,37.76757096703535
6.736,0.9985634446394412,37.625032564411384
6.738285568,0.9987560427178644,37.4803531034036
6.740571648,0.9990276978157508,37.33231826534014
6.742857216,0.9993611667297452,37.179864694504104
6.745142784,0.9997353865452524,37.02228415237221
6.747428352,1.0001267490798644,36.85912302200064
6.749714432,1.0005105624500115,36.6903523137017
6.752,1.0008626957336295,36.51626485452284
6.754285568,1.0011607901028976,36.33746570953295
6.756571648,1.0013862060043428,36.15485878803258
6.758857216,1.001524729654415,35.969637301575965
6.761142784,1.001567571885141,35.78308323231932
6.763428352,1.0015119996082924,35.596638337491434
6.765714432,1.001361594629573,35.411647620101476
6.768,1.0011254706008754,35.22946625004153
6.770285568,1.0008187921585519,35.05118679738658
6.772571648,1.0004605914782978,34.87772714002003
6.774857216,1.0000734784985308,34.70966048326292
6.777142784,0.9996818154851101,34.547243316717335
6.779428352,0.9993104193257293,34.390353452197374
6.781714432,0.9989826507005146,34.23856243482403
6.784,0.9987194495100767,34.091069601194974
6.786285568,0.9985372374235832,33.946807758703635
6.788571648,0.9984478048467176,33.80453637076682
6.790857216,0.9984567528158389,33.662862403938355
6.793142784,0.9985635988080512,33.520336603714426
6.795428352,0.9987615608058302,33.37559834828452
6.797714432,0.9990381839973234,33.22740943136675
6.8,0.9993760528031527,33.07473332146585
6.802285568,0.9997536999779161,32.91687114910561
6.804571648,1.0001474533396058,32.75340698750922
6.806857216,1.0005322680625108,32.584297203253435
6.809142784,1.000883860000926,32.40983878944791
6.811428352,1.0011803822352667,32.23070095150052
6.813714432,1.0014027542859127,32.0478054081311
6.816,1.001537327421078,31.862322941941247
6.818285568,1.0015753816573765,31.6755812907902
6.820571648,1.001514553946072,31.48900680817197
6.822857216,1.0013586371862941,31.30397807268689
6.825142784,1.0011173610785924,31.121817266700464
6.827428352,1.0008058459440459,30.943649222296656
6.829714432,1.0004436923635627,30.770352518372214
6.832,1.0000536687483625,30.602495005182522
6.834285568,0.9996604688728388,30.440312755643525
6.836571648,0.9992886918399332,30.283685475198162
6.838857216,0.9989620722115119,30.13213133811442
6.841142784,0.9987011824508458,29.984841809370025
6.843428352,0.9985224583942153,29.840759720063286
6.845714432,0.9984375193552296,29.698599718311026
6.848,0.998451604864919,29.55697421536597
6.850285568,0.9985639156557669,29.414408936476587
6.852571648,0.998767314732091,29.269552093695932
6.854857216,0.9990490628361745,29.121164302644075
6.857142784,0.9993912501610003,28.968231671699733
6.859428352,0.9997723986533602,28.810040394446297
6.861714432,1.0001682824956373,28.64621521787219
6.864,1.0005540539511064,28.476718789055397
6.866285568,1.000905320686487,28.30187909537376
6.868571648,1.0011999644350205,28.122333010685484
6.870857216,1.001419428059274,27.93911047851745
6.873142784,1.0015499144046873,27.753312156798284
6.875428352,1.0015830367302558,27.566343840492763
6.877714432,1.0015169090877867,27.379601268063276
6.88,1.0013555202601245,27.194482625940015
6.882285568,1.0011089501752524,27.012299248524062
6.884571648,1.0007926775993092,26.834200034214255
6.886857216,1.0004265944549373,26.661011846259804
6.889142784,1.0000337451407524,26.49332349997959
6.891428352,0.9996388245610414,26.331350819554206
6.893714432,0.9992668957979784,26.174914077526633
6.896,0.9989413460258756,26.023566499581218
6.898285568,0.998682840748279,25.876452954441167
6.900571648,0.9985077152179527,25.73251489314288
6.902857216,0.9984272989504233,25.590409824149962
6.905142784,0.9984465299863818,25.448780530818937
6.907428352,0.9985643278988589,25.306145034285446
6.909714432,0.9987731280303721,25.161114776617644
6.912,0.999060033209222,25.012493732145987
6.914285568,0.9994066896198942,24.85924717032754
6.916571648,0.9997911028368378,24.70068559238158
6.918857216,1.000189329653623,24.53643506330952
6.921142784,1.0005760165960027,24.36651914983047
6.923428352,1.0009267636947343,24.191211706963045
6.925714432,1.001219581386193,24.011265808093253
6.928,1.0014360372514524,23.827633833511545
6.930285568,1.001562388072186,23.64149976440003
6.932571648,1.00159071165809,23.454246387534745
6.934857216,1.001519185675712,23.26729187294053
6.937142784,1.001352284011998,23.08203810509924
6.939428352,1.0011004112060773,22.89981852436896
6.941714432,1.000779383103075,22.721723561220166
6.944,1.0004093795092721,22.54861030518443
6.946285568,1.0000136483156383,22.38104023179441
6.948571648,0.9996172136169638,22.219213085184496
