freq,mag,phase
6.0,0.9993437470252797,10.908164890461741
6.010898944,0.9995274975370332,10.599938093314375
6.0217984,0.9997340651654849,10.289162893048864
6.032697344,0.9999539019492264,9.975597260159589
6.0435968,1.000176023250998,9.659120008030232
6.054495744,1.0003895583364704,9.339783773267595
6.0653952,1.0005835483335006,9.01777334154906
6.076294144,1.0007485052907117,8.693450383480297
6.0871936,1.000876102382185,8.367130601845462
6.098092544,1.0009599107196823,8.03942615634339
6.108992,1.0009957345271938,7.710870589018525
6.119890944,1.0009816269765868,7.382153546297311
6.1307904,1.000918551339554,7.053912533998427
6.141689344,1.000809252611684,6.726673438991145
6.1525888,1.0006593356562425,6.401068818376747
6.163487744,1.0004761717335233,6.077571731573506
6.174386688,1.0002687256206917,5.756489083446867
6.185286144,1.000047621545857,5.438167894105083
6.196185088,0.9998236822061631,5.122608363248567
6.207084544,0.9996082756469541,4.809908938239534
6.217983488,0.9994119438640183,4.499734790624975
6.228882944,0.9992447981419026,4.191930646736112
6.239781888,0.9991149490749718,3.885970736605472
6.250681344,0.9990292428883373,3.5813618106200775
6.261580288,0.9989918163260361,3.277524718709075
6.272479744,0.9990045967577342,2.9737711929648167
6.283378688,0.999067110462104,2.6695160111297294
6.294278144,0.9991762087097908,2.364123442445805
6.305177088,0.9993265805354277,2.0570151396915586
6.316076544,0.9995106100268181,1.747669130816975
6.326975488,0.9997191181758872,1.4357319288136094
6.337874432,0.999941876539019,1.1210042241598066
6.348773888,1.0001674556057212,0.803365158018352
6.359672832,1.0003847978709652,0.48279099231785444
6.370572288,1.0005831140234498,0.15948060009304305
6.381471232,1.0007523703581978,-0.16625044888527957
6.392370688,1.0008839379701306,-0.49395321310941753
6.403269632,1.0009715008672286,-0.8231516495772409
6.414169088,1.0010106206030631,-1.153173180064007
6.425068032,1.0009990207527204,-1.4834755488356968
6.435967488,1.0009374324432472,-1.813333143968582
6.446866432,1.0008288854318492,-2.1421669751851646
6.457765888,1.0006786701765769,-2.4693904488299525
6.468664832,1.0004942392988248,-2.794500165688991
6.479564288,1.0002847555498064,-3.117176005232168
6.490463232,1.0000607088781384,-3.437049814448367
6.501362176,0.9998332169487757,-3.7540988965211106
6.512261632,0.9996137217113382,-4.0683105511990805
6.523160576,0.9994130243222904,-4.379848102664783
6.534060032,0.9992413840303327,-4.689061089585909
6.544958976,0.9991073344861336,-4.996318968905475
6.555858432,0.9990176315108107,-5.302197549780693
6.566757376,0.9989768592676344,-5.6072656162214205
6.577656832,0.9989872109069045,-5.912167681755107
6.588555776,0.9990479968924519,-6.2176024372962155
6.599455232,0.9991563488155755,-6.524155260824971
6.610354176,0.9993069730677226,-6.832437969547954
6.621253632,0.9994922606003509,-7.142916199693853
6.632152576,0.9997030769977236,-7.4559989847315835
6.64305152,0.9999288655528726,-7.771943901785199
6.653950976,1.0001581434045381,-8.090894866129847
6.66484992,1.0003797306612976,-8.412798626218397
6.675749376,1.000582656070363,-8.73747435065713
6.68664832,1.0007563600262543,-9.064602612649505
6.697547776,1.000892425431682,-9.393827235895648
6.70844672,1.0009839278256811,-9.72456323213164
6.719346176,1.0010264145353198,-10.056212666044365
6.73024512,1.001017500951536,-10.388151273886288
6.741144576,1.000957766595432,-10.719688618979141
6.75204352,1.000849947758318,-11.050227712603599
6.762942976,1.0006995152141467,-11.37913475617085
6.77384192,1.000513818231452,-11.706006485254251
6.784741376,1.0003020936655582,-12.030309674787125
6.79564032,1.0000747736357107,-12.351866493863115
6.806539264,0.9998434090545892,-12.670522819497204
6.81743872,0.9996195006622173,-12.98629299361429
6.828337664,0.9994141301173584,-13.299339314227096
6.83923712,0.9992377595321925,-13.609966401509855
6.850136064,0.9990990560915559,-13.918647278584976
6.86103552,0.9990051791470803,-14.22586471051768
6.871934464,0.9989608593133474,-14.53220859702002
6.88283392,0.9989683306435033,-14.838340797745355
6.893732864,0.9990272905768279,-15.144983154936764
6.90463232,0.9991349530919006,-15.452733757598436
6.915531264,0.9992857095573607,-15.762227125044284
6.92643072,0.9994725077538243,-16.073940032335408
6.937329664,0.9996854555098538,-16.38827508229501
6.94822912,0.9999145157422727,-16.70550428364194
6.959128064,1.0001479412772696,-17.025733634637444
6.970027008,1.0003740575769906,-17.349053712027953
6.980926464,1.000581636935336,-17.67518190499442
6.991825408,1.0007603042437643,-18.003876578324295
7.002724864,1.0009011638291323,-18.33462941559534
7.013623808,1.0009970606727443,-18.667019146710743
7.024523264,1.0010432525806185,-19.000342307573238
7.035422208,1.001037288230937,-19.334015188256753
7.046321664,1.0009793824523743,-19.667336521142534
7.057220608,1.0008723460728712,-19.9996606018026
7.068120064,1.0007217106488497,-20.330426805752097
7.079019008,1.0005347314232105,-20.659034961318838
7.089918464,1.0003203744338707,-20.985147470388334
7.100817408,1.0000898395492608,-21.30847088498676
7.111716864,0.9998544260063588,-21.628819928065727
7.122615808,0.9996256954777002,-21.94622391076865
7.133514752,0.9994153166945733,-22.260862860729056
7.144414208,0.999233824996879,-22.57302886469869
7.155313152,0.9990902726702565,-22.883143588706986
7.166212608,0.9989919738299218,-23.191718440891727
7.177111552,0.9989435531771137,-23.49944925516889
7.188011008,0.998948146973286,-23.806941845273375
7.198909952,0.9990051028789387,-24.114826481681437
7.209809408,0.9991117582570822,-24.423837730140498
7.220708352,0.9992628440047064,-24.734614314165782
7.231607808,0.999450854658334,-25.04756013689486
7.242506752,0.9996665356655423,-25.36318350466562
7.253406208,0.9998989011266337,-25.68178065726766
7.264305152,1.0001365327135665,-26.00343229936694
7.275204608,1.0003676747741939,-26.328159234823516
7.286103552,1.0005805318810244,-26.655816506269595
7.297002496,1.0007645500782154,-26.98605986281417
7.307901952,1.000910448114285,-27.318537825812367
7.318800896,1.00101105900579,-27.65264451360832
7.329700352,1.0010611699456677,-27.987767954365825
7.340599296,1.001058411956148,-28.323295512811494
7.351498752,1.001002535736154,-28.658483412857148
7.362397696,1.0008966842449603,-28.992731885921007
7.373297152,1.0007455537564889,-29.325335208347624
7.384196096,1.0005571883721476,-29.655891729841354
7.395095552,1.0003404370426765,-29.983859354055717
7.405994496,1.000106212294519,-30.30902191908529
7.416893952,0.9998662204057389,-30.631145970192293
7.427792896,0.9996325586475024,-30.95032010621502
7.438692352,0.9994168043518211,-31.266636513179744
7.449591296,0.9992297249205463,-31.5804191922902
7.46049024,0.9990808786218074,-31.892042682868173
7.471389696,0.9989774757103332,-32.20212975950448
7.48228864,0.9989251457630097,-32.51126391342319
7.493188096,0.9989263352350264,-32.820103240818305
7.50408704,0.9989810960241794,-33.12933256172707
7.514986496,0.9990867020476799,-33.439669700592695
7.52588544,0.9992380935942135,-33.75170941169822
7.536784896,0.9994276538700684,-34.066053192869056
7.54768384,0.9996458619397405,-34.38301063609824
7.558583296,0.9998820666683553,-34.70299055624357
7.56948224,1.0001241750539929,-35.02610464823198
7.580381696,1.0003604131253534,-35.3523777688351
7.59128064,1.0005788933243733,-35.68162937394216
7.602179584,1.0007685274370157,-36.01358372165573
7.61307904,1.0009199884787823,-36.34777522757047
7.623977984,1.0010257650539345,-36.68370064592702
7.63487744,1.001080201598996,-37.02070190934961
7.645776384,1.0010808614203055,-37.35816122913336
7.65667584,1.0010273705861763,-37.695335743567625
7.667574784,1.0009224493321507,-38.031555560277944
7.67847424,1.0007712630557741,-38.36620124332686
7.689373184,1.0005812471744606,-38.698739245396695
7.70027264,1.0003617454123428,-39.028710553187075
7.711171584,1.0001238075697645,-39.35579643141817
7.72207104,0.9998791739419022,-39.67983667506885
7.732969984,0.9996401754169438,-40.00081098056635
7.74386944,0.9994184818324369,-40.31890741131811
7.754768384,0.9992255535806426,-40.63435829531173
7.765667328,0.9990707956482935,-40.947619923697424
7.776566784,0.9989622902141037,-41.259235561898905
7.787465728,0.998905282718896,-41.56987106013627
7.798365184,0.9989028839237484,-41.880130002134194
7.809264128,0.9989552171492421,-42.1907796876617
7.820163584,0.9990597573713015,-42.50252392283926
7.831062528,0.999211320407587,-42.81591759271049
7.841961984,0.999402419498444,-43.131586870277545
7.852860928,0.99962349124006,-43.45001078964026
7.863760384,0.9998635675048814,-43.771460635317204
7.874659328,1.0001106938202875,-44.09610713715189
7.885558784,1.000352481347946,-44.42395055453549
7.896457728,1.0005768998008238,-44.75487778965277
7.907357184,1.0007728031347223,-45.08857057769967
7.918256128,1.0009302941133458,-45.42459356064312
7.929155072,1.001041423525172,-45.76242553014786
7.940054528,1.0011006745476452,-46.10141925780894
7.950953472,1.001104985627134,-46.440915160633985
7.961852928,1.0010539507672438,-46.78015899584653
7.972751872,1.0009503209008237,-47.118498349241385
7.983651328,1.000798930488108,-47.45528044944412
7.994550272,1.0006074194820023,-47.789899301881675
8.005449728,1.0003850321711234,-48.12196130118345
8.016348672,1.0001429793383394,-48.45111725634246
8.027248128,0.9998932827078316,-48.77716781655953
8.038147072,0.999648423458266,-49.100054612772915
8.049046528,0.9994206160518976,-49.41998714570607
8.059945472,0.9992212334169386,-49.737216846113306
8.070844928,0.9990603033969931,-50.052191918528855
8.081743872,0.9989460474755538,-50.36542686791532
8.092642816,0.9988841147556599,-50.677582920942044
8.103542272,0.9988778309193673,-50.98936158459308
8.114441216,0.9989274917137967,-51.30148355258724
8.125340672,0.9990306735125625,-51.61461095481645
8.136239616,0.99918247786945,-51.929459175003956
8.147139072,0.9993751282932766,-52.24658696963039
8.158038016,0.9995992310119518,-52.566481281337644
8.168937472,0.999843536410406,-52.889439842315085
8.179836416,1.000095779495694,-53.21567441116668
8.190735872,1.000343682064183,-53.545191700879066
8.201634816,1.000574551566502,-53.87785786403197
8.212534272,1.0007770221617667,-54.21337800379408
8.223433216,1.000940981324925,-54.55135786607277
8.234332672,1.0010580034791552,-54.89119658796102
8.245231616,1.0011224382477248,-55.232247886402654
8.25613056,1.0011308565058257,-55.573864706340935
8.267030016,1.0010827819798571,-55.91532043569936
8.27792896,1.000980365816918,-56.25585811218707
8.288828416,1.0008288355235913,-56.59488672639443
8.29972736,1.0006356823237663,-56.93175459495137
8.310626816,1.0004102631821006,-57.26599925415678
8.32152576,1.000163866447819,-57.597290361561804
8.332425216,0.9999088062655507,-57.925419728167604
8.34332416,0.9996576674898294,-58.250363216237986
8.354223616,0.9994232156703668,-58.57222625703162
8.36512256,0.9992168462080365,-58.89131185418754
8.376022016,0.9990492426893498,-59.20808276444121
8.38692096,0.9989288168976775,-59.52301252927286
8.397820416,0.9988615746498515,-59.83681392028733
8.40871936,0.9988508628543034,-60.150129098470074
8.419618304,0.9988976092257266,-60.46376261245838
8.43051776,0.9989993416278237,-60.77839439358686
8.441416704,0.9991511103643943,-61.09474489147833
8.45231616,0.999345451561677,-61.413349357154274
8.463215104,0.9995727183955475,-61.73478446415332
8.47411456,0.9998214553872533,-62.05934239381118
8.485013504,1.0000794391035674,-62.38722211368139
8.49591296,1.0003336969978434,-62.718471716332516
8.506811904,1.0005716074348974,-63.05294043949354
8.51771136,1.0007811784480432,-63.39038714857828
8.528610304,1.0009520229244726,-63.730352730769155
8.53950976,1.0010756760721282,-64.07228557488897
8.550408704,1.0011455628360595,-64.41552749376568
8.561307648,1.001158396865769,-64.75939672809696
8.572207104,1.0011133356866169,-65.10315412775303
8.583106048,1.0010126812993325,-65.44606247275279
8.594004992,1.0008611778924628,-65.78740344148967
8.604904448,1.000666300910144,-66.12659739578443
8.615803904,1.0004375762515947,-66.46318696100995
8.62670336,1.000186622412087,-66.79674181634222
8.637601792,0.9999257408731961,-67.12706717311814
8.648501248,0.999668092897569,-67.45412479956039
8.659400704,0.9994261508641784,-67.7780714446906
8.67030016,0.9992124669811998,-68.09911022489467
8.681198592,0.999037522727582,-68.4177320012839
8.692098048,0.9989102766935242,-68.73443294024865
8.702997504,0.9988372197918233,-69.04990680605401
8.71389696,0.9988218815995211,-69.36485716360387
8.724795392,0.9988653155106745,-69.68008504283809
8.735694848,0.9989654756948836,-69.99625849349393
8.746594304,0.9991172653436095,-70.31412295481844
8.757492736,0.9993132869883371,-70.63432824738135
8.768392192,0.9995437356612568,-70.9573172791472
8.779291648,0.9997973097025532,-71.2835321458919
8.790191104,1.0000612826215016,-71.61310159230962
8.801089536,1.0003225509248477,-71.94616124963473
8.811988992,1.00056786614395,-72.28253292110837
8.822888448,1.0007851822710339,-72.62197453647101
8.833787904,1.0009636169758909,-72.96402686842673
8.844686336,1.0010942016205056,-73.30817820100182
8.855585792,1.0011702992506657,-73.65369971253519
8.866485248,1.0011881089195864,-73.99991227994228
8.877384704,1.001146480285295,-74.34607137783682
8.888283136,1.0010475336715663,-74.69145701297435
8.899182592,1.0008960907021318,-75.03525429189955
8.910082048,1.000699464862018,-75.37693536409327
8.92098048,1.000467575967463,-75.71593201545771
8.931879936,1.000211612945138,-76.05187955849412
8.942779392,0.9999445600150441,-76.384545980052
8.953678848,0.9996795365076686,-76.71387869119943
8.96457728,0.9994299493200638,-77.03994513952216
8.975476736,0.9992081481356281,-77.36301199789114
8.986376192,0.9990253863534929,-77.68358421621545
8.997275648,0.9988908266415445,-78.00213158057245
9.00817408,0.9988112196942145,-78.31937927519856
9.019073536,0.9987908683216953,-78.63602744596798
9.029972992,0.9988306619068154,-78.95289233697868
9.040871424,0.9989287736798524,-79.27068092641555
9.05177088,0.9990805192936589,-79.59015577429471
9.062670336,0.9992782697968944,-79.91194295548927
9.073569792,0.9995123014911639,-80.23659538396141
9.084468224,0.9997709160575885,-80.56448109253753
9.09536768,1.0000414375179083,-80.89582994168553
9.106267136,1.0003100061750996,-81.23074163457729
9.117166592,1.0005634754672847,-81.56912748260655
9.128065024,1.0007892079281306,-81.91062987573412
9.13896448,1.0009758793192156,-82.25487999671762
9.149863936,1.0011140239136187,-82.601302057339
9.160763392,1.0011968310734722,-82.94924295079612
9.171661824,1.0012200198149563,-83.29794618495868
9.18256128,1.001182216263129,-83.64666082677569
9.193460736,1.0010853153772843,-83.99456929095732
9.204359168,1.0009339928115721,-84.34097331809606
9.215258624,1.0007357008300946,-84.685258179544
9.22615808,1.0005000845181409,-85.02683166002264
9.237057536,1.000238956487863,-85.36527829028938
9.247955968,0.9999652633482342,-85.70039933422545
9.258855424,0.9996925415732115,-86.03206747669489
9.26975488,0.9994344804784835,-86.3603893459829
9.280654336,0.9992039900739828,-86.68562630083774
9.291552768,0.9990126659067909,-87.00821564007107
9.302452224,0.9988700443103449,-87.32869589901404
9.31335168,0.9987834018527518,-87.64780948812073
9.324251136,0.9987573843383178,-87.96620495966062
9.335149568,0.9987931518521478,-88.28473506595343
9.346049024,0.9988890665062331,-88.604201224914
9.35694848,0.9990406264996851,-88.92530689005434
9.367846912,0.9992400385636461,-89.24877113194296
9.378746368,0.9994778103241979,-89.57509205855088
9.389645824,0.9997418028999688,-89.90476190193394
9.40054528,1.0000191154204348,-90.23796518207327
9.411443712,1.0002957919521027,-90.57482009717361
9.422343168,1.0005582320852795,-90.91522588298355
9.433242624,1.000792911240338,-91.25890861687537
9.44414208,1.0009884936240214,-91.60543076324858
9.455040512,1.001135064400834,-91.95426006326615
9.465939968,1.0012250957435012,-92.3046979086638
9.476839424,1.0012541726066886,-92.65600663916368
9.48773888,1.0012206480813757,-93.00738288054423
9.498637312,1.0011261952494512,-93.3580036740708
9.509536768,1.0009751177657107,-93.70715891020295
9.520436224,1.0007750311936008,-94.05416617570377
9.531334656,1.0005356729251016,-94.39844258773307
9.542234112,1.0002689136674245,-94.73954998252333
9.553133568,0.9999880934486428,-95.07721084550315
9.564033024,0.999707055322669,-95.41135486502002
9.574931456,0.9994399291617634,-95.7420339150344
9.585830912,0.9991998944217608,-96.06952725774109
9.596730368,0.9989992084692716,-96.39423730380531
9.607629824,0.9988478627518715,-96.716766934359
9.618528256,0.9987535362624284,-97.03774450041068
9.629427712,0.9987211176294325,-97.35798378847745
9.640327168,0.9987524615597592,-97.67829513946349
9.651226624,0.9988459415190499,-97.99945526974803
9.662125056,0.9989969218181759,-98.32226168815191
9.673024512,0.9991983993246827,-98.64743335497666
9.683923968,0.9994399286816517,-98.97552195427433
9.6948224,0.9997097929387869,-99.30698681164908
9.705721856,0.9999945245088412,-99.64209175335999
9.716621312,1.0002798484882665,-99.98093302440724
9.727520768,1.0005515990020246,-100.32347179692943
9.7384192,1.000796390017341,-100.66941125982588
9.749318656,1.0010016995118327,-101.01833430138706
9.760218112,1.0011573478485778,-101.36967666101977
9.771117568,1.0012554358371046,-101.7227469657946
9.782016,1.0012911781102531,-102.07675401189319
9.792915456,1.0012624091708928,-102.43091004233183
9.803814912,1.0011705861151354,-102.78441665664535
9.814714368,1.0010200590710767,-103.13644536681443
9.8256128,1.000818165409195,-103.48633289503172
9.836512256,1.0005749300014468,-103.83345536729426
9.847411712,1.0003022350405355,-104.17733526778203
9.858310144,1.000013672596179,-104.5177229362701
9.8692096,0.9997236646728412,-104.85445659118938
9.880109056,0.9994465033594662,-105.18762591791261
9.891008512,0.9991962138282626,-105.517478954949
9.901906944,0.9989852985239518,-105.84441568650819
9.9128064,0.998824374579063,-106.1690268783934
9.923705856,0.9987217053113076,-106.49201255980564
9.934605312,0.9986822356565358,-106.81414640341497
9.945503744,0.9987085614708884,-107.13628054883429
9.9564032,0.9987990720287714,-107.45919695398926
9.967302656,0.9989496407121637,-107.78376538527932
9.978202112,0.9991527649519594,-108.11067832100717
9.989100544,0.999398405913536,-108.44056144796967
10.0,0.9996744863860102,-108.77388662905284
10.010899456,0.9999671804741733,-109.11096323654536
10.021797888,1.0002618624104065,-109.45189388113899
10.032697344,1.0005439819032107,-109.79663262713183
10.0435968,1.0007994819524244,-110.1449152159351
10.054496256,1.0010154526137562,-110.49630976171083
10.065394688,1.0011811431423683,-110.85027674454368
10.076294144,1.0012881619086493,-111.20609163502199
10.0871936,1.0013311328108945,-111.56296068905166
10.098093056,1.0013076739900155,-111.92006403878864
10.108991488,1.001218967320953,-112.27655971749472
10.119890944,1.001069073983679,-112.63163496681987
10.1307904,1.0008654270006092,-112.98455553264085
10.141689856,1.0006179521881462,-113.33466531059473
10.152588288,1.0003389512275302,-113.68149583939231
10.163487744,1.0000421565531372,-114.02472752519914
10.1743872,0.9997423245733141,-114.3642078924112
10.185285632,0.9994544717537872,-114.69998250748912
10.196185088,0.9991929826695315,-115.0322937922131
10.207084544,0.9989708782506198,-115.36156960517594
10.217984,0.9987993723303242,-115.68839352549011
10.228882432,0.9986872823532754,-116.01342982760583
10.239781888,0.9986401812047198,-116.33754046601702
10.250681344,0.9986608330669822,-116.66152408650863
10.2615808,0.9987480117556851,-116.98629211256448
10.272479232,0.998897839097774,-117.31264454541521
10.283378688,0.9991027520305024,-117.64137307670947
10.294278144,0.9993528190377206,-117.97310317894856
10.3051776,0.9996354182149901,-118.30834469024468
10.316076032,0.9999366792236342,-118.64744025882878
10.326975488,1.0002415784190504,-118.9905235407054
10.337874944,1.000534972527596,-119.33753430317086
10.348773376,1.000802133710729,-119.6882634452189
10.359672832,1.001029866090482,-120.04225407444225
