freq,mag,phase
6.0,1.000718380016225,-52.75907653045515
6.009673728,1.000775391567683,-53.17020067596176
6.019346944,1.0007896432627634,-53.58190538478988
6.029020672,1.0007634518300372,-53.9936593267929
6.038693888,1.0006976594285206,-54.40492912631599
6.048367616,1.0005959713794488,-54.81524424590267
6.058041344,1.0004633483972651,-55.22407526628252
6.06771456,1.0003066559936644,-55.63120922458178
6.077388288,1.000133810393033,-56.03630972106745
6.087061504,0.9999534704081758,-56.43918845213958
6.096735232,0.9997752133321124,-56.83988429308857
6.10640896,0.9996078793652943,-57.238380053015554
6.116082176,0.99946041829765,-57.63497171865782
6.125755904,0.9993399362785764,-58.029897727828605
6.13542912,0.9992530800591352,-58.42358928419346
6.145102848,0.9992041347652084,-58.81645353242657
6.154776064,0.999195603786428,-59.2090616822556
6.164449792,0.9992281957545937,-59.60197439207807
6.17412352,0.9993001631689842,-59.99563284430656
6.183796736,0.9994078190669204,-60.39060882664173
6.193470464,0.9995458126965836,-60.7872664239191
6.20314368,0.999707063378927,-61.186050187896946
6.212817408,0.999883150835365,-61.58707212994048
6.222491136,1.0000652277245012,-61.990576519536255
6.232164352,1.0002440833101935,-62.396566698174645
6.24183808,1.0004103942897868,-62.80485857894918
6.251511296,1.0005554099141536,-63.215368430319664
6.261185024,1.000672140235367,-63.62763530643569
6.270858752,1.00075433612891,-64.0413768022753
6.280531968,1.0007977915864432,-64.4560036520553
6.290205696,1.0008003235585041,-64.87111580414098
6.299878912,1.0007615378957688,-65.28604334061112
6.30955264,1.0006835093957238,-65.70038109695072
6.319226368,1.0005701703997594,-66.11355268630956
6.328899584,1.0004271937457785,-66.52517623154095
6.338573312,1.000262031785918,-66.93494148423191
6.348246528,1.0000829261525992,-67.34251827482188
6.357920256,0.9998989525053811,-67.74790844688142
6.367593472,0.9997198061802259,-68.15097277515036
6.3772672,0.9995543614835589,-68.55196452372688
6.386940928,0.99941160029467,-68.95103948876024
6.396614144,0.9992983754248315,-69.34851018370539
6.406287872,0.9992207449561422,-69.74486553291895
6.415961088,0.9991826369946881,-70.140579185109
6.425634816,0.9991862782588599,-70.536166173615
6.435308544,0.9992313191013917,-70.93216845922495
6.44498176,0.9993156004369488,-71.32909701582419
6.454655488,0.9994348586186085,-71.72753820310471
6.464328704,0.999582995093693,-72.12775108496238
6.474002432,0.9997523230975919,-72.53019355358579
6.48367616,0.999934524724281,-72.93502040679478
6.493349376,1.0001200212247283,-73.34238426451098
6.503023104,1.0002992234173695,-73.75224068042681
6.51269632,1.0004633400359535,-74.16442244171179
6.522370048,1.0006035159945135,-74.57868436077624
6.532043776,1.0007128263559701,-74.99474030188247
6.541716992,1.0007854919812142,-75.41208575939896
6.55139072,1.0008178770258565,-75.8302521027375
6.561063936,1.0008082720334122,-76.24864119177876
6.570737664,1.000757043607597,-76.66675994717693
6.58041088,1.0006667148790582,-77.08408961654331
6.590084608,1.0005418826317836,-77.50014549979382
6.599758336,1.000389022195593,-77.91449833252047
6.609431552,1.0002156387753494,-78.32684762796984
6.61910528,1.0000308092928671,-78.7369759042311
6.628778496,0.999843864341264,-79.14479385690544
6.638452224,0.9996643889858695,-79.55032871298967
6.648125952,0.9995016208689222,-79.9537673992949
6.657799168,0.9993639205677791,-80.35532402204895
6.667472896,0.999258316287801,-80.75538806501889
6.677146112,0.999190264962371,-81.15443337592396
6.68681984,0.9991634282093091,-81.55298885390856
6.696493568,0.9991792500922584,-81.95155900514416
6.706166784,0.9992368209694564,-82.35068092792326
6.715840512,0.9993332441642194,-82.75093585783257
6.725513728,0.9994639390826464,-83.15279332437039
6.735187456,0.9996218774396466,-83.55663347292428
6.744861184,0.9997992071509454,-83.96278480439409
6.7545344,0.9999867036196783,-84.37140830502766
6.764208128,1.000175004008943,-84.78259864585594
6.773881344,1.0003543036547167,-85.19631638430687
6.783555072,1.0005155313269585,-85.61233796427851
6.793228288,1.0006501717430099,-86.03039803378792
6.802902016,1.0007517559972414,-86.45015978131518
6.812575744,1.0008146154305433,-86.8710851262314
6.82224896,1.0008356433980385,-87.29266496465148
6.831922688,1.00081385709162,-87.7143764158142
6.841595904,1.0007500800186242,-88.13558638008944
6.851269632,1.0006475452240793,-88.55591110291448
6.86094336,1.0005115885044207,-88.974799663948
6.870616576,1.0003488920534203,-89.39183650385041
6.880290304,1.0001680532925132,-89.80672902188697
6.88996352,0.9999778829915811,-90.21934418563079
6.899637248,0.9997884419903911,-90.62958525210446
6.909310976,0.9996091482095838,-91.03753528835627
6.918984192,0.9994493568974155,-91.44342711671676
6.92865792,0.9993173444581659,-91.84746830989297
6.938331136,0.9992199273865575,-92.25008859390317
6.948004864,0.9991618522707263,-92.65182855081957
6.957678592,0.9991465463769069,-93.05317763374734
6.967351808,0.9991745477168031,-93.45475890373775
6.977025536,0.9992447315688244,-93.85703666387437
6.986698752,0.9993534460375109,-94.26055648215784
6.99637248,0.9994951299386018,-94.66588615572196
7.006045696,0.9996625249735851,-95.07332204724646
7.015719424,0.9998472851042836,-95.48314273783946
7.025393152,1.0000399663853545,-95.89554631059649
7.035066368,1.000230433479288,-96.31054923457982
7.044740096,1.0004093344356668,-96.72806267042728
7.054413312,1.0005671583510545,-97.14790562714336
7.06408704,1.0006959617812703,-97.56974845472621
7.073760768,1.000789222264006,-97.99309195194621
7.083433984,1.000841866133169,-98.41755323772836
7.093107712,1.0008514342405475,-98.84251106618792
7.102780928,1.0008172200667802,-99.26742544156875
7.112454656,1.0007409645088403,-99.69176555214914
7.122128384,1.0006263890947869,-100.11496900769774
7.1318016,1.0004792854303977,-100.53656359122442
7.141475328,1.0003072158753146,-100.95623520421995
7.151148544,1.0001189882290358,-101.37364407179085
7.160822272,0.9999240369876465,-101.78865611761117
7.170496,0.9997324686924168,-102.20128530304423
7.180169216,0.999553994426139,-102.6115971967224
7.189842944,0.9993977792606338,-103.01981514885448
7.19951616,0.9992719664625638,-103.42630065539072
7.209189888,0.9991829209318207,-103.8314875672164
7.218863616,0.9991351313183394,-104.23588094213926
7.228536832,0.9991315138675027,-104.64005001656302
7.23821056,0.9991720566968502,-105.04454412532377
7.247883776,0.9992547727684957,-105.44994457973871
7.257557504,0.999375445206499,-105.85677550425126
7.26723072,0.9995281071233385,-106.26548748386715
7.276904448,0.9997048852851478,-106.67647579186745
7.286578176,0.9998967286484839,-107.08997114136073
7.296251392,1.0000939433444835,-107.50607943145337
7.30592512,1.0002862579302942,-107.92486517296203
7.315598336,1.0004640234673967,-108.34614269561666
7.325272064,1.0006181657700275,-108.7697181933861
7.334945792,1.0007406125839846,-109.19517027547292
7.344619008,1.0008250961571985,-109.62212370301042
7.354292736,1.0008672985751401,-110.05001569166357
7.363965952,1.0008651206802832,-110.4782596389025
7.37363968,1.0008184138924763,-110.90629823240381
7.383313408,1.000729420011374,-111.33358558223777
7.392986624,1.000602867545917,-111.75958505615208
7.402660352,1.0004450170405632,-112.18385419604905
7.412333568,1.0002639243160618,-112.60598835238437
7.422007296,1.0000686137921975,-113.02584164519453
7.431681024,0.9998693346775104,-113.44318418790077
7.44135424,0.9996760733985915,-113.85808723992058
7.451027968,0.9994987227999733,-114.27069620716516
7.460701184,0.9993466172992286,-114.68122406911864
7.470374912,0.999227325108676,-115.09007329109663
7.480048128,0.999147093801514,-115.4977437430451
7.489721856,0.9991101023652587,-115.90475554167308
7.499395584,0.9991183561259561,-116.31164722183213
7.5090688,0.9991715285201963,-116.71902150711327
7.518742528,0.999266792202793,-117.12748904129002
7.528415744,0.9993995500545896,-117.53755363811732
7.538089472,0.9995628959595159,-117.9496305580996
7.5477632,0.9997486624350775,-118.36406792651063
7.557436416,0.999947223918313,-118.78111948290837
7.567110144,1.0001486342368608,-119.20089601436379
7.57678336,1.0003423915593348,-119.62335937254409
7.586457088,1.0005186610427579,-120.04832566690703
7.596130816,1.0006685847090016,-120.4755177039598
7.605804032,1.0007842384771044,-120.90457213879404
7.61547776,1.0008596926417648,-121.33494634096144
7.625150976,1.000891260136501,-121.76612344252855
7.634824704,1.000876924698192,-122.19757964613444
7.644498432,1.0008174971432198,-122.62865639574991
7.654171648,1.000716007635304,-123.05875214463174
7.663845376,1.000577456261292,-123.4874342869807
7.673518592,1.0004088802201374,-123.9142347599297
7.68319232,1.0002188344852627,-124.33878491036707
7.692865536,1.0000169973121666,-124.76090547766246
7.702539264,0.9998135929701375,-125.1804698835721
7.712212992,0.9996191715319673,-125.59755261861693
7.721886208,0.9994434721415029,-126.01231711447483
7.731559936,0.9992958128728348,-126.42505482364449
7.741233152,0.9991834579550264,-126.83620891435218
7.75090688,0.9991124631170643,-127.24624311414138
7.760580608,0.9990863879434196,-127.65573220457675
7.770253824,0.9991069053499274,-128.0652735632466
7.779927552,0.999172736880653,-128.47550101027605
7.789600768,0.9992807370116037,-128.88693212322988
7.799274496,0.9994253692242959,-129.30008622828626
7.808948224,0.9995994046450515,-129.7154252402929
7.81862144,0.9997939337541646,-130.13329711243347
7.828295168,0.9999989868335196,-130.5538339142398
7.837968384,1.0002041834704511,-130.97713700466062
7.847642112,1.0003989271880451,-131.4031944319879
7.85731584,1.0005733989570087,-131.83168949312844
7.866989056,1.0007185696887728,-132.26244473888565
7.876662784,1.0008270642028632,-132.6949100136961
7.886336,1.000893135087203,-133.12864713059116
7.896009728,1.0009135019526774,-133.56300601314325
7.905682944,1.0008869766051585,-133.99745413098861
7.915356672,1.000814739723684,-134.4313783877182
7.9250304,1.0007005765953667,-134.864207324208
7.934703616,1.0005501067608722,-135.29541720589467
7.944377344,1.0003709532024168,-135.72455889908935
7.95405056,1.0001721704077653,-136.15138924512692
7.963724288,0.99996402344449,-136.57564150182222
7.973398016,0.9997569998266911,-136.9972833849896
7.983071232,0.9995616696066422,-137.41639916138942
7.99274496,0.9993880835738261,-137.8331820878841
8.002418176,0.9992451963044916,-138.2480033274069
8.012091904,0.9991403195545179,-138.6613128602676
8.021765632,0.9990788922448538,-139.07362003981535
8.031438848,0.9990641317204969,-139.48549206981463
8.041112576,0.9990970742057591,-139.89761685335702
8.050785792,0.9991758016616088,-140.31049160361397
8.06045952,0.9992965877196374,-140.72478860094958
8.070133248,0.9994531939939157,-141.1409920835102
8.079806464,0.9996378470762429,-141.5594841959632
8.089480192,0.9998409208026482,-141.980589294335
8.099153408,1.0000521525786727,-142.40451292170877
8.108827136,1.0002609188133356,-142.83124345315204
8.118500352,1.0004563225799785,-143.26072964970857
8.12817408,1.0006285457220698,-143.69268149361486
8.137847808,1.00076862779365,-144.12677657010573
8.147521024,1.0008694926682185,-144.56253792193178
8.157194752,1.0009258275625057,-144.9994377721172
8.166867968,1.0009346660473246,-145.43684747007848
8.176541696,1.0008956653194696,-145.87413609378672
8.186215424,1.0008105233424534,-146.310756796896
8.19588864,1.000683446741781,-146.74610619071464
8.205562368,1.000521025736497,-147.1796774467031
8.215235584,1.0003313380058378,-147.61103985918157
8.224909312,1.000124089069164,-148.03993095226596
8.23458304,0.9999097665693002,-148.4661470328249
8.244256256,0.9996992389963566,-148.88970973922315
8.253929984,0.9995035165924722,-149.3107092618064
8.2636032,0.9993324062236958,-149.72938039199445
8.273276928,0.9991947181458584,-150.14614253359252
8.282950656,0.999097682712761,-150.5614302012625
8.292623872,0.9990462777431572,-150.97584478919003
8.3022976,0.9990432502368326,-151.38997561074328
8.311970816,0.9990887265091145,-151.8044529031183
8.321644544,0.9991806120792586,-152.2199200902554
8.331318272,0.9993143002175426,-152.6369082774536
8.340991488,0.9994829044584495,-153.05599616908285
8.350665216,0.9996779661223968,-153.4775155189595
8.360338432,0.9998895120074428,-153.9017627142943
8.37001216,1.0001067425323815,-154.32887805156415
8.379685376,1.000318732132921,-154.75889441566576
8.389359104,1.0005143878389335,-155.19165250580235
8.399032832,1.0006839924431346,-155.6268958260431
8.408706048,1.0008185739918236,-156.06418844338702
8.418379776,1.0009114317313503,-156.5030550930927
8.428052992,1.0009575607947458,-156.942970196572
8.43772672,1.0009546225509862,-157.38320596822123
8.447400448,1.000902670774235,-157.8232152929901
8.457073664,1.0008043869075813,-158.26234185116593
8.466747392,1.0006643138531714,-158.69998136715785
8.476420608,1.0004899019379205,-159.13573225806772
8.486094336,1.0002897861923528,-159.56911790459816
8.495768064,1.0000739822619342,-159.99985588256175
8.50544128,0.9998537474633787,-160.42785851671923
8.515115008,0.9996402015320558,-160.85312625847376
8.524788224,0.9994442548268182,-161.27579258700624
8.534461952,0.9992759662066785,-161.69616494101703
8.54413568,0.9991440148047249,-162.11465215144676
8.553808896,0.9990551845290924,-162.53177145085434
8.563482624,0.9990141541991003,-162.94811193464236
8.57315584,0.9990230283777911,-163.36434268400632
8.582829568,0.9990816031743084,-163.78101700816916
8.592502784,0.999186922980368,-164.19887859275283
8.602176512,0.9993336679844897,-164.61845130215596
8.61185024,0.9995143786571377,-165.04024459563522
8.621523968,0.9997199678165881,-165.46461603536383
8.631196672,0.9999398667545764,-165.8918316251043
8.6408704,1.0001629351240013,-166.32202858096676
8.650544128,1.0003778813421738,-166.75513812122344
8.660217856,1.0005736132012424,-167.1910241416909
8.669891584,1.0007401261425635,-167.62934909163218
8.679564288,1.00086883122446,-168.06967529177058
8.689238016,1.0009532280909201,-168.51149052743688
8.698911744,1.000988742134097,-168.9541446463588
8.708585472,1.0009736985344189,-169.39705418950368
8.7182592,1.0009086116053423,-169.83952899786667
8.727931904,1.0007966457814266,-170.28095194167992
8.737605632,1.000643482605804,-170.72073089299042
8.74727936,1.0004568159926472,-171.15837516939197
8.756953088,1.0002461124026019,-171.5935424757746
8.766626816,1.0000220187198432,-172.02597591306275
8.77629952,0.9997959978551877,-172.45553099356016
8.785973248,0.9995795669358883,-172.88228560642997
8.795646976,0.9993839024658481,-173.30642615425452
8.805320704,0.9992186844980693,-173.728265445612
8.814994432,0.9990928550502174,-174.14830560947664
8.824667136,0.9990126454841072,-174.567023788516
8.834340864,0.9989824003100174,-174.98511300451463
8.844014592,0.9990038603113918,-175.40320098048835
8.85368832,0.9990758110577743,-175.8219597458688
8.863362048,0.9991947194225611,-176.2419997896669
8.873034752,0.9993548607856436,-176.6639479253455
8.88270848,0.999547841895128,-177.08826374492588
8.892382208,0.999763925793049,-177.51532476705333
8.902055936,0.9999922194422404,-177.94532947859915
8.91172864,1.0002209819848942,-178.37839984292245
8.921402368,1.0004386345645429,-178.81444187727578
8.931076096,1.000634061625749,-179.25325775282928
8.940749824,1.000797077566877,-179.69445860385378
8.950423552,1.0009196076448257,179.8623575535899
8.960096256,1.0009950928766864,179.41783632302068
8.969769984,1.0010195991483355,178.97258259369852
8.979443712,1.0009918028082487,178.52724512752886
8.98911744,1.000913072116246,178.0825300991185
8.998791168,1.000787312028131,177.6390369369353
9.008463872,1.0006207590575045,177.1973823725265
9.0181376,1.0004218063665895,176.75801435365005
9.027811328,1.0002003760476588,176.32129813029812
9.037485056,0.9999680471902014,175.8874681460935
9.047158784,0.9997363050865514,175.4565827955341
9.056831488,0.9995172263456888,175.02858773541294
9.066505216,0.9993219175986513,174.60322287623165
9.076178944,0.9991604167867497,174.18011977784283
9.085852672,0.999041028212633,173.7588089716323
9.0955264,0.9989701119545314,173.33867586169865
9.105199104,0.9989511315238477,172.91907949031585
9.114872832,0.9989854141575397,172.49931146764507
9.12454656,0.9990713028931469,172.07873622672247
9.134220288,0.9992044116513098,171.656667569464
9.143894016,0.9993780496280369,171.23253185682225
9.15356672,0.9995835461103828,170.80589372178392
9.163240448,0.9998103237391891,170.37633514495158
9.172914176,1.0000470036872557,169.9437353981041
9.182587904,1.0002813880199464,169.50798731958318
9.192261632,1.0005014927140012,169.06920653733755
9.201934336,1.0006962255593481,168.62766683938776
9.211608064,1.0008555824075995,168.18374967765763
9.221281792,1.0009712000269204,167.73797182096365
9.23095552,1.0010372274027515,167.29092823311
9.240629248,1.001050222944122,166.84330806803163
9.250301952,1.0010095008089204,166.39577307785135
9.25997568,1.0009165783351741,165.94906633279638
9.269649408,1.0007764930748266,165.5037686238175
9.279323136,1.0005961684396911,165.06045688920537
9.288996864,1.0003845048796125,164.6196402745859
9.298669568,1.0001523669015107,164.18162796809864
9.308343296,0.9999116337341178,163.74665040210837
9.318017024,0.9996743551331213,163.31470126940735
9.327690752,0.9994527877199296,162.88571213740678
9.337363456,0.999258195648646,162.45937036364805
9.347037184,0.9991007067565131,162.03527061837445
9.356710912,0.9989883296506361,161.61289753398975
9.36638464,0.9989270585528451,161.19159447386141
9.376058368,0.998920069977644,160.77071683608048
9.385731072,0.998967845194315,160.34953429936562
9.3954048,0.9990681022167165,159.9273244684218
9.405078528,0.9992156620557647,159.5034554164367
9.414752256,0.9994034774467367,159.07737933961587
9.424425984,0.9996216838628629,158.6485531682858
9.434098688,0.9998594255828889,158.21674990619434
9.443772416,1.0001043448121765,157.78172758428482
9.453446144,1.000344178366473,157.34349476357303
9.463119872,1.0005668356898885,156.9022065227822
9.4727936,1.0007605729154476,156.45813590793026
9.482466304,1.0009156701077773,156.011732417886
9.492140032,1.0010241102956496,155.56355957832014
9.50181376,1.001080209393712,155.11424282291304
9.511487488,1.0010810500013156,154.66448837723354
9.521161216,1.0010264647966793,154.21499858769033
9.53083392,1.000918904742128,153.76649423103936
9.540507648,1.0007640043778798,153.31960987113047
9.550181376,1.0005693272663947,152.87496655723368
9.559855104,1.0003447970765322,152.4329541184915
9.569528832,1.0001016629670818,151.99391655886956
9.579201536,0.9998524109081083,151.5580538329262
9.588875264,0.9996095728530647,151.12533256799512
9.598548992,0.9993857477946969,150.69559081017172
9.60822272,0.999192295117621,150.26856076323062
9.617896448,0.999039196553313,149.84373009981906
9.627569152,0.998934385016552,149.4205605422843
9.63724288,0.9988834276029346,148.99837596072672
9.646916608,0.998888850536145,148.57642258797685
9.656590336,0.9989508064109255,148.15404549993275
9.666264064,0.9990661341802936,147.73044958702027
9.675936768,0.9992289789382424,147.30501255850734
9.685610496,0.9994311733616011,146.87715444662527
9.695284224,0.9996626607640151,146.44639862116273
9.704957952,0.9999114316931962,146.0125073770051
9.71463168,1.0001650574512666,145.57529906923332
9.724304384,1.0004104678434749,145.13478084382723
9.733978112,1.0006352125565199,144.69116950311542
9.74365184,1.000827699182874,144.244773683546
9.753325568,1.0009781311741393,143.79610127433685
9.762999296,1.0010787328399409,143.34572609764047
9.772672,1.0011242268793128,142.89433726041636
9.782345728,1.0011122150711755,142.44267128953354
9.792019456,1.001043121016757,141.9914709564898
9.801693184,1.0009203486917697,141.5414477375848
9.811365888,1.0007498702905318,141.0932604737585
9.821039616,1.0005403476429104,140.64749468205596
9.830713344,1.0003024493988495,140.2045759100717
9.840387072,1.0000480027206609,139.76480798270453
9.8500608,0.9997900991770984,139.32832206333444
9.859733504,0.9995417339052778,138.89510902579875
9.869407232,0.9993157806435737,138.46493927652236
