freq,mag,phase
6.0,0.9999803448709914,149.6420709580457
6.008,0.9999807605734982,149.60132613110457
6.016,0.9999811709624653,149.56058034115236
6.024,0.9999815760724753,149.51983358666084
6.032,0.9999819759380382,149.4790858661009
6.04,0.9999823705935901,149.43833717794263
6.048,0.999982760073494,149.39758752065535
6.056,0.9999831444120404,149.3568368927075
6.064,0.9999835236434471,149.31608529256678
6.072,0.9999838978018585,149.27533271870016
6.08,0.9999842669213473,149.2345791695739
6.088,0.9999846310359132,149.19382464365336
6.096,0.9999849901794841,149.15306913940339
6.104,0.9999853443859148,149.112312655288
6.112,0.999985693688989,149.07155518977052
6.12,0.9999860381224177,149.03079674131365
6.128,0.9999863777198403,148.9900373083794
6.136,0.9999867125148248,148.9492768894292
6.144,0.9999870425408675,148.90851548292375
6.152,0.9999873678313925,148.86775308732317
6.16,0.9999876884197534,148.826989701087
6.168,0.9999880043392324,148.78622532267417
6.176,0.9999883156230406,148.74545995054314
6.184,0.9999886223043176,148.70469358315165
6.192,0.9999889244161331,148.663926218957
6.2,0.9999892219914852,148.623157856416
6.208,0.9999895150633022,148.58238849398484
6.216,0.9999898036644419,148.5416181301194
6.224,0.9999900878276906,148.5008467632749
6.232,0.9999903675857658,148.4600743919062
6.24,0.9999906429713146,148.41930101446775
6.248,0.9999909140169136,148.37852662941347
6.256,0.9999911807550703,148.33775123519703
6.264,0.9999914432182223,148.29697483027155
6.272,0.9999917014387378,148.25619741308984
6.28,0.9999919554489154,148.2154189821044
6.288,0.9999922052809844,148.17463953576737
6.296,0.9999924509671052,148.13385907253053
6.304,0.9999926925393694,148.09307759084538
6.312,0.9999929300297995,148.05229508916318
6.32,0.9999931634703492,148.01151156593485
6.328,0.9999933928929038,147.9707270196111
6.336,0.9999936183292802,147.92994144864244
6.344,0.999993839811227,147.8891548514791
6.352,0.9999940573704247,147.84836722657116
6.36,0.9999942710384856,147.80757857236856
6.368,0.9999944808469547,147.76678888732098
6.376,0.9999946868273084,147.72599816987807
6.384,0.9999948890109562,147.68520641848934
6.392,0.9999950874292399,147.64441363160412
6.4,0.9999952821134339,147.60361980767183
6.408,0.9999954730947459,147.5628249451416
6.416,0.999995660404316,147.52202904246275
6.424,0.9999958440732177,147.48123209808443
6.432,0.9999960241324578,147.44043411045587
6.44,0.9999962006129768,147.39963507802625
6.448,0.9999963735456479,147.35883499924486
6.456,0.9999965429612789,147.31803387256107
6.464,0.9999967088906109,147.27723169642422
6.472,0.9999968713643191,147.23642846928388
6.48,0.9999970304130128,147.19562418958967
6.4879999999999995,0.9999971860672358,147.15481885579138
6.496,0.9999973383574656,147.114012466339
6.504,0.9999974873141156,147.07320501968266
6.5120000000000005,0.9999976329675325,147.03239651427273
6.52,0.9999977753479985,146.99158694855984
6.5280000000000005,0.9999979144857305,146.9507763209948
6.536,0.9999980504108807,146.9099646300288
6.5440000000000005,0.9999981831535367,146.86915187411324
6.552,0.9999983127437211,146.82833805169994
6.5600000000000005,0.9999984392113923,146.787523161241
6.568,0.9999985625864443,146.7467072011889
6.5760000000000005,0.9999986828987066,146.7058901699965
6.584,0.9999988001779454,146.6650720661172
6.592,0.9999989144538622,146.62425288800472
6.6,0.9999990257560953,146.58343263411325
6.608,0.9999991341142188,146.54261130289754
6.616,0.999999239557744,146.5017888928128
6.624,0.999999342116118,146.46096540231488
6.632,0.9999994418187251,146.42014082986003
6.64,0.9999995386948872,146.3793151739053
6.648,0.9999996327738617,146.33848843290812
6.656,0.9999997240848446,146.29766060532688
6.664,0.9999998126569677,146.25683168962027
6.672,0.999999898519302,146.216001684248
6.68,0.9999999817008547,146.1751705876703
6.688,1.0,146.1343383983483
6.696,1.0,146.09350511474372
6.704,1.0,146.05267073531928
6.712,1.0,146.01183525853844
6.72,0.9999999999999999,145.97099868286554
6.728,0.9999999999999999,145.9301610067658
6.736,1.0,145.8893222287053
6.744,1.0,145.84848234715122
6.752,0.9999999999999999,145.8076413605716
6.76,0.9999999999999999,145.76679926743543
6.768,0.9999999999999998,145.7259560662129
6.776,0.9999999999999999,145.68511175537515
6.784,0.9999999999999999,145.64426633339443
6.792,1.0,145.60341979874408
6.8,1.0,145.5625721498987
6.808,1.0,145.52172338533396
6.816,0.9999999999999999,145.48087350352688
6.824,1.0,145.44002250295554
6.832,0.9999999999999998,145.39917038209947
6.84,0.9999999999999999,145.3583171394394
6.848,1.0,145.3174627734575
6.856,1.0,145.27660728263723
6.864,1.0,145.23575066546346
6.872,1.0,145.19489292042257
6.88,0.9999999999999998,145.1540340460024
6.888,1.0,145.11317404069223
6.896,0.9999999999999999,145.07231290298296
6.904,1.0,145.031450631367
6.912,0.9999999999999999,144.99058722433847
6.92,0.9999999999999999,144.949722680393
6.928,1.0,144.90885699802797
6.936,1.0,144.8679901757426
6.944,0.9999999999999999,144.8271222120376
6.952,1.0,144.78625310541568
6.96,1.0,144.7453828543813
6.968,0.9999999999999999,144.70451145744082
6.976,1.0,144.66363891310243
6.984,1.0,144.6227652198763
6.992,1.0,144.5818903762746
7.0,0.9999999999999999,144.54101438081145
7.008,1.0,144.50013723200306
7.016,1.0,144.45925892836775
7.024,1.0,144.4183794684259
7.032,1.0,144.3774988507002
7.04,0.9999999999999999,144.33661707371533
7.048,1.0,144.29573413599837
7.056,0.9999999999999999,144.25485003607866
7.064,1.0000000000000002,144.21396477248788
7.072,1.0,144.17307834376007
7.08,1.0,144.1321907484316
7.088,1.0,144.0913019850415
7.096,1.0,144.05041205213104
7.104,1.0,144.00952094824422
7.112,1.0,143.96862867192752
7.12,1.0000000000000002,143.92773522173005
7.128,1.0,143.88684059620365
7.136,1.0,143.84594479390282
7.144,0.9999999999999999,143.80504781338476
7.152,1.0,143.76414965320964
7.16,0.9999999999999999,143.7232503119403
7.168,0.9999999999999998,143.68234978814255
7.176,0.9999999999999999,143.6414480803851
7.184,0.9999999999999999,143.60054518723965
7.192,0.9999999999999999,143.55964110728095
7.2,1.0,143.5187358390868
7.208,0.9999999999999999,143.47782938123814
7.216,0.9999999999999999,143.436921732319
7.224,1.0000000000000002,143.39601289091675
7.232,0.9999999999999999,143.35510285562185
7.24,1.0,143.31419162502831
7.248,1.0,143.27327919773325
7.256,0.9999999999999999,143.2323655723373
7.264,1.0,143.1914507474446
7.272,1.0,143.15053472166275
7.28,1.0000000000000002,143.10961749360283
7.288,1.0,143.0686990618796
7.296,0.9999999999999999,143.0277794251115
7.304,1.0,142.9868585819206
7.312,1.0,142.94593653093276
7.32,0.9999999999999999,142.90501327077766
7.328,0.9999999999999999,142.86408880008878
7.336,1.0,142.8231631175036
7.344,0.9999999999999999,142.78223622166357
7.352,1.0,142.74130811121395
7.36,1.0,142.70037878480431
7.368,1.0,142.6594482410882
7.376,1.0,142.61851647872342
7.384,0.9999999999999999,142.57758349637191
7.392,1.0,142.53664929269996
7.4,0.9999999558464394,142.49571386637817
7.4079999999999995,0.9999999086525534,142.45477721608148
7.416,0.9999998611880283,142.41383934048937
7.4239999999999995,0.999999813476177,142.37290023828578
7.432,0.999999765540243,142.33195990815906
7.4399999999999995,0.9999997174034002,142.2910183488024
7.448,0.9999996690887516,142.25007555891347
7.4559999999999995,0.99999962061933,142.2091315371947
7.464,0.9999995720180965,142.16818628235336
7.4719999999999995,0.9999995233079402,142.12723979310144
7.48,0.9999994745116773,142.0862920681559
7.4879999999999995,0.9999994256520517,142.04534310623856
7.496,0.999999376751733,142.00439290607633
7.504,0.999999327833316,141.96344146640104
7.5120000000000005,0.9999992789193212,141.92248878594972
7.52,0.9999992300321932,141.8815348634646
7.5280000000000005,0.9999991811942998,141.84057969769302
7.536,0.9999991324279325,141.79962328738762
7.5440000000000005,0.9999990837553039,141.75866563130643
7.552,0.999999035198549,141.71770672821282
7.5600000000000005,0.999998986779723,141.6767465768756
7.568,0.999998938520801,141.63578517606908
7.5760000000000005,0.9999988904436771,141.59482252457323
7.584,0.9999988425701642,141.5538586211735
7.5920000000000005,0.9999987949219923,141.51289346466106
7.6,0.9999987475208075,141.47192705383281
7.6080000000000005,0.9999987003881726,141.43095938749147
7.616,0.9999986535455643,141.38999046444553
7.6240000000000006,0.9999986070143733,141.34902028350945
7.632,0.9999985608159037,141.30804884350357
7.640000000000001,0.9999985149713707,141.2670761432543
7.648,0.9999984695019016,141.2261021815941
7.656000000000001,0.9999984244285326,141.18512695736152
7.664,0.9999983797722091,141.1441504694014
7.672,0.9999983355537845,141.10317271656461
7.68,0.9999982917940187,141.06219369770852
7.688,0.9999982485135773,141.02121341169675
7.696,0.9999982057330304,140.98023185739922
7.704,0.9999981634728518,140.93924903369253
7.712,0.9999981217534166,140.89826493945955
7.72,0.9999980805950017,140.8572795735899
7.728,0.9999980400177831,140.81629293497969
7.736,0.9999980000418357,140.77530502253174
7.744,0.9999979606871311,140.73431583515557
7.752,0.9999979219735374,140.6933253717675
7.76,0.9999978839208165,140.65233363129065
7.768,0.9999978465486239,140.61134061265506
7.776,0.9999978098765064,140.57034631479758
7.784,0.9999977739239021,140.5293507366621
7.792,0.9999977387101368,140.48835387719967
7.8,0.9999977042544244,140.44735573536818
7.808,0.9999976705758646,140.40635631013268
7.816,0.9999976376934419,140.36535560046556
7.824,0.9999976056260227,140.3243536053463
7.832,0.9999975743923554,140.28335032376154
7.84,0.9999975440110679,140.24234575470538
7.848,0.999997514500666,140.20133989717928
7.856,0.9999974858795319,140.1603327501919
7.864,0.9999974581659222,140.11932431275957
7.872,0.999997431377967,140.07831458390595
7.88,0.9999974055336669,140.03730356266217
7.888,0.9999973806508922,139.99629124806708
7.896,0.9999973567473806,139.95527763916698
7.904,0.9999973338407355,139.91426273501588
7.912,0.9999973119484243,139.8732465346754
7.92,0.9999972910877764,139.83222903721486
7.928,0.9999972712759807,139.79121024171133
7.936,0.9999972525300842,139.75019014724964
7.944,0.9999972348669905,139.7091687529225
7.952,0.9999972183034567,139.66814605783026
7.96,0.9999972028560918,139.62712206108125
7.968,0.999997188541355,139.58609676179174
7.976,0.999997175375553,139.54507015908572
7.984,0.9999971633748383,139.5040422520952
7.992,0.9999971525552062,139.4630130399602
8.0,0.9999971429324941,139.42198252182862
8.008,0.9999971345223776,139.3809506968564
8.016,0.9999971273403696,139.33991756420744
8.024000000000001,0.9999971214018171,139.29888312305368
8.032,0.9999971167218987,139.2578473725751
8.04,0.9999971133156242,139.2168103119597
8.048,0.9999971111978292,139.17577194040354
8.056000000000001,0.999997110383175,139.13473225711078
8.064,0.999997110886145,139.09369126129354
8.072,0.9999971127210432,139.05264895217215
8.08,0.9999971159019908,139.01160532897487
8.088000000000001,0.9999971204429238,138.97056039093806
8.096,0.9999971263575906,138.9295141373062
8.104,0.9999971336595505,138.88846656733176
8.112,0.999997142362168,138.84741768027527
8.120000000000001,0.9999971524786141,138.8063674754053
8.128,0.9999971640218613,138.76531595199842
8.136,0.9999971770046807,138.72426310933923
8.144,0.9999971914396406,138.6832089467203
8.152000000000001,0.9999972073391027,138.64215346344213
8.16,0.9999972247152199,138.6010966588132
8.168,0.9999972435799335,138.56003853214986
8.176,0.99999726394497,138.51897908277638
8.184000000000001,0.9999972858218384,138.4779183100248
8.192,0.9999973092218281,138.43685621323505
8.2,0.9999973341560043,138.39579279175476
8.208,0.9999973606352073,138.3547280449393
8.216000000000001,0.9999973886700473,138.31366197215175
8.224,0.9999974182709035,138.27259457276278
8.232,0.99999744944792,138.23152584615065
8.24,0.9999974822110032,138.19045579170108
8.248000000000001,0.9999975165698176,138.14938440880732
8.256,0.9999975525337857,138.10831169687
8.264,0.9999975901120819,138.06723765529708
8.272,0.9999976293136308,138.0261622835037
8.280000000000001,0.9999976701471044,137.98508558091228
8.288,0.9999977126209186,137.94400754695226
8.296,0.9999977567432298,137.90292818106016
8.304,0.9999978025219328,137.86184748267942
8.312,0.999997849964657,137.82076545126034
8.32,0.9999978990787632,137.77968208625984
8.328,0.999997949871341,137.7385973871417
8.336,0.9999980023492052,137.69751135337606
8.344,0.9999980565188928,137.65642398443964
8.352,0.9999981123866608,137.61533527981538
8.36,0.999998169958481,137.57424523899257
8.368,0.9999982292400392,137.5331538614664
8.376,0.9999982902367298,137.49206114673817
8.384,0.9999983529536559,137.45096709431505
8.392,0.9999984173956225,137.4098717037098
8.4,0.9999984835671356,137.3687749744408
8.408,0.9999985514723985,137.32767690603194
8.416,0.9999986211153092,137.28657749801226
8.424,0.9999986924994569,137.245476749916
8.432,0.9999987656281186,137.20437466128234
8.44,0.9999988405042568,137.16327123165533
8.448,0.9999989171305161,137.1221664605836
8.456,0.9999989955092202,137.08106034762028
8.464,0.9999990756423687,137.03995289232276
8.472,0.9999991575316352,136.99884409425263
8.48,0.9999992411783624,136.95773395297536
8.488,0.9999993265835607,136.91662246806013
8.496,0.9999994137479061,136.87550963907967
8.504,0.9999995026717347,136.8343954656101
8.512,0.9999995933550415,136.79327994723064
8.52,0.9999996857974791,136.75216308352339
8.528,0.999999779998351,136.71104487407325
8.536,0.9999998759566137,136.66992531846753
8.544,0.9999999736708698,136.62880441629582
8.552,1.0,136.5876821671497
8.56,1.0,136.54655857062258
8.568,1.0,136.5054336263094
8.576,1.0,136.46430733380646
8.584,1.0,136.423179692711
8.592,1.0,136.38205070262097
8.6,1.0,136.34092036313513
8.608,1.0,136.29978867385222
8.616,0.9999999999999999,136.25865563437105
8.624,1.0,136.21752124429017
8.632,1.0,136.17638550320748
8.64,1.0,136.1352484107201
8.648,0.9999999999999999,136.09410996642384
8.656,0.9999999999999999,136.05297016991318
8.664,0.9999999999999999,136.01182902078077
8.672,1.0,135.97068651861724
8.68,1.0,135.92954266301072
8.688,1.0,135.88839745354667
8.696,1.0,135.84725088980764
8.704,1.0,135.80610297137267
8.712,1.0000000000000002,135.7649536978172
8.72,1.0,135.7238030687125
8.728,1.0,135.68265108362576
8.736,1.0,135.64149774211913
8.744,1.0000000000000002,135.60034304374992
8.752,1.0,135.5591869880699
8.76,1.0,135.51802957462522
8.768,0.9999999999999999,135.47687080295566
8.776,1.0,135.43571067259478
8.784,1.0,135.39454918306905
8.792,0.9999999999999999,135.35338633389776
8.8,1.0,135.31222212459267
8.808,1.0,135.27105655465746
8.815999999999999,0.9999999999999999,135.22988962358744
8.824,1.0,135.1887213308692
8.832,0.9999999999999999,135.1475516759802
8.84,1.0,135.10638065838825
8.847999999999999,0.9999999999999998,135.06520827755125
8.856,1.0,135.02403453291697
8.864,0.9999999999999999,134.98285942392224
8.872,0.9999999999999999,134.94168294999284
8.879999999999999,1.0,134.900505110543
8.888,1.0,134.85932590497507
8.896,1.0,134.81814533267902
8.904,1.0,134.77696339303216
8.911999999999999,1.0,134.73578008539852
8.92,1.0,134.6945954091287
8.928,1.0,134.65340936355938
8.936,1.0,134.6122219480127
8.943999999999999,0.9999999999999999,134.57103316179615
8.952,1.0,134.52984300420204
8.96,0.9999999999999999,134.488651474507
8.968,1.0,134.44745857197182
8.975999999999999,1.0,134.40626429584077
8.984,1.0,134.36506864534127
8.992,1.0,134.32387161968362
9.0,0.9999999999999999,134.2826732180605
9.008,1.0,134.2414734396465
9.016,1.0,134.20027228359794
9.024000000000001,1.0,134.15906974905212
9.032,1.0,134.1178658351273
9.04,1.0,134.07666054092212
9.048,1.0,134.03545386551517
9.056000000000001,0.9999999999999999,133.99424580796472
9.064,0.9999999999999999,133.95303636730827
9.072,0.9999999999999999,133.91182554256224
9.08,1.0,133.87061333272155
9.088000000000001,1.0,133.82939973675914
9.096,1.0,133.7881847536259
9.104,1.0,133.74696838225006
9.112,1.0,133.70575062153682
9.120000000000001,0.9999999999999999,133.66453147036822
9.128,0.9999999999999998,133.62331092760266
9.136,1.0,133.58208899207452
9.144,1.0,133.54086566259397
9.152000000000001,1.0,133.49964093794648
9.16,1.0,133.4584148168927
9.168,1.0,133.417187298168
9.176,0.9999999999999999,133.37595838048216
9.184000000000001,1.0,133.33472806251928
9.192,1.0,133.2934963429373
9.2,1.0,133.2522632203677
9.208,1.0,133.21102869341541
9.216000000000001,1.0,133.1697927606585
9.224,0.9999999999999999,133.12855542064779
9.232,0.9999999999999999,133.0873166719068
9.24,0.9999999999999999,133.04607651293136
9.248000000000001,1.0,133.00483494218955
9.256,1.0,132.96359195812138
9.264,1.0,132.92234755913867
9.272,1.0,132.8811017436247
9.280000000000001,1.0,132.83985450993436
9.288,1.0,132.79860585639352
9.296,0.9999999999999999,132.75735578129937
9.304,0.9999999999999998,132.71610428291996
9.312000000000001,0.9999999999999999,132.67485135949414
9.32,0.9999999999999999,132.63359700923147
9.328,1.0,132.59234123031212
9.336,1.0,132.55108402088678
9.344,1.0,132.50982537907655
9.352,1.0,132.46856530297285
9.36,1.0,132.42730379063744
9.368,1.0,132.38604084010237
9.376,0.9999999999999999,132.34477644936985
9.384,0.9999999999999999,132.30351061641235
9.392,1.0,132.26224333917258
9.4,1.0,132.22097461556342
9.408,1.0,132.179704443468
9.416,0.9999999999999999,132.13843282073987
9.424,1.0,132.09715974520273
9.432,1.0,132.0558852146508
9.44,1.0,132.01460922684882
9.448,1.0,131.97333177953203
9.456,0.9999999999999998,131.9320528704064
9.464,0.9999999999999999,131.89077249714876
9.472,1.0,131.84949065740676
9.48,1.0,131.8082073487993
9.488,1.0,131.7669225689165
9.496,1.0,131.7256363153198
9.504,1.0,131.68434858554244
9.512,1.0,131.6430593770894
9.52,1.0,131.60176868743773
9.528,1.0,131.56047651403676
9.536,1.0,131.51918285430838
9.544,1.0,131.47788770564725
9.552,1.0,131.43659106542108
9.56,0.9999999999999999,131.3952929309709
9.568,0.9999999999999999,131.35399329961146
9.576,0.9999999999999999,131.31269216863143
9.584,1.0,131.27138953529376
9.592,0.9999999999999999,131.23008539683596
9.6,1.0,131.1887797504706
9.608,1.0,131.14747259338552
9.616,1.0000000000000002,131.10616392274423
9.624,1.0,131.06485373568637
9.632,0.9999999999999999,131.02354202932804
9.64,1.0,130.98222880076221
9.648,1.0,130.9409140470592
9.656,0.9999999999999999,130.899597765267
9.664,1.0,130.85827995241178
9.672,1.0,130.81696060549834
9.68,0.9999999999999999,130.77563972151052
9.688,1.0,130.73431729741176
9.696,1.0,130.69299333014553
9.704,1.0,130.65166781663572
9.712,1.0,130.6103407537873
9.72,0.9999999999999999,130.56901213848676
9.728,1.0,130.52768196760255
9.736,1.0,130.48635023798568
9.744,1.0,130.44501694647025
9.752,0.9999999999999999,130.4036820898739
9.76,0.9999999999999999,130.36234566499851
9.768,1.0,130.3210076686306
9.776,0.9999999999999999,130.27966809754187
9.784,0.9999999999999998,130.2383269484899
9.792,1.0,130.19698421821866
9.8,1.0,130.15563990345888
9.808,0.9999999999999999,130.11429400092896
9.816,0.9999999999999999,130.0729465073353
9.824,1.0,130.031597419373
9.832,1.0,129.9902467337264
9.84,0.9999999999999999,129.94889444706962
9.847999999999999,0.9999999999999999,129.9075405560672
9.856,1.0,129.86618505737474
9.864,1.0,129.82482794763942
9.872,0.9999999999999999,129.78346922350056
9.879999999999999,1.0,129.74210888159035
9.888,1.0,129.70074691853435
9.896,0.9999999999999999,129.65938333095198
9.904,1.0,129.61801811545743
9.911999999999999,1.0,129.5766512686599
9.92,1.0,129.53528278716442
9.928,1.0,129.49391266757232
9.936,0.9999999999999999,129.452540906482
9.943999999999999,1.0,129.41116750048926
9.952,1.0,129.36979244618803
9.96,0.9999999999999999,129.32841574017107
9.968,1.0000000000000002,129.28703737903027
9.975999999999999,1.0,129.24565735935747
9.984,1.0,129.20427567774487
9.992,1.0,129.16289233078578
10.0,1.0,129.12150731507498
10.008,0.9999999999999999,129.0801206272094
10.016,1.0,129.0387322637887
10.024000000000001,0.9999999999999999,128.99734222141566
10.032,1.0000000000000002,128.95595049669694
10.04,1.0,128.91455708624343
10.048,1.0,128.8731619866709
