freq,mag,phase
6.0,0.9999965145751052,100.37962831985692
6.008,0.99999665672882,100.26883368622379
6.016,0.9999967935967166,100.15802180587636
6.024,0.9999969252658955,100.04719266303641
6.032,0.9999970518228181,99.93634624194839
6.04,0.9999971733533075,99.82548252687967
6.048,0.9999972899425515,99.71460150212063
6.056,0.9999974016751033,99.6037031519849
6.064,0.999997508634883,99.49278746080944
6.072,0.99999761090518,99.38185441295468
6.08,0.9999977085686543,99.27090399280478
6.088,0.999997801707338,99.15993618476767
6.096,0.999997890402637,99.04895097327528
6.104,0.9999979747353334,98.93794834278367
6.112,0.9999980547855859,98.82692827777318
6.12,0.9999981306329325,98.71589076274857
6.128,0.9999982023562924,98.60483578223922
6.136,0.9999982700339662,98.49376332079926
6.144,0.9999983337436394,98.38267336300767
6.152,0.9999983935623827,98.27156589346855
6.16,0.9999984495666546,98.16044089681117
6.168,0.999998501832303,98.04929835769016
6.176,0.9999985504345655,97.93813826078565
6.184,0.9999985954480742,97.8269605908035
6.192,0.9999986369468543,97.71576533247527
6.2,0.9999986750043267,97.6045524705586
6.208,0.9999987096933115,97.49332198983721
6.216,0.9999987410860272,97.38207387512104
6.224,0.9999987692540937,97.27080811124654
6.232,0.9999987942685341,97.15952468307665
6.24,0.9999988161997765,97.04822357550111
6.248,0.9999988351176546,96.93690477343648
6.256,0.9999988510914114,96.82556826182636
6.264,0.9999988641896987,96.71421402564154
6.272,0.9999988744805816,96.6028420498801
6.28,0.9999988820315369,96.49145231956761
6.288,0.9999988869094579,96.38004481975726
6.296,0.9999988891806542,96.26861953553005
6.304,0.9999988889108546,96.15717645199483
6.312,0.9999988861652087,96.04571555428853
6.32,0.9999988810082878,95.93423682757638
6.328,0.9999988735040873,95.82274025705188
6.336,0.999998863716029,95.71122582793704
6.344,0.999998851706962,95.59969352548262
6.352,0.999998837539165,95.48814333496809
6.36,0.9999988212743479,95.3765752417019
6.368,0.9999988029736537,95.26498923102163
6.376,0.99999878269766,95.15338528829409
6.384,0.999998760506381,95.04176339891546
6.392,0.9999987364592703,94.93012354831149
6.4,0.9999987106152202,94.81846572193756
6.408,0.999998683032566,94.70678990527897
6.416,0.9999986537690869,94.59509608385088
6.424,0.9999986228820075,94.48338424319866
6.432,0.9999985904279998,94.37165436889791
6.44,0.9999985564631853,94.2599064465546
6.448,0.9999985210431362,94.14814046180531
6.456,0.999998484222879,94.03635640031729
6.464,0.999998446056893,93.92455424778863
6.472,0.9999984065991161,93.81273398994838
6.48,0.9999983659029428,93.70089561255674
6.4879999999999995,0.9999983240212291,93.58903910140518
6.496,0.9999982810062932,93.47716444231652
6.504,0.9999982369099166,93.36527162114521
6.5120000000000005,0.9999981917833466,93.25336062377735
6.52,0.9999981456772987,93.1414314361309
6.5280000000000005,0.9999980986419574,93.02948404415575
6.536,0.9999980507269796,92.91751843383398
6.5440000000000005,0.9999980019814937,92.80553459117979
6.552,0.9999979524541045,92.69353250223995
6.5600000000000005,0.9999979021928935,92.58151215309364
6.568,0.9999978512454203,92.46947352985279
6.5760000000000005,0.9999977996587264,92.35741661866209
6.584,0.9999977474793343,92.24534140569924
6.592,0.9999976947532524,92.13324787717498
6.6,0.9999976415259745,92.02113601933334
6.608,0.999997587842482,91.90900581845169
6.616,0.9999975337472479,91.7968572608409
6.624,0.9999974792842359,91.68469033284549
6.632,0.9999974244969034,91.57250502084383
6.64,0.9999973694282043,91.46030131124814
6.648,0.9999973141205895,91.34807919050472
6.656,0.9999972586160089,91.23583864509406
6.664,0.9999972029559147,91.12357966153102
6.672,0.9999971471812613,91.01130222636488
6.68,0.9999970913325092,90.89900632617956
6.688,0.999997035449625,90.78669194759371
6.696,0.9999969795720848,90.67435907726087
6.704,0.9999969237388749,90.56200770186955
6.712,0.9999968679884949,90.44963780814348
6.72,0.9999968123589587,90.33724938284158
6.728,0.9999967568877964,90.22484241275825
6.736,0.9999967016120573,90.11241688472343
6.744,0.9999966465683096,89.99997278560274
6.752,0.9999965917926458,89.88751010229757
6.76,0.9999965373206805,89.77502882174534
6.768,0.9999964831875555,89.6625289309195
6.776,0.99999642942794,89.5500104168297
6.784,0.9999963760760334,89.43747326652199
6.792,0.9999963231655666,89.32491746707883
6.8,0.9999962707298047,89.21234300561936
6.808,0.999996218801548,89.0997498692994
6.816,0.9999961674131344,88.98713804531168
6.824,0.9999961165964413,88.87450752088593
6.832,0.9999960663828876,88.76185828328897
6.84,0.9999960168034355,88.64919031982494
6.848,0.9999959678885924,88.53650361783532
6.856,0.9999959196684126,88.42379816469915
6.864,0.9999958721725002,88.31107394783311
6.872,0.9999958254300098,88.19833095469164
6.88,0.999995779469649,88.08556917276711
6.888,0.9999957343196809,87.97278858958991
6.896,0.9999956900079247,87.8599891927286
6.904,0.9999956465617585,87.74717096979006
6.912,0.9999956040081216,87.6343339084195
6.92,0.9999955623735156,87.52147799630077
6.928,0.9999955216840068,87.40860322115637
6.936,0.9999954819652283,87.29570957074755
6.944,0.9999954432423811,87.1827970328745
6.952,0.999995405540237,87.06986559537653
6.96,0.99999536888314,86.95691524613201
6.968,0.9999953332950093,86.84394597305871
6.976,0.9999952987993388,86.73095776411377
6.984,0.9999952654192021,86.61795060729386
6.992,0.9999952331772523,86.5049244906354
7.0,0.999995202095724,86.39187940221451
7.008,0.9999951721964373,86.27881533014732
7.016,0.999995143500797,86.16573226258994
7.024,0.9999951160297968,86.05263018773867
7.032,0.9999950898040202,85.93950909383008
7.04,0.9999950648436414,85.82636896914116
7.048,0.99999504116843,85.71320980198945
7.056,0.9999950187977504,85.60003158073312
7.064,0.9999949977505654,85.48683429377111
7.072,0.9999949780454369,85.37361792954326
7.08,0.999994959700529,85.26038247653045
7.088,0.9999949427336082,85.14712792325466
7.096,0.9999949271620486,85.03385425827912
7.104,0.9999949130028298,84.92056147020847
7.112,0.999994900272542,84.80724954768884
7.12,0.9999948889873865,84.69391847940793
7.128,0.9999948791631781,84.5805682540952
7.136,0.9999948708153467,84.46719886052198
7.144,0.9999948639589397,84.35381028750149
7.152,0.9999948586086238,84.24040252388913
7.16,0.9999948547786869,84.12697555858244
7.168,0.9999948524830395,84.01352938052129
7.176,0.9999948517352183,83.900063978688
7.184,0.9999948525483857,83.78657934210737
7.192,0.9999948549353348,83.67307545984698
7.2,0.999994858908488,83.5595523210171
7.208,0.9999948644799023,83.44600991477091
7.216,0.9999948716612682,83.33244823030466
7.224,0.9999948804639137,83.21886725685762
7.232,0.9999948908988059,83.1052669837124
7.24,0.9999949029765519,82.99164740019488
7.248,0.9999949167074023,82.87800849567446
7.256,0.999994932101252,82.76435025956411
7.264,0.9999949491676428,82.65067268132046
7.272,0.9999949679157645,82.53697575044394
7.28,0.9999949883544579,82.42325945647895
7.288,0.9999950104922168,82.30952378901385
7.296,0.9999950343371888,82.19576873768118
7.304,0.9999950598971776,82.08199429215769
7.312,0.9999950871796461,81.96820044216452
7.32,0.9999951161917172,81.85438717746726
7.328,0.999995146940176,81.74055448787607
7.336,0.9999951794314715,81.62670236324581
7.344,0.9999952136717193,81.51283079347614
7.352,0.9999952496667033,81.3989397685116
7.36,0.999995287421877,81.28502927834174
7.368,0.9999953269423659,81.17109931300124
7.376,0.9999953682329698,81.05714986257001
7.384,0.999995411298164,80.94318091717331
7.392,0.999995456142102,80.82919246698177
7.4,0.999995502768617,80.71518450221164
7.4079999999999995,0.9999955511812234,80.6011570131248
7.416,0.99999560138312,80.48710999002884
7.4239999999999995,0.9999956533771907,80.37304342327728
7.432,0.9999957071660072,80.25895730326955
7.4399999999999995,0.9999957627518302,80.14485162045122
7.448,0.9999958201366125,80.03072636531391
7.4559999999999995,0.9999958793219998,79.91658152839567
7.464,0.999995940309333,79.80241710028082
7.4719999999999995,0.9999960030996503,79.68823307160021
7.48,0.9999960676936891,79.57402943303124
7.4879999999999995,0.9999961340918876,79.45980617529806
7.496,0.9999962022943872,79.34556328917152
7.504,0.9999962723010337,79.23130076546944
7.5120000000000005,0.9999963441113807,79.11701859505658
7.52,0.9999964177246891,79.00271676884486
7.5280000000000005,0.9999964931399319,78.88839527779325
7.536,0.9999965703557935,78.77405411290819
7.5440000000000005,0.9999966493706732,78.65969326524333
7.552,0.9999967301826869,78.54531272589998
7.5600000000000005,0.9999968127896682,78.43091248602688
7.568,0.9999968971891716,78.31649253682058
7.5760000000000005,0.9999969833784729,78.20205286952529
7.584,0.9999970713545725,78.08759347543322
7.5920000000000005,0.9999971611141959,77.97311434588444
7.6,0.9999972526537978,77.8586154722672
7.6080000000000005,0.9999973459695607,77.74409684601783
7.616,0.9999974410574003,77.62955845862095
7.6240000000000006,0.9999975379129644,77.51500030160953
7.632,0.9999976365316373,77.40042236656504
7.640000000000001,0.9999977369085393,77.28582464511737
7.648,0.9999978390385313,77.17120712894524
7.656000000000001,0.9999979429162138,77.0565698097759
7.664,0.9999980485359304,76.94191267938554
7.672,0.9999981558917701,76.82723572959924
7.68,0.9999982649775675,76.71253895229108
7.688,0.9999983757869062,76.59782233938427
7.696,0.99999848831312,76.48308588285113
7.704,0.9999986025492951,76.36832957471336
7.712,0.999998718488271,76.25355340704195
7.72,0.9999988361226436,76.1387573719574
7.728,0.9999989554447661,76.02394146162973
7.736,0.999999076446752,75.90910566827861
7.744,0.9999991991204751,75.79424998417343
7.752,0.9999993234575731,75.6793744016334
7.76,0.9999994494494486,75.56447891302759
7.768,0.9999995770872712,75.44956351077512
7.776,0.9999997063619788,75.33462818734513
7.784,0.9999998372642798,75.21967293525695
7.792,0.9999999697846552,75.10469774708012
7.8,1.0,74.98970261543457
7.808,0.9999999999999999,74.87468753299056
7.816,1.0,74.7596524924689
7.824,1.0,74.64459748664098
7.832,0.9999999999999999,74.5295225083288
7.84,0.9999999999999999,74.41442755040518
7.848,0.9999999999999999,74.29931260579372
7.856,1.0,74.1841776674689
7.864,1.0,74.06902272845626
7.872,0.9999999999999999,73.95384778183238
7.88,1.0,73.83865282072495
7.888,0.9999999999999999,73.72343783831292
7.896,0.9999999999999998,73.60820282782655
7.904,1.0,73.49294778254747
7.912,1.0,73.37767269580878
7.92,1.0,73.26237756099513
7.928,1.0,73.14706237154275
7.936,0.9999999999999999,73.03172712093956
7.944,0.9999999999999999,72.91637180272534
7.952,0.9999999999999999,72.80099641049156
7.96,1.0,72.68560093788173
7.968,1.0,72.5701853785913
7.976,0.9999999999999998,72.45474972636777
7.984,1.0,72.33929397501083
7.992,1.0,72.22381811837231
8.0,1.0,72.10832215035633
8.008,1.0,71.99280606491942
8.016,1.0,71.87726985607046
8.024000000000001,1.0,71.76171351787085
8.032,0.9999999999999999,71.64613704443457
8.04,1.0,71.53054042992817
8.048,1.0,71.41492366857095
8.056000000000001,0.9999999999999999,71.29928675463492
8.064,1.0,71.18362968244502
8.072,1.0,71.06795244637895
8.08,0.9999999999999999,70.95225504086743
8.088000000000001,1.0,70.83653746039424
8.096,0.9999999999999998,70.72079969949623
8.104,1.0,70.60504175276337
8.112,1.0,70.48926361483883
8.120000000000001,0.9999999999999999,70.37346528041914
8.128,1.0,70.25764674425412
8.136,1.0,70.14180800114698
8.144,1.0,70.02594904595438
8.152000000000001,0.9999999999999999,69.91006987358652
8.16,1.0,69.79417047900725
8.168,0.9999999999999999,69.67825085723389
8.176,0.9999999999999998,69.56231100333756
8.184000000000001,0.9999999999999999,69.44635091244312
8.192,1.0,69.33037057972926
8.2,1.0,69.21437000042849
8.208,0.9999999999999999,69.09834916982716
8.216000000000001,0.9999999999999999,68.98230808326572
8.224,1.0,68.86624673613863
8.232,1.0,68.75016512389432
8.24,0.9999999999999999,68.63406324203541
8.248000000000001,1.0,68.51794108611868
8.256,1.0,68.40179865175516
8.264,0.9999999999999999,68.28563593461013
8.272,1.0,68.16945293040312
8.280000000000001,1.0,68.05324963490814
8.288,0.9999999999999999,67.9370260439536
8.296,1.0000000000000002,67.82078215342227
8.304,1.0,67.7045179592515
8.312,1.0,67.58823345743319
8.32,1.0,67.47192864401377
8.328,1.0,67.35560351509436
8.336,1.0,67.2392580668307
8.344,0.9999999999999999,67.12289229543332
8.352,1.0,67.00650619716735
8.36,0.9999999999999999,66.8900997683529
8.368,0.9999999999999999,66.77367300536471
8.376,1.0,66.65722590463255
8.384,1.0,66.54075846264095
8.392,1.0,66.42427067592948
8.4,1.0,66.30776254109253
8.408,0.9999999999999999,66.19123405477963
8.416,0.9999999999999999,66.07468521369523
8.424,0.9999999999999999,65.95811601459891
8.432,1.0,65.84152645430524
8.44,1.0,65.724916529684
8.448,0.9999999999999999,65.60828623766
8.456,0.9999999999999999,65.4916355752133
8.464,0.9999999999999999,65.37496453937902
8.472,0.9999999999999999,65.25827312724768
8.48,1.0,65.1415613359648
8.488,1.0,65.02482916273132
8.496,1.0,64.90807660480336
8.504,1.0,64.79130365949233
8.512,1.0,64.67451032416493
8.52,0.9999999999999999,64.55769659624323
8.528,1.0,64.44086247320453
8.536,1.0,64.32400795258154
8.544,1.0,64.20713303196229
8.552,1.0000000000000002,64.09023770899016
8.56,0.9999999999999999,63.97332198136387
8.568,1.0,63.8563858468376
8.576,1.0,63.739429303220774
8.584,1.0,63.62245234837828
8.592,1.0,63.50545498023035
8.6,0.9999999999999999,63.38843719675261
8.608,0.9999999999999999,63.27139899597601
8.616,0.9999999999999999,63.15434037598692
8.624,1.0000000000000002,63.03726133492703
8.632,0.9999999999999999,62.92016187099344
8.64,1.0,62.803041982438494
8.648,0.9999999999999999,62.685901667570015
8.656,1.0,62.568740924750976
8.664,1.0,62.45155975239979
8.672,1.0,62.334358148990056
8.68,0.9999999999999999,62.217136113050735
8.688,1.0,62.09989364316592
8.696,1.0000000000000002,61.98263073797502
8.704,1.0,61.86534739617255
8.712,1.0,61.74804361650831
8.72,1.0,61.63071939778707
8.728,0.9999999999999999,61.51337473886887
8.736,1.0,61.39600963866863
8.744,1.0,61.278624096156484
8.752,1.0,61.16121811035738
8.76,0.9999999999999999,61.04379168035137
8.768,0.9999999999999999,60.9263448052732
8.776,1.0,60.808877484312674
8.784,1.0,60.691389716714205
8.792,0.9999999999999999,60.573881501777066
8.8,0.9999999999999999,60.45635283885513
8.808,1.0,60.338803727356954
8.815999999999999,0.9999999999999999,60.221234166745596
8.824,1.0,60.10364415653855
8.832,0.9999999999999999,59.98603369630786
8.84,1.0,59.8684027856798
8.847999999999999,0.9999999999999999,59.75075142433494
8.856,1.0,59.633079612007975
8.864,1.0,59.51538734848777
8.872,1.0,59.397674633617186
8.879999999999999,0.9999999999999999,59.27994146729291
8.888,1.0,59.162187849465475
8.896,0.9999999999999999,59.04441378013916
8.904,1.0,58.92661925937183
8.911999999999999,1.0,58.808804287274846
8.92,1.0,58.69096886401282
8.928,0.9999999999999999,58.57311298980379
8.936,1.0,58.45523666491887
8.943999999999999,1.0,58.33733988968212
8.952,1.0,58.219422664470464
8.96,0.9999999999999999,58.10148498971361
8.968,0.9999999999999998,57.98352686589378
8.975999999999999,1.0000000000000002,57.86554829354565
8.984,1.0,57.74754927325612
8.992,0.9999999999999999,57.62952980566419
9.0,1.0,57.511489891460876
9.008,1.0,57.39342953138878
9.016,1.0,57.27534872624221
9.024000000000001,0.9999999999999999,57.15724747686676
9.032,0.9999999999999999,57.03912578415926
9.04,0.9999999999999999,56.920983649067445
9.048,0.9999999999999999,56.80282107258983
9.056000000000001,0.9999999999999999,56.68463805577545
9.064,1.0,56.56643459972371
9.072,1.0,56.44821070558398
9.08,1.0,56.32996637455547
9.088000000000001,1.0,56.21170160788699
9.096,0.9999999999999999,56.09341640687663
9.104,1.0,55.97511077287145
9.112,0.9999999999999999,55.85678470726728
9.120000000000001,1.0000000000000002,55.73843821150837
9.128,1.0,55.62007128708715
9.136,1.0,55.501683935543774
9.144,1.0,55.3832761584659
9.152000000000001,1.0,55.264847957488314
9.16,1.0,55.14639933429267
9.168,1.0,55.02793029060692
9.176,0.9999999999999998,54.90944082820503
9.184000000000001,0.9999999999999998,54.79093094890672
9.192,0.9999999999999999,54.672400654576855
9.2,1.0,54.55384994712511
9.208,1.0,54.43527882850545
9.216000000000001,1.0,54.31668730071585
9.224,1.0,54.19807536579769
9.232,1.0,54.07944302583518
9.24,0.9999999999999999,53.960790282954996
9.248000000000001,1.0,53.84211713932574
9.256,1.0,53.72342359715734
9.264,1.0,53.60470965870048
9.272,0.9999999999999999,53.48597532624595
9.280000000000001,1.0,53.36722060212419
9.288,1.0,53.248445488704554
9.296,1.0,53.129649988394604
9.304,1.0,53.01083410363945
9.312000000000001,0.9999999999999998,52.89199783692115
9.32,1.0,52.7731411907578
9.328,1.0,52.654264167702884
9.336,1.0000000000000002,52.53536677034431
9.344,0.9999999999999999,52.41644900130385
9.352,1.0,52.297510863236
9.36,0.9999999999999999,52.1785523588273
9.368,1.0,52.05957349079514
9.376,1.0,51.94057426188711
9.384,0.9999999999999999,51.821554674879714
9.392,0.9999999999999999,51.7025147325775
9.4,0.9999999999999999,51.5834544378118
9.408,1.0,51.46437379343981
9.416,0.9999999999999998,51.34527280234314
9.424,0.9999999999999999,51.22615146742685
9.432,1.0,51.107009791617905
9.44,0.9999999999999999,50.9878477778641
9.448,0.9999999999999998,50.86866542913239
9.456,1.0,50.74946274840772
9.464,1.0,50.630239738691245
9.472,0.9999999999999999,50.51099640299899
9.48,1.0,50.39173274435998
9.488,1.0,50.27244876581474
9.496,1.0000000000000002,50.15314447041329
9.504,0.9999999999999999,50.03381986121353
9.512,1.0,49.91447494127896
9.52,0.9999999999999999,49.795109713677036
9.528,1.0,49.67572418147665
9.536,0.9999999999999999,49.556318347746235
9.544,0.9999999999999999,49.4368922155512
9.552,1.0,49.317445787951684
9.56,0.9999999999999999,49.19797906799989
9.568,0.9999999999999999,49.07849205873754
9.576,1.0,48.95898476319298
9.584,0.9999999999999999,48.839457184378404
9.592,1.0,48.719909325286615
9.6,0.9999999999999999,48.60034118888817
9.608,1.0,48.48075277812769
9.616,0.9999999999999999,48.36114409592058
9.624,1.0,48.24151514514926
9.632,1.0,48.12186592865944
9.64,1.0,48.00219644925591
9.648,1.0,47.88250670969854
9.656,1.0,47.762796712697615
9.664,0.9999999999999999,47.64306646090931
9.672,1.0,47.523315956930716
9.68,1.0,47.40354520329481
9.688,1.0,47.283754202464856
9.696,1.0,47.16394295682891
9.704,1.0,47.04411146869366
9.712,1.0,46.92425974027831
9.72,0.9999999999999999,46.80438777370769
9.728,0.9999999999999999,46.68449557100555
9.736,0.9999999999999999,46.56458313408692
9.744,0.9999999999999999,46.4446504647506
9.752,0.9999999999999999,46.3246975646707
9.76,1.0,46.20472443538822
9.768,1.0,46.084731078301715
9.776,0.9999999999999999,45.96471749465787
9.784,1.0,45.84468368554104
9.792,1.0,45.72462965186278
9.8,0.9999999999999999,45.60455539435008
9.808,1.0,45.48446091353365
9.816,0.9999999999999999,45.36434620973488
9.824,1.0,45.24421128305245
9.832,0.9999999999999999,45.124056133347835
9.84,1.0,45.00388076023031
9.847999999999999,1.0,44.88368516304049
9.856,1.0,44.76346934083342
9.864,1.0,44.64323329236024
9.872,1.0,44.52297701604891
9.879999999999999,0.9999999999999999,44.402700509983426
9.888,1.0,44.282403771881974
9.896,1.0,44.16208679907374
9.904,0.9999999999999999,44.04174958847377
9.911999999999999,1.0,43.92139213655654
9.92,1.0,43.80101443932765
9.928,1.0,43.68061649229361
9.936,1.0,43.56019829042951
9.943999999999999,1.0,43.43975982814448
9.952,1.0,43.319301099244676
9.96,1.0,43.19882209689392
9.968,1.0,43.078322813571155
9.975999999999999,0.9999999999999998,42.957803241025
9.984,0.9999999999999999,42.83726337022496
9.992,0.9999999999999999,42.71670319130922
10.0,1.0,42.59612269352816
10.008,1.0,42.47552186518386
10.016,0.9999999999999999,42.354900693564915
10.024000000000001,1.0,42.23425916487622
10.032,0.9999999999999999,42.113597264163275
10.04,1.0,41.992914975230235
10.048,1.0,41.872212280551736
10.056000000000001,0.9999999999999999,41.75148916117738
10.064,1.0,41.63074559662837
10.072,1.0,41.50998156478536
10.08,1.0,41.38919704176712
10.088000000000001,1.0,41.26839200179866
