freq,mag,phase
6.0,0.9999945369753735,-152.10982355881308
6.008,0.9999945754482555,-152.52165929595498
6.016,0.9999946166270091,-152.93322988340614
6.024,0.9999946603293497,-153.3445376500391
6.032,0.9999947063765988,-153.7555849376734
6.04,0.9999947545936542,-154.16637410087912
6.048,0.9999948048089601,-154.5769075067817
6.056,0.9999948568544753,-154.98718753486872
6.064,0.999994910565643,-155.39721657679843
6.072,0.9999949657813613,-155.8069970362097
6.08,0.9999950223439512,-156.2165313285339
6.088,0.9999950800991249,-156.62582188080813
6.096,0.9999951388959578,-157.0348711314905
6.104,0.999995198586853,-157.44368153027665
6.112,0.999995259027516,-157.8522555379184
6.12,0.9999953200769187,-158.26059562604345
6.128,0.9999953815972713,-158.66870427697722
6.136,0.9999954434539888,-159.0765839835662
6.144,0.9999955055156632,-159.48423724900263
6.152,0.9999955676540287,-159.8916665866513
6.16,0.9999956297439339,-160.29887451987736
6.168,0.9999956916633073,-160.70586358187646
6.176,0.9999957532931304,-161.1126363155056
6.184,0.9999958145174038,-161.51919527311648
6.192,0.9999958752231127,-161.92554301638972
6.2,0.9999959353002071,-162.33168211617092
6.208,0.999995994641556,-162.7376151523084
6.216,0.9999960531429286,-163.14334471349224
6.224,0.9999961107029571,-163.54887339709495
6.232,0.9999961672231091,-163.9542038090136
6.24,0.9999962226076528,-164.35933856351383
6.248,0.9999962767636297,-164.76428028307478
6.256,0.999996329600822,-165.1690315982359
6.264,0.9999963810317251,-165.57359514744516
6.272,0.9999964309715134,-165.97797357690857
6.28,0.99999647933801,-166.3821695404416
6.288,0.9999965260516592,-166.78618569932138
6.296,0.9999965710354942,-167.1900247221408
6.304,0.9999966142151065,-167.5936892846643
6.312,0.9999966555186184,-167.99718206968393
6.32,0.9999966948766468,-168.40050576687815
6.328,0.9999967322222831,-168.80366307267127
6.336,0.999996767491056,-169.20665669009418
6.344,0.9999968006208998,-169.609489328647
6.352,0.9999968315521341,-170.01216370416233
6.36,0.9999968602274244,-170.4146825386706
6.368,0.9999968865917624,-170.81704856026593
6.376,0.9999969105924267,-171.219264502974
6.384,0.9999969321789607,-171.6213331066208
6.392,0.9999969513031411,-172.02325711670264
6.4,0.9999969679189501,-172.42503928425762
6.408,0.9999969819825432,-172.82668236573815
6.416,0.9999969934522268,-173.22818912288483
6.424,0.9999970022884247,-173.62956232260134
6.432,0.9999970084536514,-174.03080473683087
6.44,0.9999970119124836,-174.4319191424331
6.448,0.9999970126315328,-174.83290832106323
6.456,0.9999970105794156,-175.23377505905134
6.464,0.9999970057267293,-175.63452214728318
6.472,0.9999969980460205,-176.0351523810823
6.48,0.9999969875117608,-176.43566856009272
6.4879999999999995,0.9999969741003165,-176.8360734881635
6.496,0.999996957789923,-177.2363699732335
6.504,0.9999969385606602,-177.6365608272175
6.5120000000000005,0.9999969163944182,-178.03664886589405
6.52,0.9999968912748808,-178.43663690879268
6.5280000000000005,0.99999686318749,-178.8365277790843
6.536,0.9999968321194254,-179.23632430347035
6.5440000000000005,0.9999967980595738,-179.63602931207487
6.552,0.9999967609985063,179.9643543616642
6.5600000000000005,0.999996720928451,179.5648238811012
6.568,0.9999966778432672,179.16537640648954
6.5760000000000005,0.9999966317384188,178.76600909508616
6.584,0.9999965826109516,178.3667191012564
6.592,0.9999965304594662,177.96750357657677
6.6,0.9999964752840914,177.5683596699381
6.608,0.9999964170864638,177.16928452764714
6.616,0.9999963558696966,176.77027529352716
6.624,0.9999962916383608,176.37132910901855
6.632,0.9999962243984575,175.9724431132777
6.64,0.9999961541573946,175.57361444327617
6.648,0.9999960809239624,175.1748402338981
6.656,0.9999960047083098,174.77611761803755
6.664,0.9999959255219208,174.37744372669496
6.672,0.9999958433775892,173.97881568907275
6.68,0.9999957582893984,173.58023063267063
6.688,0.9999956702726934,173.18168568337987
6.696,0.9999955793440628,172.78317796557718
6.704,0.999995485521311,172.38470460221785
6.712,0.9999953888234403,171.98626271492833
6.72,0.9999952892706235,171.58784942409832
6.728,0.9999951868841831,171.18946184897206
6.736,0.9999950816865723,170.79109710773938
6.744,0.9999949737013473,170.3927523176259
6.752,0.999994862953148,169.99442459498297
6.76,0.9999947494676776,169.59611105537715
6.768,0.9999946332716781,169.1978088136788
6.776,0.9999945143929106,168.79951498415076
6.784,0.9999943928601331,168.40122668053615
6.792,0.99999426870308,168.00294101614614
6.8,0.99999414195244,167.60465510394684
6.808,0.9999940126398372,167.20636605664626
6.816,0.9999938807978077,166.80807098678062
6.824,0.9999937464597817,166.40976700680042
6.832,0.99999360966006,166.0114512291561
6.84,0.999993470433798,165.6131207663835
6.848,0.9999933288169814,165.2147727311888
6.856,0.999993184846409,164.81640423653351
6.864,0.9999930385596718,164.41801239571882
6.872,0.9999928899951336,164.01959432247
6.88,0.9999927391919113,163.62114713102048
6.888,0.9999925861898566,163.22266793619556
6.896,0.9999924310295359,162.82415385349617
6.904,0.9999922737522108,162.42560199918222
6.912,0.9999921143998208,162.02700949035608
6.92,0.999991953014963,161.62837344504544
6.928,0.9999917896408757,161.22969098228674
6.936,0.999991624321417,160.83095922220775
6.944,0.999991457101049,160.4321752861105
6.952,0.9999912880248187,160.0333362965541
6.96,0.9999911171383409,159.6344393774374
6.968,0.9999909444877781,159.23548165408147
6.976,0.9999907701198261,158.83646025331248
6.984,0.9999905940816937,158.43737230354427
6.992,0.9999904164210864,158.03821493486063
7.0,0.999990237186191,157.63898527909856
7.008,0.9999900564256536,157.23968046993028
7.016,0.9999898741885682,156.84029764294652
7.024,0.9999896905244564,156.44083393573914
7.032,0.9999895054832515,156.04128648798385
7.04,0.999989319115283,155.64165244152372
7.048,0.9999891314712581,155.24192894045171
7.056,0.999988942602248,154.8421131311946
7.064,0.9999887525596696,154.44220216259586
7.072,0.9999885613952699,154.0421931859997
7.08,0.9999883691611116,153.64208335533473
7.088,0.9999881759095555,153.24186982719786
7.096,0.9999879816932462,152.8415497609388
7.104,0.9999877865650952,152.44112031874434
7.112,0.9999875905782677,152.04057866572316
7.12,0.9999873937861647,151.63992196999084
7.128,0.9999871962424097,151.2391474027552
7.136,0.9999869980008339,150.83825213840183
7.144,0.9999867991154604,150.4372333545801
7.152,0.9999865996404891,150.0360882322892
7.16,0.9999863996302834,149.6348139559651
7.168,0.9999861991393556,149.23340771356717
7.176,0.9999859982223505,148.83186669666583
7.184,0.9999857969340343,148.43018810053005
7.192,0.9999855953292777,148.0283691242156
7.2,0.9999853934630434,147.62640697065373
7.208,0.9999851913903718,147.22429884674008
7.216,0.9999849891663676,146.82204196342423
7.224,0.9999847868461854,146.41963353579956
7.232,0.9999845844850163,146.01707078319387
7.24,0.9999843821380752,145.61435092926015
7.248,0.9999841798605865,145.21147120206817
7.256,0.9999839777077718,144.80842883419638
7.264,0.9999837757348365,144.4052210628245
7.272,0.9999835739969556,144.00184512982662
7.28,0.9999833725492634,143.59829828186486
7.288,0.9999831714468381,143.19457777048356
7.296,0.9999829707446906,142.79068085220433
7.304,0.9999827704977524,142.3866047886213
7.312,0.9999825707608604,141.98234684649734
7.32,0.9999823715887483,141.5779042978609
7.328,0.9999821730360329,141.17327442010316
7.336,0.9999819751571992,140.76845449607637
7.344,0.9999817780065934,140.3634418141925
7.352,0.9999815816384073,139.95823366852267
7.36,0.9999813861066678,139.55282735889733
7.368,0.9999811914652242,139.1472201910072
7.376,0.9999809977677391,138.74140947650483
7.384,0.9999808050676722,138.33539253310695
7.392,0.999980613418276,137.9291666846978
7.4,0.999980422872576,137.52272926143277
7.4079999999999995,0.9999802334833665,137.11607759984327
7.416,0.9999800453031953,136.7092090429419
7.4239999999999995,0.999979858384355,136.30212094032944
7.432,0.9999796727788711,135.8948106483011
7.4399999999999995,0.9999794885384912,135.48727552995524
7.448,0.9999793057146732,135.07951295530148
7.4559999999999995,0.9999791243585782,134.67152030137103
7.464,0.9999789445210545,134.26329495232648
7.4719999999999995,0.9999787662526334,133.85483429957387
7.48,0.9999785896035129,133.4461357418744
7.4879999999999995,0.9999784146235525,133.03719668545813
7.496,0.9999782413622585,132.62801454413747
7.504,0.999978069868778,132.21858673942282
7.5120000000000005,0.999977900191886,131.80891070063782
7.52,0.9999777323799772,131.39898386503702
7.5280000000000005,0.9999775664810556,130.98880367792276
7.536,0.9999774025427244,130.57836759276478
7.5440000000000005,0.9999772406121766,130.1676730713194
7.552,0.9999770807361873,129.7567175837506
7.5600000000000005,0.9999769229611009,129.34549860875126
7.568,0.9999767673328241,128.93401363366655
7.5760000000000005,0.9999766138968171,128.5222601546167
7.584,0.9999764626980817,128.1102356766227
7.5920000000000005,0.9999763137811554,127.69793771373092
7.6,0.9999761671901011,127.28536378914107
7.6080000000000005,0.9999760229684972,126.8725114353327
7.616,0.9999758811594309,126.45937819419508
7.6240000000000006,0.9999757418054879,126.04596161715618
7.632,0.9999756049487445,125.63225926531436
7.640000000000001,0.9999754706307589,125.21826870956959
7.648,0.9999753388925627,124.80398753075706
7.656000000000001,0.9999752097746532,124.38941331978072
7.664,0.9999750833169844,123.97454367774905
7.672,0.9999749595589589,123.5593762161107
7.68,0.9999748385394206,123.14390855679224
7.688,0.9999747202966462,122.72813833233633
7.696,0.9999746048683377,122.31206318604134
7.704,0.9999744922916135,121.89568077210191
7.712,0.9999743826030019,121.47898875575062
7.72,0.9999742758384339,121.06198481340088
7.728,0.9999741720332348,120.64466663279075
7.736,0.999974071222116,120.22703191312796
7.744,0.99997397343917,119.80907836523609
7.752,0.9999738787178615,119.39080371170185
7.76,0.999973787091021,118.97220568702329
7.768,0.9999736985908371,118.55328203775942
7.776,0.9999736132488505,118.13403052268066
7.784,0.999973531095946,117.71444891292073
7.792,0.9999734521623472,117.29453499212927
7.8,0.9999733764776093,116.87428655662599
7.808,0.9999733040706119,116.45370141555549
7.816,0.9999732349695533,116.03277739104368
7.824,0.9999731692019442,115.61151231835485
7.832,0.9999731067946012,115.1899040460503
7.84,0.9999730477736409,114.76795043614756
7.848,0.9999729921644734,114.34564936428129
7.856,0.9999729399917968,113.92299871986482
7.864,0.9999728912795923,113.49999640625306
7.872,0.9999728460511158,113.07664034090641
7.88,0.9999728043288952,112.65292845555568
7.888,0.9999727661347239,112.22885869636836
7.896,0.9999727314896539,111.80442902411562
7.904,0.9999727004139931,111.37963741434075
7.912,0.9999726729272981,110.95448185752834
7.92,0.9999726490483706,110.52896035927472
7.928,0.9999726287952506,110.1030709404595
7.936,0.9999726121852138,109.6768116374179
7.944,0.9999725992347648,109.25018050211446
7.952,0.9999725899596337,108.82317560231752
7.96,0.9999725843747717,108.39579502177482
7.968,0.9999725824943453,107.96803686039016
7.976,0.9999725843317341,107.53989923440095
7.984,0.9999725898995243,107.11138027655691
7.992,0.9999725992095071,106.68247813629957
8.0,0.9999726122726723,106.25319097994283
8.008,0.9999726290992065,105.82351699085463
8.016,0.9999726496984884,105.39345436963906
8.024000000000001,0.9999726740790853,104.96300133432024
8.032,0.9999727022487498,104.53215612052638
8.04,0.9999727342144165,104.10091698167481
8.048,0.999972769982199,103.6692821891583
8.056000000000001,0.9999728095573861,103.23725003253212
8.064,0.9999728529444395,102.80481881970185
8.072,0.999972900146991,102.37198687711172
8.08,0.9999729511678396,101.93875254993438
8.088000000000001,0.9999730060089487,101.50511420226131
8.096,0.9999730646714441,101.0710702172938
8.104,0.9999731271556116,100.63661899753457
8.112,0.9999731934608949,100.20175896498056
8.120000000000001,0.9999732635858931,99.76648856131638
8.128,0.99997333752836,99.3308062481083
8.136,0.9999734152852005,98.8947105069986
8.144,0.9999734968524707,98.45819983990127
8.152000000000001,0.9999735822253758,98.02127276919812
8.16,0.999973671398269,97.58392783793522
8.168,0.9999737643646495,97.14616361001998
8.176,0.9999738611171622,96.70797867041911
8.184000000000001,0.9999739616475974,96.26937162535701
8.192,0.9999740659468892,95.8303411025146
8.2,0.9999741740051142,95.39088575122831
8.208,0.9999742858114933,94.95100424269009
8.216000000000001,0.999974401354389,94.51069527014778
8.224,0.9999745206213073,94.0699575491056
8.232,0.9999746435988967,93.62878981752485
8.24,0.9999747702729472,93.18719083602548
8.248000000000001,0.9999749006283944,92.74515938808787
8.256,0.9999750346493158,92.30269428025458
8.264,0.9999751723189332,91.85979434233232
8.272,0.9999753136196147,91.41645842759448
8.280000000000001,0.9999754585328741,90.97268541298386
8.288,0.9999756070393724,90.52847419931526
8.296,0.9999757591189194,90.08382371147796
8.304,0.9999759147504752,89.63873289863889
8.312,0.9999760739121517,89.19320073444582
8.32,0.9999762365812145,88.74722621722957
8.328,0.9999764027340846,88.30080837020763
8.336,0.999976572346342,87.85394624168632
8.344,0.9999767453927254,87.40663890526406
8.352,0.9999769218471378,86.95888546003331
8.36,0.9999771016826466,86.51068503078356
8.368,0.9999772848714881,86.06203676820267
8.376,0.9999774713850699,85.61293984907948
8.384,0.9999776611939746,85.16339347650457
8.392,0.9999778542679623,84.71339688007207
8.4,0.999978050575976,84.26294931607963
8.408,0.9999782500861425,83.81205006772952
8.416,0.9999784527657802,83.36069844532754
8.424,0.9999786585814003,82.90889378648306
8.432,0.9999788674987111,82.45663545630678
8.44,0.9999790794826254,82.00392284760962
8.448,0.9999792944972615,81.55075538109907
8.456,0.9999795125059519,81.09713250557664
8.464,0.9999797334712442,80.64305369813276
8.472,0.9999799573549109,80.18851846434261
8.48,0.9999801841179512,79.73352633845914
8.488,0.9999804137205995,79.27807688360723
8.496,0.9999806461223285,78.82216969197472
8.504,0.9999808812818582,78.36580438500447
8.512,0.9999811191571597,77.90898061358337
8.52,0.9999813597054633,77.45169805823211
8.528,0.9999816028832642,76.99395642929176
8.536,0.9999818486463304,76.53575546711107
8.544,0.999982096949709,76.0770949422306
8.552,0.9999823477477326,75.61797465556717
8.56,0.9999826009940297,75.15839443859531
8.568,0.9999828566415288,74.69835415352873
8.576,0.9999831146424683,74.23785369349868
8.584,0.9999833749484052,73.77689298273239
8.592,0.9999836375102208,73.31547197672812
8.6,0.9999839022781318,72.85359066243015
8.608,0.9999841692016981,72.39124905840036
8.616,0.9999844382298305,71.92844721498965
8.624,0.9999847093108012,71.46518521450572
8.632,0.999984982392253,71.00146317138062
8.64,0.9999852574212084,70.53728123233455
8.648,0.9999855343440779,70.07263957653927
8.656,0.9999858131066732,69.60753841577774
8.664,0.9999860936542139,69.14197799460307
8.672,0.9999863759313395,68.6759585904937
8.68,0.9999866598821199,68.20948051400782
8.688,0.9999869454500655,67.74254410893366
8.696,0.999987232578138,67.27514975243913
8.704,0.9999875212087619,66.80729785521707
8.712,0.9999878112838355,66.33898886162983
8.72,0.9999881027447425,65.87022324984922
8.728,0.9999883955323632,65.4010015319956
8.736,0.9999886895870873,64.93132425427255
8.744,0.9999889848488248,64.4611919971001
8.752,0.999989281257019,63.99060537524369
8.76,0.9999895787506581,63.51956503794151
8.768,0.9999898772682888,63.04807166902743
8.776,0.9999901767480283,62.57612598705213
8.784,0.999990477127578,62.10372874539972
8.792,0.9999907783442357,61.63088073240251
8.8,0.9999910803349092,61.15758277145096
8.808,0.9999913830361308,60.68383572110182
8.815999999999999,0.9999916863840689,60.20964047518135
8.824,0.9999919903145446,59.73499796288597
8.832,0.999992294763043,59.25990914887932
8.84,0.9999925996647295,58.78437503338518
8.847999999999999,0.9999929049544627,58.308396652276734
8.856,0.9999932105668098,57.83197507716243
8.864,0.9999935164360614,57.35511141546811
8.872,0.9999938224962451,56.87780681051467
8.879999999999999,0.999994128681142,56.40006244159183
8.888,0.9999944349243013,55.921879524028306
8.896,0.9999947411590554,55.443259309257904
8.904,0.9999950473185353,54.96420308488089
8.911999999999999,0.9999953533356871,54.48471217472138
8.92,0.9999956591432861,54.004787938880675
8.928,0.9999959646739549,53.52443177378626
8.936,0.9999962698601778,53.0436451122362
8.943999999999999,0.999996574634317,52.56242942343868
8.952,0.9999968789286298,52.08078621304785
8.96,0.9999971826752844,51.5987170231948
8.968,0.9999974858063764,51.116223432513586
8.975999999999999,0.9999977882539464,50.63330705616252
8.984,0.9999980899499944,50.14996954584119
8.992,0.9999983908265005,49.666212589802505
9.0,0.999998690815438,49.18203791285964
9.008,0.9999989898487934,48.6974472763879
9.016,0.9999992878585812,48.21244247832211
9.024000000000001,0.9999995847768632,47.72702535314891
9.032,0.999999880535765,47.241197771893596
9.04,1.0,46.75496164210181
9.048,0.9999999999999999,46.268318907816386
9.056000000000001,1.0,45.78127154954903
9.064,1.0000000000000002,45.293821584246345
9.072,0.9999999999999999,44.805971065250326
9.08,0.9999999999999999,44.3177220822541
9.088000000000001,0.9999999999999999,43.8290767612521
9.096,1.0,43.34003726448444
9.104,0.9999999999999999,42.850605790375695
9.112,1.0,42.360784573468585
9.120000000000001,1.0,41.87057588435207
9.128,1.0,41.37998202958337
9.136,1.0,40.88900535160427
9.144,1.0,40.39764822865228
9.152000000000001,0.9999999999999999,39.905913074665804
9.16,1.0,39.41380233918341
9.168,1.0,38.921318507237025
9.176,1.0,38.42846409923989
9.184000000000001,1.0,37.93524167086851
9.192,0.9999999999999999,37.44165381293839
9.2,1.0,36.9477031512738
9.208,1.0,36.45339234657205
9.216000000000001,1.0,35.95872409426169
9.224,1.0,35.4637011243545
9.232,1.0,34.96832620129122
9.24,0.9999999999999999,34.47260212378192
9.248000000000001,0.9999999999999999,33.97653172464006
9.256,0.9999999999999999,33.480117870610464
9.264,0.9999999999999999,32.9833634621907
9.272,1.0,32.48627143344733
9.280000000000001,1.0,31.98884475182571
9.288,1.0,31.491086417953422
9.296,1.0,30.992999465437645
9.304,0.9999999999999999,30.49458696065669
9.312000000000001,1.0,29.99585200254568
9.32,1.0,29.49679772237544
9.328,0.9999999999999999,28.99742728352548
9.336,1.0,28.497743881251264
9.344,1.0,27.99775074244554
9.352,1.0,27.497451125392317
9.36,0.9999999999999999,26.9968483195168
9.368,0.9999999999999999,26.495945645127126
9.376,1.0,25.994746453152086
9.384,1.0,25.49325412487096
9.392,1.0,24.991472071639198
9.4,0.9999999999999999,24.48940373460627
9.408,1.0,23.9870525844294
9.416,0.9999999999999999,23.48442212097966
9.424,1.0,22.981515873043744
9.432,1.0,22.478337398018432
9.44,0.9999999999999999,21.974890281600686
9.448,1.0,21.47117813747031
9.456,1.0,20.96720460696873
9.464,1.0,20.46297335877009
9.472,1.0,19.958488088548535
9.48,1.0,19.4537525186382
9.488,1.0,18.94877039768912
9.496,0.9999999999999999,18.44354550031614
9.504,0.9999999999999998,17.938081626743898
9.512,1.0,17.432382602444612
9.52,0.9999999999999999,16.92645227777238
9.528,1.0,16.42029452759031
9.536,1.0,15.913913250894137
9.544,1.0,15.407312370428851
9.552,1.0,14.90049583230208
9.56,1.0,14.393467605590422
9.568,0.9999999999999999,13.886231681942732
9.576,1.0,13.378792075176563
9.584,1.0,12.871152820871588
9.592,1.0,12.363317975956374
9.6,0.9999999999999999,11.855291618292304
9.608,0.9999999999999999,11.347077846250976
9.616,0.9999999999999999,10.838680778288888
9.624,0.9999999999999999,10.33010455251583
9.632,1.0,9.821353326260622
9.64,1.0,9.312431275630798
9.648,0.9999999999999998,8.803342595069827
9.656,0.9999999999999999,8.29409149690836
9.664,1.0,7.784682210913298
9.672,1.0,7.275118983830986
9.68,0.9999999999999999,6.765406078928446
9.688,0.9999999999999999,6.25554777552894
9.696,1.0,5.745548368545737
9.704,0.9999999999999999,5.235412168010422
9.712,1.0,4.7251434985995395
9.72,0.9999999999999999,4.214746699156162
9.728,1.0,3.704226122209772
