freq,mag,phase
6.0,0.9991418703010451,175.07490080734763
6.002286592,0.9990926741935249,174.93674007499206
6.004572672,0.9991008151151917,174.7988711446126
6.006859264,0.9991665072147854,174.6605377479329
6.009145344,0.9992853821048115,174.5209014643382
6.011431936,0.9994499817076661,174.37922750702654
6.013718016,0.9996500471455088,174.23494626657768
6.016004608,0.9998726815497732,174.08764284665006
6.018290688,1.0001038987588273,173.93704330416796
6.02057728,1.0003291129041607,173.78321310974025
6.022863872,1.0005339926356012,173.62626170170458
6.025149952,1.000705687609966,173.4666525946407
6.027436544,1.0008331569004563,173.304882941249
6.029722624,1.0009083565134154,173.14171353666262
6.032009216,1.0009266723182813,172.97785387463503
6.034295296,1.0008867745164123,172.8142539723205
6.036581888,1.0007914218527478,172.65161683223354
6.03886848,1.000646141906381,172.4907936586845
6.04115456,1.0004605483657343,172.33239142806704
6.043441152,1.0002460833131093,172.1769163941239
6.045727232,1.0000164181637388,172.0247464436296
6.048013824,0.9997861079356791,171.87593735721026
6.050299904,0.9995696308639911,171.73041773787858
6.052586496,0.99938079902019,171.5878777355689
6.054872576,0.9992316312147621,171.44784937238595
6.057159168,0.9991313597006029,171.30968211211098
6.05944576,0.9990866971491814,171.17261120864407
6.06173184,0.9991003239838968,171.0357872727461
6.064018432,0.9991714104800206,170.89839536529738
6.066304512,0.9992955058339689,170.75966847245525
6.068591104,0.9994646761209047,170.61883475188208
6.070877184,0.9996682432061459,170.4752981559833
6.073163776,0.9998934746994415,170.32869791531536
6.075450368,1.0001257966886714,170.17879995617548
6.077736448,1.0003507745024045,170.0256295623254
6.08002304,1.0005539984849119,169.86941033332388
6.08230912,1.0007226816266233,169.71050264277284
6.084595712,1.000846207485074,169.54956162273993
6.086881792,1.0009166226568422,169.387179422632
6.089168384,1.0009295663020297,169.22430481531967
6.091454464,1.0008841777767534,169.06167133970428
6.093741056,1.0007832562599943,168.90010613691362
6.096027648,1.00063327860245,168.74043471113382
6.098313728,1.000443486971087,168.5832786632209
6.10060032,1.0002260316352118,168.42908419021168
6.1028864,0.9999945846672073,168.27820033914895
6.105172992,0.9997639823341723,168.13070233591253
6.107459072,0.9995484768753186,167.98651891344883
6.109745664,0.999361942259829,167.84527170707787
6.112032256,0.9992162702018544,167.70648869963992
6.114318336,0.9991206222006351,167.56953162704437
6.116604928,0.9990813254009056,167.43359754041205
6.118891008,0.9991004011397724,167.2978351808482
6.1211776,0.9991771350897204,167.161411059479
6.12346368,0.9993064126597313,167.02355620587952
6.125750272,0.9994801125432878,166.8835190552828
6.128036352,0.9996873277082285,166.740777965634
6.130322944,0.9999147746519393,166.5948854160424
6.132609536,1.0001481892927764,166.44565573181566
6.134895616,1.0003728539026018,166.293184946422
6.137182208,1.0005742731070122,166.13766326108853
6.139468288,1.0007397291631748,165.9795195045315
6.14175488,1.0008591970251155,165.8193261962051
6.14404096,1.0009245720292,165.6578278358862
6.146327552,1.0009319736249014,165.4958584738533
6.148614144,1.0008809820200955,165.3342375094538
6.150900224,1.000774579739901,165.1737729726369
6.153186816,1.0006195631085952,165.01527011138995
6.155472896,1.0004257075342347,164.85933348694138
6.157759488,1.000205270872283,164.7064456280589
6.160045568,0.9999722075031171,164.55690789737298
6.16233216,0.9997411822844146,164.41076090366101
6.16461824,0.9995269671751646,164.26789423722136
6.166904832,0.9993430478888129,164.12794625524018
6.169191424,0.9992011495850086,163.99043257462552
6.171477504,0.9991102503796172,163.8546495192345
6.173764096,0.9990761622519951,163.71986031619116
6.176050176,0.9991010841131616,163.58512700176382
6.178336768,0.9991834359471903,163.44967217249453
6.180622848,0.9993180571937197,163.31268988896989
6.18290944,0.9994962770073907,163.1734499581033
6.18519552,0.9997069865752662,163.03144313987576
6.187482112,0.9999368546594423,162.8862729120608
6.189768704,1.0001711782596954,162.73774584258928
6.192054784,1.000395047826331,162.5859685204271
6.194341376,1.0005945605476187,162.43113711727395
6.196627456,1.0007568863179628,162.27373454313778
6.198914048,1.000871877051302,162.11433240482808
6.201200128,1.0009321202294241,161.9537111944111
6.20348672,1.0009338970060804,161.7926644424039
6.205773312,1.0008769709328276,161.6321025022547
6.208059392,1.000764925616714,161.4727570456594
6.210345984,1.0006049288220222,161.31541326948883
6.212632064,1.0004070269397263,161.1607552154165
6.214918656,1.000183710117024,161.00916210605885
6.217204736,0.9999491339607578,160.86091329394682
6.219491328,0.9997180814940249,160.71611520826394
6.221777408,0.9995051805618901,160.57458848279828
6.224064,0.9993240165900936,160.43596921659065
6.226350592,0.9991859588197276,160.2997191442018
6.228636672,0.9991000933608895,160.16515990183586
6.230923264,0.9990714509635904,160.03144492873756
6.233209344,0.9991023708813146,159.8977560473003
6.235495936,0.999190504341171,159.76328550947548
6.237782016,0.9993304274301014,159.62715096722624
6.240068608,0.999513280566545,159.48872492711834
6.2423552,0.999727560914354,159.3474752532874
6.24464128,0.9999595412813231,159.20297440861904
6.246927872,1.0001945463455992,159.05515249678368
6.249213952,1.0004178779892658,158.9040233176478
6.251500544,1.0006151503181813,158.74988574693188
6.253786624,1.0007739543068814,158.5932009112282
6.256073216,1.0008843928724453,158.43463030152142
6.258359296,1.000939233952173,158.27486976251188
6.260645888,1.0009352116711767,158.11478503481123
6.26293248,1.000872354067612,157.9552314770006
6.26521856,1.0007547986347778,157.79701544179756
6.267505152,1.000589669990576,157.64087677552834
6.269791232,1.000387725191743,157.4874674881181
6.272077824,1.000161644654332,157.3371761616358
6.274363904,0.9999254864507446,157.1903180101727
6.276650496,0.9996944831052559,157.04685918992817
6.278937088,0.9994831178358484,156.90669470253457
6.281223168,0.9993048333920423,156.7693850031549
6.28350976,0.999171040038385,156.6343815447959
6.28579584,0.9990901151891566,156.5010053426201
6.288082432,0.9990674438426184,156.36843420058096
6.290368512,0.9991042511002941,156.2357716926247
6.292655104,0.9991982855203939,156.10221138661103
6.294941184,0.9993437616878732,155.9669478226861
6.297227776,0.9995311183516519,155.8293142113306
6.299514368,0.9997488530255036,155.68876800203802
6.301800448,0.9999829175307507,155.54497915428917
6.30408704,1.0002186561228357,155.39781773119182
6.30637312,1.0004410664091847,155.2473964814237
6.308659712,1.0006358763512972,155.09393813518386
6.310945792,1.0007910884279752,154.93797763403174
6.313232384,1.0008967910669826,154.78019263314857
6.315518464,1.0009460955274712,154.62130325097704
6.317805056,1.0009359497167665,154.46216546348302
6.320091648,1.0008670039782,154.3036526239295
6.322377728,1.0007436701284302,154.14658108804608
6.32466432,1.0005737001787542,153.99164824960965
6.3269504,1.0003675572702893,153.83947379532236
6.329236992,1.000138675902861,153.69055896640663
6.331523072,0.9999012737314592,153.54503059241372
6.333809664,0.9996704091943556,153.40294182458692
6.336096256,0.9994608074036797,153.26412678038096
6.338382336,0.9992856627053465,153.12810598286617
6.340668928,0.999156194048838,152.99439020438612
6.342955008,0.9990807900323359,152.8621773317489
6.3452416,0.9990638709865046,152.73071502916702
6.34752768,0.9991067679576513,152.59909585808833
6.349814272,0.9992068746519863,152.4664780528617
6.352100352,0.9993576650565487,152.3320359740815
6.354386944,0.999549795451082,152.195182293887
6.356673536,0.9997708652760016,152.05536091717784
6.358959616,1.0000070164072246,151.9122136480153
6.361246208,1.000243142922168,151.76571798753
6.363532288,1.0004643883278963,151.6159254875222
6.36581888,1.0006568410630656,151.46317198108275
6.36810496,1.0008081103812518,151.30796751574584
6.370391552,1.0009087470013325,151.1509791791692
6.372678144,1.0009524225666908,150.99296826590964
6.374964224,1.0009361547356652,150.8347952165475
6.377250816,1.00086119249169,150.6773229192147
6.379536896,1.0007319319344463,150.52136396614483
6.381823488,1.0005568399754834,150.3676680217775
6.384109568,1.000346797415577,150.21678372485638
6.38639616,1.0001150632843057,150.0691717478957
6.38868224,0.9998764779983587,149.92500136770929
6.390968832,0.9996459926817269,149.78426159253857
6.393255424,0.9994382993220798,149.64678041544232
6.395541504,0.9992664629656876,149.51211123721814
6.397828096,0.9991416085054217,149.37963390777415
6.400114176,0.9990715244347903,149.2486039427852
6.402400768,0.9990608388437748,149.1181955557041
6.404686848,0.9991100917714302,148.98758312486248
6.40697344,0.9992162908596598,148.85586637530915
6.409260032,0.9993726744296361,148.7222636147002
6.411546112,0.9995691435055551,148.58616531309463
6.413832704,0.9997936074009258,148.44703589213492
6.416118784,1.0000316670861065,148.30458993840986
6.418405376,1.0002681468009063,148.1587215956675
6.420691456,1.000488249849255,148.00957417829076
6.422978048,1.000677787603608,147.8574814661137
6.425264128,1.000824948703395,147.70300104062335
6.42755072,1.000920524343193,147.54678860303065
6.429837312,1.0009582114994675,147.389652701639
6.432123392,1.0009355403006126,147.2324712519079
6.434409984,1.0008542655817723,147.07603954979152
6.436696064,1.0007192577136397,146.92122339684377
6.438982656,1.0005389705206973,146.76873934157265
6.441268736,1.000324983428979,146.61913881433065
6.443555328,1.000090692646119,146.47287779296718
6.44584192,0.9998511048817711,146.3300175078948
6.448128,0.9996210747638066,146.19069636996832
6.450414592,0.9994155171113838,146.0545532571756
6.452700672,0.999247359610251,145.9211589445816
6.454987264,0.9991271731408934,145.7899127648893
6.457273344,0.9990628017809686,145.66006240993903
6.459559936,0.9990583313793787,145.5307725488567
6.461846016,0.9991139871411301,145.4011264355802
6.464132608,0.9992263361127826,145.27031844743152
6.4664192,0.9993883407322733,145.13753839622876
6.46870528,0.9995893730495465,145.00215332338882
6.470991872,0.9998170498050379,144.86367164947552
6.473277952,1.0000568009837294,144.72186319593928
6.475564544,1.000293564267083,144.5766102793548
6.477850624,1.0005121747878434,144.42810829362847
6.480137216,1.0006986671667044,144.27670277693977
6.482423296,1.0008415925625351,144.12291644610832
6.484709888,1.0009316875878396,143.96750227081196
6.48699648,1.0009633105017133,143.81124150260922
6.48928256,1.0009342748952441,143.65501656521752
6.491569152,1.000846604953658,143.4996563582332
6.493855232,1.0007056672036465,143.34594503915304
6.496141824,1.0005203291153704,143.19471648773808
6.498427904,1.000302320915866,143.04641136330451
6.500714496,1.0000656850037164,142.90144476519444
6.503001088,0.9998250349364503,142.75998971801644
6.505287168,0.9995959182303361,142.62199888109694
6.50757376,0.9993925342111845,142.48717080430765
6.50985984,0.9992281778528705,142.35510378397703
6.512146432,0.9991129877587914,142.22509453775177
6.514432512,0.9990545648343827,142.09639496717142
6.516719104,0.9990564223913964,141.9681582916085
6.519005184,0.9991188170989901,141.83946041392468
6.521291776,0.9992374568702835,141.70950911988837
6.523578368,0.9994048556832966,141.57752533615997
6.525864448,0.9996104598428919,141.4428693194395
6.52815104,0.9998413408497849,141.3050582590344
6.53043712,1.0000827025955028,141.163845946223
6.532723712,1.0003193888131177,141.01921378567584
6.535009792,1.0005363632472695,140.87131081790696
6.537296384,1.0007199161388733,140.72055996132445
6.539582976,1.0008583017594335,140.5674750814789
6.541869056,1.0009427715348151,140.41286739425476
6.544155648,1.0009679343003524,140.2574603122655
6.546441728,1.000932383634801,140.10217516484747
6.54872832,1.0008380818848672,139.9478712589172
6.5510144,1.0006911949035469,139.7953305762969
6.553300992,1.0005007785381665,139.6453039151802
6.555587072,1.0002789715976503,139.49827515214105
6.557873664,1.0000399339518078,139.35466428840064
6.560160256,0.9997985738966984,139.21457970083517
6.562446336,0.9995701797476552,139.07794073974242
6.564732928,0.999369483034722,138.94443751933136
6.567019008,0.9992091339901972,138.81366907686674
6.5693056,0.999099234750438,138.68486246242773
6.57159168,0.9990468989112489,138.55729650784465
6.573878272,0.9990553969997357,138.4300608947479
6.576164864,0.9991242255721541,138.3023396781259
6.578450944,0.9992492087852684,138.1732274045951
6.580737536,0.9994222640328225,138.04199900210295
6.583023616,0.9996323561997016,137.90802946887655
6.585310208,0.9998663647287908,137.77083771322302
6.587596288,1.0001093619838155,137.630253123559
6.58988288,1.0003457945843086,137.48621950089012
6.59216896,1.0005608114788747,137.3389163800216
6.594455552,1.0007409058363623,137.18879106774426
6.596742144,1.0008744608609328,137.03645643134888
6.599028224,1.0009531562013876,136.88257355721706
6.601314816,1.0009719182998307,136.72803068530874
6.603600896,1.000929590436873,136.57370360836856
6.605887488,1.0008287597102665,136.4204450382086
6.608173568,1.0006757958469088,136.26906143732512
6.61046016,1.0004803337962949,136.1202396366121
6.612746752,1.0002548778926212,135.97452564947795
6.615032832,1.0000133354917327,135.83221430298454
6.617319424,0.9997715671687396,135.69347732599928
6.619605504,0.9995442686960675,135.55819670716156
6.621892096,0.9993463900905126,135.4260349697622
6.624178176,0.9991902367718265,135.296532227655
6.626464768,0.9990857773527436,135.16893727593043
6.628750848,0.9990396883537606,135.0424573800139
6.63103744,0.9990549373138428,134.91626606900846
6.633324032,0.9991306637026537,134.7894649195662
6.635610112,0.9992619320897832,134.66116371104508
6.637896704,0.9994406296194951,134.53069612470887
6.640182784,0.9996553050294793,134.39735672216037
6.642469376,0.999892150993657,134.26077384551692
6.644755456,1.0001364134972126,134.12075409456875
6.647042048,1.0003725231336213,133.97728598671083
6.649328128,1.0005855227337355,133.83056206080866
6.65161472,1.000761921618487,133.68104255010317
6.653901312,1.0008906309770278,133.52938739588492
6.656187392,1.000963296892653,133.37627750768678
6.658473984,1.0009754525623042,133.22260738641234
6.660760064,1.0009261101740414,133.0692319602095
6.663046656,1.0008185749236034,132.9170294519253
6.665332736,1.0006595532868656,132.7667848961424
6.667619328,1.0004591048887437,132.61917838466707
6.66990592,1.0002298557060614,132.47475173985276
6.672192,0.9999864111639308,132.33379485306864
6.674478592,0.9997439787886452,132.1963980403607
6.676764672,0.9995182133373516,132.06243904003102
6.679051264,0.9993232272136898,131.93159081133643
6.681337344,0.9991714918687798,131.80333154584898
6.683623936,0.9990726892619621,131.6769029688806
6.685910016,0.9990331929656695,131.55156081873537
6.688196608,0.9990554234380552,131.4263455137875
6.6904832,0.999138006399864,131.3004245049415
6.69276928,0.9992757388147837,131.17291832413406
6.695055872,0.9994599438373528,131.04313971094413
6.697341952,0.9996788578648691,130.91045749927216
6.699628544,0.9999187377546462,130.77444690193462
6.701914624,1.0001640305426793,130.63498539767312
6.704201216,1.0003997170506849,130.49203871120088
6.706487808,1.0006103693800534,130.34589353401344
6.708773888,1.0007828551610694,130.1969639379458
6.71106048,1.000906250498467,130.04599582339281
6.71334656,1.0009726936962238,129.89365896859607
6.715633152,1.0009779500940275,129.7408117776532
6.717919232,1.000921601984949,129.5883870122364
6.720205824,1.0008073710154861,129.43722024103877
6.722491904,1.0006422745944215,129.28813825049872
6.724778496,1.000436797106396,129.1417517726146
6.727065088,1.0002039625378694,128.99860015333394
6.729351168,0.9999584970488278,128.85895579269976
6.73163776,0.9997158686647879,128.7229154190783
6.73392384,0.9994916122330495,128.59028829454547
6.736210432,0.9992998327969816,128.46075788601806
6.738496512,0.9991529405046683,128.33368865528507
6.740783104,0.999059969917924,128.20845102473984
6.743069696,0.999027174032633,128.08413615251965
6.745355776,0.9990564995904656,127.95991106210087
6.747642368,0.999146143411333,127.83485245548758
6.749928448,0.9992903678914621,127.70813100101776
6.75221504,0.9994801294539466,127.57900666874042
6.75450112,0.9997033203610588,127.44691879849557
6.756787712,0.9999459297537572,127.31148328036204
6.759073792,1.000192382960196,127.17251315485105
6.761360384,1.0004270915869657,127.03009777435702
6.763646976,1.0006352869541304,126.88451657493324
6.765933056,1.0008037635868805,126.73619680130341
6.768219648,1.0009216172000122,126.58584276756943
6.770505728,1.000981584887564,126.43424218493284
6.77279232,1.0009797517243946,126.28224241639388
6.7750784,1.0009163983551226,126.13078076235435
6.777364992,1.000795299518019,125.98067197026437
6.779651584,1.0006240819241676,125.83270726437829
6.781937664,1.0004136813251316,125.68753739863139
6.784224256,1.0001773264814438,125.54568458924437
6.786510336,0.9999300610933607,125.40735519824958
6.788796928,0.9996875807453811,125.27262416186058
6.791083008,0.9994648611657952,125.14133249507466
6.7933696,0.9992767325123653,125.01303982349252
6.79565568,0.9991346151245112,124.88722292865472
6.797942272,0.9990479538198984,124.76312104893164
6.800228864,0.9990219463088136,124.6398553598481
6.802514944,0.999058489978954,124.51656434224347
6.804801536,0.9991552040154298,124.39233274467813
6.807087616,0.9993059931349748,124.26632088204632
6.809374208,0.9995013620505638,124.1378449318633
6.811660288,0.999728833284142,124.00634524993322
6.81394688,0.999973953644664,123.87141050108448
6.81623296,1.000221294974306,123.73292537418969
6.818519552,1.0004549252122665,123.59099144194114
6.820806144,1.0006603446338342,123.44592458279084
6.823092224,1.0008243416117868,123.29820987878796
6.825378816,1.0009366019103156,123.14850969902508
6.827664896,1.0009898832045891,122.99764133328844
6.829951488,1.000980960008936,122.8464781967163
6.832237568,1.0009102502653422,122.69593410062458
6.83452416,1.0007821922155804,122.54685535415702
6.836810752,1.0006049421946084,122.40003995480795
6.839096832,1.0003896593095247,122.25609753171767
6.841383424,1.0001500233849454,122.11548658345058
6.843669504,0.9999010352065582,121.97847965245897
6.845956096,0.9996584833818449,121.84507152087818
6.848242176,0.9994381115895273,121.71505865787317
6.850528768,0.999253494196378,121.5880585456263
6.852814848,0.9991167714588778,121.46342297079099
6.85510144,0.9990363460973195,121.34042294627349
6.857388032,0.999017348827202,121.2181707483888
6.859674112,0.9990614068128473,121.09579885075863
6.861960704,0.9991652998876934,120.97235686483062
6.864246784,0.999322717180998,120.84705603612841
6.866533376,0.9995236434055089,120.71918420154806
6.868819456,0.9997550745678537,120.58819397343012
6.871106048,1.0000026551691825,120.45377510510107
6.87339264,1.000250486083877,120.31577083550684
6.87567872,1.0004830822259791,120.17428363897699
6.877965312,1.0006853724872724,120.0297279693102
6.880251392,1.0008447448550726,119.88254764064052
6.882537984,1.000951026596034,119.73348484705639
6.884824064,1.0009975703427088,119.58331863387153
6.887110656,1.00098126543014,119.43300224468054
6.889396736,1.0009031024724022,119.2834004066908
6.891683328,1.0007680471685896,119.13532697504479
6.89396992,1.0005847341734433,118.98965607702081
6.896256,1.0003646165531839,118.84691915802117
6.898542592,1.0001217262841247,118.70757176991778
6.900828672,0.9998712040769397,118.57184520399568
6.903115264,0.9996292684617065,118.43976656106868
6.905401344,0.999411008313226,118.31106321805137
6.907687936,0.9992304911650515,118.18528961076588
6.909974528,0.9990990651009903,118.06180725283703
6.912260608,0.9990252813196977,117.93990223738395
6.9145472,0.9990136440883018,117.81862465653742
6.91683328,0.9990650870886427,117.69712087827062
6.919119872,0.9991763153011245,117.57445822432858
6.921405952,0.9993403671680767,117.44981654404225
6.923692544,0.9995467001944041,117.32252737945988
6.925978624,0.9997821588927959,117.19203282106669
