freq,mag,phase
6.0,0.9999948317961793,106.41056017267391
6.008,0.999995321877858,106.30069870425608
6.016,0.9999958017441742,106.19079149607333
6.024,0.9999962715111359,106.08083849767714
6.032,0.9999967312940198,105.97083965871069
6.04,0.9999971812073746,105.86079492890954
6.048,0.999997621365022,105.7507042581021
6.056,0.9999980518800582,105.64056759621023
6.064,0.9999984728648565,105.53038489324985
6.072,0.9999988844310677,105.42015609933142
6.08,0.9999992866896229,105.30988116466062
6.088,0.9999996797507344,105.19956003953884
6.096,1.0,105.08919267436372
6.104,0.9999999999999998,104.9787790196299
6.112,1.0,104.86831902592932
6.12,1.0,104.75781264395205
6.128,0.9999999999999999,104.64725982448675
6.136,1.0,104.5366605184212
6.144,1.0,104.42601467674298
6.152,0.9999999999999999,104.31532225053998
6.16,1.0,104.204583191001
6.168,1.0,104.09379744941636
6.176,1.0,103.9829649771784
6.184,1.0,103.87208572578214
6.192,1.0,103.76115964682585
6.2,1.0,103.65018669201156
6.208,1.0,103.53916681314578
6.216,1.0,103.42809996213994
6.224,1.0,103.31698609101107
6.232,1.0,103.20582515188238
6.24,1.0,103.0946170969838
6.248,1.0,102.9833618786526
6.256,1.0,102.87205944933399
6.264,1.0,102.7607097615817
6.272,1.0,102.64931276805852
6.28,1.0,102.53786842153706
6.288,0.9999999999999999,102.42637667490007
6.296,0.9999999999999999,102.31483748114131
6.304,0.9999999999999998,102.20325079336597
6.312,0.9999999999999998,102.09161656479134
6.32,1.0,101.97993474874737
6.328,1.0,101.86820529867728
6.336,1.0,101.75642816813821
6.344,1.0,101.64460331080173
6.352,0.9999999999999999,101.53273068045446
6.36,0.9999999999999999,101.42081023099877
6.368,1.0,101.30884191645323
6.376,1.0,101.19682569095336
6.384,1.0,101.08476150875211
6.392,0.9999999999999998,100.97264932422051
6.4,0.9999999999999999,100.86048909184832
6.408,1.0,100.74828076624462
6.416,1.0,100.63602430213831
6.424,1.0,100.52371965437888
6.432,0.9999999999999999,100.41136677793692
6.44,0.9999999999999999,100.29896562790476
6.448,1.0,100.18651615949703
6.456,1.0,100.0740183280514
6.464,0.9999999999999999,99.96147208902902
6.472,1.0,99.84887739801526
6.48,0.9999999999999998,99.73623421072028
6.4879999999999995,1.0,99.62354248297967
6.496,1.0,99.51080217075496
6.504,1.0,99.39801323013445
6.5120000000000005,1.0,99.28517561733355
6.52,1.0,99.1722892886957
6.5280000000000005,1.0,99.05935420069267
6.536,1.0,98.94637030992547
6.5440000000000005,1.0,98.83333757312477
6.552,0.9999999999999999,98.72025594715164
6.5600000000000005,1.0,98.60712538899807
6.568,1.0,98.49394585578771
6.5760000000000005,1.0,98.38071730477637
6.584,1.0,98.26743969335276
6.592,0.9999999999999999,98.15411297903898
6.6,0.9999999999999999,98.04073711949131
6.608,1.0,97.92731207250071
6.616,1.0,97.81383779599348
6.624,0.9999999999999999,97.70031424803193
6.632,1.0,97.58674138681492
6.64,1.0000000000000002,97.4731191706786
6.648,1.0,97.35944755809693
6.656,0.9999999999999999,97.2457265076824
6.664,0.9999999999999999,97.13195597818664
6.672,0.9999999999999999,97.01813592850097
6.68,0.9999999999999998,96.90426631765718
6.688,1.0,96.79034710482802
6.696,0.9999999999999999,96.67637824932791
6.704,1.0,96.5623597106136
6.712,1.0,96.44829144828476
6.72,1.0,96.33417342208456
6.728,1.0,96.22000559190046
6.736,1.0,96.10578791776473
6.744,1.0,95.99152035985506
6.752,0.9999999999999998,95.87720287849534
6.76,0.9999999999999998,95.76283543415617
6.768,0.9999999999999999,95.64841798745556
6.776,1.0,95.53395049915957
6.784,1.0000000000000002,95.4194329301829
6.792,0.9999999999999999,95.30486524158961
6.8,1.0,95.19024739459374
6.808,0.9999999999999999,95.07557935055988
6.816,0.9999999999999998,94.96086107100392
6.824,0.9999999999999998,94.84609251759362
6.832,0.9999999999999999,94.73127365214931
6.84,1.0,94.6164044366445
6.848,1.0,94.50148483320652
6.856,1.0,94.3865148041172
6.864,0.9999999999999998,94.27149431181351
6.872,0.9999999999999999,94.15642331888817
6.88,0.9999999999999999,94.04130178809035
6.888,0.9999999999999999,93.92612968232632
6.896,1.0,93.81090696466
6.904,1.0,93.69563359831379
6.912,1.0,93.58030954666906
6.92,1.0,93.46493477326688
6.928,1.0,93.34950924180865
6.936,1.0,93.23403291615676
6.944,0.9999999999999999,93.11850576033525
6.952,1.0,93.00292773853042
6.96,0.9999999999999998,92.88729881509158
6.968,1.0,92.77161895453162
6.976,0.9999999999999999,92.65588812152765
6.984,1.0,92.54010628092176
6.992,1.0,92.42427339772158
7.0,1.0,92.30838943710098
7.008,1.0,92.19245436440072
7.016,0.9999999999999999,92.07646814512908
7.024,1.0000000000000002,91.9604307449626
7.032,0.9999999999999999,91.84434212974662
7.04,1.0,91.72820226549607
7.048,1.0,91.61201111839598
7.056,1.0,91.4957686548023
7.064,1.0,91.37947484124248
7.072,1.0,91.26312964441608
7.08,1.0,91.14673303119552
7.088,1.0,91.03028496862672
7.096,1.0,90.91378542392974
7.104,0.9999999999999999,90.79723436449943
7.112,1.0,90.68063175790618
7.12,0.9999999999999999,90.56397757189644
7.128,0.9999999999999999,90.44727177439354
7.136,1.0,90.33051433349824
7.144,0.9999999999999999,90.21370521748943
7.152,1.0,90.09684439482483
7.16,0.9999999999999999,89.97993183414158
7.168,1.0,89.86296750425699
7.176,1.0,89.74595137416912
7.184,1.0,89.62888341305758
7.192,0.9999999999999999,89.511763590284
7.2,1.0,89.39459187539289
7.208,1.0,89.27736823811219
7.216,1.0,89.16009264835395
7.224,0.9999999999999999,89.04276507621506
7.232,0.9999999999999999,88.92538549197785
7.24,1.0,88.8079538661108
7.248,1.0,88.69047016926918
7.256,1.0,88.57293437229575
7.264,0.9999999999999999,88.45534644622138
7.272,1.0,88.33770636226579
7.28,1.0,88.22001409183817
7.288,1.0,88.10226960653783
7.296,0.9999999999999999,87.98447287815495
7.304,0.9999999999999999,87.86662387867113
7.312,1.0,87.74872258026025
7.32,1.0,87.63076895528887
7.328,0.9999999999999999,87.51276297631718
7.336,0.9999999999999999,87.39470461609946
7.344,1.0,87.27659384758486
7.352,1.0,87.1584306439181
7.36,0.9999999999999999,87.04021497843996
7.368,1.0,86.92194682468819
7.376,0.9999999999999999,86.80362615639804
7.384,1.0,86.68525294750295
7.392,0.9999999999999999,86.56682717213522
7.4,0.9999999999999998,86.4483488046267
7.4079999999999995,0.9999999999999999,86.32981781950949
7.416,0.9999999999999999,86.21123419151651
7.4239999999999995,1.0,86.09259789558233
7.432,1.0,85.97390890684365
7.4399999999999995,0.9999999999999999,85.85516720064015
7.448,1.0,85.73637275251504
7.4559999999999995,1.0,85.61752553821583
7.464,1.0,85.49862553369486
7.4719999999999995,1.0,85.37967271511019
7.48,0.9999999999999998,85.26066705882599
7.4879999999999995,0.9999999999999999,85.1416085414135
7.496,1.0,85.02249713965148
7.504,1.0,84.90333283052705
7.5120000000000005,1.0,84.78411559123614
7.52,1.0,84.66484539918449
7.5280000000000005,0.9999999999999999,84.54552223198796
7.536,0.9999999999999999,84.42614606747352
7.5440000000000005,0.9999999217881801,84.30671688367966
7.552,0.9999998315224489,84.18723465885726
7.5600000000000005,0.9999997421191367,84.06769937147013
7.568,0.9999996535892755,83.94811100019578
7.5760000000000005,0.9999995659435634,83.82846952392596
7.584,0.9999994791923668,83.70877492176751
7.5920000000000005,0.9999993933457219,83.58902717304287
7.6,0.9999993084133383,83.46922625729084
7.6080000000000005,0.9999992244046002,83.34937215426719
7.616,0.9999991413285695,83.22946484394544
7.6240000000000006,0.999999059193988,83.10950430651732
7.632,0.9999989780092792,82.98949052239377
7.640000000000001,0.999998897782551,82.8694234722052
7.648,0.9999988185215986,82.74930313680252
7.656000000000001,0.9999987402339058,82.6291294972576
7.664,0.999998662926648,82.50890253486402
7.672,0.9999985866066943,82.3886222311377
7.68,0.9999985112806098,82.2682885678176
7.688,0.999998436954659,82.14790152686638
7.696,0.9999983636348054,82.02746109047102
7.704,0.9999982913267174,81.9069672410436
7.712,0.9999982200357681,81.78641996122182
7.72,0.9999981497670384,81.66581923386978
7.728,0.999998080525319,81.54516504207862
7.736,0.9999980123151143,81.42445736916713
7.744,0.9999979451406423,81.30369619868252
7.752,0.9999978790058394,81.18288151440093
7.76,0.9999978139143604,81.06201330032829
7.768,0.9999977498695825,80.94109154070081
7.776,0.9999976868746078,80.82011621998576
7.784,0.9999976249322636,80.69908732288205
7.792,0.9999975640451078,80.57800483432094
7.8,0.999997504215428,80.45686873946673
7.808,0.9999974454452468,80.33567902371733
7.816,0.9999973877363219,80.21443567270501
7.824,0.9999973310901499,80.09313867229703
7.832,0.999997275507968,79.97178800859629
7.84,0.9999972209907563,79.85038366794195
7.848,0.9999971675392401,79.72892563691022
7.856,0.9999971151538931,79.60741390231489
7.864,0.9999970638349387,79.485848451208
7.872,0.9999970135823529,79.3642292708806
7.88,0.9999969643958664,79.24255634886326
7.888,0.9999969162749672,79.12082967292686
7.896,0.9999968692189027,78.99904923108318
7.904,0.9999968232266824,78.87721501158552
7.912,0.9999967782970799,78.75532700292946
7.92,0.999996734428635,78.63338519385339
7.928,0.9999966916196571,78.51138957333927
7.936,0.9999966498682266,78.38934013061318
7.944,0.9999966091721973,78.26723685514608
7.952,0.9999965695291994,78.1450797366544
7.96,0.999996530936641,78.02286876510065
7.968,0.9999964933917111,77.9006039306942
7.976,0.9999964568913818,77.77828522389174
7.984,0.9999964214324106,77.65591263539812
7.992,0.9999963870113427,77.53348615616687
8.0,0.9999963536245127,77.41100577740087
8.008,0.9999963212680487,77.28847149055308
8.016,0.9999962899378727,77.16588328732699
8.024000000000001,0.9999962596297048,77.04324115967749
8.032,0.9999962303390635,76.92054509981145
8.04,0.9999962020612693,76.79779510018817
8.048,0.9999961747914472,76.67499115352028
8.056000000000001,0.9999961485245284,76.55213325277425
8.064,0.9999961232552534,76.42922139117111
8.072,0.9999960989781732,76.3062555621869
8.08,0.999996075687652,76.18323575955354
8.088000000000001,0.9999960533778715,76.06016197725933
8.096,0.9999960320428295,75.93703420954965
8.104,0.9999960116763456,75.81385245092753
8.112,0.9999959922720618,75.69061669615427
8.120000000000001,0.9999959738234453,75.56732694025021
8.128,0.9999959563237905,75.44398317849527
8.136,0.9999959397662223,75.3205854064295
8.144,0.9999959241436972,75.19713361985382
8.152000000000001,0.9999959094490064,75.07362781483063
8.16,0.9999958956747775,74.95006798768445
8.168,0.9999958828134777,74.82645413500248
8.176,0.9999958708574156,74.70278625363521
8.184000000000001,0.9999958597987431,74.57906434069722
8.192,0.9999958496294588,74.45528839356761
8.2,0.9999958403414085,74.33145840989071
8.208,0.9999958319262907,74.20757438757661
8.216000000000001,0.9999958243756549,74.08363632480194
8.224,0.9999958176809071,73.9596442200104
8.232,0.9999958118333102,73.83559807191328
8.24,0.9999958068239879,73.71149787949022
8.248000000000001,0.9999958026439253,73.58734364198978
8.256,0.9999957992839725,73.46313535893006
8.264,0.9999957967348462,73.33887303009928
8.272,0.9999957949871323,73.21455665555632
8.280000000000001,0.999995794031288,73.09018623563155
8.288,0.9999957938576446,72.96576177092723
8.296,0.9999957944564093,72.84128326231819
8.304,0.9999957958176666,72.71675071095238
8.312,0.9999957979313833,72.59216411825166
8.32,0.9999958007874077,72.46752348591208
8.328,0.9999958043754733,72.34282881590485
8.336,0.9999958086852021,72.21808011047658
8.344,0.9999958137061046,72.09327737215023
8.352,0.9999958194275835,71.96842060372532
8.36,0.9999958258389364,71.84350980827895
8.368,0.9999958329293566,71.71854498916598
8.376,0.9999958406879361,71.59352615001994
8.384,0.999995849103669,71.46845329475342
8.392,0.9999958581654511,71.3433264275588
8.4,0.9999958678620847,71.21814555290867
8.408,0.9999958781822794,71.09291067555664
8.416,0.9999958891146554,70.96762180053764
8.424,0.9999959006477445,70.84227893316884
8.432,0.9999959127699932,70.7168820790499
8.44,0.9999959254697649,70.59143124406377
8.448,0.9999959387353415,70.46592643437712
8.456,0.9999959525549266,70.34036765644112
8.464,0.9999959669166468,70.21475491699172
8.472,0.9999959818085541,70.08908822305057
8.48,0.9999959972186295,69.96336758192517
8.488,0.9999960131347826,69.8375930012099
8.496,0.9999960295448561,69.71176448878619
8.504,0.999996046436627,69.58588205282335
8.512,0.9999960637978087,69.45994570177895
8.52,0.999996081616054,69.33395544439958
8.528,0.9999960998789561,69.20791128972117
8.536,0.9999961185740524,69.08181324706979
8.544,0.9999961376888242,68.95566132606193
8.552,0.9999961572107021,68.82945553660541
8.56,0.9999961771270653,68.70319588889953
8.568,0.9999961974252458,68.576882393436
8.576,0.9999962180925286,68.45051506099914
8.584,0.9999962391161563,68.32409390266675
8.592,0.9999962604833291,68.19761892981036
8.6,0.9999962821812084,68.07109015409603
8.608,0.9999963041969179,67.94450758748467
8.616,0.9999963265175456,67.81787124223274
8.624,0.9999963491301481,67.69118113089266
8.632,0.9999963720217501,67.56443726631352
8.64,0.9999963951793477,67.43763966164133
8.648,0.999996418589911,67.31078833031987
8.656,0.9999964422403846,67.18388328609093
8.664,0.999996466117692,67.05692454299513
8.672,0.9999964902087354,66.92991211537209
8.68,0.9999965145004002,66.80284601786131
8.688,0.9999965389795539,66.67572626540242
8.696,0.9999965636330516,66.5485528732358
8.704,0.9999965884477363,66.42132585690312
8.712,0.9999966134104411,66.29404523224785
8.72,0.9999966385079911,66.16671101541564
8.728,0.9999966637272064,66.03932322285506
8.736,0.9999966890549031,65.91188187131783
8.744,0.9999967144778962,65.78438697785964
8.752,0.9999967399830011,65.65683855984027
8.76,0.999996765557036,65.52923663492447
8.768,0.9999967911868232,65.40158122108217
8.776,0.9999968168591927,65.27387233658918
8.784,0.9999968425609828,65.14611000002746
8.792,0.9999968682790421,65.01829423028585
8.8,0.9999968940002328,64.89042504656032
8.808,0.9999969197114318,64.76250246835471
8.815999999999999,0.9999969453995325,64.63452651548099
8.824,0.9999969710514469,64.50649720805976
8.832,0.9999969966541087,64.37841456652089
8.84,0.9999970221944735,64.2502786116039
8.847999999999999,0.9999970476595225,64.12208936435832
8.856,0.9999970730362636,63.99384684614433
8.864,0.9999970983117323,63.86555107863311
8.872,0.9999971234729965,63.73720208380743
8.879999999999999,0.9999971485071558,63.60879988396196
8.888,0.9999971734013446,63.48034450170374
8.896,0.9999971981427339,63.35183595995282
8.904,0.9999972227185332,63.22327428194255
8.911999999999999,0.9999972471159924,63.09465949122
8.92,0.9999972713224041,62.96599161164645
8.928,0.9999972953251044,62.837270667397995
8.936,0.9999973191114765,62.70849668296574
8.943999999999999,0.9999973426689515,62.579669683156354
8.952,0.9999973659850097,62.450789693092496
8.96,0.9999973890471843,62.321856738213256
8.968,0.9999974118430619,62.19287084427464
8.975999999999999,0.9999974343602841,62.06383203734985
8.984,0.9999974565865515,61.93474034382979
8.992,0.9999974785096223,61.80559579042353
9.0,0.9999975001173169,61.67639840415877
9.008,0.999997521397519,61.547148212382005
9.016,0.9999975423381766,61.417845242759206
9.024000000000001,0.9999975629273045,61.28848952327611
9.032,0.9999975831529863,61.15908108223869
9.04,0.9999976030033757,61.029619948273435
9.048,0.9999976224666989,60.900106150327886
9.056000000000001,0.9999976415312555,60.770539717670964
9.064,0.9999976601854216,60.64092067989344
9.072,0.9999976784176502,60.511249066908185
9.08,0.999997696216474,60.38152490895065
9.088000000000001,0.9999977135705064,60.25174823657928
9.096,0.9999977304684441,60.12191908067592
9.104,0.9999977468990682,59.99203747244603
9.112,0.9999977628512458,59.86210344341915
9.120000000000001,0.9999977783139323,59.73211702544941
9.128,0.9999977932761732,59.60207825071575
9.136,0.9999978077271049,59.47198715172225
9.144,0.9999978216559577,59.3418437612986
9.152000000000001,0.9999978350520561,59.211648112600386
9.16,0.9999978479048217,59.08140023910961
9.168,0.999997860203774,58.9511001746348
9.176,0.9999978719385332,58.820747953311425
9.184000000000001,0.99999788309882,58.69034360960246
9.192,0.9999978936744595,58.559887178298496
9.2,0.9999979036553807,58.42937869451811
9.208,0.99999791303162,58.29881819370821
9.216000000000001,0.999997921793322,58.16820571164451
9.224,0.9999979299307403,58.03754128443174
9.232,0.9999979374342408,57.90682494850391
9.24,0.999997944294302,57.776056740624696
9.248000000000001,0.9999979505015172,57.64523669788786
9.256,0.999997956046596,57.514364857717474
9.264,0.9999979609203653,57.38344125786815
9.272,0.9999979651137721,57.25246593642548
9.280000000000001,0.999997968617884,57.121438931806345
9.288,0.9999979714238912,56.990360282759134
9.296,0.9999979735231075,56.85923002836408
9.304,0.9999979749069726,56.728048208033535
9.312000000000001,0.9999979755670538,56.596814861512314
9.32,0.9999979754950455,56.465530028878
9.328,0.9999979746827742,56.33419375054108
9.336,0.999997973122196,56.20280606724536
9.344,0.9999979708054018,56.07136702006831
9.352,0.9999979677246158,55.93987665042105
9.36,0.9999979638721987,55.80833500004898
9.368,0.9999979592406492,55.67674211103176
9.376,0.9999979538226037,55.54509802578377
9.384,0.9999979476108402,55.4134027870542
9.392,0.999997940598278,55.28165643792748
9.4,0.9999979327779791,55.14985902182335
9.408,0.999997924143151,55.018010582497304
9.416,0.9999979146871473,54.88611116404058
9.424,0.9999979044034678,54.754160810880684
9.432,0.999997893285762,54.62215956778142
9.44,0.9999978813278296,54.49010747984321
9.448,0.9999978685236222,54.35800459250329
9.456,0.9999978548672429,54.22585095153595
9.464,0.9999978403529503,54.09364660305274
9.472,0.9999978249751581,53.96139159350277
9.48,0.9999978087284371,53.82908596967272
9.488,0.9999977916075158,53.69672977868729
9.496,0.9999977736072828,53.56432306800921
9.504,0.9999977547227867,53.43186588543959
9.512,0.9999977349492396,53.29935827911799
9.52,0.999997714282016,53.166800297522705
9.528,0.9999976927166543,53.034191989470905
9.536,0.9999976702488601,52.90153340411888
9.544,0.9999976468745055,52.76882459096203
9.552,0.9999976225896309,52.636065599835376
9.56,0.9999975973904469,52.50325648091336
9.568,0.9999975712733338,52.37039728471035
9.576,0.9999975442348451,52.2374880620805
9.584,0.9999975162717066,52.104528864218146
9.592,0.999997487380819,51.97151974265785
9.6,0.9999974575592583,51.83846074927455
9.608,0.9999974268042776,51.705351936283705
9.616,0.9999973951133074,51.57219335624155
9.624,0.9999973624839579,51.438985062045
9.632,0.9999973289140188,51.30572710693209
9.64,0.9999972944014613,51.17241954448176
9.648,0.9999972589444396,51.03906242861434
9.656,0.9999972225412908,50.90565581359132
9.664,0.9999971851905365,50.772199754015816
9.672,0.9999971468908854,50.638694304832306
9.68,0.9999971076412312,50.505139521327116
9.688,0.9999970674406568,50.371535459128204
9.696,0.9999970262884337,50.2378821742055
9.704,0.999996984184023,50.10417972287081
9.712,0.9999969411270777,49.970428161778095
9.72,0.9999968971174426,49.8366275479233
9.728,0.9999968521551551,49.702777938644786
9.736,0.9999968062404475,49.568879391623035
9.744,0.9999967593737471,49.43493196488104
9.752,0.9999967115556772,49.300935716784075
9.76,0.9999966627870581,49.16689070604009
9.768,0.9999966130689086,49.032796991699456
9.776,0.9999965624024473,48.89865463315522
9.784,0.9999965107890916,48.76446369014304
9.792,0.9999964582304605,48.63022422274138
9.8,0.9999964047283753,48.495936291371315
9.808,0.9999963502848601,48.36159995679683
9.816,0.9999962949021428,48.227215280124604
9.824,0.9999962385826563,48.09278232280427
9.832,0.9999961813290392,47.95830114662823
9.84,0.9999961231441368,47.82377181373183
9.847999999999999,0.9999960640310023,47.68919438659327
9.856,0.9999960039928966,47.55456892803361
9.864,0.9999959430332903,47.41989550121688
9.872,0.9999958811558647,47.28517416964999
9.879999999999999,0.9999958183645117,47.150404997182754
9.888,0.9999957546633356,47.01558804800776
9.896,0.9999956900566536,46.88072338666059
9.904,0.9999956245489958,46.745811078019656
9.911999999999999,0.999995558145108,46.61085118730611
9.92,0.9999954908499508,46.47584378008389
9.928,0.999995422668701,46.34078892225976
