freq,mag,phase
6.0,0.9999839094658719,-149.8816088304613
6.008,0.9999808144157778,-150.34403318631988
6.016,0.9999778650849476,-150.8062668830859
6.024,0.9999750583550141,-151.26831012333602
6.032,0.9999723911409243,-151.73016312720276
6.04,0.9999698603909394,-152.19182613223154
6.048,0.9999674630866267,-152.65329939323772
6.056,0.9999651962428493,-153.11458318216347
6.064,0.9999630569077471,-153.57567778793387
6.072,0.9999610421627145,-154.0365835163131
6.08,0.9999591491223722,-154.49730068976007
6.088,0.9999573749345322,-154.95782964728414
6.096,0.9999557167801617,-155.4181707443003
6.104,0.9999541718733352,-155.8783243524844
6.112,0.9999527374611891,-156.3382908596279
6.12,0.9999514108238658,-156.79807066949286
6.128,0.9999501892744561,-157.25766420166656
6.136,0.9999490701589338,-157.717071891416
6.144,0.9999480508560884,-158.17629418954232
6.152,0.9999471287774544,-158.6353315622354
6.16,0.9999463013672271,-159.09418449092794
6.168,0.9999455661021918,-159.55285347214996
6.176,0.9999449204916232,-160.01133901738314
6.184,0.9999443620772093,-160.46964165291496
6.192,0.9999438884329428,-160.92776191969332
6.2,0.9999434971650348,-161.38570037318073
6.208,0.9999431859118004,-161.84345758320896
6.216,0.9999429523435608,-162.3010341338335
6.224,0.9999427941625256,-162.75843062318825
6.232,0.9999427091026818,-163.21564766334038
6.24,0.9999426949296714,-163.67268588014528
6.248,0.999942749440674,-164.1295459131015
6.256,0.9999428704642777,-164.58622841520622
6.264,0.9999430558603486,-165.0427340528106
6.272,0.9999433035199013,-165.49906350547548
6.28,0.9999436113649599,-165.9552174658271
6.288,0.9999439773484181,-166.41119663941362
6.296,0.9999443994538993,-166.8670017445611
6.304,0.9999448756956069,-167.3226335122302
6.312,0.9999454041181771,-167.77809268587333
6.32,0.9999459827965274,-168.23338002129165
6.328,0.9999466098357002,-168.6884962864926
6.336,0.999947283370705,-169.14344226154785
6.344,0.999948001566359,-169.59821873845127
6.352,0.9999487626171206,-170.05282652097773
6.36,0.9999495647469289,-170.50726642454168
6.368,0.9999504062090272,-170.9615392760566
6.376,0.9999512852857996,-171.41564591379458
6.384,0.999952200288592,-171.86958718724625
6.392,0.9999531495575391,-172.3233639569812
6.4,0.999954131461383,-172.7769770945091
6.408,0.9999551443972979,-173.23042748214053
6.416,0.9999561867907001,-173.68371601284903
6.424,0.9999572570950688,-174.13684359013308
6.432,0.9999583537917585,-174.58981112787868
6.44,0.9999594753898069,-175.04261955022253
6.448,0.9999606204257491,-175.49526979141547
6.456,0.9999617874634186,-175.94776279568666
6.464,0.9999629750937591,-176.40009951710778
6.472,0.9999641819346236,-176.85228091945845
6.48,0.9999654066305814,-177.30430797609145
6.4879999999999995,0.9999666478527122,-177.75618166979882
6.496,0.9999679042984112,-178.20790299267867
6.504,0.999969174691183,-178.65947294600167
6.5120000000000005,0.9999704577804387,-179.11089254007962
6.52,0.9999717523412919,-179.5621627941326
6.5280000000000005,0.999973057174349,179.98671526384152
6.536,0.9999743711055044,179.53574059719833
6.5440000000000005,0.9999756929857297,179.0849121607765
6.552,0.9999770216908642,178.63422890102797
6.5600000000000005,0.9999783561214024,178.18368975614635
6.568,0.9999796952022835,177.733293656196
6.5760000000000005,0.9999810378826766,177.28303952323907
6.584,0.9999823831357662,176.83292627146375
6.592,0.9999837299585389,176.3829528073099
6.6,0.9999850773715644,175.93311802959585
6.608,0.9999864244187815,175.48342082964353
6.616,0.9999877701672787,175.03386009140345
6.624,0.9999891137070762,174.5844346915788
6.632,0.9999904541509084,174.1351434997492
6.64,0.9999917906340019,173.68598537849365
6.648,0.9999931223138576,173.23695918351294
6.656,0.999994448370029,172.78806376375138
6.664,0.9999957680039017,172.33929796151796
6.672,0.9999970804384719,171.89066061260678
6.68,0.9999983849181235,171.44215054641705
6.688,0.9999996807084076,170.99376658607224
6.696,1.0,170.5455075485387
6.704,1.0,170.09737224474355
6.712,1.0,169.64935947969218
6.72,1.0,169.20146805258477
6.728,1.0,168.75369675693236
6.736,1.0,168.30604438067226
6.744,0.9999999999999999,167.85850970628283
6.752,1.0,167.4110915108975
6.76,1.0,166.96378856641832
6.768,0.9999999999999999,166.51659963962865
6.776,1.0,166.06952349230554
6.784,1.0000000000000002,165.62255888133092
6.792,0.9999999999999999,165.17570455880272
6.8,1.0,164.72895927214495
6.808,0.9999999999999999,164.28232176421736
6.816,0.9999999999999999,163.83579077342435
6.824,0.9999999999999999,163.38936503382305
6.832,0.9999999999999999,162.9430432752313
6.84,1.0,162.49682422333427
6.848,0.9999999999999999,162.05070659979106
6.856,1.0,161.60468912234018
6.864,0.9999999999999999,161.15877050490474
6.872,1.0,160.71294945769688
6.88,1.0,160.26722468732132
6.888,1.0,159.8215948968787
6.896,1.0,159.37605878606806
6.904,1.0,158.9306150512884
6.912,0.9999999999999999,158.48526238574033
6.92,1.0,158.0399994795263
6.928,1.0,157.5948250197507
6.936,1.0,157.1497376906191
6.944,1.0,156.70473617353716
6.952,1.0,156.25981914720836
6.96,1.0,155.81498528773164
6.968,1.0,155.3702332686983
6.976,0.9999999999999999,154.92556176128795
6.984,1.0,154.4809694343644
6.992,1.0,154.03645495457042
7.0,1.0,153.59201698642218
7.008,1.0,153.14765419240297
7.016,1.0,152.7033652330565
7.024,1.0,152.2591487670792
7.032,0.9999999999999999,151.8150034514125
7.04,1.0,151.3709279413338
7.048,0.9999999999999999,150.92692089054756
7.056,0.9999999999999999,150.48298095127532
7.064,1.0,150.03910677434538
7.072,1.0,149.59529700928167
7.08,0.9999999999999998,149.1515503043922
7.088,1.0,148.7078653068571
7.096,1.0,148.2642406628156
7.104,0.9999999999999999,147.82067501745306
7.112,0.9999999999999999,147.37716701508674
7.12,1.0,146.93371529925162
7.128,1.0,146.49031851278542
7.136,0.9999999999999999,146.04697529791298
7.144,1.0000000000000002,145.6036842963301
7.152,0.9999999999999999,145.16044414928695
7.16,1.0,144.71725349767104
7.168,1.0,144.27411098208927
7.176,1.0,143.83101524294966
7.184,0.9999999999999999,143.38796492054286
7.192,1.0,142.94495865512226
7.2,1.0000000000000002,142.50199508698475
7.208,1.0,142.05907285654993
7.216,1.0,141.61619060443925
7.224,1.0,141.1733469715548
7.232,0.9999999999999999,140.73054059915722
7.24,1.0,140.28777012894318
7.248,1.0,139.84503420312276
7.256,1.0,139.40233146449566
7.264,0.9999999999999999,138.95966055652747
7.272,1.0,138.51702012342525
7.28,0.9999999999999999,138.0744088102125
7.288,0.9999999999999999,137.63182526280386
7.296,0.9999999999999999,137.18926812807928
7.304,1.0,136.74673605395756
7.312,0.9999999999999998,136.3042276894696
7.32,0.9999999999999999,135.861741684831
7.328,1.0,135.41927669151457
7.336,1.0,134.9768313623218
7.344,0.9999999999999999,134.5344043514545
7.352,1.0,134.0919943145854
7.36,0.9999999999999999,133.64959990892876
7.368,1.0,133.20721979331034
7.376,1.0,132.7648526282369
7.384,1.0,132.32249707596532
7.392,0.9999999999999999,131.88015180057144
7.4,1.0,131.43781546801804
7.4079999999999995,1.0,130.9954867462229
7.416,0.9999999999999999,130.55316430512593
7.4239999999999995,0.9999999999999999,130.1108468167568
7.432,1.0,129.6685329553006
7.4399999999999995,1.0,129.22622139716495
7.448,0.9999999999999999,128.78391082104474
7.4559999999999995,0.9999999999999999,128.34159990798875
7.464,1.0,127.89928734146335
7.4719999999999995,1.0,127.45697180741814
7.48,0.9999999999999999,127.01465199434934
7.4879999999999995,1.0,126.57232659336411
7.496,1.0,126.12999429824356
7.504,0.9999999999999999,125.68765380550639
7.5120000000000005,1.0,125.24530381447065
7.52,0.9999999999999999,124.80294302731708
7.5280000000000005,1.0,124.36057014915002
7.536,1.0,123.91818388805981
7.5440000000000005,0.9999999999999999,123.4757829551834
7.552,1.0,123.03336606476562
7.5600000000000005,1.0,122.59093193421916
7.568,1.0,122.14847928418538
7.5760000000000005,0.9999999999999999,121.70600683859337
7.584,1.0,121.26351332472004
7.5920000000000005,1.0,120.82099747324858
7.6,0.9999999999999999,120.37845801832803
7.6080000000000005,0.9999999999999999,119.93589369763076
7.616,1.0,119.49330325241142
7.6240000000000006,1.0,119.05068542756409
7.632,1.0,118.60803897168024
7.640000000000001,1.0,118.16536263710523
7.648,0.9999999999999999,117.72265517999591
7.656000000000001,0.9999999999999999,117.27991536037624
7.664,1.0,116.83714194219424
7.672,1.0,116.39433369337725
7.68,1.0,115.9514893858879
7.688,1.0,115.50860779577911
7.696,0.9999999999999999,115.06568770324922
7.704,0.9999999999999999,114.62272789269647
7.712,1.0,114.17972715277351
7.72,0.9999999999999999,113.73668427644128
7.728,1.0,113.29359806102303
7.736,0.9999999999999999,112.85046730825754
7.744,0.9999999999999999,112.40729082435244
7.752,1.0,111.96406742003717
7.76,1.0,111.52079591061545
7.768,1.0,111.07747511601782
7.776,0.9999999999999999,110.63410386085357
7.784,1.0,110.19068097446254
7.792,0.9999999999999999,109.74720529096675
7.8,1.0,109.30367564932153
7.808,1.0,108.86009089336662
7.816,1.0,108.41644987187676
7.824,0.9999999999999999,107.97275143861226
7.832,0.9999999999999999,107.52899445236919
7.84,0.9999994414519583,107.08517777702914
7.848,0.9999986541758404,106.64130028160913
7.856,0.9999978705586162,106.19736084031086
7.864,0.9999970909036053,105.75335833256993
7.872,0.999996315511256,105.30929164310476
7.88,0.999995544679075,104.86515966196515
7.888,0.9999947787015615,104.42096128458083
7.896,0.9999940178701412,103.97669541180949
7.904,0.9999932624731018,103.53236094998472
7.912,0.9999925127955296,103.08795681096368
7.92,0.9999917691192476,102.64348191217455
7.928,0.9999910317227562,102.19893517666358
7.936,0.9999903008811726,101.75431553314213
7.944,0.9999895768661734,101.30962191603335
7.952,0.9999888599459381,100.8648532655185
7.96,0.999988150385094,100.42000852758332
7.968,0.9999874484446619,99.97508665406386
7.976,0.9999867543820035,99.53008660269228
7.984,0.9999860684507701,99.08500733714233
7.992,0.9999853909008524,98.63984782707456
8.0,0.9999847219783321,98.1946070481814
8.008,0.9999840619254333,97.74928398223192
8.016,0.9999834109804773,97.30387761711621
8.024000000000001,0.9999827693778374,96.85838694689008
8.032,0.9999821373478949,96.41281097181891
8.04,0.9999815151169966,95.96714869842128
8.048,0.9999809029074137,95.52139913951282
8.056000000000001,0.999980300937303,95.07556131424978
8.064,0.9999797094206656,94.62963424817193
8.072,0.9999791285673124,94.18361697324535
8.08,0.9999785585828256,93.73750852790528
8.088000000000001,0.999977999668526,93.29130795709875
8.096,0.9999774520214377,92.84501431232664
8.104,0.9999769158342559,92.39862665168548
8.112,0.9999763912953155,91.95214403990933
8.120000000000001,0.9999758785885622,91.50556554841157
8.128,0.9999753778935239,91.05889025532598
8.136,0.9999748893852806,90.61211724554761
8.144,0.999974413234441,90.16524561077374
8.152000000000001,0.9999739496071163,89.71827444954474
8.16,0.9999734986648962,89.2712028672842
8.168,0.9999730605648263,88.82402997633886
8.176,0.9999726354593871,88.37675489601868
8.184000000000001,0.9999722234964727,87.92937675263667
8.192,0.9999718248193729,87.48189467954815
8.2,0.9999714395667545,87.03430781718971
8.208,0.9999710678726447,86.5866153131183
8.216000000000001,0.9999707098664166,86.13881632205016
8.224,0.9999703656727731,85.69091000589911
8.232,0.9999700354117356,85.24289553381448
8.24,0.9999697191986295,84.79477208221931
8.248000000000001,0.9999694171440762,84.34653883484832
8.256,0.9999691293539824,83.89819498278511
8.264,0.9999688559295296,83.44973972449928
8.272,0.9999685969671699,83.00117226588354
8.280000000000001,0.9999683525586175,82.55249182029064
8.288,0.9999681227908446,82.10369760856976
8.296,0.9999679077460761,81.65478885910237
8.304,0.9999677075017899,81.20576480783855
8.312,0.9999675221307102,80.75662469833297
8.32,0.999967351700812,80.30736778177959
8.328,0.9999671962753178,79.85799331704774
8.336,0.9999670559127019,79.40850057071624
8.344,0.9999669306666903,78.95888881710886
8.352,0.9999668205862678,78.50915733832794
8.36,0.999966725715679,78.05930542428932
8.368,0.9999666460944382,77.6093323727555
8.376,0.9999665817573337,77.15923748936993
8.384,0.9999665327344369,76.70902008768958
8.392,0.9999664990511109,76.25867948921886
8.4,0.999966480728022,75.8082150234415
8.408,0.9999664777811488,75.35762602785394
8.416,0.9999664902217974,74.90691184799667
8.424,0.999966518056612,74.456071837487
8.432,0.9999665612875909,74.00510535804989
8.44,0.9999666199121011,73.55401177955007
8.448,0.9999666939228956,73.10279048002243
8.456,0.99996678330813,72.65144084570339
8.464,0.9999668880513812,72.19996227106073
8.472,0.9999670081316674,71.7483541588244
8.48,0.9999671435234673,71.2966159200158
8.488,0.9999672941967429,70.84474697397786
8.496,0.9999674601169612,70.39274674840377
8.504,0.9999676412451179,69.94061467936646
8.512,0.9999678375377604,69.48835021134657
8.52,0.999968048947016,69.03595279726152
8.528,0.9999682754206145,68.58342189849265
8.536,0.9999685169019183,68.13075698491366
8.544,0.9999687733299498,67.6779575349173
8.552,0.999969044639419,67.22502303544285
8.56,0.9999693307607554,66.77195298200232
8.568,0.9999696316201376,66.31874687870732
8.576,0.9999699471395253,65.86540423829435
8.584,0.9999702772366927,65.41192458215123
8.592,0.9999706218252616,64.95830744034157
8.6,0.9999709808147356,64.50455235163055
8.608,0.9999713541105346,64.05065886350857
8.616,0.9999717416140336,63.59662653221647
8.624,0.9999721432225966,63.14245492276839
8.632,0.9999725588296166,62.68814360897624
8.64,0.9999729883245531,62.233692173471894
8.648,0.999973431592973,61.77910020773085
8.656,0.9999738885165886,61.32436731209365
8.664,0.9999743589733011,60.86949309578892
8.672,0.9999748428372411,60.41447717695392
8.68,0.9999753399788125,59.95931918265676
8.688,0.999975850264734,59.50401874891629
8.696,0.9999763735580857,59.04857552072343
8.704,0.9999769097183527,58.59298915206042
8.712,0.9999774586014712,58.137259305921106
8.72,0.9999780200598745,57.68138565432957
8.728,0.999978593942542,57.22536787835956
8.736,0.9999791800950447,56.7692056681522
8.744,0.9999797783595957,56.3128987229347
8.752,0.9999803885750986,55.85644675103716
8.76,0.9999810105771987,55.39984946991042
8.768,0.9999816441983316,54.94310660614207
8.776,0.999982289267777,54.48621789547337
8.784,0.9999829456117091,54.02918308281437
8.792,0.9999836130532499,53.572001922259986
8.8,0.999984291412523,53.114674177104256
8.808,0.999984980506706,52.657199619855454
8.815999999999999,0.9999856801500875,52.19957803224947
8.824,0.999986390154119,51.74180920526372
8.832,0.9999871103274741,51.2838929391303
8.84,0.9999878404761025,50.825829043348534
8.847999999999999,0.9999885804032872,50.36761733669678
8.856,0.999989329909703,49.90925764724442
8.864,0.9999900887934735,49.450749812363135
8.872,0.9999908568502295,48.992093678737454
8.879999999999999,0.999991633873169,48.53328910237473
8.888,0.9999924196531158,48.07433594861506
8.896,0.9999932139785797,47.615234092140625
8.904,0.9999940166358171,47.15598341698432
8.911999999999999,0.9999948274088925,46.69658381653757
8.92,0.9999956460797387,46.23703519355838
8.928,0.9999964724282192,45.77733746017858
8.936,0.9999973062321922,45.31749053791029
8.943999999999999,0.9999981472675694,44.85749435765185
8.952,0.9999989953083831,44.39734885969359
8.96,0.999999850126847,43.937053993723076
8.968,1.0,43.476609718829415
8.975999999999999,1.0000000000000002,43.016016003507055
8.984,1.0,42.55527282565935
8.992,0.9999999999999999,42.09438017260165
9.0,1.0,41.63333804106346
9.008,1.0,41.17214643718987
9.016,1.0,40.710805376543114
9.024000000000001,0.9999999999999999,40.249314884103235
9.032,1.0,39.787674994267995
9.04,1.0,39.325885750852194
9.048,1.0,38.86394720708668
9.056000000000001,1.0,38.40185942561686
9.064,1.0,37.939622478500304
9.072,1.0,37.477236447203595
9.08,0.9999999999999999,37.01470142259903
9.088000000000001,1.0,36.55201750496083
9.096,1.0,36.08918480396024
9.104,1.0,35.626203438659964
9.112,1.0,35.16307353750864
9.120000000000001,1.0,34.699795238334254
9.128,1.0,34.236368688337166
9.136,1.0,33.77279404408179
9.144,1.0,33.30907147148868
9.152000000000001,0.9999999999999999,32.84520114582553
9.16,0.9999999999999999,32.3811832516975
9.168,1.0,31.91701798303657
9.176,0.9999999999999998,31.452705543090868
9.184000000000001,1.0,30.98824614441337
9.192,1.0,30.523640008849316
9.2,1.0,30.058887367523297
9.208,1.0,29.59398846082582
9.216000000000001,1.0,29.128943538399387
9.224,0.9999999999999999,28.663752859123377
9.232,0.9999999999999999,28.198416691098377
9.24,1.0,27.732935311630172
9.248000000000001,1.0000000000000002,27.26730900721315
9.256,1.0,26.80153807351248
9.264,1.0,26.335622815345783
9.272,1.0,25.8695635466644
9.280000000000001,0.9999999999999999,25.40336059053407
9.288,1.0,24.93701427911443
9.296,0.9999999999999999,24.47052495363791
9.304,0.9999999999999999,24.003892964388257
9.312000000000001,1.0,23.537118670678485
9.32,1.0,23.070202440827607
9.328,0.9999999999999998,22.603144652136674
9.336,0.9999999999999999,22.13594569086466
9.344,1.0,21.668605952203578
9.352,1.0,21.201125840251965
9.36,0.9999999999999999,20.733505767989133
9.368,0.9999999999999999,20.265746157247193
9.376,1.0,19.797847438683867
9.384,1.0,19.32981005175298
9.392,1.0,18.86163444467601
9.4,0.9999999999999999,18.393321074411038
9.408,0.9999999999999999,17.924870406622905
9.416,0.9999999999999999,17.456282915650746
9.424,1.0,16.987559084476633
9.432,1.0,16.518699404691812
9.44,0.9999999999999999,16.04970437646377
9.448,1.0,15.580574508501014
9.456,1.0,15.111310318018832
9.464,0.9999999999999999,14.64191233070251
9.472,1.0,14.172381080671634
9.48,1.0,13.702717110441943
9.488,1.0,13.23292097088811
9.496,1.0,12.762993221204114
9.504,1.0,12.292934428864678
9.512,0.9999999999999999,11.822745169584087
9.52,1.0,11.352426027276138
9.528,0.9999999999999999,10.881977594011644
9.536,1.0,10.411400469976796
9.544,1.0,9.940695263429282
9.552,1.0,9.46986259065513
9.56,0.9999999999999998,8.998903075923428
9.568,1.0,8.527817351441715
9.576,0.9999999999999999,8.05660605730917
9.584,1.0,7.585269841470669
9.592,1.0,7.113809359668429
9.6,1.0,6.642225275394621
9.608,0.9999999999999998,6.170518259841603
9.616,0.9999999999999999,5.6986889918531025
9.624,0.9999999999999998,5.226738157872955
9.632,0.9999999999999999,4.7546664518948685
9.64,0.9999999999999999,4.282474575409744
9.648,0.9999999999999999,3.8101632373539593
9.656,0.9999999999999998,3.337733154055294
9.664,1.0,2.8651850491798023
9.672,1.0,2.3925196536762776
9.68,1.0,1.9197377057217089
9.688,1.0,1.4468399506643315
9.696,0.9999999999999999,0.9738271409677043
9.704,0.9999999999999999,0.5007000361523294
9.712,1.0,0.027459402738292307
9.72,1.0,-0.4458939858144237
9.728,0.9999999999999999,-0.9193593491647665
9.736,0.9999999999999999,-1.3929359001516837
9.744,1.0,-1.8666228448542668
9.752,0.9999999999999999,-2.3404193826542503
9.76,1.0,-2.814324706297512
9.768,0.9999999999999999,-3.2883380019579036
9.776,1.0,-3.7624584493001376
9.784,0.9999999999999999,-4.236685221544953
9.792,1.0,-4.7110174855333025
9.8,1.0,-5.185454401792922
9.808,0.9999999999999999,-5.659995124603781
9.816,0.9999999999999999,-6.134638802065969
9.824,0.9999999999999999,-6.60938457616649
9.832,1.0,-7.084231582848404
9.84,0.9999999999999999,-7.55917895207894
9.847999999999999,1.0,-8.034225807919784
9.856,0.9999999999999999,-8.509371268597008
9.864,0.9999999999999999,-8.984614446571657
9.872,1.0000000000000002,-9.459954448611482
9.879999999999999,1.0,-9.93539037586314
9.888,1.0,-10.410921323924745
9.896,0.9999999999999999,-10.886546382918938
9.904,1.0,-11.362264637566975
9.911999999999999,1.0,-11.83807516726342
9.92,1.0,-12.313977046151074
9.928,0.9999999999999999,-12.78996934319638
9.936,0.9999999999999999,-13.266051122265871
9.943999999999999,1.0,-13.742221442203238
9.952,0.9999999999999999,-14.218479356906466
9.96,0.9999999999999999,-14.694823915405582
9.968,0.9999999999999999,-15.171254161941345
9.975999999999999,1.0,-15.647769136044522
9.984,1.0,-16.124367872615203
9.992,1.0,-16.601049402002772
10.0,1.0,-17.07781275008672
10.008,1.0,-17.554656938357986
