freq,mag,phase
6.0,0.9999905314968758,-163.14440582109236
6.008,0.9999876641562017,-163.5135032102912
6.016,0.9999848897168572,-163.88242514605844
6.024,0.9999822064190357,-164.25117533104674
6.032,0.999979612524903,-164.6197574731016
6.04,0.9999771063184281,-164.98817528517802
6.048,0.9999746861052122,-165.35643248525912
6.056,0.99997235021232,-165.7245327962761
6.064,0.9999700969881066,-166.09247994603044
6.072,0.9999679248020537,-166.46027766711714
6.08,0.9999658320445926,-166.82792969685022
6.088,0.999963817126939,-167.19543977718922
6.096,0.999961878480925,-167.56281165466788
6.104,0.9999600145588249,-167.93004908032376
6.112,0.9999582238331914,-168.29715580963003
6.12,0.9999565047966834,-168.66413560242822
6.128,0.9999548559618995,-169.0309922228627
6.136,0.999953275861211,-169.39772943931658
6.144,0.9999517630465905,-169.76435102434903
6.152,0.999950316089451,-170.1308607546339
6.16,0.9999489335804719,-170.49726241089985
6.168,0.9999476141294406,-170.8635597778715
6.176,0.9999463563650779,-171.22975664421247
6.184,0.9999451589348775,-171.5958568024691
6.192,0.9999440205049455,-171.96186404901565
6.2,0.999942939759825,-172.32778218400085
6.208,0.999941915402344,-172.69361501129552
6.216,0.9999409461534444,-173.05936633844118
6.224,0.9999400307520225,-173.42503997660023
6.232,0.9999391679547657,-173.7906397405069
6.24,0.9999383565359905,-174.15616944841943
6.248,0.999937595287488,-174.52163292207302
6.256,0.9999368830183509,-174.88703398663452
6.264,0.9999362185548304,-175.2523764706572
6.272,0.9999356007401625,-175.61766420603723
6.28,0.9999350284344185,-175.98290102797077
6.288,0.9999345005143498,-176.34809077491198
6.296,0.9999340158732193,-176.71323728853199
6.304,0.9999335734206598,-177.07834441367888
6.312,0.9999331720825088,-177.44341599833814
6.32,0.9999328108006598,-177.8084558935944
6.328,0.9999324885329063,-178.17346795359342
6.336,0.9999322042527887,-178.53845603550542
6.344,0.9999319569494429,-178.9034239994884
6.352,0.9999317456274497,-179.2683757086532
6.36,0.9999315693066853,-179.633315029028
6.368,0.9999314270221678,-179.99824582952465
6.376,0.9999313178239116,179.63682801809534
6.384,0.9999312407767807,179.27190263925354
6.392,0.9999311949603396,178.90697415658718
6.4,0.9999311794687048,178.54203868998115
6.408,0.9999311934104057,178.17709235659922
6.416,0.9999312359082333,177.81213127091476
6.424,0.9999313060991025,177.44715154474176
6.432,0.9999314031339042,177.08214928726434
6.44,0.9999315261773685,176.71712060506673
6.448,0.9999316744079193,176.35206160216217
6.456,0.9999318470175389,175.98696838002223
6.464,0.9999320432116217,175.62183703760502
6.472,0.9999322622088432,175.25666367138373
6.48,0.9999325032410202,174.89144437537462
6.4879999999999995,0.9999327655529744,174.52617524116485
6.496,0.9999330484023939,174.16085235793983
6.504,0.9999333510597033,173.7954718125111
6.5120000000000005,0.9999336728079253,173.43002968934312
6.52,0.9999340129425534,173.0645220705809
6.5280000000000005,0.9999343707714161,172.69894503607648
6.536,0.9999347456145447,172.3332946634164
6.5440000000000005,0.9999351368040479,171.96756702794843
6.552,0.9999355436839782,171.60175820280855
6.5600000000000005,0.9999359656102065,171.23586425894766
6.568,0.9999364019502947,170.86988126515914
6.5760000000000005,0.9999368520833661,170.5038052881052
6.584,0.9999373153999844,170.1376323923448
6.592,0.9999377913020253,169.7713586403601
6.6,0.9999382792025565,169.4049800925847
6.608,0.9999387785257113,169.03849280743086
6.616,0.999939288706569,168.67189284131743
6.624,0.9999398091910345,168.30517624869802
6.632,0.9999403394357169,167.93833908208927
6.64,0.9999408789078097,167.57137739209972
6.648,0.9999414270849747,167.2042872274585
6.656,0.9999419834552248,166.8370646350451
6.664,0.9999425475168046,166.46970565991882
6.672,0.999943118778079,166.10220634534912
6.68,0.9999436967574156,165.73456273284614
6.688,0.999944280983072,165.36677086219197
6.696,0.9999448709930832,164.99882677147204
6.704,0.9999454663351505,164.6307264971075
6.712,0.999946066566528,164.26246607388777
6.72,0.9999466712539155,163.89404153500396
6.728,0.9999472799733463,163.52544891208282
6.736,0.9999478923100812,163.15668423522126
6.744,0.9999485078585006,162.78774353302177
6.752,0.9999491262219968,162.4186228326283
6.76,0.9999497470128682,162.0493181597631
6.768,0.9999503698522155,161.67982553876425
6.776,0.9999509943698374,161.31014099262404
6.784,0.9999516202041264,160.94026054302807
6.792,0.9999522470019667,160.57018021039548
6.8,0.9999528744186347,160.19989601391973
6.808,0.9999535021176945,159.82940397161062
6.816,0.9999541297709005,159.45870010033718
6.824,0.9999547570580998,159.08778041587158
6.832,0.9999553836671297,158.7166409329338
6.84,0.9999560092937234,158.34527766523792
6.848,0.9999566336414137,157.97368662553893
6.856,0.9999572564214341,157.60186382568114
6.864,0.9999578773526272,157.22980527664726
6.872,0.9999584961613486,156.8575069886092
6.88,0.9999591125813739,156.48496497097975
6.888,0.9999597263538058,156.11217523246555
6.896,0.9999603372269823,155.7391337811214
6.904,0.9999609449563867,155.36583662440609
6.912,0.9999615493045544,154.99227976923913
6.92,0.9999621500409861,154.61845922205939
6.928,0.9999627469420587,154.24437098888467
6.936,0.999963339790935,153.87001107537324
6.944,0.9999639283774782,153.4953754868864
6.952,0.9999645124981649,153.12046022855284
6.96,0.9999650919559994,152.74526130533468
6.968,0.9999656665604271,152.36977472209452
6.976,0.9999662361272524,151.99399648366492
6.984,0.999966800478553,151.61792259491898
6.992,0.9999673594425968,151.2415490608428
7.0,0.9999679128537616,150.86487188660968
7.008,0.9999684605524504,150.48788707765607
7.016,0.9999690023850132,150.1105906397594
7.024,0.9999695382036641,149.7329785791176
7.032,0.9999700678664042,149.35504690243067
7.04,0.9999705912369408,148.97679161698403
7.048,0.9999711081846098,148.5982087307339
7.056,0.9999716185842973,148.21929425239463
7.064,0.9999721223163632,147.8400441915281
7.072,0.9999726192665657,147.46045455863512
7.08,0.9999731093259824,147.08052136524893
7.088,0.999973592390939,146.7002406240309
7.096,0.9999740683629321,146.3196083488684
7.104,0.9999745371485569,145.93862055497465
7.112,0.9999749986594311,145.5572732589913
7.12,0.9999754528121262,145.17556247909272
7.128,0.9999758995280925,144.793484235093
7.136,0.9999763387335886,144.4110345485553
7.144,0.9999767703596099,144.0282094429033
7.152,0.9999771943418182,143.64500494353538
7.16,0.9999776106204729,143.26141707794113
7.168,0.9999780191403598,142.87744187582055
7.176,0.9999784198507248,142.49307536920537
7.184,0.9999788127052037,142.10831359258356
7.192,0.9999791976617551,141.72315258302598
7.2,0.9999795746825938,141.33758838031585
7.208,0.9999799437341236,140.95161702708108
7.216,0.9999803047868717,140.56523456892901
7.224,0.999980657815423,140.1784370545843
7.232,0.9999810027983543,139.7912205360293
7.24,0.9999813397181713,139.40358106864764
7.248,0.9999816685612434,139.01551471137034
7.256,0.9999819893177402,138.6270175268251
7.264,0.9999823019815682,138.23808558148855
7.272,0.9999826065503095,137.84871494584138
7.28,0.9999829030251586,137.45890169452662
7.288,0.99998319141086,137.06864190651106
7.296,0.9999834717156484,136.6779316652497
7.304,0.9999837439511878,136.28676705885354
7.312,0.9999840081325096,135.8951441802601
7.32,0.999984264277955,135.50305912740802
7.328,0.9999845124091139,135.11050800341414
7.336,0.9999847525507657,134.7174869167543
7.344,0.9999849847308222,134.32399198144753
7.352,0.9999852089802679,133.93001931724356
7.36,0.9999854253331033,133.53556504981364
7.368,0.9999856338262866,133.140625310945
7.376,0.9999858344996769,132.74519623873903
7.384,0.9999860273959784,132.34927397781243
7.392,0.9999862125606828,131.95285467950265
7.4,0.9999863900420152,131.55593450207635
7.4079999999999995,0.9999865598908765,131.15850961094208
7.416,0.99998672216079,130.76057617886602
7.4239999999999995,0.9999868769078465,130.36213038619246
7.432,0.9999870241906481,129.9631684210666
7.4399999999999995,0.9999871640702573,129.56368647966298
7.448,0.9999872966101409,129.16368076641595
7.4559999999999995,0.9999874218761161,128.76314749425552
7.464,0.9999875399363004,128.362082884846
7.4719999999999995,0.9999876508610569,127.9604831688296
7.48,0.999987754722941,127.55834458607302
7.4879999999999995,0.999987851596651,127.15566338591917
7.496,0.9999879415589744,126.7524358274418
7.504,0.9999880246887375,126.34865817970537
7.5120000000000005,0.9999881010667532,125.94432672202791
7.52,0.9999881707757713,125.53943774424933
7.5280000000000005,0.9999882339004273,125.13398754700248
7.536,0.9999882905271928,124.72797244198988
7.5440000000000005,0.9999883407443244,124.32138875226352
7.552,0.9999883846418167,123.91423281251001
7.5600000000000005,0.9999884223113485,123.50650096933884
7.568,0.9999884538462385,123.09818958157645
7.5760000000000005,0.9999884793413928,122.68929502056311
7.584,0.9999884988932589,122.27981367045587
7.5920000000000005,0.9999885125997754,121.86974192853415
7.6,0.9999885205603253,121.45907620551186
7.6080000000000005,0.9999885228756875,121.04781292585172
7.616,0.9999885196479904,120.6359485280863
7.6240000000000006,0.999988510980663,120.22347946514182
7.632,0.999988496978388,119.810402204668
7.640000000000001,0.9999884777470569,119.39671322937095
7.648,0.9999884533937214,118.98240903735247
7.656000000000001,0.9999884240265482,118.5674861424521
7.664,0.9999883897547719,118.15194107459558
7.672,0.9999883506886506,117.7357703801464
7.68,0.999988306939418,117.31897062226346
7.688,0.999988258619241,116.90153838126236
7.696,0.9999882058411715,116.48347025498205
7.704,0.9999881487191037,116.06476285915583
7.712,0.9999880873677275,115.64541282778752
7.72,0.9999880219024855,115.22541681353187
7.728,0.9999879524395272,114.80477148808026
7.736,0.9999878790956662,114.38347354255085
7.744,0.9999878019883359,113.9615196878837
7.752,0.9999877212355441,113.53890665524058
7.76,0.9999876369558325,113.11563119640964
7.768,0.9999875492682311,112.69169008421486
7.776,0.9999874582922147,112.26708011293042
7.784,0.9999873641476625,111.84179809869973
7.792,0.9999872669548132,111.41584087995942
7.8,0.9999871668342226,110.98920531786796
7.808,0.9999870639067228,110.56188829673938
7.816,0.999986958293377,110.13388672448141
7.824,0.9999868501154419,109.7051975330388
7.832,0.9999867394943219,109.27581767884112
7.84,0.9999866265515301,108.84574414325554
7.848,0.9999865114086448,108.41497393304428
7.856,0.9999863941872703,107.98350408082682
7.864,0.9999862750089958,107.55133164554681
7.872,0.9999861539953522,107.11845371294382
7.88,0.9999860312677745,106.68486739602963
7.888,0.9999859069475602,106.25056983556921
7.896,0.9999857811558276,105.81555820056649
7.904,0.999985654013479,105.37982968875451
7.912,0.999985525641158,104.94338152709045
7.92,0.9999853961592106,104.50621097225486
7.928,0.999985265687647,104.06831531115576
7.936,0.9999851343461015,103.62969186143692
7.944,0.9999850022537935,103.19033797199089
7.952,0.9999848695294882,102.75025102347608
7.96,0.9999847362914591,102.30942842883853
7.968,0.9999846026574489,101.86786763383778
7.976,0.9999844687446321,101.42556611757708
7.984,0.9999843346695754,100.9825213930378
7.992,0.9999842005482026,100.53873100761793
8.0,0.9999840664957543,100.09419254367481
8.008,0.999983932626753,99.64890361907186
8.016,0.9999837990549643,99.20286188772891
8.024000000000001,0.9999836658933613,98.75606504017733
8.032,0.9999835332540872,98.30851080411806
8.04,0.9999834012484206,97.86019694498363
8.048,0.9999832699867363,97.41112126650424
8.056000000000001,0.9999831395784731,96.96128161127734
8.064,0.9999830101320958,96.51067586134049
8.072,0.9999828817550609,96.05930193874752
8.08,0.9999827545537816,95.60715780614856
8.088000000000001,0.9999826286335922,95.15424146737324
8.096,0.9999825040987148,94.70055096801667
8.104,0.9999823810522248,94.24608439602866
8.112,0.9999822595960164,93.79083988230595
8.120000000000001,0.9999821398307691,93.33481560128766
8.128,0.9999820218559158,92.87800977155291
8.136,0.9999819057696072,92.42042065642109
8.144,0.999981791668682,91.96204656455511
8.152000000000001,0.9999816796486327,91.502885850567
8.16,0.999981569803574,91.04293691562546
8.168,0.9999814622262112,90.58219820806546
8.176,0.9999813570078092,90.12066822400041
8.184000000000001,0.9999812542381608,89.65834550793606
8.192,0.9999811540055568,89.19522865338591
8.2,0.999981056396755,88.73131630348814
8.208,0.9999809614969516,88.26660715162437
8.216000000000001,0.9999808693897501,87.80109994203991
8.224,0.9999807801571328,87.33479347046455
8.232,0.9999806938794327,86.86768658473454
8.24,0.9999806106353052,86.39977818541574
8.248000000000001,0.9999805305016983,85.93106722642746
8.256,0.9999804535538286,85.46155271566643
8.264,0.9999803798651513,84.99123371563104
8.272,0.9999803095073347,84.52010934404635
8.280000000000001,0.9999802425502339,84.04817877448883
8.288,0.9999801790618661,83.57544123701068
8.296,0.9999801191083842,83.10189601876372
8.304,0.9999800627540529,82.62754246462308
8.312,0.9999800100612247,82.15237997781023
8.32,0.999979961090315,81.67640802051407
8.328,0.9999799158997804,81.1996261145124
8.336,0.999979874546095,80.72203384179014
8.344,0.99997983708373,80.24363084515797
8.352,0.9999798035651297,79.76441682886723
8.36,0.999979774040692,79.28439155922456
8.368,0.9999797485587489,78.8035548652027
8.376,0.9999797271655448,78.32190663905023
8.384,0.9999797099052182,77.83944683689738
8.392,0.9999796968197838,77.35617547936008
8.4,0.9999796879491126,76.8720926521395
8.408,0.9999796833309164,76.38719850661981
8.416,0.9999796830007304,75.90149326046048
8.424,0.9999796869918965,75.41497719818649
8.432,0.9999796953355499,74.92765067177262
8.44,0.9999797080606014,74.43951410122509
8.448,0.999979725193726,73.95056797515674
8.456,0.9999797467593473,73.46081285135924
8.464,0.9999797727796271,72.97024935736798
8.472,0.9999798032744528,72.47887819102364
8.48,0.999979838261424,71.98670012102613
8.488,0.9999798777558447,71.49371598748424
8.496,0.9999799217707135,70.99992670245739
8.504,0.999979970316713,70.50533325049243
8.512,0.9999800234022026,70.00993668915208
8.52,0.9999800810332111,69.51373814953779
8.528,0.9999801432134304,69.01673883680358
8.536,0.9999802099442086,68.51894003066401
8.544,0.9999802812245463,68.02034308589222
8.552,0.9999803570510915,67.5209494328117
8.56,0.9999804374181372,67.02076057777762
8.568,0.9999805223176186,66.51977810365105
8.576,0.9999806117391109,66.01800367026244
8.584,0.9999807056698296,65.51543901486716
8.592,0.9999808040946291,65.0120859525898
8.6,0.999980906996006,64.50794637686008
8.608,0.9999810143540991,64.00302225983653
8.616,0.9999811261466933,63.497315652821555
8.624,0.999981242349222,62.99082868666362
8.632,0.9999813629347742,62.483563572149926
8.64,0.9999814878740975,61.975522600385865
8.648,0.999981617135606,61.46670814316437
8.656,0.9999817506853879,60.95712265332126
8.664,0.9999818884872129,60.44676866507997
8.672,0.9999820305025431,59.93564879438178
8.68,0.9999821766905419,59.42376573920457
8.688,0.9999823270080859,58.91112227986663
8.696,0.999982481409777,58.397721279318525
8.704,0.9999826398479565,57.883565683419064
8.712,0.9999828022727182,57.36865852119904
8.72,0.9999829686319246,56.85300290510838
8.728,0.9999831388712218,56.33660203125038
8.736,0.9999833129340586,55.819459179598915
8.744,0.999983490761703,55.30157771420205
8.752,0.999983672293262,54.78296108336809
8.76,0.9999838574657033,54.26361281983745
8.768,0.9999840462138736,53.74353654093636
8.776,0.9999842384705234,53.22273594871588
8.784,0.9999844341663289,52.7012148300722
8.792,0.9999846332299163,52.17897705685167
8.8,0.9999848355878885,51.65602658593652
8.808,0.9999850411648491,51.13236745931491
8.815999999999999,0.999985249883431,50.6080038041312
8.824,0.9999854616643247,50.08293983271929
8.832,0.9999856764263072,49.557179842617394
8.84,0.9999858940862714,49.03072821656358
8.847999999999999,0.9999861145592592,48.50358942247262
8.856,0.9999863377584928,47.97576801339399
8.864,0.9999865635954067,47.44726862745053
8.872,0.9999867919796831,46.9180959877571
8.879999999999999,0.9999870228192878,46.388254902319375
8.888,0.9999872560205034,45.85775026391309
8.896,0.9999874914879698,45.326587049943065
8.904,0.9999877291247193,44.794770322281416
8.911999999999999,0.9999879688322169,44.26230522708501
8.92,0.9999882105103991,43.72919699459268
8.928,0.9999884540577166,43.19545093890159
8.936,0.9999886993711726,42.6610724577217
8.943999999999999,0.9999889463463683,42.12606703210935
8.952,0.9999891948775441,41.59044022617943
8.96,0.9999894448576252,41.0541976867964
8.968,0.9999896961782659,40.51734514324276
8.975999999999999,0.9999899487298949,39.97988840686598
8.984,0.9999902024017626,39.441833370703776
8.992,0.9999904570819889,38.90318600908741
9.0,0.9999907126576102,38.36395237722229
9.008,0.9999909690146289,37.82413861074655
9.016,0.9999912260380635,37.28375092526746
9.024000000000001,0.9999914836119981,36.742795615875785
9.032,0.9999917416196339,36.20127905663713
9.04,0.9999919999433411,35.65920770006072
9.048,0.9999922584647104,35.116588076546314
9.056000000000001,0.9999925170646069,34.5734267938085
9.064,0.9999927756232245,34.02973053627805
9.072,0.999993034020137,33.48550606448064
9.08,0.9999932921343557,32.940760214393634
9.088000000000001,0.9999935498443843,32.395499896780336
9.096,0.9999938070282728,31.849732096501274
9.104,0.9999940635636766,31.303463871803082
9.112,0.99999431932791,30.75670235358556
9.120000000000001,0.9999945741980063,30.209454744646354
9.128,0.999994828050773,29.66172831890304
9.136,0.9999950807628508,29.113530420592962
9.144,0.9999953322107719,28.564868463451784
9.152000000000001,0.9999955822710176,28.015749929869937
9.16,0.9999958308200788,27.46618237002688
9.168,0.9999960777345126,26.916173401003828
9.176,0.9999963228910039,26.365730705875425
9.184000000000001,0.9999965661664234,25.814862032780244
9.192,0.9999968074378875,25.26357519396949
9.2,0.9999970465828191,24.711878064835005
9.208,0.999997283479005,24.1597785829169
9.216000000000001,0.9999975180046586,23.60728474689081
9.224,0.9999977500384777,23.054404615534263
9.232,0.9999979794597054,22.501146306673178
9.24,0.9999982061481891,21.94751799610894
9.248000000000001,0.9999984299844424,21.39352791652608
9.256,0.9999986508497009,20.83918435638021
9.264,0.9999988686259853,20.284495658766946
9.272,0.9999990831961595,19.72947022027284
9.280000000000001,0.9999992944439893,19.1741164898078
9.288,0.9999995022542014,18.618442967419245
9.296,0.999999706512542,18.062458203088386
9.304,0.999999907105836,17.506170795509814
9.312000000000001,1.0,16.949589390854094
9.32,1.0,16.392722681513312
9.328,1.0,15.83557940483036
9.336,1.0,15.278168341812913
9.344,1.0,14.720498315832181
9.352,1.0,14.162578191305341
9.36,0.9999999999999999,13.604416872365295
9.368,1.0,13.046023301514243
9.376,0.9999999999999999,12.487406458265605
9.384,1.0,11.9285753577706
9.392,1.0,11.369539049434092
9.4,0.9999999999999999,10.810306615516074
9.408,0.9999999999999999,10.250887169723288
9.416,1.0,9.691289855787414
9.424,0.9999999999999998,9.131523846034487
9.432,0.9999999999999999,8.571598339941826
9.44,1.0,8.01152256268708
9.448,1.0,7.451305763686005
9.456,0.9999999999999999,6.890957215123177
9.464,0.9999999999999999,6.330486210472679
9.472,0.9999999999999999,5.769902063012669
9.48,0.9999999999999999,5.209214104330868
9.488,0.9999999999999998,4.648431682825311
9.496,0.9999999999999999,4.087564162196894
9.504,1.0,3.52662091993828
9.512,0.9999999999999999,2.9656113458156956
9.52,1.0,2.4045448403483474
9.528,1.0,1.843430813281702
9.536,1.0,1.282278682059519
9.544,1.0,0.7210978702909506
9.552,0.9999999999999999,0.15989780621744315
9.56,1.0,-0.4013120788240937
9.568,1.0,-0.962522351937192
9.576,1.0,-1.5237235802043523
9.584,0.9999999999999999,-2.0849063322234973
9.592,0.9999999999999999,-2.6460611796458493
9.6,0.9999999999999999,-3.2071786987106217
9.608,0.9999999999999999,-3.768249471780077
9.616,1.0,-4.329264088870137
9.624,0.9999999999999998,-4.890213149180261
9.632,1.0,-5.451087262617759
9.64,1.0,-6.0118770513202735
