freq,mag,phase
6.0,0.999608119771356,68.21676049849444
6.002288128,0.9997007013339848,68.07267530426653
6.004576768,0.9998121284415787,67.92706580021688
6.006864896,0.9999359662759566,67.77975122567587
6.009153536,1.0000641837357134,67.63063981444178
6.011441664,1.0001888135702157,67.47963795008569
6.013729792,1.0003019575229524,67.32692397299103
6.016018432,1.000396398437654,67.17273274127646
6.01830656,1.0004661572613716,67.01730505343485
6.0205952,1.0005067477240766,66.86107120952589
6.022883328,1.0005156893690352,66.70451733663005
6.025171456,1.000492290978325,66.54801650959696
6.027460096,1.000438108682252,66.39207208671112
6.029748224,1.0003565112679143,66.23714347601616
6.032036864,1.0002526479942384,66.08354385501387
6.034324992,1.0001330510639674,65.93155573773413
6.03661312,1.0000052801204078,65.78137018476798
6.03890176,0.9998776345990156,65.63300252736673
6.041189888,0.9997579552074443,65.48646490408306
6.043478016,0.9996538385732001,65.34155899889076
6.045766656,0.9995721123504097,65.19800352407681
6.048054784,0.999517858568349,65.05541835692715
6.050343424,0.9994943986778729,64.9133921009847
6.052631552,0.9995034329373557,64.77148071092978
6.05491968,0.9995443709891993,64.62921642108522
6.05720832,0.9996145805931602,64.48611667888972
6.059496448,0.9997096532972267,64.34180937242304
6.061785088,0.9998235871835666,64.1959993048865
6.064073216,0.9999490955830366,64.04842094298614
6.066361344,1.000078320003615,63.89901723999719
6.068649984,1.0002031098705373,63.74773115810148
6.070938112,1.0003153519377554,63.594705250961084
6.073226752,1.0004080690523054,63.44020356513064
6.07551488,1.0004753401937607,63.28453451743791
6.077803008,1.000512936136797,63.128106850623496
6.080091648,1.0005184266512284,62.9713410020149
6.082379776,1.0004914739068005,62.81471968646145
6.084668416,1.0004337258032199,62.658725520252965
6.086956544,1.0003488997033627,62.503737471613015
6.089244672,1.000242198238266,62.35014338229978
6.091533312,1.000120555327293,62.19818262906658
6.09382144,0.9999915161636038,62.048064905361684
6.09611008,0.9998632824105094,61.89977810051267
6.098398208,0.9997441233613833,61.75332280871176
6.100686336,0.9996414367565513,61.6084307859622
6.102974976,0.9995617487451731,61.464885012533394
6.105263104,0.9995102500833234,61.32228869767065
6.107551232,0.9994901121055513,61.180203340139066
6.109839872,0.9995027358831419,61.03816475651306
6.112128,0.9995472765459569,60.8957174187443
6.11441664,0.9996208872274799,60.75237386107465
6.116704768,0.9997189963446853,60.607780842900546
6.118992896,0.9998353639849392,60.46165408466273
6.121281536,0.9999625695279315,60.31372653813789
6.123569664,1.000092661956776,60.163922394054794
6.125858304,1.000217318532676,60.012227080388605
6.128146432,1.0003285669923814,59.8588316849196
6.13043456,1.0004195407519008,59.70396615542654
6.1327232,1.0004843201436915,59.547934682046716
6.135011328,1.0005188104735436,59.391190429942135
6.137299968,1.0005208727098298,59.23415405596904
6.139588096,1.0004902602917478,59.07734828506052
6.141876224,1.0004290630232515,58.9211566882609
6.144164864,1.0003409147755782,58.766048492804146
6.146452992,1.0002315116479832,58.61237873339527
6.148741632,1.0001078277627742,58.46036127132203
6.15102976,0.9999774983893219,58.31019512203844
6.153317888,0.9998489931763732,58.161893931021076
6.155606528,0.9997303077667752,58.01539101897432
6.157894656,0.9996289904437298,57.870486692647894
6.160183296,0.9995515400477119,57.726841048931156
6.162471424,0.9995028990517566,57.58412356045393
6.164759552,0.9994861347303505,57.44186256606908
6.167048192,0.9995023242627675,57.29962137839348
6.16933632,0.9995505298176744,57.1568662060332
6.17162496,0.999627540480036,57.013202912033385
6.173913088,0.9997286965709982,56.86824418727688
6.176201216,0.9998474329956473,56.72166082189124
6.178489856,0.9999762515834701,56.573287015038325
6.180777984,1.0001071098105199,56.422971676066986
6.183066112,1.000231580129798,56.27083448883117
6.185354752,1.0003418306632401,56.11694355223885
6.18764288,1.0004308877184218,55.961593232982935
6.18993152,1.0004931653848916,55.80515819518527
6.192219648,1.0005244955195147,55.64800551879246
6.194507776,1.0005230734913582,55.490615971525926
6.196796416,1.0004888521636182,55.33347182626681
6.199084544,1.000424009366318,55.17704381243342
6.201373184,1.000332682441796,55.021719759041105
6.203661312,1.000220669688605,54.867855952254644
6.20594944,1.0000949424819323,54.71571228038111
6.20823808,0.9999634332855771,54.565430836190416
6.210526208,0.9998346074818562,54.41699674160859
6.212814848,0.9997165718676925,54.270347332063906
6.215102976,0.9996168502323063,54.12530292846317
6.217391104,0.9995416726730002,53.98148485691294
6.219679744,0.9994959386401142,53.83855228233989
6.221967872,0.9994825147968255,53.69605337015336
6.224256512,0.999502323519056,53.553464879857216
6.22654464,0.9995541213047688,53.410346778292144
6.228832768,0.9996345132772367,53.26625264182245
6.231121408,0.99973858717365,53.12081086793037
6.233409536,0.9998596609588941,52.97369619880506
6.235698176,0.9999901306297848,52.82477273028524
6.237986304,1.000121589896576,52.67387246311644
6.240274432,1.0002459335416785,52.521122334757465
6.242563072,1.000355049927177,52.366687847709414
6.2448512,1.0004420918966714,52.210795267604006
6.24713984,1.000501589717508,52.05381185316566
6.249427968,1.0005297520993168,51.89614489578229
6.251716096,1.0005248202610737,51.738337876968316
6.254004736,1.0004869940958032,51.580778517468936
6.256292864,1.0004186447418952,51.42400541993345
6.258580992,1.0003241469938522,51.268375674500405
6.260869632,1.0002094822110261,51.114261003135574
6.26315776,1.0000817100818042,50.96185311928976
6.2654464,0.999949173884098,50.811374652456266
6.267734528,0.9998201541038149,50.66272114893391
6.270022656,0.9997028553211733,50.515885859863644
6.272311296,0.9996047311751506,50.37058700642647
6.274599424,0.9995319213999067,50.226486185027376
6.276888064,0.9994891934869495,50.08322409694873
6.279176192,0.9994791512672105,49.94034106530817
6.28146432,0.9995026210960152,49.79735139612233
6.28375296,0.999557960461006,49.65375760533414
6.286041088,0.999641814041201,49.509135030306744
6.288329728,0.9997487888997136,49.3630883957463
6.290617856,0.9998721803237833,49.21535864289902
6.292905984,1.0000041349305588,49.06577261698082
6.295194624,1.0001362033072332,48.91422526936042
6.297482752,1.0002601694942614,48.76078952892122
6.299771392,1.000368100640377,48.60568442541824
6.30205952,1.0004532477061832,48.44912194999031
6.304347648,1.0005100407503837,48.29151343563564
6.306636288,1.000534958426482,48.13328385852371
6.308924416,1.0005264427656526,47.974924564477874
6.311213056,1.0004848919306533,47.81690797025936
6.313501184,1.0004130182419047,47.65965694686701
6.315789312,1.0003153010038146,47.50364242975868
6.318077952,1.000198019665035,47.34915044764664
6.32036608,1.000068479329716,47.19644474266551
6.322654208,0.9999348869525413,47.04562518267587
6.324942848,0.9998056602273396,46.89667794581316
6.327230976,0.99968909437515,46.749512337325605
6.329519616,0.9995925788385571,46.6038747875697
6.331807744,0.9995222418160368,46.45941624973379
6.334095872,0.9994824507866905,46.315761985824224
6.336384512,0.9994759050090427,46.17240147221963
6.33867264,0.9995030156933552,46.02890302729464
6.34096128,0.9995620027238544,45.884709218416006
6.343249408,0.9996492071495473,45.73946138327848
6.345537536,0.9997590864238219,45.59274218270106
6.347826176,0.9998846804001698,45.44429626252724
6.350114304,1.0000179919034713,45.29396612686122
6.352402944,1.000150763872715,45.14164517491441
6.354691072,1.0002742986410358,44.9874318083127
6.3569792,1.000380972022861,44.83156387753439
6.35926784,1.000464045855356,44.67425996723545
6.361555968,1.0005180213515459,44.515915728071164
6.363844608,1.000539705551531,44.35702830340395
6.366132736,1.0005276791966136,44.1980264918534
6.368420864,1.0004824786630764,44.03942457736128
6.370709504,1.000407141917781,43.88164606015845
6.372997632,1.0003063790454019,43.7251574942817
6.375286272,1.0001864223541872,43.57021372228939
6.3775744,1.0000551033717706,43.417069169986235
6.379862528,0.9999205806339985,43.265836662592264
6.382151168,0.9997912841556761,43.11649696074974
6.384439296,0.9996755944321633,42.96892218627979
6.386727936,0.9995808253173318,42.8228563831134
6.389016064,0.9995129926078417,42.677923643610335
6.391304192,0.9994762473635893,42.533741716096884
6.393592832,0.9994732499859753,42.3898225063803
6.39588096,0.9995039809975419,42.245708051882104
6.398169088,0.9995665759151601,42.10082843202399
6.400457728,0.9996570238825871,41.9548527887496
6.402745856,0.9997696874308848,41.80736054163243
6.405034496,0.9998974397608463,41.65809948753263
6.407322624,1.0000321409876798,41.50689921055488
6.409610752,1.000165323589169,41.35372107832145
6.411899392,1.0002885093672997,41.19864937447692
6.41418752,1.0003938191042347,41.041886321700446
6.41647616,1.0004746935967423,40.88376029904674
6.418764288,1.0005259481688753,40.72462793057334
6.421052416,1.0005442802264024,40.56496223619656
6.423341056,1.0005285125922425,40.405219904627984
6.425629184,1.0004797335239628,40.245952814425166
6.427917824,1.0004009411959076,40.08758068297423
6.430205952,1.000297026537534,39.93047970486112
6.43249408,1.0001746552091875,39.77501252721852
6.43478272,1.0000414964232882,39.62135810228443
6.437070848,0.999906081046758,39.46962285973421
6.439359488,0.9997769216613642,39.31977295418844
6.441647616,0.9996621534729497,39.17168756415286
6.443935744,0.9995690150089115,39.02508231073952
6.446224384,0.9995037418471002,38.879607180657985
6.448512512,0.9994701830029324,38.73480049247514
6.450801152,0.9994705387946592,38.590220658487866
6.45308928,0.9995049334060377,38.445359625315824
6.455377408,0.9995711493503867,38.29973692372764
6.457666048,0.9996648966718298,38.15292916031378
6.459954176,0.9997803650490084,38.00454329879611
6.462242816,0.9999102384533441,37.854361695763
6.464530944,1.0000462433881474,37.702211184841566
6.466819072,1.0001798290904311,37.54806961141058
6.469107712,1.0003024720570306,37.39202897081564
6.47139584,1.0004064016700651,37.234318130863485
6.473683968,1.0004851469887852,37.07525669382595
6.475972608,1.000533464471042,36.915206811298155
6.478260736,1.0005485856169298,36.754682206911504
6.480549376,1.0005292044476495,36.59416637749254
6.482837504,1.000476817899574,36.43412547068849
6.485125632,1.0003944645861607,36.275021572575
6.487414272,1.0002875623742375,36.11725804666178
6.4897024,1.000162768239265,35.96113672190011
6.49199104,1.0000279640663934,35.806873116396574
6.494279168,0.9998916324134123,35.65453976132447
6.496567296,0.9997625511692009,35.50410970487291
6.498855936,0.9996487525189633,35.35541183719602
6.501144064,0.9995575383747616,35.20816426433682
6.503432704,0.9994947240345438,35.062005035508285
6.505720832,0.9994643472113298,34.91650750284958
6.50800896,0.9994682438347187,34.77115489925475
6.5102976,0.9995062837960248,34.625459020241095
6.512585728,0.999576088441633,34.47897809356347
6.514874368,0.999673048633149,34.331202451257994
6.517162496,0.9997912983478178,34.18187084520542
6.519450624,0.9999232299346872,34.03065215609749
6.521739264,1.000060471375171,33.87745262056671
6.524027392,1.0001943756909597,33.722258652082935
6.526316032,1.0003164134473552,33.56517811012741
6.52860416,1.000418972774304,33.40640062166718
6.530892288,1.0004953746135046,33.246294734248835
6.533180928,1.0005409265874035,33.08527384439592
6.535469056,1.000552633218826,32.923779658515464
6.537757184,1.0005297289766852,32.76235710772579
6.540045824,1.000473671493944,32.60144900383876
6.542333952,1.0003879141886756,32.441540695172165
6.544622592,1.0002780664852966,32.282998211783394
6.54691072,1.0001508655892863,32.126140354527564
6.549198848,1.0000144494461922,31.97118598812214
6.551487488,0.9998773715588811,31.818142200756828
6.553775616,0.9997483662155985,31.666999056851054
6.556064256,0.9996356886024379,31.517608638586726
6.558352384,0.9995463532760234,31.369636153369864
6.560640512,0.9994862083196122,31.22271354490176
6.562929152,0.9994588153743854,31.076377797431817
6.56521728,0.9994663074804131,30.930156069295442
6.56750592,0.9995079397747882,30.783558642938427
6.569794048,0.9995811551989117,30.63609253313423
6.572082176,0.9996814776676515,30.487303572357565
6.574370816,0.9998023954393217,30.33686576387687
6.576658944,0.9999363075153133,30.184566936945355
6.578947584,1.0000747273739012,30.0302212651909
6.581235712,1.00020889151903,29.873866739600007
6.58352384,1.0003303878212488,29.71558508817525
6.58581248,1.000431392865529,29.55567233279892
6.588100608,1.0005055543574057,29.39445604377476
6.590389248,1.000548166170043,29.23234338034911
6.592677376,1.0005564710838697,29.06982777536886
6.594965504,1.0005300150750986,28.907346175892545
6.597254144,1.0004703466931621,28.74551093628841
6.599542272,1.0003813202441942,28.58467714556826
6.601830912,1.00026850431755,28.425269636458705
6.60411904,1.0001389445871858,28.267587760931576
6.606407168,1.0000008807218255,28.111816137983897
6.608695808,0.9998631317988831,27.957985063774633
6.610983936,0.9997344048176017,27.806052599837013
6.613272064,0.9996227637838596,27.6558590303556
6.615560704,0.9995353110196047,27.50703633497557
6.617848832,0.9994777030967493,27.35923849423679
6.620137472,0.9994536514741093,27.21200319928963
6.6224256,0.9994644884908279,27.064796547137245
6.624713728,0.9995097756590368,26.91719152455557
6.627002368,0.9995864910581508,26.76861027532158
6.629290496,0.9996900037987116,26.61870424858753
6.631579136,0.9998134446338267,26.467087069760826
6.633867264,0.9999492709838851,26.313566916932718
6.636155392,1.0000887760454593,26.157985223492403
6.638444032,1.00022317367769,26.000375011522912
6.64073216,1.0003439479180265,25.840858492939685
6.6430208,1.000443413375956,25.67970865500855
6.645308928,1.000515253999898,25.517252644541333
6.647597056,1.0005549302485284,25.353955805991507
6.649885696,1.0005599066377076,25.190270861881498
6.652173824,1.000529916768866,25.02676075855707
6.654462464,1.0004666452528015,24.86383756562721
6.656750592,1.0003742312924508,24.701977420425465
6.65903872,1.0002585639261137,24.541652537624106
6.66132736,1.00012671371568,24.38302887529821
6.663615488,0.9999872260644107,24.226335768585805
6.665904128,0.9998488534951405,24.071639133042297
6.668192256,0.9997202573926333,23.9187976505809
6.670480384,0.9996098024876445,23.767666678316772
6.672769024,0.9995244129706493,23.617930787880965
6.675057152,0.9994694083964568,23.469161591305383
6.677345792,0.9994484260921707,23.320906496263447
6.67963392,0.9994628628469853,23.172638165634886
6.681922048,0.9995116619129206,23.023879246040828
6.684210688,0.9995918882534196,22.87413087278999
6.686498816,0.9996984330776957,22.72298046726639
6.688786944,0.9998245230445914,22.5700838297586
6.691075584,0.9999622530966434,22.415248753022922
6.693363712,1.0001027608597954,22.258345999563723
6.695652352,1.0002373689413313,22.099371708240895
6.69794048,1.0003574460732965,21.938504965343572
6.700228608,1.0004553137530274,21.776004901783768
6.702517248,1.000524820432367,21.61224187160856
6.704805376,1.0005615930216627,21.447655658561175
6.707094016,1.0005633061001584,21.28275241697496
6.709382144,1.0005297103279092,21.11799024740529
6.711670272,1.000462991007573,20.953937985054992
6.713958912,1.0003672715472596,20.79100464529405
6.71624704,1.0002487451993867,20.629590545022165
6.71853568,1.0001147344925971,20.469934285603493
6.720823808,0.9999737674095935,20.31225664105903
6.723111936,0.9998347772908028,20.15653639088591
6.725400576,0.9997065822280087,20.002718719362434
6.727688704,0.9995972114898557,19.85057648755704
6.729977344,0.9995137700771047,19.69979284677717
6.732265472,0.9994615189897204,19.549941488919327
6.7345536,0.9994436868475587,19.400563804786902
6.73684224,0.9994614757227367,19.251125842197272
6.739130368,0.999513940916829,19.101129942640014
6.741419008,0.9995976029234116,18.95009185042737
6.743707136,0.9997071238008334,18.79762129437976
6.745995264,0.9998357352283108,18.643357811515283
6.748283904,0.9999752538606916,18.48709161684356
6.750572032,1.0001168961296427,18.32872456103939
6.75286016,1.000251635362441,18.168303506192515
6.7551488,1.0003708935660605,18.006004495343557
6.757436928,1.000467039566504,17.842060327764997
6.759725568,1.0005342582458818,17.676886563891777
6.762013696,1.0005681262640445,17.51091259978384
6.764301824,1.0005664935677365,17.34466540161175
6.766590464,1.0005293843373886,17.17864246484202
6.768878592,1.000459157055419,17.013330790758175
6.771167232,1.0003603107676557,16.84920708199213
6.77345536,1.000238947341872,16.68662420047264
6.775743488,1.0001027345622462,16.525835026624016
6.778032128,0.9999603487942038,16.36703726298498
6.780320256,0.9998207331895896,16.21022484884271
6.782608896,0.9996929799634864,16.055315058235987
6.784897024,0.9995848026279579,15.902061742627323
6.787185152,0.9995034292466445,15.750127207023887
6.789473792,0.9994537376321273,15.599101272697354
6.79176192,0.999439051746943,15.448481816667872
6.79405056,0.9994603298350774,15.297784159712231
6.796338688,0.9995162421449494,15.146439034004384
6.798626816,0.9996031843815317,14.994040477383454
6.800915456,0.9997157578343552,14.840122472075194
6.803203584,0.9998468994924546,14.684371300433861
6.805492224,0.9999881821305838,14.526589140252677
6.807780352,1.000130759455022,14.366689962003045
6.81006848,1.000265541792095,14.204703031453436
6.81235712,1.000384016574852,14.040854400270423
6.814645248,1.0004786481649794,13.875372620785416
6.816933888,1.0005435384288102,13.708688373393661
6.819222016,1.0005744818896283,13.541242939449265
6.821510144,1.0005695032418747,13.373561294005771
6.823798784,1.000528883697821,13.206146572587745
6.826086912,1.0004553362613375,13.03949394338701
6.82837504,1.0003531917272896,12.87407200908361
6.83066368,1.0002290414564892,12.710221587061358
6.832951808,1.0000907986775887,12.54820581071564
6.835240448,0.999947122341368,12.38819852018169
6.837528576,0.9998070715176192,12.230187036195609
6.839816704,0.9996795056699952,12.074060455160634
6.842105344,0.9995726322419969,11.919579231128015
6.844393472,0.9994931175706545,11.766406390374948
6.846682112,0.9994462166650424,11.61410236745859
6.84897024,0.9994346811550288,11.462152583833596
6.851258368,0.9994592787900289,11.31005745093357
6.853547008,0.9995186507904342,11.15730819494009
6.855835136,0.9996089307416495,11.003397484456034
6.858123776,0.9997245480593601,10.847930527234071
6.860411904,0.9998580084829798,10.69060147612649
6.862700032,1.000000989020083,10.531199019397935
6.864988672,1.0001444187451842,10.36967559173816
6.8672768,1.0002793157027043,10.206059361002765
6.86956544,1.0003969071944883,10.040538438589026
6.871853568,1.0004899794803106,9.873440861531977
6.874141696,1.0005525099276575,9.705145492691683
6.876430336,1.0005805931912712,9.536115511534668
6.878718464,1.0005723442665273,9.366895811632375
6.881007104,1.0005283124840447,9.197991576056525
6.883295232,1.0004512155605696,9.029901586241031
6.88558336,1.0003460537240496,8.863072605213306
6.887872,1.000219266662322,8.697851063966432
6.890160128,1.0000790262664496,8.534516493064144
6.892448768,0.9999339904890634,8.373189089479796
6.894736896,0.9997934821653224,8.213860658629955
6.897025024,0.9996663758558956,8.056442993926789
6.899313664,0.9995607737241737,7.900650168967044
6.901601792,0.9994832681946936,7.746123653323038
6.90388992,0.9994389325980305,7.592420060795894
6.90617856,0.9994304941853468,7.4390344222334654
6.908466688,0.9994585300104266,7.2854531337241335
6.910755328,0.9995213221087167,7.1311401608108005
6.913043456,0.9996147912980187,6.97564219381742
6.915331584,0.9997333021607284,6.818549829921154
6.917620224,0.9998690565120006,6.659526989770649
6.919908352,1.0000138032638173,6.4984228358307785
6.922196992,1.0001580774841194,6.3351489872156534
6.92448512,1.0002928491132814,6.169765850475504
6.926773248,1.0004096898496257,6.002529060986674
6.929061888,1.0005010644314762,5.83367884457933
6.931350016,1.0005612371143755,5.663686387695461
