freq,mag,phase
6.0,0.999985340751005,55.01323249390134
6.008,0.9999858621417408,54.81041620465714
6.016,0.9999863672513158,54.6074714991474
6.024,0.9999868563846175,54.40439837734592
6.032,0.9999873298433299,54.2011968404987
6.04,0.9999877879259459,53.99786689112891
6.048,0.9999882309277788,53.794408533041846
6.056,0.9999886591409747,53.59082177132992
6.064,0.9999890728545257,53.38710661237754
6.072,0.9999894723542819,53.183263063866065
6.08,0.9999898579229642,52.97929113477864
6.088,0.9999902298401763,52.77519083540514
6.096,0.9999905883824178,52.57096217734702
6.104,0.9999909338230976,52.366605173522096
6.112,0.9999912664325455,52.16211983816946
6.12,0.9999915864780262,51.957506186854175
6.128,0.9999918942237519,51.75276423647213
6.136,0.9999921899308951,51.547894005254825
6.144,0.9999924738576026,51.342895512774
6.152,0.9999927462590076,51.137768779946484
6.16,0.9999930073872435,50.932513829038825
6.168,0.9999932574914583,50.72713068367196
6.176,0.9999934968178261,50.521619368825924
6.184,0.999993725609562,50.31597991084444
6.192,0.9999939441069353,50.110212337439584
6.2,0.9999941525472827,49.90431667769632
6.208,0.999994351165023,49.698292962077076
6.216,0.9999945401916702,49.49214122242635
6.224,0.9999947198558472,49.28586149197516
6.232,0.9999948903833001,49.07945380534559
6.24,0.9999950519969125,48.87291819855521
6.248,0.9999952049167186,48.66625470902162
6.256,0.9999953493599181,48.45946337556678
6.264,0.9999954855408906,48.25254423842147
6.272,0.9999956136712086,48.04549733922963
6.28,0.9999957339596532,47.838322721052755
6.288,0.9999958466122276,47.63102042837413
6.296,0.9999959518321724,47.42359050710326
6.304,0.9999960498199789,47.21603300458006
6.312,0.9999961407734052,47.008347969579056
6.32,0.9999962248874887,46.800535452313696
6.328,0.9999963023545637,46.59259550444051
6.336,0.9999963733642729,46.38452817906325
6.344,0.9999964381035856,46.176333530737004
6.352,0.9999964967568089,45.96801161547239
6.36,0.999996549505606,45.759562490739555
6.368,0.9999965965290094,45.550986215472186
6.376,0.9999966380034357,45.342282850071705
6.384,0.9999966741027022,45.133452456411035
6.392,0.9999967049980406,44.924495097838665
6.4,0.9999967308581132,44.71541083918264
6.408,0.9999967518490269,44.50619974675432
6.416,0.9999967681343507,44.29686188835236
6.424,0.9999967798751288,44.08739733326647
6.432,0.9999967872298972,43.87780615228127
6.44,0.9999967903546991,43.668088417680025
6.448,0.9999967894031002,43.458244203248384
6.456,0.9999967845262052,43.24827358427811
6.464,0.9999967758726712,43.038176637570714
6.472,0.9999967635887264,42.82795344144115
6.48,0.9999967478181832,42.61760407572136
6.4879999999999995,0.9999967287024556,42.40712862176389
6.496,0.9999967063805744,42.196527162445335
6.504,0.999996680989203,41.98579978217001
6.5120000000000005,0.9999966526626546,41.77494656687321
6.52,0.9999966215329056,41.56396760402488
6.5280000000000005,0.9999965877296144,41.35286298263273
6.536,0.9999965513801352,41.14163279324584
6.5440000000000005,0.9999965126095359,40.930277127957794
6.552,0.9999964715406133,40.71879608041016
6.5600000000000005,0.999996428293909,40.50718974579547
6.568,0.9999963829877269,40.295458220860816
6.5760000000000005,0.9999963357381482,40.08360160391052
6.584,0.9999962866590477,39.871619994809805
6.592,0.999996235862112,39.659513494987436
6.6,0.9999961834568531,39.44728220743906
6.608,0.9999961295506272,39.23492623673009
6.616,0.9999960742486502,39.0224456889988
6.624,0.9999960176540131,38.80984067195912
6.632,0.9999959598677015,38.59711129490363
6.64,0.9999959009886088,38.38425766870637
6.648,0.999995841113555,38.17127990582573
6.656,0.9999957803373026,37.958178120307124
6.664,0.9999957187525734,37.74495242778579
6.672,0.9999956564500652,37.5316029454895
6.68,0.999995593518468,37.318129792241145
6.688,0.999995530044482,37.10453308846138
6.696,0.9999954661128326,36.890812956171175
6.704,0.9999954018062895,36.67696951899441
6.712,0.9999953372056808,36.46300290216019
6.72,0.9999952723899124,36.248913232505465
6.728,0.9999952074359832,36.03470063847731
6.736,0.9999951424190032,35.820365250135296
6.744,0.9999950774122092,35.60590719915377
6.752,0.9999950124869829,35.39132661882418
6.76,0.9999949477128671,35.176623644057194
6.768,0.999994883157583,34.96179841138495
6.776,0.9999948188870471,34.74685105896311
6.784,0.9999947549653888,34.53178172657298
6.792,0.9999946914549661,34.31659055562349
6.8,0.9999946284163844,34.101277689153214
6.808,0.9999945659085122,33.88584327183229
6.816,0.9999945039884988,33.67028744996429
6.824,0.9999944427117912,33.45461037148805
6.832,0.9999943821321519,33.238812185979526
6.84,0.9999943223016746,33.022893044653415
6.848,0.9999942632708031,32.80685310036494
6.856,0.9999942050883467,32.59069250761147
6.864,0.999994147801499,32.37441142253409
6.872,0.9999940914558533,32.15801000291916
6.88,0.9999940360954221,31.94148840819979
6.888,0.9999939817626515,31.724846799457318
6.896,0.9999939284984414,31.508085339422653
6.904,0.9999938763421596,31.291204192477625
6.912,0.9999938253316613,31.074203524656323
6.92,0.999993775503305,30.857083503646262
6.928,0.9999937268919711,30.639844298789612
6.936,0.999993679531077,30.422486081084283
6.944,0.9999936334525962,30.205009023185088
6.952,0.9999935886870746,29.987413299404675
6.96,0.9999935452636475,29.769699085714567
6.968,0.9999935032100576,29.55186655974606
6.976,0.9999934625526712,29.33391590079106
6.984,0.999993423316496,29.115847289802957
6.992,0.9999933855251983,28.897660909397324
7.0,0.9999933492011196,28.679356943852675
7.008,0.999993314365294,28.460935579111048
7.016,0.9999932810374658,28.242397002778663
7.024,0.9999932492361058,28.02374140412642
7.032,0.9999932189784289,27.8049689740904
7.04,0.9999931902804108,27.586079905272282
7.048,0.9999931631568061,27.36707439193971
7.056,0.9999931376211635,27.147952630026627
7.064,0.9999931136858449,26.928714817133514
7.072,0.9999930913620407,26.709361152527595
7.08,0.9999930706597885,26.489891837142988
7.088,0.9999930515879875,26.270307073580753
7.096,0.9999930341544181,26.05060706610899
7.104,0.9999930183657579,25.83079202066275
7.112,0.9999930042275978,25.610862144843946
7.12,0.9999929917444602,25.390817647921274
7.128,0.9999929809198143,25.170658740829914
7.136,0.9999929717560948,24.950385636171305
7.144,0.9999929642547167,24.72999854821286
7.152,0.9999929584160941,24.50949769288752
7.16,0.9999929542396546,24.28888328779337
7.168,0.9999929517238584,24.068155552193044
7.176,0.9999929508662129,23.847314707013304
7.184,0.9999929516632912,23.62636097484425
7.192,0.9999929541107467,23.40529457993878
7.2,0.9999929582033315,23.18411574821176
7.208,0.9999929639349115,22.962824707239236
7.216,0.999992971298484,22.741421686257574
7.224,0.999992980286193,22.51990691616257
7.232,0.9999929908893468,22.298280629508334
7.24,0.9999930030984334,22.076543060506413
7.248,0.9999930169031374,21.85469444502452
7.256,0.9999930322923549,21.632735020585468
7.264,0.9999930492542127,21.41066502636583
7.272,0.9999930677760812,21.188484703194735
7.28,0.9999930878445922,20.96619429355246
7.288,0.9999931094456544,20.743794041568965
7.296,0.9999931325644709,20.52128419302247
7.304,0.9999931571855519,20.29866499533786
7.312,0.9999931832927346,20.075936697585046
7.32,0.9999932108691955,19.853099550477364
7.328,0.9999932398974691,19.630153806369712
7.336,0.9999932703594613,19.40709971925686
7.344,0.999993302236467,19.18393754477148
7.352,0.999993335509184,18.960667540182257
7.36,0.9999933701577298,18.73728996439188
7.368,0.9999934061616567,18.513805077934947
7.376,0.9999934434999673,18.29021314297588
7.384,0.9999934821511294,18.06651442330667
7.392,0.9999935220930924,17.842709184344663
7.4,0.9999935633033016,17.618797693130176
7.4079999999999995,0.9999936057587131,17.394780218324208
7.416,0.9999936494358097,17.170657030205778
7.4239999999999995,0.9999936943106166,16.94642840066972
7.432,0.9999937403587138,16.722094603223674
7.4399999999999995,0.9999937875552538,16.497655912985884
7.448,0.9999938358749756,16.273112606682037
7.4559999999999995,0.9999938852922176,16.048464962642882
7.464,0.9999939357809354,15.823713260800975
7.4719999999999995,0.9999939873147136,15.59885778268815
7.48,0.9999940398667823,15.373898811432158
7.4879999999999995,0.9999940934100301,15.148836631753953
7.496,0.9999941479170197,14.923671529964246
7.504,0.999994203360001,14.698403793960663
7.5120000000000005,0.9999942597109264,14.473033713224103
7.52,0.9999943169414639,14.247561578815816
7.5280000000000005,0.999994375023012,14.021987683373615
7.536,0.9999944339267131,13.79631232110883
7.5440000000000005,0.9999944936234675,13.570535787802353
7.552,0.9999945540839473,13.344658380801487
7.5600000000000005,0.9999946152786098,13.118680399015867
7.568,0.9999946771777115,12.89260214291412
7.5760000000000005,0.9999947397513214,12.666423914519708
7.584,0.9999948029693341,12.440146017407443
7.5920000000000005,0.9999948668014832,12.213768756699174
7.6,0.9999949312173554,11.987292439060178
7.6080000000000005,0.9999949961864024,11.760717372694696
7.616,0.9999950616779548,11.53404386734223
7.6240000000000006,0.9999951276612344,11.307272234272922
7.632,0.9999951941053679,11.08040278628369
7.640000000000001,0.9999952609793983,10.853435837693512
7.648,0.999995328252299,10.6263717043394
7.656000000000001,0.9999953958929857,10.399210703571567
7.664,0.9999954638703278,10.17195315424927
7.672,0.999995532153163,9.94459937673583
7.68,0.9999956007103072,9.71714969289425
7.688,0.9999956695105692,9.489604426082337
7.696,0.9999957385227595,9.261963901147949
7.704,0.9999958077157044,9.034228444424098
7.712,0.9999958770582582,8.806398383724025
7.72,0.999995946519313,8.578474048336172
7.728,0.9999960160678114,8.350455769019145
7.736,0.9999960856727586,8.12234387799653
7.744,0.9999961553032324,7.894138708951715
7.752,0.9999962249283949,7.665840597022606
7.76,0.9999962945175045,7.4374498787962775
7.768,0.9999963640399256,7.208966892303573
7.776,0.9999964334651404,6.980391977013621
7.784,0.9999965027627599,6.75172547382828
7.792,0.9999965719025331,6.522967725076552
7.8,0.9999966408543591,6.294119074508895
7.808,0.9999967095882973,6.065179867291469
7.816,0.9999967780745767,5.836150450000341
7.824,0.9999968462836072,5.6070311706156
7.832,0.9999969141859897,5.3778223785154005
7.84,0.9999969817525247,5.148524424469986
7.848,0.9999970489542237,4.91913766063558
7.856,0.9999971157623184,4.68966244054826
7.864,0.9999971821482696,4.460099119117758
7.872,0.9999972480837773,4.2304480526211625
7.88,0.9999973135407904,4.000709598696604
7.888,0.9999973784915153,3.770884116336831
7.896,0.9999974429084243,3.5409719658827616
7.904,0.9999975067642671,3.310973509016925
7.912,0.9999975700320758,3.0808891087568826
7.92,0.9999976326851778,2.850719129448546
7.928,0.9999976946972002,2.620463936759461
7.936,0.9999977560420822,2.390123897672004
7.944,0.9999978166940799,2.159699380476531
7.952,0.999997876627777,1.929190754764449
7.96,0.9999979358180913,1.6985983914212328
7.968,0.9999979942402838,1.4679226626193733
7.976,0.9999980518699654,1.2371639418112659
7.984,0.9999981086831055,1.0063226037220296
7.992,0.9999981646560382,0.7753990243422708
8.0,0.9999982197654708,0.5443935809207757
8.008,0.9999982739884911,0.3133066519571723
8.016,0.9999983273025732,0.08213861719437343
8.024000000000001,0.9999983796855865,-0.14911014238868514
8.032,0.9999984311158002,-0.3804392445847242
8.04,0.9999984815718921,-0.6118483059658393
8.048,0.9999985310329532,-0.8433369418910766
8.056000000000001,0.9999985794784955,-1.074904766514065
8.064,0.9999986268884585,-1.306551392790919
8.072,0.9999986732432132,-1.5382764324882023
8.08,0.9999987185235707,-1.7700794961907476
8.088000000000001,0.9999987627107869,-2.0019601933095257
8.096,0.9999988057865669,-2.2339181320898027
8.104,0.9999988477330732,-2.465952919619332
8.112,0.9999988885329288,-2.6980641618364167
8.120000000000001,0.9999989281692246,-2.9302514635380277
8.128,0.9999989666255218,-3.162514428388178
8.136,0.9999990038858597,-3.3948526589263723
8.144,0.9999990399347587,-3.6272657565758903
8.152000000000001,0.9999990747572253,-3.859753321652148
8.16,0.9999991083387579,-4.092314953371296
8.168,0.9999991406653495,-4.324950249858905
8.176,0.9999991717234925,-4.5576588081584815
8.184000000000001,0.9999992015001842,-4.79044022424005
8.192,0.9999992299829286,-5.023294093008992
8.2,0.9999992571597416,-5.256220008314951
8.208,0.999999283019154,-5.489217562960571
8.216000000000001,0.9999993075502163,-5.722286348710302
8.224,0.9999993307425008,-5.955425956299461
8.232,0.9999993525861047,-6.188635975443371
8.24,0.9999993730716551,-6.421915994846301
8.248000000000001,0.9999993921903092,-6.655265602210494
8.256,0.9999994099337597,-6.888684384245468
8.264,0.9999994262942363,-7.122171926677322
8.272,0.9999994412645072,-7.35572781425794
8.280000000000001,0.9999994548378842,-7.589351630774203
8.288,0.9999994670082218,-7.823042959057512
8.296,0.9999994777699222,-8.056801380993294
8.304,0.9999994871179348,-8.29062647753042
8.312,0.9999994950477602,-8.524517828690572
8.32,0.9999995015554497,-8.758475013578225
8.328,0.9999995066376083,-8.992497610389849
8.336,0.999999510291396,-9.226585196424013
8.344,0.9999995125145279,-9.46073734809077
8.352,0.999999513305277,-9.694953640921781
8.36,0.9999995126624734,-9.929233649579805
8.368,0.9999995105855065,-10.163576947868963
8.376,0.9999995070743247,-10.39798310874428
8.384,0.9999995021294363,-10.632451704322087
8.392,0.9999994957519099,-10.866982305889607
8.4,0.9999994879433747,-11.101574483915485
8.408,0.9999994787060201,-11.33622780805946
8.416,0.9999994680425962,-11.570941847182974
8.424,0.9999994559564134,-11.80571616935895
8.432,0.9999994424513414,-12.040550341882495
8.44,0.9999994275318105,-12.275443931280725
8.448,0.9999994112028086,-12.510396503323603
8.456,0.9999993934698828,-12.745407623033845
8.464,0.9999993743391361,-12.980476854697816
8.472,0.9999993538172282,-13.215603761875556
8.48,0.9999993319113737,-13.450787907411712
8.488,0.9999993086293409,-13.6860288534457
8.496,0.9999992839794498,-13.921326161422694
8.504,0.9999992579705709,-14.156679392103861
8.512,0.9999992306121235,-14.392088105577452
8.52,0.9999992019140738,-14.627551861269092
8.528,0.9999991718869332,-14.863070217952952
8.536,0.999999140541755,-15.098642733762153
8.544,0.9999991078901338,-15.334268966199973
8.552,0.9999990739442012,-15.569948472150337
8.56,0.9999990387166251,-15.805680807889079
8.568,0.9999990022206058,-16.04146552909455
8.576,0.9999989644698735,-16.277302190858947
8.584,0.9999989254786852,-16.51319034769894
8.592,0.9999988852618227,-16.7491295535671
8.6,0.999998843834587,-16.985119361862626
8.608,0.9999988012127976,-17.221159325442812
8.616,0.9999987574127879,-17.457248996633783
8.624,0.9999987124514006,-17.693387927242174
8.632,0.9999986663459858,-17.929575668565803
8.64,0.999998619114396,-18.16581177140543
8.648,0.9999985707749828,-18.40209578607556
8.656,0.9999985213465917,-18.638427262416197
8.664,0.9999984708485594,-18.874805749803713
8.672,0.9999984193007082,-19.11123079716272
8.68,0.9999983667233421,-19.347701952976934
8.688,0.9999983131372417,-19.584218765301106
8.696,0.9999982585636608,-19.820780781771987
8.704,0.9999982030243199,-20.057387549620284
8.712,0.9999981465414018,-20.294038615681693
8.72,0.9999980891375484,-20.53073352640884
8.728,0.9999980308358515,-20.7674718278825
8.736,0.9999979716598513,-21.00425306582348
8.744,0.9999979116335296,-21.241076785603887
8.752,0.9999978507813037,-21.477942532259128
8.76,0.999997789128022,-21.714849850499174
8.768,0.9999977266989568,-21.951798284720617
8.776,0.9999976635197992,-22.188787379017995
8.784,0.9999975996166542,-22.425816677195854
8.792,0.9999975350160328,-22.66288572278014
8.8,0.9999974697448466,-22.899994059030327
8.808,0.9999974038304015,-23.137141228950796
8.815999999999999,0.9999973373003918,-23.374326775302983
8.824,0.9999972701828925,-23.611550240617063
8.832,0.9999972025063545,-23.84881116720364
8.84,0.999997134299596,-24.086109097165725
8.847999999999999,0.9999970655917974,-24.323443572410707
8.856,0.9999969964124925,-24.560814134662152
8.864,0.999996926791564,-24.798220325471508
8.872,0.9999968567592341,-25.03566168623024
8.879999999999999,0.9999967863460587,-25.273137758181807
8.888,0.9999967155829194,-25.51064808243348
8.896,0.9999966445010171,-25.74819219996822
8.904,0.9999965731318634,-25.98576965165674
8.911999999999999,0.9999965015072739,-26.223379978269612
8.92,0.9999964296593604,-26.461022720489115
8.928,0.9999963576205227,-26.698697418921164
8.936,0.9999962854234419,-26.93640361410739
8.943999999999999,0.9999962131010712,-27.174140846537327
8.952,0.999996140686629,-27.411908656660287
8.96,0.9999960682135904,-27.649706584897313
8.968,0.9999959957156792,-27.887534171653314
8.975999999999999,0.99999592322686,-28.125390957329273
8.984,0.999995850781329,-28.363276482334143
8.992,0.9999957784135068,-28.60119028709685
9.0,0.9999957061580299,-28.839131912078454
9.008,0.999995634049741,-29.077100897784376
9.016,0.999995562123682,-29.315096784776276
9.024000000000001,0.9999954904150843,-29.553119113684144
9.032,0.9999954189593608,-29.791167425218433
9.04,0.999995347792097,-30.029241260182282
9.048,0.9999952769490421,-30.267340159483478
9.056000000000001,0.9999952064660997,-30.505463664146493
9.064,0.9999951363793199,-30.743611315324642
9.072,0.9999950667248895,-30.981782654312287
9.08,0.9999949975391235,-31.219977222556913
9.088000000000001,0.9999949288584553,-31.458194561670943
9.096,0.9999948607194283,-31.696434213444146
9.104,0.9999947931586869,-31.934695719855686
9.112,0.9999947262129655,-32.17297862308615
9.120000000000001,0.999994659919082,-32.41128246552957
9.128,0.9999945943139259,-32.64960678980554
9.136,0.9999945294344507,-32.88795113877146
9.144,0.9999944653176633,-33.126315055534484
9.152000000000001,0.9999944020006153,-33.36469808346348
9.16,0.999994339520393,-33.60309976620119
9.168,0.9999942779141083,-33.84151964767639
9.176,0.9999942172188893,-34.07995727211588
9.184000000000001,0.9999941574718695,-34.31841218405636
9.192,0.9999940987101797,-34.5568839283566
9.2,0.9999940409709374,-34.79537205020953
9.208,0.999993984291237,-35.03387609515423
9.216000000000001,0.9999939287081412,-35.272395609087724
9.224,0.9999938742586701,-35.510930138277196
9.232,0.9999938209797914,-35.749479229371936
9.24,0.9999937689084119,-35.98804242941538
9.248000000000001,0.9999937180813657,-36.22661928585678
9.256,0.9999936685354068,-36.46520934656338
9.264,0.9999936203071973,-36.70381215983243
9.272,0.9999935734332982,-36.94242727440296
9.280000000000001,0.99999352795016,-37.18105423946763
9.288,0.9999934838941118,-37.419692604684656
9.296,0.9999934413013524,-37.65834192018989
9.304,0.9999934002079399,-37.897001736608495
9.312000000000001,0.9999933606497821,-38.135671605066676
9.32,0.9999933226626264,-38.374351077203656
9.328,0.9999932862820502,-38.61303970518356
9.336,0.9999932515434499,-38.85173704170713
9.344,0.9999932184820332,-39.0904426400233
9.352,0.9999931871328067,-39.32915605394128
9.36,0.9999931575305682,-39.567876837842
9.368,0.9999931297098951,-39.80660454669009
9.376,0.9999931037051356,-40.045338736045245
9.384,0.9999930795503992,-40.28407896207429
9.392,0.9999930572795449,-40.522824781562356
9.4,0.9999930369261745,-40.76157575192505
9.408,0.9999930185236192,-41.000331431219536
9.416,0.9999930021049329,-41.239091378156466
9.424,0.9999929877028809,-41.47785515211137
9.432,0.9999929753499307,-41.716622313136334
9.44,0.9999929650782416,-41.955392421971226
9.448,0.9999929569196561,-42.1941650400556
9.456,0.9999929509056896,-42.432939729539655
9.464,0.9999929470675203,-42.6717160532962
9.472,0.9999929454359812,-42.91049357493156
9.48,0.9999929460415485,-43.14927185879734
9.488,0.9999929489143345,-43.38805047000145
9.496,0.9999929540840757,-43.62682897441981
9.504,0.9999929615801251,-43.865606938707195
9.512,0.9999929714314417,-44.10438393030894
9.52,0.9999929836665826,-44.343159517471776
9.528,0.9999929983136918,-44.58193326925545
9.536,0.9999930154004932,-44.82070475554342
9.544,0.9999930349542785,-45.059473547054516
9.552,0.9999930570019018,-45.298239215353625
