freq,mag,phase
6.0,0.9999982494065669,110.11435147301299
6.008,0.9999983865517685,110.01546254840767
6.016,0.9999985189266353,109.91655167988168
6.024,0.9999986466113171,109.8176188389933
6.032,0.9999987696853547,109.71866399732522
6.04,0.9999988882276817,109.6196871264847
6.048,0.999999002316626,109.52068819810367
6.056,0.9999991120299123,109.42166718383888
6.064,0.9999992174446632,109.32262405537209
6.072,0.9999993186374003,109.22355878441017
6.08,0.9999994156840472,109.1244713426853
6.088,0.9999995086599304,109.02536170195505
6.096,0.9999995976397807,108.92622983400254
6.104,0.9999996826977362,108.82707571063662
6.112,0.9999997639073419,108.727899303692
6.12,0.9999998413415541,108.62870058502935
6.128,0.9999999150727394,108.52947952653554
6.136,0.9999999851726785,108.43023610012366
6.144,1.0,108.33097027773329
6.152,1.0,108.23168203133052
6.16,1.0,108.13237133290822
6.168,0.9999999999999998,108.03303815448606
6.176,1.0,107.93368246811076
6.184,0.9999999999999999,107.83430424585619
6.192,1.0,107.73490345982344
6.2,1.0,107.6354800821411
6.208,1.0,107.53603408496531
6.216,1.0,107.43656544047992
6.224,0.9999999999999999,107.33707412089666
6.232,1.0,107.23756009845523
6.24,1.0,107.13802334542348
6.248,1.0,107.03846383409756
6.256,1.0,106.93888153680201
6.264,1.0,106.83927642588996
6.272,1.0,106.73964847374329
6.28,0.9999999999999999,106.6399976527726
6.288,1.0000000000000002,106.54032393541763
6.296,1.0,106.44062729414713
6.304,1.0,106.34090770145917
6.312,0.9999999999999998,106.24116512988125
6.32,1.0,106.14139955197037
6.328,1.0,106.04161094031325
6.336,1.0,105.9417992675264
6.344,1.0,105.84196450625636
6.352,1.0,105.74210662917972
6.36,1.0,105.64222560900335
6.368,1.0,105.54232141846445
6.376,1.0,105.44239403033083
6.384,1.0,105.3424434174009
6.392,0.9999999999999998,105.24246955250385
6.4,0.9999999999999999,105.14247240849987
6.408,1.0,105.04245195828021
6.416,1.0,104.94240817476727
6.424,0.9999999999999999,104.8423410309149
6.432,0.9999999999999999,104.74225049970833
6.44,0.9999999999999998,104.64213655416451
6.448,0.9999999999999999,104.5419991673321
6.456,1.0,104.44183831229167
6.464,1.0,104.34165396215582
6.472,1.0,104.24144609006932
6.48,1.0,104.14121466920928
6.4879999999999995,1.0,104.0409596727852
6.496,1.0,103.94068107403919
6.504,1.0,103.8403788462461
6.5120000000000005,1.0,103.74005296271355
6.52,1.0,103.63970339678224
6.5280000000000005,0.9999999999999999,103.53933012182591
6.536,1.0,103.43893311125163
6.5440000000000005,1.0,103.33851233849977
6.552,1.0,103.23806777704435
6.5600000000000005,0.9999999999999999,103.1375994003929
6.568,1.0,103.03710718208687
6.5760000000000005,1.0,102.93659109570153
6.584,1.0,102.83605111484631
6.592,1.0,102.73548721316477
6.6,0.9999999993476367,102.6348993643348
6.608,0.999999962116339,102.53428754206877
6.616,0.9999999245534676,102.43365172011362
6.624,0.9999998866983653,102.33299187225106
6.632,0.9999998485899001,102.2323079722976
6.64,0.9999998102664661,102.13159999410476
6.648,0.9999997717659859,102.03086791155923
6.656,0.9999997331259127,101.93011169858286
6.664,0.999999694383232,101.82933132913296
6.672,0.9999996555744636,101.72852677720233
6.68,0.9999996167356623,101.62769801681944
6.688,0.9999995779024222,101.52684502204848
6.696,0.9999995391098764,101.42596776698961
6.704,0.9999995003926996,101.32506622577901
6.712,0.9999994617851107,101.22414037258903
6.72,0.999999423320873,101.12319018162832
6.728,0.9999993850332983,101.02221562714195
6.736,0.9999993469552465,100.92121668341159
6.744,0.9999993091191296,100.82019332475552
6.752,0.999999271556912,100.71914552552894
6.76,0.9999992343001134,100.61807326012394
6.768,0.9999991973798092,100.51697650296968
6.776,0.9999991608266356,100.41585522853256
6.784,0.9999991246707874,100.31470941131629
6.792,0.9999990889420226,100.21353902586206
6.8,0.9999990536696642,100.11234404674863
6.808,0.9999990188826007,100.0111244485925
6.816,0.9999989846092892,99.909880206048
6.824,0.9999989508777565,99.80861129380747
6.832,0.999998917715602,99.7073176866013
6.84,0.9999988851499989,99.60599935919814
6.848,0.9999988532076962,99.50465628640498
6.856,0.9999988219150205,99.4032884430673
6.864,0.9999987912978786,99.3018958040692
6.872,0.9999987613817581,99.2004783443335
6.88,0.9999987321917309,99.0990360388219
6.888,0.9999987037524538,98.99756886253503
6.896,0.9999986760881715,98.8960767905127
6.904,0.9999986492227179,98.79455979783391
6.912,0.9999986231795172,98.69301785961707
6.92,0.9999985979815881,98.59145095102001
6.928,0.9999985736515438,98.48985904724024
6.936,0.9999985502115939,98.38824212351496
6.944,0.9999985276835476,98.28660015512123
6.952,0.9999985060888151,98.18493311737613
6.96,0.9999984854484092,98.08324098563683
6.968,0.9999984657829469,97.98152373530073
6.976,0.9999984471126524,97.87978134180555
6.984,0.9999984294573588,97.77801378062955
6.992,0.9999984128365088,97.67622102729155
7.0,0.999998397269158,97.5744030573511
7.008,0.9999983827739766,97.47255984640861
7.016,0.999998369369251,97.37069137010546
7.024,0.9999983570728863,97.26879760412406
7.032,0.9999983459024063,97.16687852418814
7.04,0.9999983358749591,97.06493410606264
7.048,0.9999983270073154,96.96296432555404
7.056,0.9999983193158721,96.86096915851039
7.064,0.9999983128166553,96.75894858082138
7.072,0.9999983075253186,96.65690256841857
7.08,0.9999983034571504,96.55483109727545
7.088,0.9999983006270708,96.45273414340754
7.096,0.9999982990496368,96.35061168287255
7.104,0.9999982987390422,96.24846369177051
7.112,0.9999982997091214,96.14629014624381
7.12,0.9999983019733498,96.04409102247743
7.128,0.9999983055448469,95.94186629669899
7.136,0.9999983104363771,95.83961594517885
7.144,0.9999983166603528,95.73733994423031
7.152,0.9999983242288357,95.63503827020965
7.16,0.9999983331535386,95.53271089951626
7.168,0.9999983434458278,95.43035780859282
7.176,0.9999983551167257,95.32797897392533
7.184,0.9999983681769102,95.22557437204331
7.192,0.9999983826367199,95.12314397951982
7.2,0.9999983985061546,95.0206877729717
7.208,0.9999984157948758,94.91820572905958
7.216,0.9999984345122116,94.81569782448803
7.224,0.9999984546671566,94.7131640360057
7.232,0.999998476268374,94.6106043404054
7.24,0.9999984993241985,94.50801871452427
7.248,0.9999985238426373,94.4054071352438
7.256,0.9999985498313729,94.30276957949009
7.264,0.9999985772977644,94.20010602423376
7.272,0.9999986062488498,94.0974164464903
7.28,0.9999986366913475,93.99470082331997
7.288,0.9999986686316592,93.8919591318281
7.296,0.9999987020758706,93.78919134916505
7.304,0.9999987370297546,93.6863974525264
7.312,0.9999987734987728,93.58357741915309
7.32,0.9999988114880767,93.48073122633144
7.328,0.9999988510025107,93.37785885139336
7.336,0.9999988920466139,93.27496027171637
7.344,0.9999989346246215,93.17203546472385
7.352,0.9999989787404673,93.06908440788496
7.36,0.9999990243977853,92.96610707871494
7.368,0.9999990715999125,92.86310345477509
7.376,0.9999991203498888,92.76007351367295
7.384,0.9999991706504617,92.65701723306236
7.392,0.9999992225040867,92.55393459064368
7.4,0.9999992759129286,92.45082556416371
7.4079999999999995,0.9999993308788651,92.34769013141599
7.416,0.9999993874034881,92.24452827024076
7.4239999999999995,0.9999994454881056,92.1413399585253
7.432,0.9999995051337429,92.03812517420363
7.4399999999999995,0.999999566341146,91.93488389525712
7.448,0.9999996291107824,91.83161609971417
7.4559999999999995,0.9999996934428441,91.7283217656506
7.464,0.9999997593372485,91.6250008711896
7.4719999999999995,0.999999826793641,91.52165339450194
7.48,0.9999998958113963,91.41827931380595
7.4879999999999995,0.9999999663896217,91.31487860736783
7.496,0.9999999999999999,91.21145125350152
7.504,1.0,91.10799723056901
7.5120000000000005,1.0,91.00451651698027
7.52,1.0,90.90100909119357
7.5280000000000005,1.0,90.79747493171534
7.536,1.0,90.69391401710048
7.5440000000000005,1.0,90.59032632595233
7.552,1.0,90.48671183692291
7.5600000000000005,0.9999999999999999,90.3830705287128
7.568,0.9999999999999999,90.27940238007159
7.5760000000000005,1.0,90.17570736979758
7.584,0.9999999999999998,90.07198547673826
7.5920000000000005,1.0,89.96823667979011
7.6,1.0,89.86446095789893
7.6080000000000005,0.9999999999999999,89.7606582900598
7.616,1.0,89.65682865531724
7.6240000000000006,0.9999999999999998,89.55297203276534
7.632,0.9999999999999999,89.44908840154781
7.640000000000001,1.0,89.34517774085805
7.648,1.0,89.24124002993939
7.656000000000001,0.9999999999999999,89.13727524808502
7.664,1.0,89.03328337463829
7.672,1.0,88.92926438899256
7.68,0.9999999999999999,88.82521827059155
7.688,1.0,88.72114499892928
7.696,1.0,88.61704455355022
7.704,0.9999999999999999,88.51291691404937
7.712,0.9999999999999998,88.40876206007248
7.72,1.0,88.3045799713159
7.728,0.9999999999999999,88.20037062752698
7.736,1.0,88.09613400850388
7.744,0.9999999999999999,87.99187009409592
7.752,1.0,87.88757886420346
7.76,1.0,87.78326029877823
7.768,1.0,87.67891437782318
7.776,1.0,87.57454108139277
7.784,1.0,87.47014038959294
7.792,0.9999999999999999,87.36571228258134
7.8,1.0,87.26125674056728
7.808,0.9999999999999999,87.15677374381194
7.816,1.0,87.05226327262837
7.824,0.9999999999999999,86.94772530738169
7.832,1.0,86.8431598284891
7.84,0.9999999999999999,86.73856681642005
7.848,0.9999999999999999,86.6339462516962
7.856,1.0,86.52929811489174
7.864,1.0,86.42462238663325
7.872,1.0,86.31991904759991
7.88,0.9999999999999999,86.21518807852362
7.888,0.9999999999999999,86.110429460189
7.896,0.9999999999999999,86.00564317343358
7.904,0.9999999999999999,85.90082919914785
7.912,0.9999999999999999,85.7959875182753
7.92,1.0,85.6911181118126
7.928,1.0,85.58622096080964
7.936,1.0,85.48129604636968
7.944,1.0,85.37634334964932
7.952,1.0,85.27136285185873
7.96,0.9999999999999999,85.16635453426166
7.968,1.0,85.06131837817553
7.976,1.0,84.95625436497158
7.984,0.9999999999999998,84.85116247607489
7.992,0.9999999999999999,84.74604269296451
8.0,1.0,84.64089499717349
8.008,0.9999999999999999,84.53571937028912
8.016,0.9999999999999999,84.43051579395278
8.024000000000001,1.0,84.32528424986027
8.032,0.9999999999999999,84.2200247197618
8.04,1.0,84.11473718546195
8.048,0.9999999999999999,84.00942162881995
8.056000000000001,1.0,83.9040780317497
8.064,0.9999999999999999,83.79870637621988
8.072,1.0,83.69330664425394
8.08,1.0,83.5878788179302
8.088000000000001,1.0,83.48242287938213
8.096,0.9999999999999999,83.37693881079822
8.104,1.0,83.27142659442211
8.112,1.0,83.1658862125527
8.120000000000001,1.0,83.0603176475443
8.128,0.9999999999999998,82.95472088180661
8.136,1.0,82.84909589780483
8.144,0.9999999999999999,82.74344267805976
8.152000000000001,1.0,82.6377612051479
8.16,1.0,82.53205146170149
8.168,1.0,82.42631343040865
8.176,0.9999999999999999,82.32054709401335
8.184000000000001,0.9999999999999999,82.21475243531565
8.192,0.9999999999999999,82.10892943717168
8.2,1.0,82.00307808249372
8.208,1.0,81.89719835425026
8.216000000000001,1.0,81.79129023546622
8.224,1.0,81.6853537092229
8.232,1.0,81.57938875865806
8.24,1.0,81.47339536696599
8.248000000000001,0.9999999999999998,81.36737351739772
8.256,1.0,81.26132319326102
8.264,1.0,81.15524437792038
8.272,1.0,81.04913705479719
8.280000000000001,1.0,80.94300120736985
8.288,1.0,80.83683681917381
8.296,1.0,80.7306438738016
8.304,1.0,80.6244223549029
8.312,0.9999999999999999,80.51817224618479
8.32,1.0,80.41189353141155
8.328,1.0,80.30558619440501
8.336,1.0,80.19925021904439
8.344,1.0,80.0928855892666
8.352,1.0,79.98649228906605
8.36,1.0,79.88007030249504
8.368,0.9999999999999999,79.77361961366353
8.376,0.9999999999999999,79.66714020673943
8.384,1.0,79.56063206594854
8.392,1.0,79.45409517557474
8.4,1.0,79.34752951995992
8.408,1.0,79.24093508350423
8.416,0.9999999999999999,79.13431185066595
8.424,0.9999999999999999,79.02765980596178
8.432,1.0,78.92097893396667
8.44,0.9999999999999999,78.81426921931414
8.448,1.0,78.70753064669611
8.456,0.9999999999999999,78.60076320086323
8.464,1.0,78.49396686662466
8.472,0.9999999999999998,78.38714162884843
8.48,0.9999999999999999,78.28028747246124
8.488,0.9999999999999999,78.17340438244877
8.496,0.9999999999999999,78.06649234385554
8.504,1.0,77.95955134178519
8.512,1.0,77.85258136140028
8.52,0.9999999999999999,77.74558238792267
8.528,1.0,77.63855440663332
8.536,1.0,77.5314974028725
8.544,0.9999999999999999,77.42441136203983
8.552,0.9999999999999999,77.31729626959434
8.56,1.0,77.21015211105448
8.568,1.0,77.10297887199835
8.576,1.0,76.99577653806351
8.584,1.0,76.88854509494736
8.592,0.9999999999999999,76.78128452840686
8.6,0.9999999999999999,76.67399482425891
8.608,1.0,76.5666759683802
8.616,1.0,76.45932794670736
8.624,0.9999999999999999,76.35195074523699
8.632,1.0,76.2445443500258
8.64,1.0,76.13710874719058
8.648,1.0,76.0296439229083
8.656,1.0,75.92214986341614
8.664,1.0,75.81462655501166
8.672,0.9999999999999999,75.70707398405267
8.68,0.9999999999999999,75.59949213695752
8.688,0.9999999999999999,75.49188100020496
8.696,0.9999999999999999,75.38424056033433
8.704,1.0,75.27657080394556
8.712,0.9999999999999999,75.16887171769926
8.72,0.9999999999999999,75.0611432883167
8.728,0.9999999999999999,74.95338550258002
8.736,1.0,74.84559834733213
8.744,1.0,74.73778180947691
8.752,1.0,74.6299358759791
8.76,1.0,74.52206053386459
8.768,1.0,74.41415577022018
8.776,1.0,74.30622157219392
8.784,1.0,74.19825792699503
8.792,0.9999999999999999,74.0902648218939
8.8,0.9999999999999999,73.98224224422229
8.808,1.0,73.87419018137331
8.815999999999999,1.0,73.76610862080145
8.824,1.0,73.65799755002264
8.832,0.9999999999999999,73.54985695661438
8.84,1.0,73.44168682821575
8.847999999999999,1.0,73.33348715252743
8.856,0.9999999999999998,73.22525791731175
8.864,1.0,73.11699911039283
8.872,0.9999999999999999,73.00871071965658
8.879999999999999,0.9999999999999998,72.90039273305072
8.888,0.9999999999999999,72.79204513858483
8.896,1.0,72.6836679243305
8.904,0.9999999999999999,72.57526107842135
8.911999999999999,1.0,72.46682458905295
8.92,1.0,72.35835844448296
8.928,0.9999999999999999,72.24986263303133
8.936,1.0000000000000002,72.14133714308012
8.943999999999999,0.9999999999999999,72.03278196307365
8.952,1.0,71.92419708151851
8.96,1.0,71.8155824869837
8.968,1.0,71.70693816810066
8.975999999999999,1.0,71.59826411356319
8.984,0.9999999999999999,71.4895603121276
8.992,1.0,71.3808267526128
9.0,1.0,71.27206342390035
9.008,0.9999999999999999,71.16327031493432
9.016,0.9999999999999999,71.05444741472155
9.024000000000001,1.0,70.94559471233164
9.032,0.9999999999999999,70.83671219689701
9.04,0.9999999999999999,70.72779985761284
9.048,0.9999999999999999,70.6188576837372
9.056000000000001,0.9999999999999999,70.50988566459117
9.064,1.0,70.40088378955879
9.072,1.0,70.29185204808707
9.08,1.0,70.18279042968612
9.088000000000001,0.9999999999999999,70.07369892392921
9.096,1.0,69.96457752045278
9.104,1.0,69.85542620895642
9.112,1.0,69.746244979203
9.120000000000001,0.9999999999999999,69.6370338210187
9.128,1.0,69.52779272429312
9.136,1.0,69.41852167897915
9.144,1.0,69.30922067509313
9.152000000000001,0.9999999999999999,69.19988970271494
9.16,1.0,69.09052875198799
9.168,1.0,68.98113781311922
9.176,1.0,68.87171687637918
9.184000000000001,1.0000000000000002,68.76226593210211
9.192,1.0,68.65278497068603
9.2,1.0,68.5432739825926
9.208,0.9999999999999998,68.43373295834729
9.216000000000001,1.0,68.32416188853945
9.224,1.0,68.21456076382233
9.232,1.0,68.1049295749131
9.24,1.0,67.99526831259284
9.248000000000001,0.9999999999999999,67.88557696770671
9.256,1.0,67.77585553116394
9.264,1.0000000000000002,67.66610399393785
9.272,1.0,67.55632234706586
9.280000000000001,0.9999999999999999,67.44651058164966
9.288,0.9999999999999999,67.33666868885517
9.296,0.9999999999999999,67.22679665991257
9.304,1.0,67.11689448611632
9.312000000000001,1.0,67.00696215882537
9.32,1.0,66.89699966946304
9.328,1.0,66.78700700951708
9.336,0.9999999999999998,66.67698417053975
9.344,1.0,66.56693114414794
9.352,1.0,66.45684792202304
9.36,1.0,66.3467344959112
9.368,1.0,66.23659085762316
9.376,1.0,66.12641699903449
9.384,0.9999999999999999,66.01621291208545
9.392,1.0,65.90597858878127
9.4,1.0,65.79571402119191
9.408,0.9999999999999999,65.68541920145245
9.416,0.9999999999999999,65.57509412176273
9.424,0.9999999999999999,65.46473877438784
9.432,1.0000000000000002,65.35435315165778
9.44,1.0,65.24393724596783
9.448,0.9999999999999999,65.13349104977831
9.456,1.0,65.02301455561496
9.464,1.0,64.91250775606859
9.472,1.0,64.80197064379557
9.48,1.0,64.69140321151748
9.488,0.9999999999999999,64.58080545202154
9.496,1.0,64.4701773581603
9.504,0.9999999999999999,64.35951892285206
9.512,1.0,64.24883013908055
9.52,1.0,64.13811099989543
9.528,0.9999999999999998,64.02736149841186
9.536,1.0,63.916581627811
9.544,0.9999999999999999,63.80577138133976
9.552,1.0,63.6949307523111
9.56,1.0,63.58405973410389
9.568,1.0,63.47315832016314
9.576,0.9999999999999999,63.36222650399994
9.584,1.0,63.251264279191695
9.592,1.0,63.14027163938198
9.6,1.0,63.02924857828086
9.608,0.9999999999999999,62.9181950896647
9.616,1.0,62.80711116737655
9.624,0.9999999999999999,62.69599680532588
9.632,0.9999999999999999,62.584851997489025
9.64,1.0,62.47367673790897
9.648,0.9999999999999999,62.3624710206956
9.656,0.9999999999999999,62.25123484002577
9.664,0.9999999999999999,62.13996819014336
9.672,1.0,62.028671065359404
9.68,1.0,61.91734346005219
9.688,1.0,61.80598536866733
9.696,1.0,61.69459678571794
9.704,1.0,61.58317770578467
9.712,1.0,61.471728123515895
9.72,1.0,61.3602480336277
9.728,1.0,61.248737430904235
9.736,0.9999999999999999,61.137196310197574
9.744,1.0,61.025624666428094
9.752,0.9999999999999999,60.91402249458441
9.76,0.9999999999999999,60.80238978972368
9.768,1.0,60.690726546971575
9.776,1.0,60.579032761522676
9.784,0.9999999999999999,60.467308428640386
9.792,1.0,60.35555354365726
9.8,1.0,60.24376810197508
9.808,1.0,60.13195209906515
9.816,1.0,60.02010553046834
9.824,1.0,59.90822839179541
9.832,0.9999999999999999,59.79632067872711
9.84,1.0,59.68438238701447
9.847999999999999,1.0000000000000002,59.572413512478995
9.856,1.0,59.46041405101284
9.864,1.0,59.34838399857914
9.872,1.0,59.23632335121225
9.879999999999999,1.0,59.12423210501791
9.888,0.9999999999999999,59.012110256173585
9.896,1.0,58.899957800928775
9.904,0.9999999999999999,58.787774735605375
9.911999999999999,1.0,58.675561056597694
9.92,1.0,58.56331676037313
9.928,0.9999999999999999,58.451041843472325
9.936,0.9999999999999999,58.33873630250957
9.943999999999999,0.9999999999999999,58.22640013417313
9.952,0.9999999999999999,58.114033335225685
9.96,1.0,58.00163590250469
9.968,1.0,57.889207832922914
9.975999999999999,0.9999999999999999,57.776749123468704
9.984,1.0,57.66425977120658
9.992,1.0,57.5517397732777
10.0,0.9999999999999999,57.439189126900416
10.008,1.0,57.32660782937068
10.016,1.0,57.21399587806271
10.024000000000001,1.0,57.1013532704296
10.032,1.0,56.98868000400394
10.04,1.0,56.87597607639832
10.048,0.9999999999999999,56.763241485306175
10.056000000000001,0.9999999999999999,56.65047622850253
10.064,0.9999999999999999,56.53768030384459
10.072,1.0,56.42485370927269
10.08,1.0000000000000002,56.31199644281096
10.088000000000001,1.0,56.19910850256841
10.096,1.0,56.08618988673974
10.104,1.0,55.973240593606235
10.112,1.0,55.860260621536874
10.120000000000001,1.0,55.74724996898946
10.128,1.0,55.634208634511616
10.136,0.9999999999999999,55.52113661674204
10.144,0.9999999999999999,55.40803391441172
10.152000000000001,0.9999999999999998,55.29490052634532
10.16,1.0,55.18173645146255
10.168,1.0,55.068541688779526
10.176,1.0,54.955316237410365
10.184000000000001,1.0,54.84206009656892
10.192,1.0,54.7287732655704
10.2,1.0,54.61545574383309
10.208,1.0,54.50210753088039
10.216000000000001,0.9999999999999999,54.38872862634279
10.224,1.0,54.275319029960016
10.232,0.9999999999999999,54.16187874158319
10.24,0.9999999999999999,54.048407761177224
10.248000000000001,0.9999999999999999,53.934906088823446
10.256,1.0,53.8213737247221
10.264,1.0,53.70781066919521
10.272,0.9999999999999999,53.59421692268946
10.280000000000001,1.0,53.480592485779454
10.288,1.0,53.366937359170954
10.296,1.0,53.253251543704344
10.304,1.0,53.139535040358325
