freq,mag,phase
6.0,0.9999947366587282,-128.30986640205958
6.008,0.9999936400125324,-128.6897318013263
6.016,0.9999926010963144,-129.06926966672285
6.024,0.9999916184414761,-129.44848176471095
6.032,0.999990690601906,-129.82736987109442
6.04,0.9999898161537841,-130.20593577088454
6.048,0.9999889936953893,-130.58418125816718
6.056,0.9999882218469046,-130.96210813597074
6.064,0.9999874992502249,-131.33971821613522
6.072,0.9999868245687626,-131.71701331918325
6.08,0.9999861964872511,-132.09399527419146
6.088,0.9999856137115548,-132.47066591866366
6.096,0.9999850749684721,-132.84702709840536
6.104,0.9999845790055425,-133.22308066739896
6.112,0.999984124590854,-133.5988284876807
6.12,0.9999837105128468,-133.9742724292185
6.128,0.9999833355801236,-134.34941436979142
6.136,0.9999829986212525,-134.72425619486978
6.144,0.9999826984845767,-135.09879979749704
6.152,0.9999824340380224,-135.47304707817264
6.16,0.9999822041689028,-135.84699994473584
6.168,0.9999820077837299,-136.2206603122515
6.176,0.9999818438080216,-136.59403010289589
6.184,0.9999817111861098,-136.96711124584485
6.192,0.9999816088809502,-137.33990567716253
6.2,0.999981535873933,-137.7124153396914
6.208,0.9999814911646919,-138.08464218294333
6.216,0.9999814737709127,-138.45658816299226
6.224,0.9999814827281521,-138.82825524236753
6.232,0.9999815170896397,-139.19964538994873
6.24,0.999981575926096,-139.57076058086142
6.248,0.9999816583255463,-139.9416027963743
6.256,0.9999817633931322,-140.31217402379727
6.264,0.9999818902509247,-140.68247625638074
6.272,0.999982038037743,-141.05251149321606
6.28,0.9999822059089668,-141.4222817391371
6.288,0.9999823930363534,-141.79178900462276
6.296,0.9999825986078593,-142.16103530570084
6.304,0.9999828218274499,-142.5300226638529
6.312,0.9999830619149255,-142.89875310592015
6.32,0.9999833181057366,-143.2672286640105
6.328,0.999983589650807,-143.63545137540677
6.336,0.9999838758163535,-144.00342328247567
6.344,0.9999841758837084,-144.37114643257812
6.352,0.9999844891491421,-144.73862287798076
6.36,0.9999848149236847,-145.1058546757679
6.368,0.9999851525329586,-145.4728438877552
6.376,0.9999855013169923,-145.83959258040392
6.384,0.9999858606300572,-146.20610282473652
6.392,0.9999862298404883,-146.57237669625292
6.4,0.999986608330518,-146.93841627484792
6.408,0.9999869954960997,-147.30422364472994
6.416,0.9999873907467449,-147.6698008943401
6.424,0.9999877935053453,-148.0351501162729
6.432,0.9999882032080164,-148.40027340719746
6.44,0.9999886193039209,-148.7651728677799
6.448,0.9999890412551092,-149.12985060260672
6.456,0.9999894685363497,-149.49430872010888
6.464,0.9999899006349723,-149.8585493324872
6.472,0.9999903370506975,-150.22257455563835
6.48,0.9999907772954812,-150.5863865090818
6.4879999999999995,0.9999912208933517,-150.94998731588794
6.496,0.9999916673802494,-151.31337910260692
6.504,0.9999921163038699,-151.67656399919818
6.5120000000000005,0.9999925672235065,-152.03954413896145
6.52,0.9999930197098942,-152.4023216584676
6.5280000000000005,0.9999934733450525,-152.76489869749187
6.536,0.9999939277221348,-153.12727739894623
6.5440000000000005,0.9999943824452711,-153.48945990881424
6.552,0.9999948371294217,-153.85144837608513
6.5600000000000005,0.9999952914002226,-154.21324495269036
6.568,0.9999957448938334,-154.5748517934394
6.5760000000000005,0.9999961972567968,-154.93627105595777
6.584,0.9999966481458822,-155.29750490062472
6.592,0.9999970972279467,-155.65855549051236
6.6,0.9999975441797856,-156.01942499132548
6.608,0.9999979886879885,-156.38011557134192
6.616,0.9999984304487989,-156.74062940135377
6.624,0.9999988691679703,-157.10096865460974
6.632,0.9999993045606252,-157.46113550675753
6.64,0.9999997363511175,-157.8211321357876
6.648,1.0,-158.18096072197733
6.656,0.9999999999999999,-158.54062344783588
6.664,0.9999999999999999,-158.90012249804997
6.672,0.9999999999999999,-159.25946005943018
6.68,1.0,-159.61863832085803
6.688,0.9999999999999999,-159.97765947323362
6.696,0.9999999999999998,-160.3365257094241
6.704,1.0,-160.69523922421274
6.712,0.9999999999999999,-161.05380221424858
6.72,1.0,-161.41221687799663
6.728,1.0,-161.7704854156892
6.736,0.9999999999999999,-162.12861002927718
6.744,0.9999999999999999,-162.48659292238239
6.752,0.9999999999999999,-162.84443630025044
6.76,1.0,-163.20214236970392
6.768,0.9999999999999999,-163.55971333909673
6.776,0.9999999999999999,-163.91715141826833
6.784,1.0,-164.27445881849897
6.792,0.9999999999999999,-164.63163775246556
6.8,0.9999999999999999,-164.9886904341977
6.808,1.0,-165.34561907903446
6.816,1.0,-165.70242590358183
6.824,1.0,-166.05911312567045
6.832,1.0,-166.41568296431387
6.84,0.9999999999999999,-166.7721376396676
6.848,1.0,-167.1284793729882
6.856,0.9999999999999999,-167.48471038659324
6.864,0.9999999999999999,-167.84083290382145
6.872,1.0,-168.1968491489937
6.88,0.9999999999999999,-168.55276134737386
6.888,1.0,-168.90857172513068
6.896,0.9999999999999999,-169.2642825092999
6.904,0.9999999999999999,-169.61989592774648
6.912,0.9999999999999999,-169.97541420912785
6.92,0.9999999999999999,-170.330839582857
6.928,1.0,-170.68617427906634
6.936,1.0,-171.04142052857168
6.944,0.9999999999999999,-171.3965805628369
6.952,0.9999999999999999,-171.7516566139387
6.96,1.0,-172.10665091453188
6.968,0.9999999999999999,-172.46156569781482
6.976,1.0,-172.81640319749553
6.984,0.9999999999999999,-173.1711656477579
6.992,0.9999999999999999,-173.52585528322825
7.0,1.0,-173.88047433894215
7.008,0.9999999999999999,-174.2350250503118
7.016,0.9999999999999999,-174.58950965309344
7.024,1.0,-174.94393038335514
7.032,0.9999999999999999,-175.2982894774449
7.04,1.0,-175.6525891719591
7.048,0.9999999999999999,-176.00683170371087
7.056,1.0,-176.36101930969923
7.064,1.0,-176.71515422707807
7.072,0.9999999999999998,-177.06923869312544
7.08,0.9999999999999998,-177.42327494521328
7.088,1.0,-177.7772652207771
7.096,0.9999999999999999,-178.13121175728608
7.104,0.9999999999999999,-178.48511679221318
7.112,1.0,-178.83898256300557
7.12,1.0,-179.19281130705525
7.128,0.9999999999999999,-179.54660526166975
7.136,0.9999999999999999,-179.90036666404316
7.144,0.9999999999999999,179.74590224877298
7.152,1.0,179.39219923989822
7.16,1.0,179.03852207265206
7.168,0.9999999999999999,178.68486851058222
7.176,0.9999999999999999,178.3312363174932
7.184,1.0,177.9776232574745
7.192,0.9999999999999999,177.62402709492878
7.2,0.9999999999999999,177.2704455945998
7.208,1.0,176.91687652160056
7.216,1.0,176.56331764144113
7.224,1.0,176.20976672005648
7.232,1.0,175.8562215238342
7.24,0.9999999999999999,175.50267981964225
7.248,1.0,175.14913937485665
7.256,1.0,174.79559795738902
7.264,1.0,174.4420533357143
7.272,1.0,174.08850327889812
7.28,0.9999999999999999,173.7349455566246
7.288,1.0,173.3813779392238
7.296,1.0000000000000002,173.02779819769924
7.304,1.0000000000000002,172.67420410375553
7.312,0.9999999999999999,172.320593429826
7.32,1.0,171.96696394910037
7.328,1.0,171.6133134355523
7.336,1.0,171.25963966396702
7.344,1.0,170.9059404099695
7.352,1.0000000000000002,170.5522134500519
7.36,0.9999999999999999,170.1984565616016
7.368,1.0,169.84466752292923
7.376,1.0,169.49084411329673
7.384,0.9999999999999999,169.13698411294547
7.392,0.9999999999999999,168.78308530312458
7.4,1.0,168.42914546611937
7.4079999999999995,0.9999999999999999,168.07516238527978
7.416,1.0,167.72113384504894
7.4239999999999995,1.0,167.36705763099226
7.432,1.0,167.01293152982592
7.4399999999999995,0.9999999999999999,166.65875332944637
7.448,0.9999999999999999,166.30452081895922
7.4559999999999995,1.0,165.95023178870895
7.464,1.0,165.59588403030813
7.4719999999999995,1.0,165.24147533666772
7.48,0.9999999999999999,164.8870035020265
7.4879999999999995,0.9999999999999999,164.53246632198156
7.496,1.0,164.17786159351857
7.504,0.9999999999999999,163.82318711504257
7.5120000000000005,1.0,163.4684406864083
7.52,0.9999999999999999,163.1136201089519
7.5280000000000005,1.0,162.75872318552177
7.536,0.9999999999999999,162.40374772051038
7.5440000000000005,1.0,162.04869151988572
7.552,0.9999999999999999,161.6935523912239
7.5600000000000005,0.9999999999999999,161.338328143741
7.568,1.0,160.98301658832614
7.5760000000000005,1.0,160.62761553757386
7.584,1.0,160.2721228058181
7.5920000000000005,0.9999999999999999,159.91653620916483
7.6,0.9999999999999999,159.56085356552677
7.6080000000000005,0.9999999999999999,159.20507269465676
7.616,1.0,158.84919141818295
7.6240000000000006,0.9999999999999999,158.49320755964303
7.632,1.0,158.1371189445199
7.640000000000001,0.9999999914533241,157.78092340027672
7.648,0.9999996860936176,157.42461875639327
7.656000000000001,0.9999993803602516,157.06820284440172
7.664,0.9999990743732332,156.71167349792378
7.672,0.9999987682519134,156.35502855270718
7.68,0.999998462114958,155.99826584666343
7.688,0.99999815608032,155.64138321990546
7.696,0.9999978502652102,155.28437851478597
7.704,0.9999975447860707,154.92724957593586
7.712,0.9999972397585466,154.56999425030332
7.72,0.9999969352974613,154.21261038719342
7.728,0.9999966315167881,153.85509583830788
7.736,0.9999963285296269,153.4974484577855
7.744,0.9999960264481772,153.13966610224284
7.752,0.9999957253837141,152.7817466308157
7.76,0.9999954254465633,152.4236879052005
7.768,0.9999951267460798,152.06548778969687
7.776,0.9999948293906215,151.70714415125
7.784,0.9999945334875274,151.34865485949402
7.792,0.9999942391430965,150.99001778679556
7.8,0.9999939464625638,150.6312308082979
7.808,0.9999936555500801,150.2722918019657
7.816,0.9999933665086902,149.91319864863019
7.824,0.9999930794403127,149.5539492320348
7.832,0.9999927944457195,149.19454143888157
7.84,0.9999925116245156,148.8349731588778
7.848,0.9999922310751213,148.47524228478332
7.856,0.9999919528947508,148.1153467124586
7.864,0.9999916771793954,147.75528434091305
7.872,0.9999914040238052,147.39505307235402
7.88,0.9999911335214702,147.0346508122364
7.888,0.9999908657646047,146.6740754693129
7.896,0.9999906008441294,146.3133249556846
7.904,0.9999903388496538,145.9523971868525
7.912,0.9999900798694634,145.59129008176927
7.92,0.9999898239904998,145.23000156289214
7.928,0.9999895712983488,144.86852955623567
7.936,0.999989321877223,144.50687199142578
7.944,0.9999890758099491,144.14502680175414
7.952,0.999988833177953,143.78299192423333
7.96,0.9999885940612453,143.42076529965223
7.968,0.9999883585384093,143.0583448726328
7.976,0.999988126686587,142.69572859168667
7.984,0.9999878985814664,142.3329144092732
7.992,0.9999876742972701,141.96990028185735
8.0,0.999987453906742,141.60668416996924
8.008,0.9999872374811377,141.24326403826336
8.016,0.999987025090211,140.87963785557915
8.024000000000001,0.9999868168022049,140.51580359500204
8.032,0.9999866126838403,140.1517592339254
8.04,0.9999864128003064,139.78750275411255
8.048,0.9999862172152503,139.42303214176025
8.056000000000001,0.9999860259907682,139.05834538756272
8.064,0.999985839187396,138.69344048677607
8.072,0.9999856568641009,138.32831543928347
8.08,0.9999854790782726,137.9629682496615
8.088000000000001,0.9999853058857159,137.5973969272469
8.096,0.9999851373406425,137.23159948620423
8.104,0.9999849734956644,136.86557394559384
8.112,0.9999848144017857,136.49931832944108
8.120000000000001,0.9999846601083973,136.1328306668064
8.128,0.9999845106632698,135.76610899185576
8.136,0.9999843661125479,135.3991513439317
8.144,0.9999842265007445,135.03195576762573
8.152000000000001,0.9999840918707354,134.66452031285144
8.16,0.9999839622637547,134.29684303491794
8.168,0.99998383771939,133.92892199460422
8.176,0.9999837182755775,133.5607552582347
8.184000000000001,0.9999836039685986,133.19234089775526
8.192,0.9999834948330767,132.8236769908101
8.2,0.9999833909019722,132.4547616208193
8.208,0.9999832922065818,132.08559287705745
8.216000000000001,0.9999831987765327,131.716168854733
8.224,0.9999831106397844,131.3464876550685
8.232,0.999983027822622,130.9765473853811
8.24,0.9999829503496582,130.6063461591648
8.248000000000001,0.9999828782438294,130.23588209617296
8.256,0.9999828115263951,129.86515332250184
8.264,0.9999827502169395,129.4941579706746
8.272,0.9999826943333665,129.1228941797265
8.280000000000001,0.9999826438919026,128.75136009529135
8.288,0.9999825989070973,128.37955386968778
8.296,0.9999825593918212,128.00747366200716
8.304,0.9999825253572683,127.63511763820193
8.312,0.9999824968129573,127.26248397117557
8.32,0.9999824737667313,126.88957084087197
8.328,0.9999824562247615,126.5163764343674
8.336,0.999982444191547,126.14289894596175
8.344,0.9999824376699186,125.76913657727195
8.352,0.9999824366610401,125.3950875373253
8.36,0.999982441164413,125.02075004265427
8.368,0.9999824511778763,124.64612231739162
8.376,0.9999824666976141,124.27120259336718
8.384,0.9999824877181556,123.89598911020457
8.392,0.9999825142323812,123.5204801154197
8.4,0.9999825462315258,123.14467386451922
8.408,0.9999825837051843,122.76856862110081
8.416,0.9999826266413155,122.39216265695339
8.424,0.9999826750262478,122.01545425215924
8.432,0.9999827288446845,121.63844169519578
8.44,0.9999827880797089,121.26112328303952
8.448,0.9999828527127919,120.88349732126972
8.456,0.9999829227237967,120.50556212417389
8.464,0.9999829980909866,120.12731601485328
8.472,0.9999830787910307,119.74875732533025
8.48,0.9999831647990116,119.3698843966553
8.488,0.9999832560884335,118.99069557901626
8.496,0.9999833526312292,118.61118923184719
8.504,0.9999834543977677,118.23136372393913
8.512,0.9999835613568635,117.85121743355074
8.52,0.999983673475785,117.470748748521
8.528,0.9999837907202624,117.08995606638136
8.536,0.9999839130544977,116.70883779447017
8.544,0.9999840404411741,116.32739235004661
8.552,0.9999841728414653,115.94561816040691
8.56,0.9999843102150455,115.56351366299981
8.568,0.9999844525201007,115.18107730554456
8.576,0.9999845997133374,114.79830754614814
8.584,0.9999847517499943,114.41520285342476
8.592,0.9999849085838538,114.03176170661494
8.6,0.999985070167253,113.64798259570658
8.608,0.9999852364510948,113.2638640215557
8.616,0.9999854073848606,112.87940449600919
8.624,0.9999855829166218,112.4946025420271
8.632,0.999985762993053,112.10945669380709
8.64,0.9999859475594431,111.72396549690835
8.648,0.9999861365597111,111.33812750837757
8.656,0.9999863299364159,110.95194129687451
8.664,0.9999865276307724,110.56540544279947
8.672,0.9999867295826641,110.17851853842052
8.68,0.9999869357306579,109.79127918800239
8.688,0.9999871460120167,109.40368600793533
8.696,0.9999873603627167,109.01573762686552
8.704,0.9999875787174597,108.62743268582528
8.712,0.9999878010096886,108.23876983836517
8.72,0.9999880271716044,107.84974775068548
8.728,0.9999882571341804,107.4603651017699
8.736,0.9999884908271782,107.07062058351828
8.744,0.9999887281791638,106.68051290088191
8.752,0.9999889691175238,106.29004077199754
8.76,0.9999892135684835,105.89920292832396
8.768,0.9999894614571212,105.50799811477752
8.776,0.9999897127073878,105.11642508986992
8.784,0.9999899672421226,104.72448262584506
8.792,0.9999902249830711,104.33216950881808
8.8,0.999990485850904,103.93948453891349
8.808,0.9999907497652338,103.5464265304054
8.815999999999999,0.999991016644635,103.15299431185694
8.824,0.9999912864066596,102.75918672626126
8.832,0.9999915589678595,102.36500263118288
8.84,0.999991834243804,101.97044089889923
8.847999999999999,0.9999921121490987,101.57550041654292
8.856,0.9999923925974054,101.1801800862446
8.864,0.999992675501462,100.78447882527664
8.872,0.999992960773103,100.38839556619656
8.879999999999999,0.9999932483232791,99.99192925699133
8.888,0.9999935380620777,99.5950788612222
8.896,0.9999938298987437,99.19784335817018
8.904,0.9999941237417013,98.80022174298132
8.911999999999999,0.9999944194985737,98.40221302681269
8.92,0.9999947170762049,98.0038162369789
8.928,0.9999950163806829,97.60503041709907
8.936,0.9999953173173594,97.20585462724374
8.943999999999999,0.9999956197908721,96.80628794408223
8.952,0.9999959237051692,96.40632946103052
8.96,0.9999962289635286,96.00597828839945
8.968,0.9999965354685828,95.60523355354296
8.975999999999999,0.9999968431223417,95.20409440100643
8.984,0.9999971518262135,94.80255999267567
8.992,0.9999974614810319,94.4006295079261
9.0,0.9999977719870753,93.99830214377174
9.008,0.9999980832440931,93.59557711501449
9.016,0.9999983951513296,93.19245365439362
9.024000000000001,0.999998707607546,92.78893101273572
9.032,0.999999020511047,92.38500845910413
9.04,0.9999993337597035,91.98068528094853
9.048,0.9999996472509791,91.575960784255
9.056000000000001,0.9999999608819516,91.17083429369588
9.064,0.9999999999999999,90.76530515277949
9.072,1.0,90.3593727239998
9.08,1.0,89.95303638898616
9.088000000000001,0.9999999999999999,89.54629554865326
9.096,0.9999999999999999,89.13914962335036
9.104,1.0,88.7315980530106
9.112,0.9999999999999999,88.3236402973002
9.120000000000001,1.0,87.91527583576786
9.128,0.9999999999999999,87.50650416799321
9.136,1.0,87.09732481373523
9.144,0.9999999999999999,86.68773731308058
9.152000000000001,0.9999999999999999,86.27774122659176
9.16,0.9999999999999999,85.86733613545455
9.168,1.0,85.45652164162489
9.176,1.0,85.04529736797596
9.184000000000001,1.0,84.63366295844465
9.192,0.9999999999999999,84.22161807817729
9.2,1.0,83.80916241367477
9.208,1.0,83.39629567293764
9.216000000000001,1.0,82.98301758561047
9.224,0.9999999999999999,82.56932790312536
9.232,1.0,82.15522639884479
9.24,1.0,81.74071286820411
9.248000000000001,0.9999999999999999,81.32578712885335
9.256,1.0,80.91044902079798
9.264,1.0,80.49469840653877
9.272,1.0,80.07853517121136
9.280000000000001,1.0,79.66195922272483
9.288,1.0,79.24497049189905
9.296,1.0,78.82756893260127
9.304,1.0,78.40975452188181
9.312000000000001,1.0,77.99152726010907
9.32,1.0,77.57288717110288
9.328,0.9999999999999998,77.15383430226697
9.336,0.9999999999999999,76.73436872472061
9.344,1.0,76.31449053342911
9.352,0.9999999999999999,75.8941998473324
9.36,0.9999999999999998,75.4734968094736
9.368,0.9999999999999999,75.05238158712486
9.376,0.9999999999999999,74.63085437191357
9.384,1.0,74.2089153799454
9.392,0.9999999999999999,73.78656485192768
9.4,0.9999999999999999,73.36380305328989
9.408,1.0,72.94063027430394
9.416,1.0,72.5170468302017
9.424,1.0,72.0930530612923
9.432,0.9999999999999999,71.66864933307642
9.44,0.9999999999999999,71.24383603636042
9.448,1.0,70.81861358736725
9.456,1.0,70.39298242784731
9.464,1.0,69.96694302518583
9.472,0.9999999999999999,69.54049587251004
9.48,1.0,69.11364148879301
9.488,1.0,68.68638041895714
9.496,1.0,68.25871323397412
9.504,0.9999999999999999,67.83064053096453
9.512,1.0,67.4021629332937
9.52,1.0,66.97328109066738
9.528,1.0,66.54399567922353
9.536,0.9999999999999999,66.11430740162342
9.544,1.0,65.68421698713938
9.552,1.0,65.2537251917414
9.56,1.0,64.82283279818026
9.568,0.9999999999999998,64.39154061606976
9.576,0.9999999999999999,63.95984948196504
9.584,0.9999999999999999,63.52776025944
9.592,1.0,63.095273839160924
9.6,1.0,62.662391138958874
9.608,0.9999999999999999,62.2291131038983
9.616,1.0,61.7954407063444
9.624,0.9999999999999998,61.36137494602644
9.632,0.9999999999999999,60.926916850099964
9.64,1.0,60.49206747320468
9.648,1.0,60.05682789752124
9.656,0.9999999999999999,59.621199232823656
9.664,0.9999999999999999,59.185182616530476
9.672,1.0,58.74877921375143
9.68,0.9999999999999999,58.31199021733297
9.688,1.0,57.874816847898906
9.696,0.9999999999999999,57.437260353890146
9.704,0.9999999999999999,56.99932201159939
9.712,1.0,56.561003125204536
9.72,1.0,56.122305026797456
9.728,1.0,55.683229076410996
9.736,0.9999999999999999,55.24377666204151
9.744,1.0,54.80394919966951
9.752,1.0,54.36374813327553
9.76,1.0,53.92317493485446
9.768,0.9999999999999999,53.48223110442467
9.776,1.0,53.04091817003562
9.784,1.0,52.59923768777032
9.792,1.0,52.15719124174601
9.8,0.9999999999999999,51.714780444109806
9.808,1.0,51.27200693503221
9.816,0.9999999999999999,50.82887238269593
9.824,0.9999999999999999,50.38537848328226
9.832,1.0,49.94152696095254
9.84,0.9999999999999999,49.497319567827496
9.847999999999999,0.9999999999999999,49.05275808396138
9.856,1.0,48.60784431731351
9.864,0.9999999999999999,48.1625801037158
9.872,1.0,47.71696730683642
9.879999999999999,1.0,47.2710078181394
