freq,mag,phase
6.0,0.9994435960719084,-71.04905344244226
6.005559296,0.9994652708464308,-71.30132422114664
6.011118592,0.999516647406515,-71.5541260048159
6.0166784,0.9995964789088063,-71.80789892922517
6.022237696,0.9996998373413147,-72.06299531506585
6.027796992,0.9998209153228261,-72.31971470455585
6.033356288,0.9999526515519779,-72.57825578138426
6.038916096,1.0000873840147209,-72.83870543823508
6.044475392,1.0002174122365701,-73.1010075554629
6.050034688,1.0003352158669785,-73.36512483589343
6.055593984,1.000433949913871,-73.63079787221875
6.061153792,1.0005078512057686,-73.89772856974251
6.066713088,1.0005525865682188,-74.16552966015844
6.072272384,1.0005656361051773,-74.43376310619564
6.07783168,1.0005460782917281,-74.70204240856701
6.083391488,1.0004952626728925,-74.96990420614735
6.088950784,1.0004159041089236,-75.2369012424531
6.09451008,1.0003125791000917,-75.50272392885859
6.100069376,1.0001913751681861,-75.76701219264744
6.105628672,1.000059051111705,-76.02964166875542
6.11118848,0.9999234765844376,-76.29042628506
6.116747776,0.999792400806794,-76.5494506331251
6.122307072,0.9996735634072841,-76.80674058672841
6.127866368,0.9995737635117632,-77.06258185963196
6.133426176,0.9994986247421435,-77.31726491112255
6.138985472,0.9994525584376216,-77.57119187750678
6.144544768,0.9994386057679933,-77.82472097691938
6.150104064,0.9994571636580745,-78.0783442179943
6.155663872,0.9995077454239086,-78.33248673913938
6.161223168,0.9995865709158488,-78.5875979452595
6.166782464,0.9996899911185739,-78.84404627706965
6.17234176,0.999811557436869,-79.10204276878986
6.177901568,0.9999442904595971,-79.36193315826716
6.183460864,1.0000804431515686,-79.62370172423022
6.18902016,1.0002126902120327,-79.88739996866083
6.194579456,1.000332477245475,-80.15290080403459
6.200138752,1.000433444447601,-80.41998532939955
6.20569856,1.0005097822621756,-80.68835177383298
6.211257856,1.0005567349136033,-80.95768104853387
6.216817152,1.0005717977996427,-81.22743351821958
6.222376448,1.0005539026635424,-81.49728397263898
6.227936256,1.0005042397384152,-81.76666165347162
6.233495552,1.0004255525430505,-82.03521605599003
6.239054848,1.0003223497028282,-82.30261061713077
6.244614144,1.0002005897700224,-82.56845067459783
6.250173952,1.0000673221708423,-82.83262704014372
6.255733248,0.999930380795542,-83.09494710017438
6.261292544,0.9997973279550211,-83.35546099202539
6.26685184,0.9996762380765462,-83.61423413835354
6.272411648,0.9995739585016155,-83.87154302152052
6.277970944,0.999496239196174,-84.12761748007796
6.28353024,0.9994481957811662,-84.38292043643904
6.289089536,0.9994318845980033,-84.63778386611871
6.294648832,0.9994489258277055,-84.89273214243254
6.30020864,0.9994980296289899,-85.14814347509557
6.305767936,0.999576495425424,-85.40455171110193
6.311327232,0.9996795543677262,-85.66219780941242
6.316886528,0.999801482137853,-85.92153555828833
6.322446336,0.9999353016899931,-86.18268873923243
6.328005632,1.000073208634178,-86.44576648846703
6.333564928,1.000207034367934,-86.71075345481526
6.339124224,1.0003293140266833,-86.97759107180627
6.344684032,1.0004327204498473,-87.24604584764448
6.350243328,1.0005115193511345,-87.51581716612603
6.355802624,1.0005609308739631,-87.78655196026241
6.36136192,1.0005780405734441,-88.05777472385786
6.366921728,1.0005619377980333,-88.32909482240902
6.372481024,1.0005135892085926,-88.60002032382066
6.37804032,1.0004355754366832,-88.87007883020195
6.383599616,1.0003325344648137,-89.13897755937333
6.389158912,1.000210451506921,-89.40632904366322
6.39471872,1.0000762290601959,-89.67201188691911
6.400278016,0.9999375057545018,-89.935833199479
6.405837312,0.9998025871341669,-90.19780515497486
6.411396608,0.9996790245850199,-90.45803747922866
6.416956416,0.9995743610169283,-90.71669393168547
6.422515712,0.9994941767370762,-90.97416306760486
6.428075008,0.9994434908915315,-91.23074610592303
6.433634304,0.9994252307067825,-91.48690784347443
6.439194112,0.9994403785626901,-91.74309857132853
6.444753408,0.9994879385972495,-91.99980828668208
6.450312704,0.9995655875054401,-92.25736428274892
6.455872,0.9996684701235049,-92.5162340351679
6.461431296,0.9997909926702527,-92.77675383558403
6.466991104,0.9999258885147718,-93.03907863830536
6.4725504,1.0000651899334567,-93.30339101417809
6.478109696,1.0002011648451874,-93.56965580740408
6.483668992,1.0003256781934713,-93.83776342927516
6.4892288,1.0004317211360605,-94.10748930120118
6.494788096,1.0005130513487164,-94.37861858475642
6.500347392,1.000564924533631,-94.65074355399784
6.505906688,1.0005842856370444,-94.923403869922
6.511466496,1.0005701035574077,-95.1961216366651
6.517025792,1.0005232515796347,-95.46847529270961
6.522585088,1.000446197668224,-95.74000948785199
6.528144384,1.0003433331107592,-96.01035334640157
6.533704192,1.0002208150699121,-96.27921035808977
6.539263488,1.0000854105988164,-96.54633154937328
6.544822784,0.9999452944264517,-96.81159881279807
6.55038208,0.9998082494915878,-97.07497098334925
6.555941376,0.9996822756692472,-97.3365534740623
6.561501184,0.9995748736819419,-97.5965489953341
6.56706048,0.9994921683201358,-97.8553277151794
6.572619776,0.9994388434078549,-98.1131584422629
6.578179072,0.9994182210050646,-98.37053849448036
6.58373888,0.9994313687905949,-98.62791538695062
6.589298176,0.9994775769942835,-98.88573885244905
6.594857472,0.9995542564037173,-99.14446922243658
6.600416768,0.9996570893502722,-99.40450484699697
6.605976576,0.9997797961018823,-99.66611367736449
6.611535872,0.9999157156933453,-99.92959386631352
6.617095168,1.0000566039943615,-100.19508043996716
6.622654464,1.0001946814650897,-100.46248889615629
6.628214272,1.0003216728976096,-100.73182059485063
6.633773568,1.0004303331291835,-101.00279826229901
6.639332864,1.0005143873800475,-101.27517833591851
6.64489216,1.0005689562195195,-101.54857581426808
6.650451456,1.0005907469318387,-101.82254821305757
6.656011264,1.0005786891108046,-102.09662349360022
6.66157056,1.0005331729723133,-102.3703882861695
6.667129856,1.0004569502706013,-102.64331957847986
6.672689152,1.0003545456175547,-102.91510359212113
6.67824896,1.0002315610524024,-103.18536675194761
6.683808256,1.000095325948814,-103.45387908251452
6.689367552,0.9999534328969799,-103.72048188768788
6.694926848,0.9998144108994538,-103.985206842301
6.700486656,0.9996860197930425,-104.24812208804812
6.706045952,0.9995757959340409,-104.50939615085402
6.711605248,0.9994902753841424,-104.7693752613625
6.717164544,0.9994343224413837,-105.02841313871436
6.722724352,0.9994112966941205,-105.28693351267675
6.728283648,0.9994221889312884,-105.545426773008
6.733842944,0.9994669294829281,-105.80434871975528
6.73940224,0.9995425500555464,-106.0641413463634
6.744961536,0.9996449289065074,-106.32521432316783
6.750521344,0.9997681189595151,-106.58787938522472
6.75608064,0.9999050095057219,-106.85242636933519
6.761639936,1.0000475974765572,-107.11894487884354
6.767199232,1.0001877410411033,-107.3874557427791
6.77275904,1.0003172979477433,-107.65791912533098
6.778318336,1.0004288040840414,-107.93006021066378
6.783877632,1.0005156358338696,-108.203654638173
6.789436928,1.0005729668825154,-108.47825745533075
6.794996736,1.0005973988246295,-108.75348352654312
6.800556032,1.000587450053748,-109.02887340268504
6.806115328,1.0005436231989169,-109.30394812899698
6.811674624,1.000468498897923,-109.57820235228124
6.817234432,1.000366406955439,-109.8513019719466
6.822793728,1.000243074790563,-110.12291599682813
6.828353024,1.0001056880165067,-110.39276252874193
6.83391232,0.9999622840353491,-110.66066602770049
6.839471616,0.9998209895864021,-110.92668372880846
6.845031424,0.9996901413654847,-111.19079748549093
6.85059072,0.9995771761877623,-111.45329771710723
6.856150016,0.9994886316530409,-111.71444381316026
6.861709312,0.9994297961418065,-111.97456350100015
6.86726912,0.9994039984238883,-112.2341678078591
6.872828416,0.9994128064774472,-112.49371204541579
6.878387712,0.999455843530988,-112.75361121788323
6.883947008,0.9995303697517306,-113.0143803890276
6.889506816,0.999632401324938,-113.27640095446036
6.895066112,0.9997558639144477,-113.54007446192051
6.900625408,0.9998937150423706,-113.80558075863163
6.906184704,1.0000380180029504,-114.07305120694855
6.911744512,1.0001803845389674,-114.34259556656762
6.917303808,1.0003125268019808,-114.61405337122419
6.922863104,1.000426828371612,-114.88729772601722
6.9284224,1.0005167263125103,-115.16199067531818
6.933981696,1.0005770183304254,-115.43774112695895
6.939541504,1.0006040134487382,-115.71419463837498
6.9451008,1.0005963887016607,-115.99077977629219
6.950660096,1.000554406110138,-116.26711045097761
6.956219392,1.000480379171241,-116.54263846618024
6.9617792,1.0003786874824412,-116.8170229041125
6.967338496,1.0002551412898475,-117.08985115770211
6.972897792,1.0001167736783299,-117.3609363215419
6.978457088,0.9999716713292708,-117.63007302926428
6.984016896,0.999828122211484,-117.8972801759486
6.989576192,0.9996945696714443,-118.16256882335358
6.995135488,0.9995786215614898,-118.42619623970549
7.000694784,0.999487043464515,-118.6883784840265
7.006254592,0.9994252332171741,-118.94956354962397
7.011813888,0.999396686369177,-119.21015188495964
7.017373184,0.9994031588162186,-119.47062840451527
7.02293248,0.9994442132022214,-119.73143308886742
7.028491776,0.999517721400821,-119.99309059899267
7.034051584,0.9996192427794803,-120.25603262920535
7.03961088,0.9997430146659206,-120.52053262157035
7.045170176,0.9998818884634537,-120.78691446959661
7.050729472,1.0000278079315197,-121.05527357633957
7.05628928,1.0001724082766508,-121.3257341003587
7.061848576,1.0003072893881992,-121.59816773115845
7.067407872,1.0004246661450011,-121.87238021101015
7.072967168,1.0005176710227972,-122.14807043134388
7.078526976,1.000580994893883,-122.4249295418054
7.084086272,1.0006109077369396,-122.70243899403043
7.089645568,1.0006056603820974,-122.98018761480184
7.095204864,1.0005655467010488,-123.25760258033704
7.100764672,1.0004927335015947,-123.53433916319403
7.106323968,1.0003915410529445,-123.80987645778703
7.111883264,1.0002676921496578,-124.08391971550465
7.11744256,1.0001283823304856,-124.3561843591435
7.123001856,0.9999815652692976,-124.62647232472256
7.128561664,0.9998357684159952,-124.89478417236971
7.13412096,0.9996994891785064,-125.16114992528014
7.139680256,0.9995804676272291,-125.4258230308364
7.145239552,0.9994857034056535,-125.68902384723063
7.15079936,0.9994206629053188,-125.95112934399654
7.156358656,0.9993892243824088,-126.2126081455106
7.161917952,0.9993931787538635,-126.47391782715484
7.167477248,0.9994324016554317,-126.73557254598703
7.173037056,0.9995045145703713,-126.99803275276767
7.178596352,0.999605532566193,-127.26171333044324
7.184155648,0.9997295414828056,-127.52700780015606
7.189714944,0.999869430586349,-127.79416729333302
7.195274752,1.0000170885353108,-128.06334308232087
7.200834048,1.0001639385260956,-128.33459690831307
7.206393344,1.0003016270643692,-128.60785553846713
7.21195264,1.00042209898627,-128.8829528387597
7.217511936,1.0005183758204435,-129.1595737030929
7.223071744,1.0005849024269682,-129.43738350475945
7.22863104,1.000617783187047,-129.71589891435235
7.234190336,1.0006150554730224,-129.99467854769307
7.239749632,1.0005769108430378,-130.2732071654362
7.24530944,1.0005054995909544,-130.55101270865657
7.250868736,1.0004048450587568,-130.82764592711519
7.256428032,1.0002808073973481,-131.10278869610065
7.261987328,1.0001404436485184,-131.37611824784364
7.267547136,0.9999919204939043,-131.64747453665922
7.273106432,0.9998438099033473,-131.91682988791877
7.278665728,0.999704723592255,-132.18419074071252
7.284225024,0.9995824574745846,-132.44979627490997
7.28978432,0.999484467400728,-132.7138764166237
7.295344128,0.9994162334815312,-132.97683769500563
7.300903424,0.9993816972702191,-133.23913362850467
7.30646272,0.999383021962931,-133.50118659105917
7.312022016,0.9994201327717344,-133.76357081247883
7.317581824,0.9994909484455073,-134.02672539003265
7.32314112,0.9995913467663536,-134.2910656719434
7.328700416,0.9997155729246715,-134.55701996406825
7.334259712,0.9998564245515974,-134.82484338867533
7.33981952,1.0000057322152487,-135.09470455966124
7.345378816,1.0001550812626638,-135.36667720448708
7.350938112,1.0002955897655563,-135.6406732992188
7.356497408,1.000419257403384,-135.91654170932512
7.362057216,1.0005189615110708,-136.1940212524335
7.367616512,1.0005887617102778,-136.4726835521467
7.373175808,1.0006247557418482,-136.7520939530864
7.378735104,1.0006247517937488,-137.03183329150545
7.3842944,1.0005887034132719,-137.3113276130786
7.389854208,1.0005187203387567,-137.59010319752355
7.395413504,1.0004187665106075,-137.8677745912243
7.4009728,1.0002945252337576,-138.1439045839987
7.406532096,1.000153209981178,-138.418203009145
7.412091904,1.0000029778508868,-138.69054643649335
7.4176512,0.9998523890719853,-138.96081970036636
7.423210496,0.999710325460448,-139.22910963998405
7.428769792,0.9995848938753168,-139.4955527607583
7.4343296,0.9994834090798302,-139.7604554495454
7.439888896,0.9994117376014495,-140.0241533397389
7.445448192,0.9993740686526429,-140.28712621093334
7.451007488,0.9993726434540221,-140.54985637431136
7.456567296,0.9994076349339966,-140.81283432329678
7.462126592,0.999476860912829,-141.07658745304445
7.467685888,0.9995765631735314,-141.34150807322328
7.473245184,0.9997009284501241,-141.60800186213322
7.47880448,0.9998427869755111,-141.87639584864297
7.484364288,0.9999938630934565,-142.14687511753291
7.489923584,1.0001456148511818,-142.4194121749066
7.49548288,1.000289142051175,-142.69405517307723
7.501042176,1.000416113330401,-142.97061665926708
7.506601984,1.000519276811426,-143.2487973026632
7.51216128,1.0005926384591515,-143.52820694265176
7.517720576,1.0006318153768265,-143.80843011874504
7.523279872,1.0006346563126685,-144.0889909612194
7.52883968,1.0006009020710633,-144.36934543776727
7.534398976,1.0005323538661854,-144.6490747695787
7.539958272,1.0004330899429883,-144.92761355152282
7.545517568,1.0003087514883144,-145.20466511104323
7.551077376,1.0001664879650132,-145.4798941882149
7.556636672,1.000014453448785,-145.75308745191214
7.562195968,0.9998615416144108,-146.02420994042325
7.567755264,0.9997163882560425,-146.29326880189348
7.57331456,0.999587583088925,-146.56045214484737
7.578874368,0.9994825281473589,-146.82606744681442
7.584433664,0.9994072572121291,-147.09041270040547
7.58999296,0.9993662980575381,-147.35398035565433
7.595552256,0.999361982130483,-147.61727357324557
7.601112064,0.999394608619819,-147.8807623599354
7.60667136,0.9994623156715706,-148.1449745796707
7.612230656,0.999561298960546,-148.41033710763108
7.617789952,0.9996857169340585,-148.67730849318082
7.62334976,0.9998285504990505,-148.94611582656103
7.628909056,0.9999814230338425,-149.2170518433495
7.634468352,1.000135636345278,-149.49008288631322
7.640027648,1.00028218688465,-149.76526197972532
7.645587456,1.0004126505014976,-150.04238509944875
7.651146752,1.0005194741598546,-150.32117085383572
7.656706048,1.0005963308853139,-150.60125436480408
7.662265344,1.0006389579783632,-150.88217250329149
7.66782464,1.0006447911638263,-151.16345788902464
7.673384448,1.0006133595194207,-151.44459427960635
7.678943744,1.0005464862684665,-151.72509770501875
7.68450304,1.000448031751062,-152.00446217599915
7.690062336,1.0003236018958783,-152.2823196451776
7.695622144,1.0001803652219563,-152.55835326605225
7.70118144,1.0000265946459304,-152.83231172302348
7.706740736,0.9998710299909235,-153.10415880251801
7.712300032,0.9997228389589278,-153.37395079991816
7.71785984,0.9995905218087991,-153.64179822314534
7.723419136,0.9994817636283275,-153.90797242467377
7.728978432,0.9994028288470984,-154.1728844723383
7.734537728,0.9993584074728413,-154.43692228734326
7.740097536,0.9993510601931955,-154.7006628581575
7.745656832,0.9993812353100194,-154.9645188703189
7.751216128,0.9994473368309976,-155.22908369880165
7.756775424,0.9995453676638586,-155.49480917412689
7.76233472,0.9996699741227185,-155.76209342209359
7.767894528,0.9998136505661331,-156.0312648881993
7.773453824,0.9999684009536757,-156.3025178606796
7.77901312,1.0001251758521676,-156.57595479716002
7.784572416,1.0002748694515278,-156.851518747723
7.790132224,1.0004088338961146,-157.1290727089448
7.79569152,1.0005193648417985,-157.40834510773553
7.801250816,1.0006000748373545,-157.6889849633938
7.806810112,1.0006461799919995,-157.97051416880166
7.81236992,1.0006550749534213,-158.2524369424282
7.817929216,1.0006261119426092,-158.53422991313252
7.823488512,1.0005609441973187,-158.81540919039364
7.829047808,1.000463439912806,-159.0955136098048
7.834607616,1.000338986638845,-159.37404419835158
7.840166912,1.0001947633795336,-159.65078109358535
7.845726208,1.0000391484993312,-159.9254153635871
7.851285504,0.9998810483870598,-160.19790085280383
7.8568448,0.999729690529239,-160.46828053329816
7.862404608,0.9995938352176538,-160.7366769885531
7.867963904,0.9994812077346212,-161.00334102482864
7.8735232,0.9993984938771928,-161.26866297296374
7.879082496,0.9993505017719746,-161.53311203583527
7.884642304,0.9993399889548803,-161.79714320905322
7.8902016,0.9993676380356251,-162.0613253196017
7.895760896,0.9994318981132768,-162.32611039059952
7.901320192,0.9995291678151952,-162.59205733252833
7.90688,0.9996536239934884,-162.85955010450158
7.912439296,0.9997983543916161,-163.1289502484504
7.917998592,0.9999549732001635,-163.40043168947022
7.923557888,1.0001143148993465,-163.67411166572455
7.929117696,1.0002672557325198,-163.94997008332513
7.934676992,1.0004048101317764,-164.2278558724466
7.940236288,1.0005192628383928,-164.50750950946815
7.945795584,1.0006037768669924,-164.78856844775305
7.95135488,1.0006535667733139,-165.07056865373931
7.956914688,1.000665705496501,-165.35302759785299
7.962473984,1.0006394105784178,-165.6354025715431
7.96803328,1.0005760015550915,-165.91716102319026
7.973592576,1.0004793878778842,-166.19786491067458
7.979152384,1.0003549123148447,-166.4770142606466
7.98471168,1.000209876559208,-166.75431367323682
7.990270976,1.0000523467236437,-167.02953266209443
7.995830272,0.9998916270759123,-167.30256292592892
8.00139008,0.9997369980386924,-167.5734098709615
8.006949376,0.9995974262870313,-167.8422507492791
8.012508672,0.9994808385695809,-168.10930440279913
8.018067968,0.9993941157365142,-168.3749581558333
8.023627264,0.9993424353422317,-168.6396468427699
8.029187072,0.9993285836890607,-168.9039019981399
8.034746368,0.9993538025767263,-169.16822204870988
8.040305664,0.9994160354756226,-169.43314343708283
8.04586496,0.999512302854218,-169.69918873157718
8.051424768,0.9996368147368262,-169.96679147471417
8.056984064,0.9997825587089071,-170.23626317730032
8.06254336,0.9999409072755151,-170.50785075234066
8.068102656,1.0001028184902896,-170.78166819248042
8.073662464,1.0002591308650983,-171.0577015168683
8.07922176,1.0004004921550613,-171.33581518273948
8.084781056,1.0005189538138826,-171.6157441241791
8.090340352,1.000607509787132,-171.8971085187201
8.09590016,1.0006610664407893,-172.1794877155294
8.101459456,1.0006765207313388,-172.4623484474378
8.107018752,1.0006528764594722,-172.7451556826112
8.112578048,1.000591536926352,-173.02742811614192
8.118137344,1.0004959076593394,-173.30858816215778
8.123697152,1.0003714600637197,-173.58824246185387
8.129256448,1.0002254211073403,-173.86603608817626
8.134815744,1.000066081308413,-174.141746279027
8.14037504,0.9999026898843648,-174.41520166825205
8.145934848,0.9997446886775732,-174.68643645029542
8.151494144,0.9996013005797237,-174.95558716631564
8.15705344,0.9994806610089034,-175.22290347300063
8.162612736,0.9993899573218443,-175.48876952679618
8.168172544,0.9993343081200065,-175.75359759261517
8.17373184,0.9993170526941005,-176.01794626956598
8.179291136,0.9993393802956165,-176.28232214236928
8.184850432,0.9993997672588334,-176.54730071074522
8.19041024,0.9994950239931999,-176.81328052040706
8.195969536,0.9996195452043576,-177.0808462773422
8.201528832,0.9997661819299641,-177.35030514995455
8.207088128,0.9999263456907048,-177.62188412366092
8.212647424,1.0000911110244095,-177.89572883135182
