freq,mag,phase
6.0,0.9999946723157788,82.12932231888138
6.008,0.999994505001453,81.99188941207042
6.016,0.9999942980902868,81.8544403693586
6.024,0.9999940530256498,81.71697512814036
6.032,0.9999937712312468,81.57949362542655
6.04,0.9999934541110306,81.4419957978624
6.048,0.9999931030491225,81.30448158174568
6.056,0.9999927194097361,81.1669509130446
6.064,0.9999923045371067,81.02940372741627
6.072,0.9999918597554333,80.89183996022442
6.08,0.9999913863688193,80.75425954655805
6.088,0.9999908856612258,80.61666242124963
6.096,0.9999903588964254,80.47904851889311
6.104,0.9999898073179708,80.34141777386246
6.112,0.9999892321491546,80.20377012032995
6.12,0.9999886345929997,80.06610549228418
6.128,0.9999880158322272,79.9284238235487
6.136,0.9999873770292586,79.79072504780012
6.144,0.9999867193261955,79.65300909858608
6.152,0.9999860438448345,79.5152759093438
6.16,0.9999853516866675,79.37752541341791
6.168,0.999984643932898,79.23975754407878
6.176,0.99998392164446,79.10197223454013
6.184,0.999983185862042,78.96416941797767
6.192,0.9999824376061218,78.82634902754589
6.2,0.999981677877,78.68851099639664
6.208,0.9999809076548501,78.55065525769689
6.216,0.9999801278997634,78.4127817446454
6.224,0.9999793395518047,78.27489039049125
6.232,0.9999785435310795,78.13698112855027
6.24,0.9999777407377861,77.99905389222275
6.248,0.9999769320523034,77.86110861501044
6.256,0.9999761183352703,77.72314523053345
6.264,0.9999753004276482,77.58516367254698
6.272,0.9999744791508378,77.44716387495767
6.28,0.9999736553067445,77.30914577184113
6.288,0.9999728296779063,77.17110929745672
6.296,0.9999720030275759,77.03305438626491
6.304,0.9999711760998387,76.89498097294276
6.312,0.9999703496197332,76.75688899239974
6.32,0.9999695242933572,76.61877837979307
6.328,0.9999687008080035,76.48064907054355
6.336,0.9999678798322816,76.34250100035074
6.344,0.9999670620162577,76.20433410520732
6.352,0.9999662479915751,76.06614832141462
6.36,0.9999654383716214,75.92794358559674
6.368,0.9999646337516593,75.78971983471506
6.376,0.9999638347089724,75.6514770060821
6.384,0.9999630418030371,75.51321503737584
6.392,0.9999622555756643,75.3749338666526
6.4,0.9999614765511659,75.23663343236218
6.408,0.9999607052365241,75.09831367335825
6.416,0.999959942121563,74.95997452891397
6.424,0.9999591876791076,74.82161593873333
6.432,0.9999584423651756,74.68323784296356
6.44,0.9999577066191492,74.54484018220785
6.448,0.9999569808639587,74.40642289753683
6.456,0.9999562655062619,74.26798593050047
6.464,0.9999555609366466,74.12952922313933
6.472,0.9999548675297987,73.9910527179957
6.48,0.9999541856447343,73.8525563581248
6.4879999999999995,0.9999535156249407,73.71404008710503
6.496,0.9999528577986323,73.57550384904825
6.504,0.9999522124789052,73.43694758861011
6.5120000000000005,0.9999515799639664,73.29837125099999
6.52,0.9999509605373392,73.15977478199007
6.5280000000000005,0.9999503544680454,73.0211581279248
6.536,0.9999497620108508,72.88252123572975
6.5440000000000005,0.9999491834064381,72.74386405292054
6.552,0.9999486188816458,72.60518652761148
6.5600000000000005,0.9999480686496708,72.46648860852294
6.568,0.9999475329102823,72.3277702449899
6.5760000000000005,0.9999470118500453,72.18903138696935
6.584,0.9999465056425259,72.05027198504753
6.592,0.9999460144485159,71.9114919904472
6.6,0.9999455384162582,71.77269135503423
6.608,0.9999450776816569,71.63387003132392
6.616,0.9999446323684927,71.49502797248803
6.624,0.9999442025886649,71.35616513235945
6.632,0.9999437884423876,71.21728146543927
6.64,0.9999433900184341,71.07837692690102
6.648,0.9999430073943442,70.93945147259691
6.656,0.9999426406366466,70.80050505906155
6.664,0.9999422898010882,70.66153764351755
6.672,0.9999419549328595,70.52254918387968
6.68,0.9999416360667986,70.38353963875866
6.688,0.9999413332276315,70.24450896746485
6.696,0.9999410464301923,70.10545713001258
6.704,0.9999407756796255,69.96638408712282
6.712,0.9999405209716288,69.82728980022674
6.72,0.9999402822926692,69.68817423146788
6.728,0.9999400596201767,69.54903734370598
6.736,0.9999398529228102,69.40987910051733
6.744,0.9999396621606279,69.27069946619902
6.752,0.9999394872853338,69.13149840576953
6.76,0.9999393282404777,68.99227588497088
6.768,0.9999391849616805,68.85303187026938
6.776,0.9999390573768406,68.71376632885774
6.784,0.999938945406349,68.57447922865519
6.792,0.9999388489632997,68.435170538309
6.8,0.9999387679536954,68.29584022719426
6.808,0.9999387022766656,68.15648826541427
6.816,0.9999386518246594,68.01711462380136
6.824,0.9999386164836592,67.877719273916
6.832,0.9999385961333874,67.73830218804646
6.84,0.9999385906474962,67.59886333920905
6.848,0.9999385998937741,67.45940270114633
6.856,0.9999386237343514,67.31992024832725
6.864,0.9999386620258779,67.18041595594507
6.872,0.9999387146197363,67.04088979991693
6.88,0.9999387813622247,66.90134175688178
6.888,0.9999388620947398,66.76177180419903
6.896,0.9999389566539881,66.62217991994652
6.904,0.9999390648721436,66.4825660829188
6.912,0.9999391865770562,66.34293027262451
6.92,0.9999393215924163,66.20327246928473
6.928,0.999939469737945,66.06359265382989
6.936,0.9999396308295656,65.9238908078973
6.944,0.9999398046795818,65.78416691382867
6.952,0.9999399910968484,65.6444209546666
6.96,0.9999401898869442,65.50465291415219
6.968,0.9999404008523376,65.36486277672122
6.976,0.9999406237925506,65.22505052750128
6.984,0.9999408585043353,65.08521615230774
6.992,0.9999411047818098,64.94535963764083
7.0,0.9999413624166427,64.80548097068137
7.008,0.9999416311981904,64.66558013928716
7.016,0.9999419109136627,64.52565713198884
7.024,0.9999422013482664,64.38571193798614
7.032,0.9999425022853556,64.2457445471435
7.04,0.9999428135065774,64.10575494998558
7.048,0.9999431347920207,63.96574313769321
7.056,0.9999434659203464,63.82570910209885
7.064,0.9999438066689342,63.68565283568197
7.072,0.9999441568140174,63.54557433156426
7.08,0.9999445161308101,63.405473583505106
7.088,0.9999448843936463,63.26535058589663
7.096,0.999945261376103,63.12520533375866
7.104,0.9999456468511233,62.98503782273421
7.112,0.9999460405911446,62.84484804908407
7.12,0.999946442368218,62.70463600968149
7.128,0.999946851954124,62.56440170200757
7.136,0.9999472691204866,62.42414512414565
7.144,0.9999476936388912,62.283866274775896
7.152,0.9999481252809876,62.143565153170364
7.16,0.9999485638186066,62.003241759187325
7.168,0.9999490090238549,61.8628960932658
7.176,0.999949460669228,61.72252815642015
7.184,0.9999499185277001,61.58213795023457
7.192,0.9999503823728326,61.44172547685743
7.2,0.999950851978858,61.30129073899574
7.208,0.9999513271207823,61.16083373990947
7.216,0.9999518075744688,61.02035448340594
7.224,0.9999522931167295,60.87985297383404
7.232,0.9999527835254092,60.73932921607871
7.24,0.9999532785794685,60.59878321555478
7.248,0.9999537780590645,60.45821497820181
7.256,0.9999542817456301,60.317624510477785
7.264,0.99995478942195,60.17701181935363
7.272,0.9999553008722327,60.036376912307205
7.28,0.9999558158821839,59.89571979731788
7.288,0.9999563342390739,59.75504048286029
7.296,0.9999568557318053,59.61433897789881
7.304,0.9999573801509802,59.47361529188155
7.312,0.9999579072889584,59.33286943473481
7.32,0.999958436939921,59.1921014168569
7.328,0.9999589688999274,59.05131124911272
7.336,0.9999595029669712,58.91049894282772
7.344,0.9999600389410352,58.76966450978218
7.352,0.9999605766241422,58.62880796220553
7.36,0.9999611158204067,58.48792931277042
7.368,0.9999616563360804,58.347028574587114
7.376,0.9999621979796001,58.20610576119775
7.384,0.999962740561632,58.06516088657053
7.392,0.9999632838951109,57.92419396509427
7.4,0.9999638277952839,57.78320501157243
7.4079999999999995,0.9999643720797461,57.64219404121767
7.416,0.9999649165684793,57.501161069646166
7.4239999999999995,0.9999654610838846,57.36010611287215
7.432,0.9999660054508154,57.219029187302155
7.4399999999999995,0.9999665494966109,57.07793030972975
7.448,0.9999670930511222,56.93680949732964
7.4559999999999995,0.9999676359467423,56.79566676765271
7.464,0.9999681780184313,56.654502138620124
7.4719999999999995,0.9999687191037409,56.513315628518264
7.48,0.999969259042836,56.372107255993214
7.4879999999999995,0.9999697976785179,56.23087704004553
7.496,0.9999703348562432,56.089625000024775
7.504,0.9999708704241405,55.9483511556246
7.5120000000000005,0.9999714042330287,55.807055526877186
7.52,0.9999719361364316,55.665738134148356
7.5280000000000005,0.9999724659905911,55.524398998132256
7.536,0.9999729936544799,55.3830381398465
7.5440000000000005,0.9999735189898126,55.24165558062686
7.552,0.999974041861055,55.100251342122625
7.5600000000000005,0.9999745621354316,54.95882544629124
7.568,0.9999750796829346,54.81737791539388
7.5760000000000005,0.9999755943763267,54.675908771990166
7.584,0.9999761060911476,54.5344180389337
7.5920000000000005,0.9999766147057167,54.39290573936709
7.6,0.9999771201011352,54.25137189671742
7.6080000000000005,0.9999776221612863,54.10981653469136
7.616,0.9999781207728357,53.96823967727093
7.6240000000000006,0.9999786158252291,53.826641348708485
7.632,0.999979107210692,53.68502157352267
7.640000000000001,0.9999795948242242,53.54338037649358
7.648,0.9999800785635957,53.40171778265861
7.656000000000001,0.9999805583293412,53.26003381730796
7.664,0.9999810340247544,53.11832850598048
7.672,0.99998150555588,52.97660187445928
7.68,0.9999819728315045,52.83485394876755
7.688,0.9999824357631489,52.69308475516454
7.696,0.9999828942650569,52.551294320141366
7.704,0.9999833482541849,52.40948267041696
7.712,0.999983797650189,52.26764983293413
7.72,0.999984242375415,52.125795834855616
7.728,0.9999846823548821,51.98392070356025
7.736,0.9999851175162705,51.84202446663904
7.744,0.9999855477899061,51.70010715189147
7.752,0.9999859731087462,51.55816878732176
7.76,0.9999863934083607,51.416209401135184
7.768,0.9999868086269174,51.274229021734484
7.776,0.9999872187051643,51.13222767771626
7.784,0.9999876235864108,50.990205397867534
7.792,0.9999880232165096,50.84816221116224
7.8,0.9999884175438365,50.706098146757824
7.808,0.9999888065192724,50.56401323399191
7.816,0.9999891900961807,50.42190750237898
7.824,0.9999895682303884,50.27978098160716
7.832,0.9999899408801638,50.13763370153501
7.84,0.9999903080061943,49.99546569218833
7.848,0.9999906695715653,49.85327698375718
7.856,0.9999910255417365,49.71106760659273
7.864,0.9999913758845198,49.56883759120429
7.872,0.9999917205700543,49.42658696825647
7.88,0.9999920595707835,49.284315768566145
7.888,0.9999923928614314,49.1420240230997
7.896,0.9999927204189766,48.99971176297024
7.904,0.9999930422226284,48.85737901943483
7.912,0.9999933582538013,48.71502582389179
7.92,0.9999936684960896,48.57265220787811
7.928,0.9999939729352411,48.43025820306674
7.936,0.9999942715591311,48.287843841264255
7.944,0.9999945643577371,48.145409154408085
7.952,0.9999948513231107,48.00295417456427
7.96,0.9999951324493525,47.860478933925
7.968,0.9999954077325832,47.717983464806196
7.976,0.9999956771709185,47.575467799645295
7.984,0.9999959407644397,47.432931970998936
7.992,0.9999961985151684,47.290376011540694
8.0,0.9999964504270364,47.14779995405901
8.008,0.9999966965058601,47.00520383145497
8.016,0.9999969367593114,46.862587676740226
8.024000000000001,0.9999971711968898,46.71995152303501
8.032,0.9999973998298944,46.577295403566154
8.04,0.9999976226713964,46.43461935166495
8.048,0.9999978397362088,46.291923400765405
8.056000000000001,0.9999980510408606,46.14920758440239
8.064,0.9999982566035667,46.0064719362097
8.072,0.9999984564441996,45.863716489918275
8.08,0.9999986505842619,45.72094127935449
8.088000000000001,0.9999988390468563,45.5781463384384
8.096,0.9999990218566587,45.43533170118223
8.104,0.9999991990398882,45.29249740168842
8.112,0.9999993706242799,45.14964347414833
8.120000000000001,0.9999995366390549,45.00676995284052
8.128,0.9999996971148938,44.8638768721294
8.136,0.9999998520839061,44.720964266463476
8.144,1.0,44.57803217037409
8.152000000000001,0.9999999999999999,44.435080618474046
8.16,0.9999999999999999,44.292109645456165
8.168,1.0,44.14911928609191
8.176,1.0,44.00610957523006
8.184000000000001,0.9999999999999998,43.863080547795654
8.192,1.0,43.720032238788484
8.2,0.9999999999999998,43.57696468328208
8.208,1.0,43.43387791642235
8.216000000000001,0.9999999999999999,43.290771973426736
8.224,1.0,43.14764688958284
8.232,0.9999999999999999,43.00450270024742
8.24,0.9999999999999999,42.861339440845384
8.248000000000001,1.0,42.71815714686878
8.256,1.0000000000000002,42.574955853875856
8.264,1.0,42.431735597489904
8.272,1.0,42.28849641339852
8.280000000000001,1.0,42.14523833735274
8.288,0.9999999999999999,42.00196140516605
8.296,0.9999999999999999,41.85866565271354
8.304,1.0,41.71535111593115
8.312,1.0,41.57201783081497
8.32,1.0,41.428665833420204
8.328,1.0,41.285295159860794
8.336,0.9999999999999999,41.14190584630835
8.344,1.0,40.99849792899182
8.352,1.0,40.85507144419649
8.36,0.9999999999999999,40.71162642826363
8.368,1.0,40.56816291758965
8.376,0.9999999999999999,40.424680948625785
8.384,0.9999999999999999,40.28118055787715
8.392,1.0,40.137661781902594
8.4,1.0,39.99412465731386
8.408,1.0,39.85056922077536
8.416,0.9999999999999998,39.70699550900339
8.424,0.9999999999999999,39.56340355876599
8.432,0.9999999999999999,39.41979340688222
8.44,1.0,39.27616509022198
8.448,1.0,39.132518645705396
8.456,1.0,38.98885411030267
8.464,1.0,38.84517152103348
8.472,1.0000000000000002,38.70147091496681
8.48,0.9999999999999999,38.55775232922058
8.488,1.0,38.41401580096134
8.496,0.9999999999999998,38.27026136740385
8.504,0.9999999999999999,38.1264890658111
8.512,1.0,37.98269893349372
8.52,1.0,37.83889100781004
8.528,0.9999999999999999,37.6950653261656
8.536,0.9999999999999999,37.55122192601314
8.544,1.0,37.40736084485228
8.552,1.0,37.26348212022948
8.56,1.0,37.119585789737634
8.568,1.0,36.9756718910163
8.576,1.0,36.83174046175108
8.584,1.0,36.68779153967395
8.592,1.0,36.54382516256284
8.6,0.9999999999999999,36.39984136824174
8.608,0.9999999999999999,36.255840194580415
8.616,1.0,36.11182167949458
8.624,0.9999999999999998,35.96778586094557
8.632,1.0,35.82373277694051
8.64,0.9999999999999999,35.67966246553215
8.648,1.0,35.535574964818906
8.656,1.0,35.39147031294476
8.664,1.0,35.24734854809942
8.672,1.0,35.103209708518094
8.68,1.0,34.95905383248172
8.688,1.0,34.814880958316834
8.696,1.0,34.67069112439574
8.704,0.9999999541290754,34.526484369136355
8.712,0.9999998572370156,34.38226073100254
8.72,0.9999997592857484,34.23802024850385
8.728,0.9999996603441952,34.093762960195924
8.736,0.9999995604810357,33.94948890468019
8.744,0.999999459764693,33.805198120604345
8.752,0.99999935826332,33.66089064666211
8.76,0.9999992560447857,33.516566521593575
8.768,0.9999991531766633,33.37222578418513
8.776,0.9999990497262161,33.22786847326972
8.784,0.9999989457603835,33.08349462772678
8.792,0.9999988413457712,32.93910428648263
8.8,0.9999987365486372,32.7946974885103
8.808,0.9999986314348795,32.65027427282996
8.815999999999999,0.9999985260700247,32.50583467850881
8.824,0.9999984205192163,32.361378744661344
8.832,0.9999983148472033,32.2169065104496
8.84,0.9999982091183286,32.07241801508317
8.847999999999999,0.9999981033965182,31.927913297819423
8.856,0.9999979977452711,31.783392397963564
8.864,0.9999978922276469,31.63885535486909
8.872,0.9999977869062573,31.4943022079377
8.879999999999999,0.9999976818432551,31.34973299661956
8.888,0.9999975771003238,31.205147760413457
8.896,0.9999974727386689,31.060546538867122
8.904,0.9999973688190075,30.915929371577317
8.911999999999999,0.9999972654015593,30.77129629818997
8.92,0.9999971625460381,30.626647358400444
8.928,0.9999970603116412,30.48198259195387
8.936,0.9999969587570422,30.337302038645127
8.943999999999999,0.9999968579403824,30.192605738319156
8.952,0.999996757919261,30.047893730871163
8.96,0.9999966587507291,29.903166056246892
8.968,0.9999965604912802,29.758422754442773
8.975999999999999,0.9999964631968428,29.613663865506112
8.984,0.9999963669227736,29.468889429535338
8.992,0.9999962717238491,29.32409948668031
9.0,0.9999961776542593,29.179294077142476
9.008,0.9999960847675996,29.03447324117502
9.016,0.999995993116866,28.889637019083157
9.024000000000001,0.9999959027544465,28.74478545122444
9.032,0.9999958137321152,28.59991857800893
9.04,0.9999957261010269,28.455036439899295
9.048,0.9999956399117107,28.310139077411208
9.056000000000001,0.9999955552140632,28.16522653111358
9.064,0.999995472057344,28.02029884162873
9.072,0.9999953904901699,27.875356049632547
9.08,0.9999953105605087,27.73039819585486
9.088000000000001,0.9999952323156758,27.5854253210796
9.096,0.999995155802327,27.440437466145127
9.104,0.9999950810664557,27.295434671944264
9.112,0.9999950081533874,27.150416979424683
9.120000000000001,0.9999949371077741,27.00538442958916
9.128,0.9999948679735922,26.860337063495756
9.136,0.9999948007941372,26.71527492225798
9.144,0.999994735612019,26.570198047045114
9.152000000000001,0.9999946724691593,26.42510647908245
9.16,0.9999946114067872,26.280000259651523
9.168,0.9999945524654367,26.13487943009022
9.176,0.9999944956849413,25.989744031793123
9.184000000000001,0.9999944411044329,25.84459410621177
9.192,0.9999943887623379,25.69942969485482
9.2,0.9999943386963739,25.554250839288233
9.208,0.9999942909435479,25.40905758113553
9.216000000000001,0.9999942455401527,25.263849962078112
9.224,0.9999942025217656,25.118628023855397
9.232,0.9999941619232442,24.973391808265006
9.24,0.9999941237787272,24.828141357162984
9.248000000000001,0.9999940881216292,24.68287671246415
9.256,0.9999940549846411,24.537597916142225
9.264,0.9999940243997273,24.39230501022997
9.272,0.999993996398124,24.24699803681946
9.280000000000001,0.9999939710103389,24.101677038062377
9.288,0.9999939482661481,23.956342056170165
9.296,0.9999939281945969,23.810993133414108
9.304,0.9999939108239966,23.665630312125696
9.312000000000001,0.9999938961819257,23.520253634696804
9.32,0.9999938842952275,23.374863143579883
9.328,0.9999938751900102,23.229458881288057
9.336,0.9999938688916458,23.084040890395418
9.344,0.9999938654247708,22.938609213537273
9.352,0.9999938648132846,22.793163893410153
9.36,0.9999938670803495,22.64770497277223
9.368,0.9999938722483923,22.50223249444324
9.376,0.9999938803391015,22.356746501304965
9.384,0.9999938913734301,22.211247036301103
9.392,0.9999939053715947,22.06573414243772
9.4,0.9999939223530754,21.920207862783204
9.408,0.9999939423366179,21.77466824046863
9.416,0.9999939653402325,21.629115318687727
9.424,0.9999939913811962,21.48354914069726
9.432,0.9999940204760523,21.337969749816963
9.44,0.9999940526406125,21.19237718942997
9.448,0.9999940878899568,21.04677150298264
9.456,0.9999941262384363,20.90115273398507
9.464,0.9999941676996724,20.755520926010917
9.472,0.9999942122865604,20.609876122697823
9.48,0.9999942600112688,20.464218367747307
9.488,0.9999943108852428,20.318547704925162
9.496,0.9999943649192049,20.172864178061346
9.504,0.9999944221231564,20.027167831050335
9.512,0.9999944825063807,19.881458707851035
9.52,0.9999945460774436,19.735736852487154
9.528,0.9999946128441966,19.590002309047094
9.536,0.9999946828137781,19.44425512168427
9.544,0.9999947559926167,19.29849533461704
9.552,0.9999948323864322,19.15272299212902
9.56,0.9999949120002396,19.00693813856897
9.568,0.9999949948383504,18.86114081835116
9.576,0.9999950809043755,18.715331075955188
9.584,0.9999951702012281,18.569508955926366
9.592,0.9999952627311259,18.423674502875553
9.6,0.9999953584955956,18.277827761479486
9.608,0.9999954574954729,18.13196877648065
9.616,0.9999955597309085,17.986097592687575
9.624,0.9999956652013693,17.840214254974697
9.632,0.9999957739056422,17.694318808282677
9.64,0.9999958858418373,17.548411297618227
9.648,0.9999960010073918,17.40249176805444
9.656,0.9999961193990721,17.256560264730563
9.664,0.9999962410129778,17.11061683285236
9.672,0.9999963658445462,16.964661517691937
9.68,0.9999964938885544,16.81869436458798
9.688,0.9999966251391237,16.672715418945604
9.696,0.9999967595897238,16.526724726236647
9.704,0.9999968972331758,16.380722331999447
9.712,0.9999970380616565,16.234708281839136
9.72,0.999997182066702,16.088682621427466
9.728,0.9999973292392124,15.942645396503039
