freq,mag,phase
6.0,0.9999975412783672,172.62518291011796
6.008,0.9999956897376852,172.24586464666783
6.016,0.9999939087719256,171.86643241228913
6.024,0.9999921970453504,171.4868807204327
6.032,0.9999905532373823,171.10720407370482
6.04,0.9999889760424898,170.7273969638767
6.048,0.9999874641700769,170.34745387189344
6.056,0.9999860163443698,169.96736926788267
6.064,0.9999846313043033,169.5871376111631
6.072,0.9999833078034112,169.2067533502526
6.08,0.9999820446097132,168.82621092287638
6.088,0.9999808405056058,168.44550475597475
6.096,0.9999796942877479,168.06462926571126
6.104,0.9999786047669552,167.68357885748048
6.112,0.9999775707680868,167.30234792591597
6.12,0.999976591129937,166.92093085489867
6.128,0.9999756647051258,166.53932201756496
6.136,0.9999747903599896,166.1575157763155
6.144,0.9999739669744758,165.775506482824
6.152,0.999973193442033,165.39328847804663
6.16,0.9999724686695027,165.01085609223182
6.168,0.9999717915770152,164.62820364493047
6.176,0.9999711610978816,164.24532544500673
6.184,0.9999705761784886,163.86221579064969
6.192,0.9999700357781958,163.47886896938547
6.2,0.9999695388692248,163.09527925809013
6.208,0.9999690844365633,162.7114409230037
6.216,0.9999686714778553,162.32734821974452
6.224,0.999968299003301,161.94299539332536
6.232,0.9999679660355554,161.55837667816994
6.24,0.9999676716096225,161.17348629813065
6.248,0.9999674147727615,160.78831846650786
6.256,0.9999671945843777,160.40286738607003
6.264,0.9999670101159281,160.0171272490753
6.272,0.9999668604508222,159.6310922372945
6.28,0.9999667446843195,159.24475652203583
6.288,0.9999666619234368,158.85811426417067
6.296,0.9999666112868466,158.47115961416114
6.304,0.9999665919047822,158.08388671208976
6.312,0.9999666029189416,157.69628968769024
6.32,0.9999666434823923,157.30836266038065
6.328,0.9999667127594757,156.92009973929822
6.336,0.999966809925714,156.53149502333622
6.344,0.9999669341677161,156.142542601183
6.352,0.9999670846830863,155.75323655136322
6.36,0.99996726068033,155.3635709422809
6.368,0.9999674613787668,154.97353983226574
6.376,0.9999676860084307,154.58313726962072
6.384,0.9999679338099936,154.19235729267314
6.392,0.999968204034664,153.8011939298276
6.4,0.9999684959441054,153.40964119962223
6.408,0.9999688088103438,153.01769311078692
6.416,0.9999691419156869,152.6253436623054
6.424,0.9999694945526305,152.2325868434793
6.432,0.9999698660237781,151.83941663399588
6.44,0.9999702556417522,151.44582700399857
6.448,0.999970662729115,151.0518119141609
6.456,0.9999710866182778,150.65736531576357
6.464,0.9999715266514236,150.26248115077507
6.472,0.9999719821804234,149.86715335193577
6.48,0.9999724525667549,149.4713758428456
6.4879999999999995,0.9999729371814194,149.07514253805545
6.496,0.9999734354048654,148.67844734316205
6.504,0.9999739466269075,148.28128415490772
6.5120000000000005,0.999974470246648,147.88364686128253
6.52,0.9999750056723989,147.48552934163231
6.5280000000000005,0.9999755523216036,147.08692546676943
6.536,0.9999761096207629,146.6878290990889
6.5440000000000005,0.9999766770053585,146.28823409268816
6.552,0.9999772539197747,145.88813429349202
6.5600000000000005,0.9999778398172295,145.48752353938153
6.568,0.9999784341596961,145.08639566032866
6.5760000000000005,0.9999790364178328,144.68474447853427
6.584,0.9999796460709106,144.28256380857292
6.592,0.9999802626067393,143.87984745754102
6.6,0.9999808855215992,143.47658922521134
6.608,0.9999815143201704,143.07278290419242
6.616,0.9999821485154627,142.66842228009332
6.624,0.9999827876287466,142.26350113169417
6.632,0.9999834311894856,141.85801323112213
6.64,0.9999840787352697,141.45195234403323
6.648,0.9999847298117466,141.0453122298004
6.656,0.9999853839725582,140.63808664170702
6.664,0.9999860407792722,140.23026932714697
6.672,0.9999866998013207,139.82185402783094
6.68,0.9999873606159334,139.41283447999902
6.688,0.9999880228080756,139.00320441463998
6.696,0.9999886859703843,138.59295755771709
6.704,0.9999893497031078,138.18208763040067
6.712,0.9999900136140435,137.77058834930799
6.72,0.9999906773184762,137.35845342674958
6.728,0.9999913404391192,136.94567657098318
6.736,0.9999920026060543,136.53225148647513
6.744,0.9999926634566719,136.1181718741686
6.752,0.9999933226356152,135.70343143176024
6.76,0.99999397979472,135.28802385398373
6.768,0.999994634592959,134.87194283290202
6.776,0.9999952866963846,134.4551820582069
6.784,0.9999959357780743,134.03773521752717
6.792,0.9999965815180739,133.6195959967449
6.8,0.9999972236033443,133.20075808032007
6.808,0.9999978617277063,132.78121515162422
6.816,0.9999984955917871,132.36096089328208
6.824,0.9999991249029689,131.93998898752287
6.832,0.9999997493753346,131.51829311654004
6.84,1.0,131.09586696286038
6.848,1.0,130.67270420972267
6.856,0.9999999999999999,130.2487985414652
6.864,1.0,129.82414364392352
6.872,1.0,129.39873320483767
6.88,1.0,128.97256091426917
6.888,1.0000000000000002,128.54562046502835
6.896,1.0,128.1179055531117
6.904,1.0,127.68940987814977
6.912,0.9999999999999999,127.26012714386518
6.92,1.0,126.8300510585417
6.928,0.9999999999999999,126.39917533550408
6.936,1.0,125.96749369360859
6.944,1.0,125.53499985774484
6.952,1.0,125.10168755934892
6.96,1.0,124.66755053692788
6.968,1.0,124.23258253659577
6.976,1.0,123.79677731262132
6.984,1.0,123.3601286279877
6.992,1.0,122.9226302549641
7.0,1.0,122.48427597568963
7.008,1.0,122.04505958276921
7.016,0.9999999999999999,121.6049748798825
7.024,1.0,121.16401568240487
7.032,1.0,120.72217581804138
7.04,1.0,120.27944912747374
7.048,0.9999999999999999,119.8358294650201
7.056,0.9999999999999999,119.39131069930816
7.064,0.9999999999999999,118.9458867139617
7.072,1.0,118.49955140830026
7.08,1.0,118.05229869805274
7.088,0.9999999999999999,117.60412251608471
7.096,1.0,117.1550168131394
7.104,0.9999999999999998,116.70497555859272
7.112,1.0,116.25399274122286
7.12,1.0,115.80206236999338
7.128,1.0,115.3491784748514
7.136,0.9999999999999999,114.89533510753988
7.144,1.0,114.4405263424248
7.152,0.9999999999999999,113.98474627733678
7.16,1.0,113.5279890344279
7.168,0.9999999999999999,113.07024876104319
7.176,1.0,112.61151963060748
7.184,1.0,112.1517958435272
7.192,1.0,111.69107162810747
7.2,0.9999999999999999,111.22934124148478
7.208,1.0,110.76659897057495
7.216,0.9999999999999999,110.30283913303661
7.224,0.9999999999999999,109.83805607825047
7.232,1.0,109.37224418831406
7.24,1.0,108.90539787905256
7.248,0.9999999999999999,108.43751160104522
7.256,1.0,107.9685798406677
7.264,0.9999999999999998,107.49859712115061
7.272,1.0,107.02755800365364
7.28,0.9999999999999999,106.55545708835615
7.288,1.0,106.08228901556362
7.296,1.0,105.60804846683017
7.304,0.9999999999999999,105.13273016609736
7.312,1.0,104.65632888084914
7.32,1.0,104.17883942328274
7.328,1.0,103.70025665149595
7.336,1.0,103.22057547069035
7.344,0.9999999999999999,102.73979083439097
7.352,0.9999999999999999,102.25789774568157
7.36,0.9999999999999999,101.77489125845639
7.368,1.0,101.29076647868793
7.376,1.0,100.80551856571027
7.384,0.9999999999999999,100.3191427335188
7.392,1.0,99.83163425208544
7.4,1.0,99.34298844868982
7.4079999999999995,1.0,98.853200709266
7.416,1.0,98.36226647976459
7.4239999999999995,1.0,97.87018126753095
7.432,0.9999999999999999,97.37694064269759
7.4399999999999995,1.0,96.88254023959307
7.448,0.9999999999999999,96.38697575816438
7.4559999999999995,0.9999999999999999,95.8902429654161
7.464,1.0,95.39233769686203
7.4719999999999995,1.0,94.89325585799342
7.48,1.0,94.39299342575967
7.4879999999999995,0.9999999999999999,93.89154645006474
7.496,1.0,93.38891105527577
7.504,1.0,92.8850834417471
7.5120000000000005,0.9999999999999999,92.38005988735559
7.52,0.9999999999999999,91.87383674905114
7.5280000000000005,1.0,91.36641046441807
7.536,0.9999999999999999,90.8577775532506
7.5440000000000005,1.0,90.34793461913904
7.552,1.0,89.83687835106932
7.5600000000000005,0.9999999999999999,89.32460552503223
7.568,0.9999999999999999,88.81111300564588
7.5760000000000005,1.0,88.29639774778663
7.584,1.0,87.78045679823254
7.5920000000000005,1.0,87.26328729731465
7.6,1.0,86.74488648057985
7.6080000000000005,0.9999999999999998,86.2252516804606
7.616,1.0,85.70438032795545
7.6240000000000006,0.9999999999999999,85.1822699543154
7.632,1.0,84.65891819273999
7.640000000000001,1.0,84.1343227800784
7.648,1.0,83.608481558539
7.656000000000001,1.0,83.08139247740297
7.664,0.9999999999999999,82.55305359474512
7.672,1.0,82.0234630791577
7.68,1.0,81.49261921147989
7.688,0.9999999999999999,80.96052038652986
7.696,0.9999999999999999,80.42716511484
7.704,1.0,79.89255202439428
7.712,1.0,79.35667986236723
7.72,0.9999999999999998,78.8195474968635
7.728,0.9999999999999998,78.28115391865764
7.736,0.9999999999999999,77.74149824293296
7.744,1.0000000000000002,77.20057971101913
7.752,1.0,76.65839769212738
7.76,1.0,76.11495168508262
7.768,0.9999999999999999,75.57024132005158
7.776,1.0,75.02426636026638
7.784,0.9999999999999999,74.47702670374224
7.792,1.0,73.9285223849888
7.8,1.0,73.37875357671386
7.808,0.9999999999999999,72.82772059151898
7.816,1.0,72.27542388358557
7.824,1.0,71.72186405035077
7.832,0.9999999999999999,71.16704183417212
7.84,1.0,70.61095812397998
7.848,1.0,70.05361395691662
7.856,0.9999999999999999,69.49501051996106
7.864,1.0,68.93514915153855
7.872,1.0,68.37403134311371
7.88,0.9999999999999999,67.81165874076603
7.888,1.0,67.24803314674696
7.896,1.0,66.6831565210171
7.904,0.9999996126950056,66.11703098276273
7.912,0.9999991456723935,65.54965881189044
7.92,0.9999986789979305,64.98104245049836
7.928,0.9999982128875178,64.41118450432339
7.936,0.9999977475567294,63.84008774416285
7.944,0.9999972832207246,63.267755107269615
7.952,0.9999968200941566,62.69418969871918
7.96,0.9999963583910836,62.11939479274799
7.968,0.999995898324878,61.543373834061285
7.976,0.9999954401081351,60.96613043910959
7.984,0.9999949839525808,60.3876683973325
7.992,0.9999945300689808,59.80799167236846
8.0,0.999994078667047,59.22710440322947
8.008,0.9999936299553457,58.64501090543936
8.016,0.9999931841412039,58.061715672134106
8.024000000000001,0.9999927414306168,57.477223375124034
8.032,0.9999923020281528,56.891538865914995
8.04,0.9999918661368611,56.30466717668836
8.048,0.9999914339581786,55.716613521238585
8.056000000000001,0.999991005691833,55.12738329586714
8.064,0.999990581535753,54.536982080230615
8.072,0.9999901616859711,53.9454156381427
8.08,0.9999897463365316,53.352689918328664
8.088000000000001,0.9999893356793966,52.75881105513148
8.096,0.999988929904352,52.16378536916713
8.104,0.9999885291989157,51.567619367928685
8.112,0.9999881337482426,50.970319746338596
8.120000000000001,0.9999877437350351,50.37189338724735
8.128,0.9999873593394478,49.77234736187671
8.136,0.999986980738998,49.17168893020732
8.144,0.9999866081084741,48.56992554130945
8.152000000000001,0.9999862416198445,47.967064833615936
8.16,0.9999858814421697,47.36311463513506
8.168,0.9999855277415117,46.75808296360339
8.176,0.9999851806808452,46.151978026577524
8.184000000000001,0.9999848404199727,45.54480822146361
8.192,0.9999845071154362,44.93658213548309
8.2,0.9999841809204317,44.32730854557368
8.208,0.9999838619847272,43.71699641822617
8.216000000000001,0.9999835504545761,43.105654909254476
8.224,0.9999832464726385,42.49329336349861
8.232,0.9999829501778985,41.87992131445926
8.24,0.9999826617055857,41.265548483864606
8.248000000000001,0.9999823811870977,40.65018478116733
8.256,0.9999821087499229,40.03384030297108
8.264,0.9999818445175659,39.416525332385945
8.272,0.9999815886094753,38.79825033831283
8.280000000000001,0.9999813411409708,38.17902597465579
8.288,0.9999811022231748,37.55886307946094
8.296,0.9999808719629438,36.937772673982245
8.304,0.999980650462803,36.31576596167393
8.312,0.9999804378208815,35.69285432710899
8.32,0.999980234130852,35.069049334821656
8.328,0.999980039481869,34.444362728077216
8.336,0.9999798539585132,33.8188064275642
8.344,0.999979677640735,33.19239253001363
8.352,0.9999795106038019,32.56513330674034
8.36,0.9999793529182477,31.937041202110805
8.368,0.9999792046498241,31.308128831933104
8.376,0.999979065859456,30.67840898177329
8.384,0.9999789366031965,30.047894605193687
8.392,0.9999788169321882,29.41659882191808
8.4,0.9999787068926249,28.78453491591889
8.408,0.9999786065257152,28.151716333431676
8.416,0.9999785158676523,27.5181566808922
8.424,0.9999784349495818,26.883869722801368
8.432,0.9999783637975773,26.248869379513405
8.44,0.9999783024326159,25.613169724952968
8.448,0.9999782508705564,24.976784984256394
8.456,0.9999782091221225,24.33972953134298
8.464,0.9999781771928891,23.702017886411614
8.472,0.9999781550832669,23.063664713368876
8.48,0.9999781427884978,22.424684817183962
8.488,0.9999781402986477,21.785093141176617
8.496,0.9999781475986035,21.144904764233743
8.504,0.9999781646680752,20.504134897960792
8.512,0.9999781914815994,19.862798883763816
8.52,0.9999782280085463,19.22091218986841
8.528,0.9999782742131312,18.57849040827167
8.536,0.9999783300544268,17.935549251633134
8.544,0.9999783954863817,17.292104550101406
8.552,0.9999784704578398,16.648172248082282
8.56,0.999978554912565,16.003768400945297
8.568,0.999978648789266,15.358909171674476
8.576,0.9999787520216286,14.713610827460533
8.584,0.9999788645383477,14.067889736240284
8.592,0.9999789862631647,13.421762363180633
8.6,0.999979117114907,12.775245267113075
8.608,0.9999792570075307,12.12835509691599
8.616,0.999979405850168,11.481108587851079
8.624,0.999979563547176,10.833522557851051
8.632,0.9999797299981886,10.185613903765049
8.64,0.9999799050981738,9.53739959755914
8.648,0.9999800887374907,8.888896682478366
8.656,0.9999802808019532,8.240122269167683
8.664,0.9999804811728934,7.591093531758545
8.672,0.9999806897272299,6.9418277039183955
8.68,0.9999809063375393,6.29234207486989
8.688,0.9999811308721281,5.642653985377355
8.696,0.9999813631951102,4.99278082370712
8.704,0.9999816031664861,4.34274002155948
8.712,0.9999818506422246,3.69254904997893
8.72,0.999982105474347,3.042225415240437
8.728,0.9999823675110145,2.3917866547184743
8.736,0.9999826365966169,1.7412503327366262
8.744,0.9999829125718659,1.0906340364045566
8.752,0.9999831952738876,0.4399553714400701
8.76,0.999983484536321,-0.21076804201675634
8.768,0.9999837801894153,-0.8615185735997261
8.776,0.9999840820601316,-1.5122785869159527
8.784,0.9999843899722455,-2.1630304437508445
8.792,0.9999847037464508,-2.8137565082717098
8.8,0.9999850232004692,-3.464439151232199
8.808,0.9999853481491553,-4.115060754170661
8.815999999999999,0.9999856784046091,-4.765603713604519
8.824,0.9999860137762867,-5.416050445214726
8.832,0.9999863540711131,-6.066383388019558
8.84,0.9999866990935987,-6.716585008535856
8.847999999999999,0.9999870486459529,-7.366637804924843
8.856,0.9999874025282031,-8.016524311119642
8.864,0.999987760538311,-8.666227100932808
8.872,0.9999881224722936,-9.315728792142197
8.879999999999999,0.9999884881243423,-9.965012050552389
8.888,0.9999888572869443,-10.61405959402883
8.896,0.9999892297510036,-11.262854196503186
8.904,0.9999896053059636,-11.911378691948272
8.911999999999999,0.9999899837399301,-12.559615978319878
8.92,0.9999903648397932,-13.207549021462894
8.928,0.9999907483913533,-13.85516085898016
8.936,0.99999113417944,-14.502434604062756
8.943999999999999,0.9999915219880413,-15.149353449279065
8.952,0.9999919116004228,-15.795900670320158
8.96,0.9999923027992538,-16.44205962970027
8.968,0.9999926953667292,-17.087813780410958
8.975999999999999,0.999993089084693,-17.73314666952672
8.984,0.9999934837347616,-18.378041941759694
8.992,0.9999938790984446,-19.022483342962307
9.0,0.9999942749572662,-19.666454723576916
9.008,0.9999946710928884,-20.309940042030078
9.016,0.9999950672872272,-20.95292336806962
9.024000000000001,0.9999954633225747,-21.59538888604337
9.032,0.9999958589817163,-22.237320898118753
9.04,0.9999962540480466,-22.878703827441488
9.048,0.9999966483056881,-23.519522221231195
9.056000000000001,0.9999970415396033,-24.15976075381358
9.064,0.9999974335357087,-24.799404229588326
9.072,0.9999978240809877,-25.438437585931112
9.08,0.999998212963601,-26.076845896027987
9.088000000000001,0.9999985999729943,-26.714614371642
9.096,0.9999989849000074,-27.35172836581125
9.104,0.9999993675369788,-27.988173375477196
9.112,0.9999997476778507,-28.623935044041847
9.120000000000001,0.9999999999999999,-29.258999163853506
9.128,0.9999999999999999,-29.89335167862095
9.136,1.0,-30.526978685754987
9.144,1.0,-31.159866438636175
9.152000000000001,1.0,-31.792001348808505
9.16,0.9999999999999999,-32.423369988099736
9.168,0.9999999999999999,-33.05395909066688
9.176,1.0,-33.683755554966105
9.184000000000001,1.0000000000000002,-34.3127464456476
9.192,0.9999999999999999,-34.94091899537538
9.2,0.9999999999999999,-35.568260606571585
9.208,1.0000000000000002,-36.19475885308454
9.216000000000001,0.9999999999999999,-36.820401481780934
9.224,1.0,-37.44517641406316
9.232,0.9999999999999999,-38.06907174731078
9.24,1.0,-38.692075756246005
9.248000000000001,1.0,-39.31417689422405
9.256,1.0,-39.93536379444863
9.264,0.9999999999999999,-40.5556252711132
9.272,1.0,-41.17495032046678
9.280000000000001,0.9999999999999999,-41.79332812180587
9.288,1.0,-42.41074803839367
9.296,0.9999999999999999,-43.027199618305644
9.304,1.0,-43.64267259520234
9.312000000000001,1.0,-44.25715688903034
9.32,1.0,-44.870642606652005
9.328,1.0,-45.48312004240487
9.336,0.9999999999999998,-46.0945796785904
9.344,1.0,-46.70501218589325
9.352,1.0,-47.31440842373372
9.36,0.9999999999999999,-47.922759440550166
9.368,0.9999999999999999,-48.53005647401706
9.376,1.0,-49.13629095119491
9.384,0.9999999999999999,-49.741454488617215
9.392,1.0000000000000002,-50.3455388923115
9.4,0.9999999999999999,-50.94853615775917
9.408,0.9999999999999999,-51.55043846979126
9.416,0.9999999999999998,-52.15123820242532
9.424,1.0000000000000002,-52.75092791864014
9.432,1.0,-53.34950037009379
9.44,0.9999999999999999,-53.94694849678146
9.448,1.0000000000000002,-54.543265426639124
9.456,1.0,-55.13844447508917
9.464,1.0,-55.732479144533954
9.472,1.0,-56.325363123793935
9.48,1.0,-56.91709028749586
9.488,0.9999999999999999,-57.507654695407936
9.496,1.0,-58.097050591727545
9.504,1.0,-58.685272404318354
9.512,0.9999999999999999,-59.27231474390229
9.52,1.0,-59.85817240320345
9.528,0.9999999999999999,-60.44284035604937
9.536,0.9999999999999999,-61.02631375642666
9.544,1.0,-61.60858793749647
9.552,1.0,-62.18965841056696
9.56,1.0,-62.76952086402779
9.568,1.0,-63.34817116224444
9.576,1.0,-63.925605344416944
9.584,1.0,-64.50181962340073
9.592,1.0,-65.07681038449483
9.6,0.9999999999999999,-65.65057418419411
9.608,0.9999999999999999,-66.2231077489118
9.616,1.0,-66.79440797366837
9.624,0.9999999999999999,-67.3644719207529
9.632,0.9999999999999999,-67.93329681835372
9.64,1.0,-68.50088005916349
9.648,0.9999999999999998,-69.06721919895624
9.656,0.9999999999999999,-69.63231195514113
9.664,0.9999999999999998,-70.1961562052905
9.672,1.0,-70.75874998564703
9.68,1.0,-71.32009148960746
9.688,0.9999999999999999,-71.88017906618775
9.696,1.0,-72.43901121846706
9.704,0.9999999999999999,-72.99658660201527
9.712,0.9999999999999999,-73.55290402330175
9.72,0.9999999999999999,-74.10796243808961
9.728,1.0,-74.66176094981354
9.736,1.0,-75.21429880794508
9.744,1.0,-75.7655754063436
9.752,1.0,-76.3155902815969
9.76,1.0,-76.86434311134924
9.768,1.0,-77.41183371262129
9.776,0.9999999999999999,-77.95806204011913
9.784,1.0,-78.5030281845373
9.792,0.9999999999999999,-79.0467323708527
9.8,1.0,-79.58917495661434
9.808,1.0,-80.13035643022572
9.816,0.9999999999999999,-80.67027740922487
9.824,1.0,-81.20893863855869
9.832,1.0,-81.74634098885667
9.84,1.0,-82.28248545470043
9.847999999999999,1.0,-82.81737315289426
9.856,0.9999999999999999,-83.35100532073376
9.864,1.0,-83.8833833142751
9.872,1.0,-84.41450860660582
9.879999999999999,1.0,-84.94438278611749
9.888,0.9999999999999999,-85.47300755478018
9.896,1.0,-86.00038472642035
9.904,1.0,-86.52651622500287
9.911999999999999,0.9999999999999999,-87.05140408291751
9.92,1.0,-87.57505043927004
9.928,1.0,-88.09745753817896
9.936,1.0,-88.61862772707903
9.943999999999999,0.9999999999999999,-89.13856345503139
9.952,1.0,-89.65726727104082
