freq,mag,phase
6.0,0.999990036332221,-140.01745871467045
6.008,0.9999895855849714,-140.466224604295
6.016,0.9999891719006333,-140.91485694554274
6.024,0.9999887943584868,-141.36335557478617
6.032,0.9999884520485549,-141.81172034103363
6.04,0.9999881440715906,-142.25995110585242
6.048,0.999987869539061,-142.70804774329164
6.056,0.9999876275731324,-143.1560101398047
6.064,0.9999874173066514,-143.60383819417103
6.072,0.9999872378831267,-144.05153181741795
6.08,0.9999870884567112,-144.49909093274147
6.088,0.9999869681921738,-144.94651547542745
6.096,0.9999868762648824,-145.39380539277187
6.104,0.9999868118607768,-145.8409606440007
6.112,0.9999867741763404,-146.28798120019025
6.12,0.9999867624185776,-146.7348670441859
6.128,0.9999867758049819,-147.18161817052186
6.136,0.9999868135635045,-147.6282345853395
6.144,0.9999868749325296,-148.07471630630621
6.152,0.9999869591608324,-148.52106336253374
6.16,0.9999870655075559,-148.96727579449595
6.168,0.999987193242165,-149.4133536539468
6.176,0.9999873416444207,-149.859297003838
6.184,0.9999875100043356,-150.305105918236
6.192,0.999987697622138,-150.75078048223966
6.2,0.9999879038082345,-151.1963207918966
6.208,0.9999881278831628,-151.64172695412054
6.216,0.9999883691775593,-152.0869990866074
6.224,0.9999886270321076,-152.532137317752
6.232,0.9999889007974997,-152.97714178656423
6.24,0.9999891898343898,-153.42201264258543
6.248,0.9999894935133468,-153.86675004580405
6.256,0.9999898112148128,-154.3113541665717
6.264,0.9999901423290477,-154.7558251855192
6.272,0.9999904862560849,-155.20016329347177
6.28,0.9999908424056811,-155.6443686913653
6.288,0.9999912101972673,-156.08844159016118
6.296,0.999991589059893,-156.53238221076242
6.304,0.9999919784321759,-156.97619078392879
6.312,0.9999923777622531,-157.41986755019212
6.32,0.9999927865077195,-157.86341275977193
6.328,0.999993204135577,-158.3068266724906
6.336,0.9999936301221802,-158.7501095576887
6.344,0.9999940639531771,-159.19326169414023
6.352,0.9999945051234543,-159.63628336996825
6.36,0.9999949531370781,-160.07917488255993
6.368,0.999995407507236,-160.52193653848195
6.376,0.9999958677561753,-160.964568653396
6.384,0.9999963334151485,-161.40707155197418
6.392,0.9999968040243512,-161.84944556781426
6.4,0.9999972791328551,-162.29169104335583
6.408,0.9999977582985522,-162.73380832979512
6.416,0.9999982410880918,-163.17579778700113
6.424,0.9999987270768167,-163.61765978343152
6.432,0.9999992158486999,-164.05939469604803
6.44,0.9999997069962777,-164.50100291023284
6.448,1.0,-164.94248481970422
6.456,1.0,-165.38384082643321
6.464,0.9999999999999999,-165.82507134055948
6.472,1.0,-166.2661767803077
6.48,1.0,-166.70715757190447
6.4879999999999995,1.0,-167.14801414949468
6.496,1.0,-167.58874695505875
6.504,0.9999999999999999,-168.0293564383288
6.5120000000000005,1.0,-168.46984305670676
6.52,0.9999999999999999,-168.9102072751809
6.5280000000000005,0.9999999999999999,-169.35044956624398
6.536,1.0,-169.79057040981027
6.5440000000000005,0.9999999999999999,-170.23057029313406
6.552,1.0,-170.6704497107269
6.5600000000000005,1.0,-171.11020916427668
6.568,1.0,-171.54984916256532
6.5760000000000005,1.0,-171.98937022138819
6.584,0.9999999999999999,-172.42877286347206
6.592,1.0,-172.868057618395
6.6,1.0,-173.30722502250518
6.608,0.9999999999999999,-173.74627561884043
6.616,1.0,-174.18520995704827
6.624,1.0,-174.6240285933057
6.632,1.0,-175.0627320902393
6.64,1.0,-175.50132101684605
6.648,1.0,-175.9397959484138
6.656,1.0,-176.37815746644233
6.664,1.0,-176.81640615856458
6.672,1.0,-177.25454261846812
6.68,1.0,-177.6925674458172
6.688,0.9999999999999999,-178.13048124617427
6.696,0.9999999999999999,-178.56828463092273
6.704,0.9999999999999998,-179.00597821718944
6.712,1.0,-179.44356262776734
6.72,0.9999999999999999,-179.88103849103902
6.728,1.0,179.68159355910024
6.736,0.9999999999999999,179.24433288331832
6.744,1.0,178.80717883692267
6.752,0.9999999999999999,178.37013076993566
6.76,1.0,177.93318802717005
6.768,1.0,177.49634994830407
6.776,1.0,177.05961586795627
6.784,1.0,176.62298511575972
6.792,1.0,176.18645701643652
6.8,1.0,175.7500308898713
6.808,1.0,175.313706051185
6.816,1.0,174.87748181080786
6.824,1.0,174.4413574745525
6.832,0.9999999999999999,174.00533234368635
6.84,1.0,173.56940571500394
6.848,1.0,173.1335768808989
6.856,1.0,172.6978451294353
6.864,0.9999999999999999,172.26220974441938
6.872,1.0,171.8266700054699
6.88,1.0,171.39122518808924
6.888,0.9999999999999999,170.9558745637334
6.896,1.0,170.52061739988204
6.904,0.9999999999999999,170.08545296010809
6.912,0.9999999999999999,169.65038050414697
6.92,1.0,169.21539928796554
6.928,0.9999999999999999,168.78050856383084
6.936,1.0,168.34570758037805
6.944,0.9999999999999999,167.91099558267865
6.952,1.0,167.47637181230797
6.96,1.0,167.0418355074124
6.968,1.0,166.60738590277614
6.976,0.9999999999999999,166.17302222988803
6.984,0.9999999999999999,165.73874371700754
6.992,0.9999999999999999,165.3045495892308
7.0,1.0,164.8704390685559
7.008,0.9999999999999999,164.43641137394837
7.016,0.9999999999999999,164.00246572140577
7.024,1.0,163.56860132402235
7.032,1.0,163.13481739205307
7.04,0.9999999999999999,162.70111313297744
7.048,1.0,162.26748775156307
7.056,1.0,161.83394044992866
7.064,1.0,161.40047042760693
7.072,1.0,160.9670768816068
7.08,0.9999999999999999,160.5337590064758
7.088,1.0,160.10051599436147
7.096,1.0,159.66734703507313
7.104,1.0,159.23425131614246
7.112,0.9999999999999999,158.8012280228848
7.12,1.0,158.36827633845894
7.128,1.0,157.93539544392758
7.136,1.0,157.5025845183168
7.144,0.9999999999999999,157.0698427386755
7.152,1.0,156.6371692801344
7.16,1.0,156.20456331596463
7.168,1.0,155.77202401763614
7.176,1.0,155.33955055487576
7.184,0.9999999999999999,154.90714209572465
7.192,0.9999999999999999,154.47479780659592
7.2,0.9999999999999999,154.04251685233132
7.208,1.0,153.6102983962581
7.216,1.0,153.17814160024525
7.224,1.0,152.74604562475957
7.232,1.0,152.31400962892116
7.24,1.0,151.8820327705589
7.248,0.9999999999999999,151.4501142062655
7.256,0.9999999999999999,151.018253091452
7.264,1.0,150.58644858040225
7.272,0.9999999999999998,150.15469982632686
7.28,1.0,149.72300598141697
7.288,1.0,149.29136619689763
7.296,1.0,148.85977962308075
7.304,1.0,148.4282454094179
7.312,0.9999999999999999,147.99676270455282
7.32,1.0,147.56533065637333
7.328,1.0,147.13394841206338
7.336,0.9999999999999998,146.70261511815414
7.344,1.0,146.27132992057565
7.352,1.0,145.84009196470714
7.36,1.0,145.40890039542796
7.368,0.9999999999999998,144.97775435716773
7.376,1.0,144.54665299395603
7.384,1.0,144.11559544947235
7.392,1.0,143.68458086709512
7.4,0.9999999999999999,143.25360838995093
7.4079999999999995,1.0,142.82267716096302
7.416,0.9999999999999999,142.3917863228999
7.4239999999999995,0.9999999999999999,141.96093501842347
7.432,0.9999999999999999,141.53012239013637
7.4399999999999995,1.0,141.09934758063034
7.448,0.9999999999999999,140.66860973253256
7.4559999999999995,1.0,140.23790798855333
7.464,1.0,139.807241491532
7.4719999999999995,0.9999999999999999,139.37660938448414
7.48,1.0,138.94601081064673
7.4879999999999995,0.9999999999999999,138.51544491352482
7.496,1.0,138.08491083693622
7.504,1.0,137.6544077250574
7.5120000000000005,0.9999999999999999,137.22393472246793
7.52,0.9999999999999999,136.79349097419555
7.5280000000000005,1.0,136.36307562576008
7.536,0.9999999999999999,135.9326878232182
7.5440000000000005,0.9999999999999999,135.50232671320651
7.552,1.0,135.0719914429859
7.5600000000000005,1.0,134.64168116048398
7.568,1.0,134.21139501433916
7.5760000000000005,0.9999999999999999,133.78113215394214
7.584,1.0,133.35089172947988
7.5920000000000005,1.0,132.92067289197635
7.6,1.0,132.49047479333584
7.6080000000000005,1.0000000000000002,132.06029658638363
7.616,0.9999999999999998,131.63013742490827
7.6240000000000006,1.0,131.1999964637021
7.632,1.0,130.7698728586028
7.640000000000001,0.9999999999999998,130.33976576653356
7.648,0.9999999999999999,129.90967434554415
7.656000000000001,1.0,129.47959775485035
7.664,1.0,129.04953515487472
7.672,1.0,128.61948570728566
7.68,1.0,128.18944857503723
7.688,1.0,127.75942292240836
7.696,0.9999999999999999,127.32940791504166
7.704,0.9999999999999999,126.89940271998236
7.712,1.0,126.46940650571676
7.72,1.0,126.03941844221039
7.728,0.9999999999999998,125.60943770094623
7.736,0.9999999999999999,125.17946345496246
7.744,1.0,124.74949487888999
7.752,1.0,124.31953114898988
7.76,0.9999999999999999,123.88957144319043
7.768,1.0,123.45961494112417
7.776,1.0,123.02966082416435
7.784,1.0,122.59970827546161
7.792,1.0,122.16975647998001
7.8,0.9999998593736249,121.73980462453328
7.808,0.9999994866807422,121.30985189782044
7.816,0.9999991153617186,120.87989749046139
7.824,0.9999987455213162,120.44994059503243
7.832,0.9999983772632024,120.0199804061012
7.84,0.999998010689928,119.5900161202619
7.848,0.9999976459029079,119.16004693616965
7.856,0.9999972830023999,118.73007205457547
7.864,0.9999969220874866,118.30009067836018
7.872,0.9999965632560568,117.87010201256878
7.88,0.9999962066047843,117.4401052644443
7.888,0.9999958522291135,117.01009964346146
7.896,0.9999955002232387,116.58008436136018
7.904,0.9999951506800895,116.15005863217895
7.912,0.999994803691312,115.72002167228794
7.92,0.9999944593472542,115.2899727004218
7.928,0.9999941177369481,114.85991093771246
7.936,0.9999937789480976,114.42983560772167
7.944,0.9999934430670604,113.99974593647333
7.952,0.9999931101788345,113.56964115248552
7.96,0.9999927803670459,113.13952048680252
7.968,0.999992453713932,112.7093831730267
7.976,0.999992130300331,112.27922844734977
7.984,0.9999918102056675,111.84905554858445
7.992,0.9999914935079416,111.41886371819552
8.0,0.9999911802837149,110.98865220033093
8.008,0.9999908706081019,110.55842024185253
8.016,0.9999905645547565,110.12816709236657
8.024000000000001,0.9999902621958628,109.69789200425464
8.032,0.999989963602124,109.26759423270356
8.04,0.9999896688427538,108.83727303573546
8.048,0.9999893779854654,108.40692767423779
8.056000000000001,0.9999890910964645,107.97655741199327
8.064,0.9999888082404392,107.54616151570929
8.072,0.9999885294805531,107.1157392550471
8.08,0.9999882548784359,106.68528990265128
8.088000000000001,0.9999879844941787,106.25481273417886
8.096,0.9999877183863242,105.82430702832816
8.104,0.9999874566118627,105.39377206686711
8.112,0.9999871992262239,104.96320713466217
8.120000000000001,0.9999869462832739,104.53261151970675
8.128,0.9999866978353065,104.10198451314926
8.136,0.9999864539330414,103.67132540932097
8.144,0.9999862146256174,103.24063350576402
8.152000000000001,0.9999859799605905,102.80990810325926
8.16,0.9999857499839282,102.37914850585373
8.168,0.9999855247400066,101.94835402088766
8.176,0.9999853042716083,101.51752395902196
8.184000000000001,0.9999850886199191,101.08665763426544
8.192,0.9999848778245272,100.6557543640014
8.2,0.9999846719234177,100.22481346901428
8.208,0.9999844709529757,99.79383427351624
8.216000000000001,0.9999842749479825,99.36281610517388
8.224,0.999984083941616,98.93175829513413
8.232,0.9999838979654486,98.50066017805027
8.24,0.9999837170494507,98.06952109210786
8.248000000000001,0.9999835412219872,97.63834037905082
8.256,0.9999833705098203,97.20711738420668
8.264,0.9999832049381109,96.77585145651192
8.272,0.9999830445304193,96.34454194853735
8.280000000000001,0.9999828893087066,95.91318821651348
8.288,0.9999827392933379,95.48178962035522
8.296,0.9999825945030842,95.05034552368645
8.304,0.999982454955125,94.61885529386493
8.312,0.9999823206650534,94.18731830200703
8.32,0.999982191646876,93.75573392301133
8.328,0.9999820679130196,93.32410153558364
8.336,0.9999819494743358,92.8924205222601
8.344,0.9999818363401024,92.46069026943195
8.352,0.9999817285180319,92.0289101673684
8.36,0.9999816260142737,91.5970796102409
8.368,0.999981528833422,91.16519799614578
8.376,0.9999814369785199,90.73326472712827
8.384,0.9999813504510661,90.30127920920478
8.392,0.9999812692510223,89.86924085238655
8.4,0.9999811933768178,89.43714907070172
8.408,0.9999811228253583,89.00500328221865
8.416,0.9999810575920339,88.57280290906762
8.424,0.9999809976707237,88.14054737746388
8.432,0.999980943053808,87.708236117729
8.44,0.9999808937321719,87.2758685643137
8.448,0.9999808496952185,86.84344415581877
8.456,0.9999808109308747,86.41096233501766
8.464,0.9999807774256007,85.97842254887713
8.472,0.999980749164401,85.5458242485794
8.48,0.9999807261308327,85.11316688954251
8.488,0.9999807083070151,84.68044993144234
8.496,0.9999806956736421,84.24767283823245
8.504,0.9999806882099901,83.81483507816573
8.512,0.9999806858939306,83.38193612381423
8.52,0.9999806887019413,82.94897545209021
8.528,0.9999806966091163,82.51595254426573
8.536,0.9999807095891781,82.08286688599347
8.544,0.9999807276144899,81.64971796732587
8.552,0.999980750656068,81.21650528273568
8.56,0.9999807786835926,80.78322833113484
8.568,0.9999808116654225,80.34988661589465
8.576,0.9999808495686062,79.91647964486425
8.584,0.9999808923588961,79.48300693039063
8.592,0.999980940000761,79.04946798933669
8.6,0.9999809924573999,78.6158623431009
8.608,0.9999810496907574,78.1821895176351
8.616,0.9999811116615346,77.74844904346374
8.624,0.9999811783292062,77.31464045570148
8.632,0.9999812496520329,76.88076329407197
8.64,0.9999813255870784,76.44681710292515
8.648,0.9999814060902216,76.01280143125577
8.656,0.9999814911161736,75.57871583272028
8.664,0.9999815806184924,75.14455986565498
8.672,0.9999816745495986,74.71033309309266
8.68,0.9999817728607915,74.27603508278037
8.688,0.9999818755022634,73.84166540719568
8.696,0.9999819824231176,73.40722364356417
8.704,0.9999820935713842,72.97270937387526
8.712,0.9999822088940361,72.53812218489944
8.72,0.999982328337006,72.1034616682037
8.728,0.9999824518452033,71.66872742016845
8.736,0.9999825793625308,71.2339190420025
8.744,0.9999827108319026,70.79903613975972
8.752,0.9999828461952607,70.36407832435363
8.76,0.9999829853935933,69.92904521157364
8.768,0.9999831283669515,69.49393642209942
8.776,0.9999832750544685,69.05875158151666
8.784,0.9999834253943761,68.62349032033109
8.792,0.9999835793240245,68.18815227398383
8.8,0.9999837367798992,67.75273708286518
8.808,0.9999838976976402,67.31724439232948
8.815999999999999,0.9999840620120605,66.88167385270862
8.824,0.9999842296571646,66.44602511932604
8.832,0.9999844005661678,66.01029785251079
8.84,0.9999845746715146,65.5744917176107
8.847999999999999,0.9999847519048987,65.13860638500542
8.856,0.9999849321972808,64.7026415301199
8.864,0.9999851154789101,64.26659683343726
8.872,0.9999853016793412,63.83047198051146
8.879999999999999,0.9999854907274561,63.39426666197952
8.888,0.9999856825514822,62.95798057357401
8.896,0.999985877079013,62.52161341613544
8.904,0.9999860742370277,62.08516489562382
8.911999999999999,0.9999862739519104,61.648634723130264
8.92,0.9999864761494723,61.21202261488864
8.928,0.9999866807549692,60.77532829228701
8.936,0.9999868876931236,60.33855148187853
8.943999999999999,0.9999870968881445,59.90169191539217
8.952,0.9999873082637479,59.46474932974346
8.96,0.9999875217431767,59.02772346704516
8.968,0.9999877372492219,58.59061407461734
8.975999999999999,0.9999879547042426,58.1534209049971
8.984,0.9999881740301876,57.7161437159486
8.992,0.9999883951486147,57.278782270472846
9.0,0.9999886179807131,56.84133633681682
9.008,0.9999888424473229,56.4038056884824
9.016,0.9999890684689562,55.966190104235466
9.024000000000001,0.9999892959658184,55.5284893681148
9.032,0.9999895248578292,55.09070326944031
9.04,0.999989755064643,54.652831602821095
9.048,0.99998998650567,54.21487416816361
9.056000000000001,0.9999902191000972,53.77683077067962
9.064,0.9999904527669102,53.33870122089356
9.072,0.9999906874249131,52.90048533464961
9.08,0.9999909229927502,52.46218293311899
9.088000000000001,0.9999911593889268,52.02379384280693
9.096,0.9999913965318304,51.58531789555913
9.104,0.9999916343397514,51.14675492856781
9.112,0.9999918727309046,50.70810478437808
9.120000000000001,0.9999921116234506,50.26936731089399
9.128,0.999992350935516,49.830542361383934
9.136,0.9999925905852136,49.391629794485766
9.144,0.9999928304906662,48.9526294742122
9.152000000000001,0.9999930705700251,48.51354126995584
9.16,0.9999933107414911,48.074365056493555
9.168,0.9999935509233369,47.635100713990695
9.176,0.9999937910339269,47.19574812800538
9.184000000000001,0.9999940309917381,46.756307189492496
9.192,0.9999942707153812,46.31677779480715
9.2,0.9999945101236207,45.87715984570778
9.208,0.999994749135396,45.437453249359386
9.216000000000001,0.9999949876698424,44.99765791833657
9.224,0.9999952256463107,44.55777377062583
9.232,0.9999954629843882,44.11780072962769
9.24,0.9999956996039195,43.67773872415884
9.248000000000001,0.9999959354250259,43.23758768845413
9.256,0.9999961703681262,42.79734756216771
9.264,0.9999964043539566,42.35701829037415
9.272,0.9999966373035918,41.916599823569456
9.280000000000001,0.9999968691384634,41.47609211767199
9.288,0.9999970997803806,41.0354951340225
9.296,0.99999732915155,40.59480883938409
9.304,0.9999975571745952,40.154033205942206
9.312000000000001,0.9999977837725766,39.71316821130428
9.32,0.9999980088690102,39.27221383849883
9.328,0.9999982323878884,38.83117007597412
9.336,0.999998454253697,38.39003691759708
9.344,0.9999986743914365,37.9488143626519
9.352,0.9999988927266398,37.50750241583747
9.36,0.9999991091853913,37.066101087265885
9.368,0.999999323694346,36.624610392459175
9.376,0.9999995361807481,36.18303035234724
9.384,0.9999997465724486,35.741360993263974
9.392,0.9999999547979247,35.29960234694471
9.4,1.0,34.85775445052152
9.408,1.0,34.415817346520214
9.416,1.0,33.973791082855115
9.424,1.0,33.53167571282524
9.432,1.0,33.089471295108595
9.44,1.0,32.6471778937577
9.448,1.0,32.20479557819335
9.456,1.0,31.76232442319934
9.464,0.9999999999999999,31.319764508915817
9.472,1.0,30.877115920833262
9.48,1.0,30.434378749785143
9.488,1.0,29.991553091941476
9.496,0.9999999999999999,29.548639048800677
9.504,0.9999999999999999,29.105636727182517
9.512,1.0,28.662546239219335
9.52,1.0,28.219367702348436
9.528,0.9999999999999999,27.776101239302548
9.536,1.0,27.332746978101593
9.544,1.0,26.88930505204263
9.552,1.0,26.445775599690776
9.56,0.9999999999999999,26.002158764868575
9.568,1.0,25.558454696646393
9.576,1.0000000000000002,25.11466354933092
9.584,0.9999999999999999,24.670785482454974
9.592,1.0,24.226820660765465
9.6,1.0,23.782769254212422
9.608,1.0,23.33863143793624
9.616,1.0,22.894407392256166
9.624,1.0,22.450097302656825
9.632,0.9999999999999999,22.005701359775987
9.64,1.0,21.56121975939048
9.648,0.9999999999999999,21.116652702403286
9.656,0.9999999999999999,20.67200039482874
9.664,0.9999999999999998,20.227263047778976
9.672,1.0,19.7824408774484
9.68,1.0,19.337534105099536
9.688,1.0,18.892542957046757
9.696,1.0,18.44746766464142
9.704,1.0,18.002308464254995
9.712,0.9999999999999999,17.557065597263474
9.72,1.0,17.111739310029797
9.728,0.9999999999999999,16.666329853887582
9.736,1.0,16.22083748512287
9.744,1.0,15.775262464957141
9.752,1.0,15.329605059528406
9.76,1.0,14.883865539873518
9.768,1.0,14.43804418190852
9.776,1.0,13.992141266410341
9.784,1.0,13.546157078996423
9.792,0.9999999999999999,13.100091910105672
9.8,1.0,12.653946054977457
9.808,0.9999999999999998,12.207719813631824
9.816,0.9999999999999999,11.761413490847811
9.824,1.0,11.315027396142995
9.832,1.0,10.868561843751047
9.84,1.0,10.422017152600633
9.847999999999999,1.0,9.975393646292357
9.856,0.9999999999999999,9.52869165307646
9.864,0.9999999999999999,9.081911505829984
9.872,1.0,8.635053542033232
9.879999999999999,1.0,8.188118103745904
9.888,0.9999999999999999,7.741105537583204
9.896,1.0,7.294016194691689
9.904,1.0,6.846850430724326
9.911999999999999,1.0,6.399608605815189
9.92,1.0,5.952291084554246
9.928,1.0,5.50489823596178
9.936,0.9999999999999999,5.057430433462066
9.943999999999999,0.9999999999999998,4.609888054856708
9.952,0.9999999999999999,4.16227148229801
9.96,1.0,3.714581102262059
9.968,1.0,3.2668173055209833
9.975999999999999,1.0,2.8189804871149486
9.984,0.9999999999999999,2.371071046324153
9.992,1.0,1.9230893866405192
10.0,1.0,1.475035915738619
10.008,0.9999999999999999,1.0269110454462846
