freq,mag,phase
6.0,0.9999974609122242,-142.94033861209581
6.008,0.9999952012188196,-143.33392291584784
6.016,0.9999930266680652,-143.72729224808265
6.024,0.9999909354953017,-144.1204483635008
6.032,0.999988925958152,-144.51339302591634
6.04,0.9999869963363931,-144.90612800813054
6.048,0.9999851449318173,-145.29865509180638
6.056,0.9999833700681003,-145.69097606734408
6.064,0.9999816700906613,-146.08309273375775
6.072,0.9999800433665273,-146.47500689855266
6.08,0.9999784882841936,-146.86672037760366
6.088,0.999977003253485,-147.25823499503443
6.096,0.9999755867054151,-147.64955258309774
6.104,0.9999742370920454,-148.0406749820566
6.112,0.9999729528863431,-148.43160404006642
6.12,0.9999717325820383,-148.82234161305777
6.128,0.9999705746934823,-149.21288956462058
6.136,0.9999694777554985,-149.60324976588876
6.144,0.999968440323245,-149.99342409542618
6.152,0.9999674609720663,-150.383414439113
6.16,0.9999665382973445,-150.7732226900336
6.168,0.9999656709143557,-151.16285074836483
6.176,0.9999648574581269,-151.5523005212654
6.184,0.9999640965832794,-151.94157392276617
6.192,0.9999633869638904,-152.33067287366134
6.2,0.999962727293341,-152.71959930140045
6.208,0.9999621162841675,-153.10835513998123
6.216,0.999961552667915,-153.49694232984334
6.224,0.9999610351949847,-153.88536281776348
6.232,0.9999605626344884,-154.2736185567502
6.24,0.9999601337740973,-154.6617115059408
6.248,0.9999597474198935,-155.04964363049828
6.256,0.9999594023962174,-155.4374169015098
6.264,0.9999590975455218,-155.82503329588505
6.272,0.9999588317282198,-156.21249479625655
6.28,0.9999586038225337,-156.59980339087977
6.288,0.9999584127243453,-156.98696107353499
6.296,0.9999582573470489,-157.3739698434291
6.304,0.999958136621397,-157.76083170509904
6.312,0.99995804949535,-158.1475486683152
6.32,0.9999579949339326,-158.5341227479866
6.328,0.9999579719190728,-158.9205559640657
6.336,0.999957979449461,-159.30685034145534
6.344,0.9999580165403977,-159.69300790991497
6.352,0.9999580822236428,-160.07903070396904
6.36,0.9999581755472637,-160.46492076281507
6.368,0.9999582955754919,-160.8506801302333
6.376,0.9999584413885702,-161.2363108544964
6.384,0.9999586120826004,-161.62181498828062
6.392,0.9999588067694032,-162.00719458857674
6.4,0.9999590245763619,-162.3924517166029
6.408,0.9999592646462773,-162.77758843771701
6.416,0.9999595261372186,-163.16260682133097
6.424,0.9999598082223791,-163.54750894082437
6.432,0.9999601100899246,-163.93229687346022
6.44,0.9999604309428491,-164.31697270030008
6.448,0.9999607699988262,-164.7015385061209
6.456,0.9999611264900679,-165.0859963793319
6.464,0.9999614996631722,-165.47034841189242
6.472,0.99996188877898,-165.8545966992304
6.48,0.999962293112435,-166.23874334016094
6.4879999999999995,0.9999627119524304,-166.62279043680658
6.496,0.9999631446016747,-167.0067400945175
6.504,0.9999635903765376,-167.39059442179203
6.5120000000000005,0.9999640486069169,-167.7743555301988
6.52,0.9999645186360889,-168.15802553429816
6.5280000000000005,0.9999649998205709,-168.54160655156576
6.536,0.9999654915299734,-168.92510070231515
6.5440000000000005,0.9999659931468693,-169.30851010962206
6.552,0.9999665040666426,-169.69183689924873
6.5600000000000005,0.9999670236973551,-170.0750831995691
6.568,0.9999675514596043,-170.458251141494
6.5760000000000005,0.9999680867863864,-170.84134285839795
6.584,0.9999686291229571,-171.22436048604487
6.592,0.9999691779266925,-171.60730616251618
6.6,0.9999697326669552,-171.99018202813787
6.608,0.999970292824955,-172.37299022540896
6.616,0.999970857893616,-172.75573289892998
6.624,0.9999714273774378,-173.13841219533245
6.632,0.9999720007923645,-173.52103026320825
6.64,0.9999725776656491,-173.90358925303988
6.648,0.9999731575357196,-174.28609131713094
6.656,0.9999737399520475,-174.66853860953728
6.664,0.9999743244750167,-175.05093328599835
6.672,0.999974910675791,-175.43327750386914
6.68,0.9999754981361826,-175.81557342205255
6.688,0.9999760864485245,-176.19782320093213
6.696,0.9999766752155402,-176.58002900230497
6.704,0.9999772640502148,-176.96219298931564
6.712,0.9999778525756686,-177.34431732638978
6.72,0.9999784404250281,-177.72640417916855
6.728,0.9999790272413015,-178.1084557144432
6.736,0.9999796126772514,-178.4904741000902
6.744,0.999980196395271,-178.87246150500647
6.752,0.9999807780672603,-179.25442009904515
6.76,0.9999813573745011,-179.63635205295162
6.768,0.9999819340075344,179.98174046170016
6.776,0.9999825076660407,179.5998552725709
6.784,0.9999830780587159,179.21799020661928
6.792,0.9999836449031525,178.83614309016437
6.8,0.9999842079257184,178.4543117489483
6.808,0.9999847668614393,178.0724940081985
6.816,0.9999853214538799,177.69068769268947
6.824,0.9999858714550255,177.30889062680447
6.832,0.9999864166251671,176.92710063459725
6.84,0.9999869567327827,176.54531553985277
6.848,0.999987491554425,176.16353316614857
6.856,0.9999880208746041,175.78175133691542
6.864,0.9999885444856759,175.39996787549782
6.872,0.9999890621877275,175.01818060521435
6.88,0.9999895737884661,174.63638734941793
6.888,0.999990079103107,174.25458593155577
6.896,0.9999905779542627,173.8727741752291
6.904,0.9999910701718332,173.490949904253
6.912,0.9999915555928969,173.1091109427158
6.92,0.9999920340616018,172.72725511503853
6.928,0.9999925054290583,172.34538024603404
6.936,0.9999929695532319,171.96348416096623
6.944,0.9999934262988374,171.58156468560895
6.952,0.9999938755372327,171.19961964630508
6.96,0.9999943171463155,170.81764687002513
6.968,0.9999947510104181,170.43564418442608
6.976,0.9999951770202055,170.05360941790997
6.984,0.9999955950725722,169.67154039968256
6.992,0.9999960050705408,169.28943495981173
7.0,0.9999964069231617,168.90729092928606
7.008,0.9999968005454122,168.52510614007318
7.016,0.9999971858580984,168.14287842517817
7.024,0.9999975627877542,167.76060561870202
7.032,0.9999979312665478,167.37828555589996
7.04,0.99999829123218,166.9959160732398
7.048,0.9999986426277907,166.61349500846023
7.056,0.9999989854018623,166.2310202006294
7.064,0.9999993195081261,165.8484894902031
7.072,0.9999996449054672,165.46590071908335
7.08,0.9999999615578307,165.08325173067686
7.088,1.0,164.7005403699535
7.096,0.9999999999999999,164.31776448350496
7.104,1.0,163.9349219196033
7.112,0.9999999999999999,163.55201052825984
7.12,1.0,163.16902816128382
7.128,1.0,162.7859726723414
7.136,1.0,162.40284191701468
7.144,1.0,162.01963375286084
7.152,0.9999999999999999,161.63634603947128
7.16,1.0,161.25297663853104
7.168,1.0,160.86952341387848
7.176,1.0,160.48598423156463
7.184,0.9999999999999999,160.10235695991324
7.192,1.0,159.7186394695807
7.2,1.0,159.33482963361612
7.208,1.0,158.95092532752167
7.216,1.0,158.56692442931316
7.224,1.0,158.18282481958062
7.232,1.0,157.7986243815494
7.24,1.0,157.414321001141
7.248,0.9999999999999998,157.0299125670347
7.256,0.9999999999999999,156.64539697072897
7.264,1.0,156.26077210660335
7.272,0.9999999999999999,155.87603587198035
7.28,1.0,155.4911861671879
7.288,1.0,155.10622089562185
7.296,1.0,154.72113796380884
7.304,1.0,154.3359352814693
7.312,1.0,153.9506107615809
7.32,1.0,153.56516232044217
7.328,0.9999999999999998,153.17958787773662
7.336,1.0,152.79388535659677
7.344,1.0,152.40805268366893
7.352,1.0,152.02208778917804
7.36,1.0,151.63598860699287
7.368,1.0,151.24975307469168
7.376,0.9999999999999999,150.86337913362803
7.384,1.0,150.47686472899707
7.392,1.0,150.09020780990215
7.4,1.0,149.7034063294219
7.4079999999999995,1.0,149.31645824467745
7.416,1.0,148.9293615169
7.4239999999999995,1.0,148.5421141114995
7.432,1.0,148.15471399813237
7.4399999999999995,1.0,147.7671591507711
7.448,1.0,147.37944754777288
7.4559999999999995,1.0,146.99157717195013
7.464,1.0,146.6035460106396
7.4719999999999995,0.9999999999999999,146.21535205577396
7.48,1.0,145.8269933039519
7.4879999999999995,0.9999999999999999,145.43846775651016
7.496,1.0,145.04977341959497
7.504,1.0,144.66090830423457
7.5120000000000005,1.0,144.27187042641177
7.52,1.0000000000000002,143.88265780713755
7.5280000000000005,1.0,143.4932684725241
7.536,0.9999999999999999,143.10370045385957
7.5440000000000005,1.0,142.7139517876822
7.552,1.0,142.32402051585592
7.5600000000000005,0.9999999999999999,141.93390468564522
7.568,1.0,141.54360234979214
7.5760000000000005,1.0,141.1531115665919
7.584,0.9999999999999999,140.76243039997067
7.5920000000000005,0.9999999999999999,140.37155691956266
7.6,0.9999999999999999,139.98048920078878
7.6080000000000005,1.0,139.5892253249343
7.616,1.0,139.19776337922914
7.6240000000000006,0.9999999999999999,138.80610145692646
7.632,0.9999999999999999,138.4142376573836
7.640000000000001,1.0,138.0221700861422
7.648,0.9999999999999999,137.62989685501003
7.656000000000001,1.0,137.23741608214203
7.664,1.0,136.8447258921235
7.672,0.9999999999999998,136.45182441605215
7.68,1.0,136.0587097916221
7.688,0.9999999999999999,135.66538016320771
7.696,1.0,135.27183368194795
7.704,1.0,134.87806850583166
7.712,0.9999999999999998,134.48408279978327
7.72,1.0,134.08987473574882
7.728,1.0,133.69544249278303
7.736,1.0,133.30078425713648
7.744,0.9999998846893889,132.90589822234364
7.752,0.9999996760933306,132.5107825893114
7.76,0.9999994659314169,132.11543556640817
7.768,0.999999254329432,131.71985536955364
7.776,0.9999990414126657,131.32404022230898
7.784,0.9999988273058741,130.9279883559677
7.792,0.9999986121332439,130.53169800964722
7.8,0.9999983960183552,130.13516743038073
7.808,0.999998179084144,129.73839487321004
7.816,0.9999979614528671,129.34137860127862
7.824,0.9999977432460678,128.94411688592552
7.832,0.9999975245845399,128.5466080067798
7.84,0.9999973055882939,128.14885025185538
7.848,0.999997086376523,127.75084191764682
7.856,0.9999968670675708,127.35258130922546
7.864,0.9999966477788974,126.9540667403361
7.872,0.9999964286270483,126.55529653349463
7.88,0.9999962097276217,126.15626902008563
7.888,0.999995991195238,125.7569825404613
7.896,0.9999957731435095,125.35743544404042
7.904,0.9999955556850093,124.95762608940818
7.912,0.9999953389312422,124.55755284441648
7.92,0.9999951229926156,124.1572140862849
7.928,0.999994907978411,123.75660820170216
7.936,0.9999946939967544,123.3557335869283
7.944,0.9999944811545919,122.95458864789734
7.952,0.9999942695576589,122.55317180032051
7.96,0.9999940593104556,122.1514814697902
7.968,0.9999938505162208,121.74951609188427
7.976,0.9999936432769059,121.34727411227115
7.984,0.9999934376931489,120.94475398681539
7.992,0.9999932338642513,120.54195418168372
8.0,0.9999930318881537,120.13887317345188
8.008,0.9999928318614107,119.7355094492119
8.016,0.9999926338791696,119.33186150667964
8.024000000000001,0.9999924380351466,118.92792785430366
8.032,0.9999922444216053,118.5237070113738
8.04,0.9999920531293344,118.1191975081306
8.048,0.9999918642476269,117.71439788587546
8.056000000000001,0.9999916778642597,117.30930669708127
8.064,0.9999914940654735,116.90392250550343
8.072,0.9999913129359512,116.49824388629123
8.08,0.9999911345588018,116.0922694261001
8.088000000000001,0.9999909590155404,115.68599772320438
8.096,0.9999907863860681,115.27942738761041
8.104,0.9999906167486573,114.87255704116987
8.112,0.9999904501799325,114.46538531769413
8.120000000000001,0.9999902867548545,114.05791086306895
8.128,0.9999901265467036,113.6501323353695
8.136,0.9999899696270647,113.24204840497565
8.144,0.9999898160658105,112.83365775468818
8.152000000000001,0.9999896659310886,112.42495907984541
8.16,0.9999895192893056,112.01595108843996
8.168,0.9999893762051142,111.60663250123594
8.176,0.9999892367414,111.19700205188676
8.184000000000001,0.9999891009592683,110.7870584870537
8.192,0.9999889689180316,110.37680056652415
8.2,0.9999888406751988,109.96622706333054
8.208,0.9999887162864617,109.55533676386986
8.216000000000001,0.9999885958056878,109.14412846802358
8.224,0.9999884792849056,108.73260098927763
8.232,0.9999883667742983,108.32075315484269
8.24,0.9999882583221925,107.90858380577517
8.248000000000001,0.9999881539750497,107.49609179709857
8.256,0.999988053777458,107.08327599792483
8.264,0.9999879577721252,106.67013529157582
8.272,0.9999878659998693,106.25666857570567
8.280000000000001,0.9999877784996131,105.84287476242335
8.288,0.9999876953083775,105.42875277841505
8.296,0.9999876164612755,105.0143015650669
8.304,0.9999875419915064,104.59952007858836
8.312,0.9999874719303519,104.18440729013572
8.32,0.9999874063071696,103.76896218593521
8.328,0.9999873451493912,103.35318376740726
8.336,0.9999872884825183,102.93707105129
8.344,0.9999872363301185,102.52062306976389
8.352,0.9999871887138241,102.1038388705754
8.36,0.9999871456533297,101.68671751716211
8.368,0.9999871071663898,101.26925808877647
8.376,0.9999870732688196,100.85145968061124
8.384,0.9999870439744929,100.43332140392343
8.392,0.9999870192953422,100.01484238615988
8.4,0.9999869992413595,99.5960217710813
8.408,0.9999869838205976,99.17685871888791
8.416,0.9999869730391706,98.75735240634366
8.424,0.999986966901257,98.33750202690172
8.432,0.9999869654091008,97.91730679082873
8.44,0.9999869685630147,97.49676592533034
8.448,0.9999869763613838,97.07587867467521
8.456,0.9999869888006702,96.6546443003204
8.464,0.999987005875415,96.2330620810353
8.472,0.9999870275782459,95.81113131302679
8.48,0.9999870538998803,95.38885131006283
8.488,0.9999870848291326,94.96622140359725
8.496,0.9999871203529188,94.54324094289318
8.504,0.9999871604562655,94.11990929514738
8.512,0.9999872051223151,93.69622584561311
8.52,0.9999872543323347,93.27218999772413
8.528,0.9999873080657237,92.847801173217
8.536,0.9999873663000229,92.42305881225447
8.544,0.9999874290109231,91.99796237354717
8.552,0.999987496172276,91.57251133447637
8.56,0.9999875677561019,91.14670519121499
8.568,0.999987643732603,90.72054345884946
8.576,0.9999877240701723,90.29402567150005
8.584,0.9999878087354074,89.86715138244186
8.592,0.9999878976931196,89.43992016422408
8.6,0.9999879909063489,89.01233160879026
8.608,0.9999880883363758,88.58438532759644
8.616,0.9999881899427348,88.15608095173027
8.624,0.9999882956832281,87.72741813202819
8.632,0.9999884055139401,87.29839653919328
8.64,0.9999885193892533,86.86901586391114
8.648,0.9999886372618613,86.43927581696668
8.656,0.9999887590827864,86.00917612935854
8.664,0.9999888848013946,85.57871655241436
8.672,0.9999890143654133,85.147896857904
8.68,0.9999891477209475,84.71671683815322
8.688,0.9999892848124975,84.28517630615521
8.696,0.9999894255829769,83.85327509568283
8.704,0.9999895699737316,83.42101306139843
8.712,0.9999897179245575,82.98839007896429
8.72,0.9999898693737209,82.55540604515069
8.728,0.9999900242579771,82.12206087794449
8.736,0.9999901825125923,81.68835451665535
8.744,0.9999903440713616,81.25428692202226
8.752,0.9999905088666323,80.8198580763177
8.76,0.9999906768293246,80.38506798345226
8.768,0.9999908478889529,79.94991666907647
8.776,0.9999910219736491,79.51440418068323
8.784,0.9999911990101839,79.0785305877074
8.792,0.9999913789239915,78.64229598162592
8.8,0.9999915616391911,78.20570047605497
8.808,0.9999917470786134,77.76874420684753
8.815999999999999,0.9999919351638218,77.33142733218828
8.824,0.9999921258151399,76.89375003268798
8.832,0.9999923189516753,76.45571251147653
8.84,0.9999925144913442,76.01731499429427
8.847999999999999,0.9999927123508987,75.5785577295818
8.856,0.9999929124459528,75.1394409885688
8.864,0.9999931146910076,74.69996506536131
8.872,0.99999331899948,74.26013027702727
8.879999999999999,0.9999935252837288,73.81993696368029
8.888,0.9999937334550825,73.37938548856239
8.896,0.9999939434238682,72.93847623812513
8.904,0.9999941550994385,72.49720962210867
8.911999999999999,0.9999943683902015,72.05558607361911
8.92,0.9999945832036491,71.61360604920463
8.928,0.9999947994463856,71.17127002892978
8.936,0.9999950170241592,70.72857851644767
8.943999999999999,0.9999952358418903,70.28553203907036
8.952,0.9999954558037027,69.84213114783775
8.96,0.999995676812954,69.3983764175846
8.968,0.9999958987722655,68.95426844700533
8.975999999999999,0.9999961215835547,68.50980785871683
8.984,0.9999963451480662,68.0649952993196
8.992,0.9999965693664031,67.61983143945709
9.0,0.9999967941385594,67.17431697387238
9.008,0.9999970193639517,66.72845262146302
9.016,0.9999972449414525,66.28223912533386
9.024000000000001,0.9999974707694221,65.83567725284813
9.032,0.9999976967457415,65.38876779567555
9.04,0.9999979227678464,64.94151156983858
9.048,0.9999981487327606,64.4939094157566
9.056000000000001,0.9999983745371277,64.04596219828794
9.064,0.9999986000772475,63.5976708067691
9.072,0.9999988252491089,63.149036155051874
9.08,0.9999990499484233,62.700059181538194
9.088000000000001,0.9999992740706604,62.25074084921284
9.096,0.9999994975110813,61.801082145673135
9.104,0.9999997201647753,61.35108408315639
9.112,0.9999999419266926,60.900747698565
9.120000000000001,1.0,60.45007405348929
9.128,0.9999999999999999,59.9990642342272
9.136,1.0,59.54771935180153
9.144,1.0000000000000002,59.096040541974894
9.152000000000001,1.0,58.644028965262024
9.16,1.0,58.19168580693919
9.168,0.9999999999999999,57.73901227705065
9.176,1.0,57.286009610412904
9.184000000000001,1.0,56.83267906661635
9.192,1.0,56.379021930023455
9.2,0.9999999999999999,55.92503950976437
9.208,1.0,55.470733139729944
9.216000000000001,1.0,55.016104178562024
9.224,1.0,54.5611540096404
9.232,0.9999999999999999,54.10588404106679
9.24,1.0,53.65029570564634
9.248000000000001,0.9999999999999999,53.194390460866195
9.256,0.9999999999999999,52.738169788870685
9.264,1.0,52.281635196433356
9.272,1.0000000000000002,51.82478821492657
9.280000000000001,1.0,51.36763040028797
9.288,1.0,50.9101633329834
9.296,0.9999999999999999,50.45238861796687
9.304,0.9999999999999999,49.99430788463768
9.312000000000001,1.0,49.53592278679445
9.32,1.0,49.077235002585645
9.328,1.0,48.6182462344568
9.336,0.9999999999999999,48.15895820909514
9.344,0.9999999999999999,47.69937267737081
9.352,1.0,47.239491414274255
9.36,0.9999999999999999,46.77931621885147
9.368,0.9999999999999999,46.3188489141346
9.376,0.9999999999999999,45.858091347070946
9.384,1.0000000000000002,45.39704538844676
9.392,1.0,44.93571293280977
9.4,1.0,44.474095898386366
9.408,1.0000000000000002,44.01219622699737
9.416,1.0,43.55001588396869
9.424,0.9999999999999999,43.087556858040394
9.432,0.9999999999999999,42.62482116127056
9.44,1.0,42.161810828937696
9.448,0.9999999999999999,41.69852791943786
9.456,1.0,41.234974514180216
9.464,1.0,40.77115271747755
9.472,1.0,40.307064656434996
9.48,1.0,39.84271248083363
9.488,1.0,39.37809836301252
9.496,0.9999999999999999,38.91322449774552
9.504,1.0,38.44809310211646
9.512,1.0,37.982706415389174
9.52,1.0,37.51706669887581
9.528,1.0,37.051176235800014
9.536,1.0,36.58503733115863
9.544,0.9999999999999999,36.11865231157788
9.552,0.9999999999999999,35.65202352516827
9.56,0.9999999999999998,35.1851533413741
9.568,1.0,34.71804415082148
9.576,1.0,34.250698365161085
9.584,0.9999999999999999,33.7831184169095
9.592,1.0,33.315306759285136
9.6,1.0,32.84726586604281
9.608,1.0,32.37899823130311
9.616,1.0000000000000002,31.91050636938015
9.624,0.9999999999999999,31.441792814604387
9.632,1.0,30.97286012114361
9.64,1.0,30.50371086281929
9.648,1.0,30.03434763292092
9.656,1.0,29.564773044015727
9.664,0.9999999999999999,29.09498972775673
9.672,0.9999999999999999,28.62500033468575
9.68,1.0,28.15480753403512
9.688,0.9999999999999999,27.684414013524325
9.696,1.0,27.213822479155247
9.704,1.0,26.743035655002636
9.712,1.0,26.27205628300294
9.72,1.0,25.800887122738597
9.728,1.0,25.329530951220757
9.736,1.0,24.857990562667343
9.744,0.9999999999999999,24.386268768279773
9.752,1.0,23.914368396015014
9.76,0.9999999999999999,23.442292290356253
9.768,1.0,22.97004331207911
9.776,1.0,22.497624338016543
9.784,1.0,22.025038260819137
9.792,0.9999999999999999,21.55228798871438
9.8,1.0,21.079376445261325
9.808,1.0,20.606306569104227
9.816,1.0,20.133081313721753
9.824,1.0,19.659703647175128
9.832,1.0,19.186176551852032
9.84,1.0,18.71250302420947
9.847999999999999,1.0,18.23868607451252
9.856,0.9999999999999999,17.76472872657156
9.864,0.9999999999999999,17.29063401747693
9.872,1.0,16.816404997330686
9.879999999999999,1.0,16.34204472897595
9.888,1.0,15.86755628772425
9.896,1.0,15.392942761080631
9.904,1.0,14.91820724846598
