freq,mag,phase
6.0,0.9999998311881241,121.83227223506594
6.008,0.9999998541499643,121.7533080196388
6.016,0.9999998754914335,121.67433885675916
6.024,0.9999998952425068,121.59536473646617
6.032,0.9999999134329223,121.51638564881253
6.04,0.9999999300921818,121.43740158386443
6.048,0.9999999452495522,121.35841253170169
6.056,0.9999999589340648,121.27941848241774
6.064,0.9999999711745172,121.2004194261195
6.072,0.9999999819994755,121.12141535292757
6.08,0.9999999914372711,121.0424062529762
6.088,0.9999999995160063,120.96339211641325
6.096,1.0,120.88437293340023
6.104,0.9999999999999998,120.80534869411231
6.112,1.0,120.72631938873828
6.12,1.0,120.64728500748078
6.128,0.9999999999999999,120.56824554055592
6.136,1.0,120.48920097819372
6.144,1.0,120.41015131063786
6.152,1.0,120.33109652814571
6.16,1.0,120.2520366209884
6.168,0.9999999999999998,120.17297157945087
6.176,1.0,120.09390139383179
6.184,1.0,120.0148260544436
6.192,0.9999999932350272,119.93574555161257
6.2,0.9999999851099002,119.8566598756787
6.208,0.999999976020015,119.77756901699588
6.216,0.9999999659898808,119.69847296593176
6.224,0.9999999550437886,119.61937171286787
6.232,0.9999999432058123,119.54026524819952
6.24,0.9999999304998103,119.46115356233591
6.248,0.9999999169494247,119.38203664570013
6.256,0.9999999025780841,119.30291448872907
6.264,0.9999998874090024,119.22378708187351
6.272,0.9999998714651808,119.14465441559817
6.28,0.9999998547694087,119.06551648038162
6.288,0.9999998373442636,118.98637326671631
6.296,0.9999998192121126,118.90722476510868
6.304,0.9999998003951127,118.828070966079
6.312,0.9999997809152122,118.74891186016154
6.32,0.9999997607941511,118.6697474379044
6.328,0.9999997400534615,118.59057768986976
6.336,0.999999718714469,118.51140260663367
6.344,0.9999996967982929,118.43222217878612
6.352,0.9999996743258485,118.3530363969311
6.36,0.999999651317845,118.27384525168654
6.368,0.9999996277947891,118.19464873368436
6.376,0.9999996037769843,118.11544683357052
6.384,0.9999995792845324,118.03623954200481
6.392,0.9999995543373328,117.9570268496612
6.4,0.9999995289550855,117.87780874722752
6.408,0.9999995031572899,117.79858522540563
6.416,0.9999994769632469,117.7193562749115
6.424,0.999999450392059,117.640121886475
6.432,0.9999994234626306,117.56088205084001
6.44,0.9999993961936703,117.48163675876452
6.448,0.9999993686036901,117.40238600102049
6.456,0.9999993407110066,117.32312976839391
6.464,0.9999993125337423,117.24386805168487
6.472,0.9999992840898257,117.16460084170737
6.48,0.9999992553969924,117.08532812928959
6.4879999999999995,0.9999992264727856,117.00604990527364
6.496,0.9999991973345573,116.92676616051577
6.504,0.9999991679994685,116.84747688588621
6.5120000000000005,0.99999913848449,116.76818207226928
6.52,0.9999991088064037,116.68888171056336
6.5280000000000005,0.999999078981803,116.60957579168083
6.536,0.9999990490270927,116.53026430654822
6.5440000000000005,0.9999990189584914,116.45094724610604
6.552,0.9999989887920306,116.3716246013089
6.5600000000000005,0.9999989585435574,116.29229636312542
6.568,0.9999989282287326,116.21296252253839
6.5760000000000005,0.9999988978630333,116.13362307054456
6.584,0.9999988674617536,116.0542779981548
6.592,0.9999988370400044,115.97492729639396
6.6,0.9999988066127147,115.8955709563011
6.608,0.9999987761946324,115.81620896892923
6.616,0.9999987458003247,115.73684132534541
6.624,0.9999987154441785,115.65746801663083
6.632,0.9999986851404026,115.5780890338807
6.64,0.999998654903026,115.49870436820433
6.648,0.9999986247459011,115.41931401072499
6.656,0.9999985946827028,115.33991795258012
6.664,0.9999985647269293,115.26051618492113
6.672,0.9999985348919038,115.18110869891349
6.68,0.9999985051907743,115.10169548573676
6.688,0.9999984756365147,115.02227653658447
6.696,0.9999984462419244,114.9428518426643
6.704,0.9999984170196313,114.86342139519783
6.712,0.9999983879820903,114.78398518542079
6.72,0.9999983591415849,114.7045432045828
6.728,0.9999983305102276,114.62509544394766
6.736,0.9999983020999611,114.5456418947931
6.744,0.9999982739225582,114.46618254841087
6.752,0.9999982459896236,114.38671739610669
6.76,0.9999982183125926,114.30724642920035
6.768,0.9999981909027343,114.22776963902561
6.776,0.99999816377115,114.14828701693018
6.784,0.9999981369287753,114.0687985542758
6.792,0.9999981103863803,113.98930424243817
6.8,0.9999980841545698,113.90980407280693
6.808,0.999998058243785,113.83029803678569
6.816,0.9999980326643029,113.75078612579203
6.824,0.9999980074262377,113.67126833125747
6.832,0.9999979825395416,113.59174464462738
6.84,0.9999979580140048,113.51221505736122
6.848,0.9999979338592568,113.4326795609322
6.856,0.9999979100847658,113.3531381468275
6.864,0.9999978866998414,113.27359080654823
6.872,0.9999978637136331,113.1940375316093
6.88,0.9999978411351321,113.11447831353955
6.888,0.9999978189731716,113.03491314388167
6.896,0.9999977972364278,112.9553420141922
6.904,0.9999977759334194,112.8757649160415
6.912,0.9999977550725093,112.79618184101375
6.92,0.9999977346619052,112.71659278070697
6.928,0.9999977147096594,112.63699772673297
6.936,0.9999976952236697,112.55739667071731
6.944,0.9999976762116802,112.47778960429936
6.952,0.9999976576812819,112.39817651913222
6.96,0.9999976396399126,112.31855740688273
6.968,0.9999976220948585,112.23893225923148
6.976,0.9999976050532546,112.15930106787273
6.984,0.9999975885220836,112.07966382451448
6.992,0.9999975725081789,112.00002052087834
7.0,0.9999975570182233,111.92037114869963
7.008,0.9999975420587508,111.84071569972728
7.016,0.9999975276361458,111.76105416572389
7.024,0.9999975137566453,111.6813865384656
7.032,0.9999975004263376,111.60171280974215
7.04,0.9999974876511643,111.5220329713569
7.048,0.9999974754369199,111.44234701512664
7.056,0.9999974637892528,111.3626549328818
7.064,0.9999974527136657,111.28295671646624
7.072,0.9999974422155155,111.20325235773736
7.08,0.9999974323000148,111.12354184856594
7.088,0.9999974229722322,111.04382518083624
7.096,0.9999974142370912,110.96410234644593
7.104,0.9999974060993733,110.88437333730609
7.112,0.9999973985637161,110.80463814534109
7.12,0.999997391634615,110.72489676248871
7.128,0.9999973853164235,110.64514918070002
7.136,0.9999973796133536,110.56539539193933
7.144,0.9999973745294753,110.4856353881843
7.152,0.9999973700687191,110.40586916142574
7.16,0.999997366234874,110.32609670366769
7.168,0.9999973630315896,110.24631800692734
7.176,0.9999973604623759,110.1665330632351
7.184,0.9999973585306036,110.08674186463439
7.192,0.9999973572395047,110.00694440318178
7.2,0.9999973565921729,109.92714067094686
7.208,0.9999973565915633,109.84733066001226
7.216,0.999997357240494,109.76751436247358
7.224,0.9999973585416448,109.68769177043937
7.232,0.9999973604975595,109.6078628760311
7.24,0.9999973631106445,109.52802767138314
7.248,0.9999973663831696,109.44818614864265
7.256,0.9999973703172692,109.36833829996966
7.264,0.9999973749149417,109.28848411753691
7.272,0.9999973801780488,109.20862359352991
7.28,0.9999973861083185,109.12875672014688
7.288,0.9999973927073427,109.04888348959862
7.296,0.9999973999765791,108.9690038941086
7.304,0.9999974079173499,108.88911792591284
7.312,0.9999974165308445,108.80922557725985
7.32,0.9999974258181167,108.72932684041068
7.328,0.9999974357800867,108.64942170763877
7.336,0.9999974464175417,108.56951017122994
7.344,0.9999974577311339,108.48959222348238
7.352,0.9999974697213834,108.40966785670656
7.36,0.9999974823886759,108.32973706322518
7.368,0.9999974957332647,108.24979983537317
7.376,0.9999975097552691,108.16985616549755
7.384,0.9999975244546765,108.08990604595745
7.392,0.99999753983134,108.00994946912402
7.4,0.9999975558849813,107.92998642738046
7.4079999999999995,0.9999975726151881,107.85001691312179
7.416,0.9999975900214151,107.77004091875493
7.4239999999999995,0.9999976081029852,107.69005843669864
7.432,0.9999976268590882,107.6100694593834
7.4399999999999995,0.9999976462887803,107.53007397925136
7.448,0.9999976663909854,107.45007198875632
7.4559999999999995,0.999997687164494,107.37006348036364
7.464,0.9999977086079642,107.29004844655012
7.4719999999999995,0.9999977307199198,107.21002687980406
7.48,0.9999977534987523,107.12999877262503
7.4879999999999995,0.9999977769427193,107.049964117524
7.496,0.999997801049944,106.96992290702302
7.504,0.9999978258184172,106.8898751336554
7.5120000000000005,0.999997851245994,106.80982078996544
7.52,0.9999978773303965,106.72975986850848
7.5280000000000005,0.999997904069211,106.64969236185073
7.536,0.9999979314598895,106.56961826256924
7.5440000000000005,0.9999979594997491,106.4895375632518
7.552,0.99999798818597,106.40945025649691
7.5600000000000005,0.9999980175155974,106.32935633491363
7.568,0.9999980474855396,106.24925579112147
7.5760000000000005,0.9999980780925685,106.16914861775038
7.584,0.9999981093333181,106.08903480744064
7.5920000000000005,0.9999981412042843,106.00891435284267
7.6,0.9999981737018256,105.92878724661712
7.6080000000000005,0.9999982068221602,105.84865348143455
7.616,0.9999982405613675,105.76851304997552
7.6240000000000006,0.9999982749153871,105.68836594493038
7.632,0.999998309880016,105.6082121589992
7.640000000000001,0.9999983454509108,105.52805168489161
7.648,0.9999983816235857,105.4478845153268
7.656000000000001,0.9999984183934111,105.36771064303332
7.664,0.9999984557556129,105.28753006074896
7.672,0.9999984937052737,105.2073427612207
7.68,0.9999985322373283,105.12714873720452
7.688,0.9999985713465658,105.04694798146528
7.696,0.9999986110276263,104.96674048677666
7.704,0.9999986512750021,104.88652624592096
7.712,0.9999986920830348,104.80630525168901
7.72,0.9999987334459145,104.72607749688
7.728,0.9999987753576789,104.6458429743013
7.736,0.9999988178122116,104.5656016767685
7.744,0.9999988608032417,104.48535359710502
7.752,0.9999989043243411,104.40509872814212
7.76,0.9999989483689237,104.3248370627187
7.768,0.9999989929302439,104.24456859368112
7.776,0.9999990380013948,104.16429331388308
7.784,0.9999990835753066,104.08401121618543
7.792,0.9999991296447452,104.00372229345598
7.8,0.99999917620231,103.92342653856939
7.808,0.9999992232404319,103.8431239444069
7.816,0.9999992707513711,103.76281450385622
7.824,0.9999993187272163,103.68249820981134
7.832,0.9999993671598814,103.60217505517225
7.84,0.9999994160411038,103.52184503284487
7.848,0.9999994653624419,103.44150813574075
7.856,0.9999995151152723,103.36116435677687
7.864,0.9999995652907887,103.28081368887548
7.872,0.9999996158799977,103.20045612496386
7.88,0.999999666873717,103.12009165797407
7.888,0.9999997182625721,103.03972028084269
7.896,0.9999997700369944,102.95934198651068
7.904,0.9999998221872165,102.87895676792306
7.912,0.9999998747032708,102.79856461802865
7.92,0.9999999275749852,102.71816552977987
7.928,0.9999999807919805,102.63775949613247
7.936,1.0,102.55734651004515
7.944,1.0,102.47692656447944
7.952,1.0,102.39649965239934
7.96,0.9999999999999999,102.31606576677095
7.968,1.0,102.23562490056229
7.976,0.9999999999999999,102.15517704674295
7.984,1.0000000000000002,102.07472219828372
7.992,1.0,101.99426034815633
8.0,0.9999999999999999,101.91379148933304
8.008,0.9999999999999999,101.83331561478636
8.016,1.0,101.75283271748862
8.024000000000001,1.0,101.67234279041169
8.032,1.0,101.59184582652655
8.04,1.0,101.51134181880289
8.048,0.9999999999999998,101.43083076020866
8.056000000000001,0.9999999999999999,101.35031264370981
8.064,1.0,101.26978746226973
8.072,1.0,101.18925520884882
8.08,1.0,101.10871587640409
8.088000000000001,1.0,101.02816945788871
8.096,0.9999999999999999,100.94761594625146
8.104,1.0,100.86705533443624
8.112,1.0,100.78648761538163
8.120000000000001,1.0,100.70591278202032
8.128,1.0,100.62533082727859
8.136,0.9999999999999999,100.54474174407571
8.144,1.0,100.46414552532336
8.152000000000001,1.0,100.38354216392517
8.16,1.0,100.30293165277591
8.168,0.9999999999999999,100.22231398476104
8.176,1.0,100.1416891527559
8.184000000000001,0.9999999999999999,100.06105714962517
8.192,0.9999999999999999,99.9804179682221
8.2,1.0,99.89977160138784
8.208,1.0,99.81911804195065
8.216000000000001,1.0,99.73845728272518
8.224,0.9999999999999998,99.65778931651171
8.232,1.0,99.57711413609525
8.24,1.0,99.49643173424472
8.248000000000001,1.0,99.41574210371222
8.256,1.0,99.33504523723192
8.264,0.9999999999999999,99.2543411275193
8.272,1.0,99.17362976727007
8.280000000000001,1.0,99.09291114915929
8.288,1.0,99.01218526584032
8.296,1.0,98.93145210994363
8.304,1.0,98.85071167407591
8.312,1.0,98.7699639508188
8.32,1.0,98.68920893272774
8.328,1.0,98.60844661233084
8.336,0.9999999999999999,98.52767698212742
8.344,1.0,98.44690003458697
8.352,1.0,98.36611576214761
8.36,1.0,98.2853241572148
8.368,1.0,98.20452521215984
8.376,1.0,98.12371891931836
8.384,1.0,98.04290527098883
8.392,1.0,97.96208425943091
8.4,1.0,97.8812558768638
8.408,0.9999999999999999,97.80042011546452
8.416,0.9999999999999999,97.71957696736607
8.424,1.0,97.63872642465563
8.432,0.9999999999999998,97.55786847937262
8.44,1.0,97.47700312350665
8.448,0.9999999999999998,97.39613034899556
8.456,0.9999999999999999,97.31525014772313
8.464,1.0,97.23436251151695
8.472,1.0,97.15346743214604
8.48,1.0,97.07256490131847
8.488,1.0,96.99165491067889
8.496,1.0,96.91073745180583
8.504,0.9999999999999999,96.82981251620912
8.512,1.0,96.74888009532698
8.52,0.9999999999999999,96.66794018052326
8.528,1.0,96.58699276308418
8.536,0.9999999999999999,96.50603783421546
8.544,1.0,96.42507538503878
8.552,0.9999999999999999,96.3441054065886
8.56,1.0,96.26312788980844
8.568,0.9999999999999999,96.18214282554737
8.576,0.9999999999999999,96.10115020455602
8.584,0.9999999999999999,96.02015001748278
8.592,1.0,95.93914225486944
8.6,1.0,95.85812690714712
8.608,1.0,95.77710396463155
8.616,1.0,95.6960734175186
8.624,1.0,95.61503525587932
8.632,0.9999999999999998,95.5339894696549
8.64,1.0,95.45293604865137
8.648,0.9999999999999999,95.37187498253424
8.656,0.9999999999999998,95.29080626082266
8.664,1.0,95.2097298728836
8.672,0.9999999999999999,95.12864580792554
8.68,1.0,95.04755405499216
8.688,1.0,94.96645460295554
8.696,0.9999999999999999,94.88534744050929
8.704,0.9999999999999999,94.80423255616121
8.712,0.9999999999999999,94.72310993822576
8.72,0.9999999999999998,94.6419795748162
8.728,1.0,94.56084145383647
8.736,0.9999999999999999,94.47969556297257
8.744,1.0,94.3985418896838
8.752,0.9999999999999999,94.31738042119353
8.76,0.9999999999999999,94.23621114447973
8.768,0.9999999999999999,94.1550340462648
8.776,1.0,94.07384911300564
8.784,1.0,93.99265633088257
8.792,1.0,93.9114556857885
8.8,1.0,93.83024716331727
8.808,1.0,93.74903074875189
8.815999999999999,0.9999999999999999,93.66780642705207
8.824,1.0,93.58657418284153
8.832,1.0,93.50533400039495
8.84,0.9999999999999999,93.42408586362434
8.847999999999999,1.0,93.34282975606506
8.856,1.0,93.26156566086152
8.864,1.0,93.18029356075262
8.872,1.0,93.09901343805657
8.879999999999999,1.0,93.0177252746557
8.888,1.0,92.93642905198082
8.896,0.9999999999999999,92.85512475099557
8.904,1.0,92.77381235218057
8.911999999999999,0.9999999999999999,92.69249183551747
8.92,1.0,92.61116318047321
8.928,0.9999999999999999,92.52982636598455
8.936,0.9999999999999999,92.4484813704428
8.943999999999999,0.9999999801137845,92.36712817167921
8.952,0.9999997145816895,92.28576674695123
8.96,0.9999994350943474,92.2043970729298
8.968,0.9999991409665138,92.1230191256881
8.975999999999999,0.9999988314706867,92.04163288069199
8.984,0.9999985058339254,91.96023831279281
8.992,0.9999981632343852,91.8788353962231
9.0,0.9999978027975475,91.79742410459558
9.008,0.9999974235921121,91.71600441090655
9.016,0.9999970246255193,91.63457628754436
9.024000000000001,0.9999966048390612,91.55313970630424
9.032,0.9999961631025449,91.47169463841054
9.04,0.9999956982084566,91.39024105454804
9.048,0.9999952088655794,91.30877892490416
9.056000000000001,0.9999946936920042,91.22730821922408
9.064,0.9999941512074734,91.14582890688136
9.072,0.9999935798249835,91.06434095696683
9.08,0.999992977841572,90.98284433839966
9.088000000000001,0.9999923434281999,90.90133902006451
9.096,0.9999916746186323,90.8198249709796
9.104,0.9999909692972146,90.73830216050182
9.112,0.9999902251854209,90.65677055857583
9.120000000000001,0.9999894398270507,90.57523013603532
9.128,0.9999886105719252,90.49368086496644
9.136,0.9999877345579272,90.41212271914495
9.144,0.999986808691216,90.33055567456154
9.152000000000001,0.9999858296244231,90.2489797100517
9.16,0.9999847937326347,90.16739480805025
9.168,0.9999836970869335,90.08580095549455
9.176,0.99998253542528,90.00419814490502
9.184000000000001,0.999981304120487,89.92258637567727
9.192,0.9999799981450402,89.84096565562697
9.2,0.9999786120325281,89.75933600283656
9.208,0.9999771398354448,89.67769744786368
9.216000000000001,0.9999755750791675,89.59605003638151
9.224,0.9999739107119611,89.5143938323368
9.232,0.9999721390509498,89.4327289217278
9.24,0.9999702517241187,89.35105541712467
9.248000000000001,0.9999682396086201,89.26937346307922
9.256,0.999966092765921,89.1876832425995
9.264,0.9999638003747454,89.10598498489847
9.272,0.9999613506633195,89.02427897466495
9.280000000000001,0.9999587308432082,88.94256556315065
9.288,0.999955927048104,88.86084518141676
9.296,0.9999529242823973,88.77911835614059
9.304,0.9999497063863154,88.6973857284396
9.312000000000001,0.9999462560270977,88.61564807622968
9.32,0.999942554729177,88.53390634068106
9.328,0.9999385829610011,88.45216165736726
9.336,0.9999343203021754,88.3704153926915
9.344,0.9999297457223644,88.28866918609741
9.352,0.9999248380131532,88.20692499838326
9.36,0.9999195764260306,88.12518516607145
9.368,0.9999139415837697,88.04345246115396
9.376,0.9999079167481969,87.96173015450816
9.384,0.9999014895432724,87.8800220796993
9.392,0.9998946542455113,87.79833269155739
9.4,0.999887414758779,87.71666711062986
9.408,0.999879788378535,87.63503114020212
9.416,0.9998718104082293,87.55343123702782
9.424,0.9998635395991686,87.47187441054915
9.432,0.9998550642220393,87.39036801917956
9.44,0.999846508321162,87.30891942816261
9.448,0.9998380373411008,87.22753549498645
9.456,0.9998298618699484,87.14622186016105
9.464,0.9998222377940984,87.06498204889755
9.472,0.9998154608697677,86.98381643693648
9.48,0.9998098538388485,86.90272119999746
9.488,0.999805745033569,86.82168743903229
9.496,0.9998034390963108,86.74070072686766
9.504,0.9998031828362657,86.65974132014932
9.512,0.9998051317173814,86.57878519288293
9.52,0.9998093239760992,86.49780587156356
9.528,0.999815668880155,86.41677683005629
9.536,0.9998239528165171,86.3356740175884
9.544,0.9998338625028017,86.25447802941365
9.552,0.9998450203032342,86.1731755227638
9.56,0.9998570240751598,86.09175969326422
9.568,0.9998694839670296,86.01022986945279
9.576,0.9998820507193942,85.92859046514995
9.584,0.9998944330925899,85.84684960439256
9.592,0.99990640483072,85.7650177084252
9.6,0.9999178033498796,85.68310624939934
9.608,0.99992852299498,85.60112677632873
9.616,0.9999385055282406,85.51909023661618
9.624,0.9999477298963758,85.43700656351484
9.632,0.9999562026056099,85.35488447484478
9.64,0.9999639494105903,85.27273142335628
9.648,0.9999710085706235,85.19055364566604
9.656,0.999977425643419,85.10835626793371
9.664,0.9999832496374782,85.02614343818412
9.672,0.9999885302864472,84.94391846531107
9.68,0.9999933162055823,84.86168395262499
9.688,0.999997653715378,84.77944191937918
9.696,0.9999999999999999,84.69719390742489
9.704,1.0,84.61494107244789
9.712,1.0,84.53268426056707
9.72,0.9999999999999999,84.45042407173817
9.728,1.0,84.36816091166752
9.736,1.0,84.28589503395298
9.744,1.0,84.20362657405592
9.752,1.0,84.12135557652955
9.76,1.0,84.03908201673455
9.768,1.0,83.95680581807993
9.776,0.9999999999999999,83.87452686565358
9.784,1.0,83.79224501695175
9.792,1.0,83.70996011028691
9.8,1.0,83.6276719713426
9.808,1.0,83.54538041825346
9.816,1.0,83.46308526551425
9.824,1.0,83.38078632696103
9.832,1.0,83.29848341801879
9.84,1.0,83.2161763573713
9.847999999999999,1.0,83.13386496817601
9.856,1.0,83.05154907892323
9.864,1.0,82.9692285240171
9.872,0.9999999999999999,82.88690314414092
9.879999999999999,1.0,82.80457278645602
9.888,1.0,82.72223730467302
9.896,1.0,82.63989655902665
9.904,1.0,82.55755041617836
