freq,mag,phase
6.0,1.0003655152012854,86.5655361948243
6.002286592,1.0002126126505009,86.40255629352068
6.004572672,1.000046929152415,86.24189748659542
6.006859264,0.9998785165700182,86.08370290146564
6.009145344,0.9997182104221584,85.92790600013807
6.011431936,0.9995761574680608,85.77429970076514
6.013718016,0.9994612089208024,85.62261153540612
6.016004608,0.999380800548356,85.47233989367629
6.018290688,0.9993400173729644,85.32298307783755
6.02057728,0.9993413107494719,85.1739445173703
6.022863872,0.9993848050685458,85.02457913211184
6.025149952,0.9994676390348017,84.87431402375377
6.027436544,0.9995846758689523,84.72260477216794
6.029722624,0.9997284106972334,84.56905900414148
6.032009216,0.9998897603989079,84.41326791768628
6.034295296,1.0000585844559815,84.25512582212117
6.036581888,1.0002242911075805,84.09458612786429
6.03886848,1.0003763652275937,83.93172363138832
6.04115456,1.0005049906601309,83.76686321660998
6.043441152,1.0006023448548307,83.60037588629861
6.045727232,1.0006620517652114,83.43276616453089
6.048013824,1.0006805081462344,83.26459450451199
6.050299904,1.0006564081771927,83.09649812309999
6.052586496,1.0005913406404403,82.92904671873067
6.054872576,1.000489335444915,82.76282217914068
6.057159168,1.0003567620385547,82.59830607772757
6.05944576,1.0002021192405526,82.43590656684012
6.06173184,1.0000351346798315,82.27584132790524
6.064018432,0.9998662839194608,82.11823321242231
6.066304512,0.9997062188711969,81.9630349879716
6.068591104,0.9995652314345735,81.81004331246368
6.070877184,0.9994520411132441,81.65891525593676
6.073163776,0.9993739458123925,81.50919037121471
6.075450368,0.9993358744652965,81.36033811391384
6.077736448,0.9993402343502893,81.21172872924905
6.08002304,0.999386798035377,81.06276871112544
6.08230912,0.9994726153737745,80.91288446708094
6.084595712,0.9995923856482087,80.76149453041953
6.086881792,0.9997382132186367,80.6081985787844
6.089168384,0.9999012333426631,80.4526813941988
6.091454464,1.0000708741458175,80.29477068531098
6.093741056,1.0002365749074984,80.13441645681503
6.096027648,1.0003878936738568,79.9718029737963
6.098313728,1.0005151671350148,79.80717723261047
6.10060032,1.0006103785248428,79.64095148301098
6.1028864,1.0006674861528662,79.47362686056078
6.105172992,1.000682930203955,79.30578089115323
6.107459072,1.0006557788409884,79.1380559835242
6.109745664,1.0005875291220652,78.97101907771136
6.112032256,1.0004826914164453,78.8052643027357
6.114318336,1.0003477466230437,78.64124360865692
6.116604928,1.0001911967852144,78.4793504627308
6.118891008,1.0000229946968229,78.31984821961687
6.1211776,0.9998536654944874,78.1627876695829
6.12346368,0.9996940514275281,78.00813954822104
6.125750272,0.9995542008552115,77.85568964815461
6.128036352,0.9994427960920366,77.70507127020207
6.130322944,0.9993671311173667,77.55584200343695
6.132609536,0.9993319359072466,77.40741222407358
6.134895616,0.9993394433068437,77.25920488279682
6.137182208,0.999389194915998,77.11059436723217
6.139468288,0.9994780579337776,76.96099423626445
6.14175488,0.9996002724236805,76.8098719162406
6.14404096,0.9997484903621904,76.65680405592009
6.146327552,0.9999129746200519,76.50147066568576
6.148614144,1.0000834172435744,76.34372522664914
6.150900224,1.000249163095993,76.1835465991574
6.153186816,1.0003996716525372,76.02109464548208
6.155472896,1.0005254530205014,75.8566264314914
6.157759488,1.0006184792309802,75.6906194951638
6.160045568,1.000672922879412,75.52354150317288
6.16233216,1.0006854330838653,75.3559806750629
6.16461824,1.0006549956390514,75.18855112219593
6.166904832,1.0005837013881425,75.02188755528888
6.169191424,1.0004759586431498,74.85652642376316
6.171477504,1.0003385453617488,74.69295443678068
6.173764096,1.0001800983356153,74.53154025439555
6.176050176,1.0000107825455427,74.37250879937481
6.178336768,0.9998410282350519,74.21596729303374
6.180622848,0.9996818146693411,74.06181691972897
6.18290944,0.9995430618467059,73.90983566642396
6.18519552,0.9994336253516152,73.75968377294136
6.187482112,0.9993604745766362,73.61087419331814
6.189768704,0.9993281675376575,73.46281867714829
6.192054784,0.9993387674068903,73.31496519240446
6.194341376,0.9993917461468255,73.16663586454355
6.196627456,0.9994836593727868,73.01729063418777
6.198914048,0.9996086438520594,72.8663575498291
6.201200128,0.9997589755066881,72.7134519175853
6.20348672,0.9999249263737708,72.55825653346008
6.205773312,1.0000962289291202,72.40062560777372
6.208059392,1.0002619703263955,72.24053973012408
6.210345984,1.0004115357144296,72.07818760025944
6.212632064,1.0005357325388684,71.9138693882568
6.214918656,1.0006265336957207,71.74799340884906
6.217204736,1.0006782161715817,71.58110289333683
6.219491328,1.000687612023388,71.41376471472958
6.221777408,1.0006539461292399,71.24660840336661
6.224064,1.0005795090121217,71.08025538964952
6.226350592,1.0004688504315988,70.91526789624305
6.228636672,1.0003289080451208,70.75208092066224
6.230923264,1.0001686888288157,70.59108216543976
6.233209344,0.9999981704178179,70.43250760609243
6.235495936,0.9998281591996593,70.27640016450113
6.237782016,0.9996694282737789,70.1226637673909
6.240068608,0.9995319246855843,69.97113297606451
6.2423552,0.9994244352050164,69.82137904674903
6.24464128,0.9993538583480359,69.67292896559727
6.246927872,0.9993245837137202,69.52521408191537
6.249213952,0.9993383227959347,69.3776263349811
6.251500544,0.999394510364018,69.22953415449562
6.253786624,0.9994894335205936,69.08035506837463
6.256073216,0.9996171890273335,68.92957120475084
6.258359296,0.9997696355335887,68.77678004141137
6.260645888,0.9999371594761521,68.62164245261366
6.26293248,1.0001090979104907,68.46406925863076
6.26521856,1.0002747475741605,68.30404769348031
6.267505152,1.000423498820146,68.1417567326618
6.269791232,1.000545976312796,67.9774893995183
6.272077824,1.0006344114479224,67.81170536608198
6.274363904,1.0006833537353472,67.64494483504862
6.276650496,1.0006896161066494,67.47777257211999
6.278937088,1.0006526894165515,67.31085488422129
6.281223168,1.0005750152987696,67.1447545690057
6.28350976,1.0004614168789063,66.98004893127114
6.28579584,1.0003192297202592,66.81720152198538
6.288082432,1.0001571472525503,66.65656651464283
6.290368512,0.9999854955646755,66.49836598935963
6.292655104,0.9998152665902345,66.34266022795198
6.294941184,0.9996570260331251,66.18933415530786
6.297227776,0.9995209065520643,66.03815334136691
6.299514368,0.9994155337472888,65.88875384867995
6.301800448,0.9993475126188855,65.74061004741445
6.30408704,0.9993211460463781,65.59318057984885
6.30637312,0.999338252469046,65.44582304182758
6.308659712,0.999397669951842,65.29788965483185
6.310945792,0.9994957049892286,65.14884070892047
6.313232384,0.9996261414366431,64.99814186869506
6.315518464,0.9997807410270618,64.84537013822606
6.317805056,0.9999496469712683,64.69024831938589
6.320091648,1.0001223021277206,64.5326561701293
6.322377728,1.0002877431330641,64.37262152035373
6.32466432,1.0004354744504864,64.21033716222948
6.3269504,1.0005562779811235,64.04608402194043
6.329236992,1.0006423525553447,63.88036015039059
6.331523072,1.0006883973338128,63.71366474990509
6.333809664,1.0006914390895405,63.54660420164005
6.336096256,1.0006512041112747,63.37983321598931
6.338382336,1.0005703658402045,63.21395214430966
6.340668928,1.000453882455723,63.04948807574316
6.342955008,1.0003091579382402,62.88693361551773
6.3452416,1.0001453350389453,62.72662015749875
6.34752768,0.9999726889866722,62.56875368510227
6.349814272,0.9998020978007581,62.41338120804243
6.352100352,0.9996445598294288,62.260396356257516
6.354386944,0.9995097721696484,62.1095509146925
6.356673536,0.9994064395696868,61.960431014438676
6.358959616,0.9993411254837307,61.812561301082674
6.361246208,0.9993179342375018,61.66532324469006
6.363532288,0.9993382912090979,61.518108938797816
6.36581888,0.999401106649479,61.37030897394893
6.36810496,0.9995021773678107,61.22130946850753
6.370391552,0.9996352457286815,61.070634637490144
6.372678144,0.9997919275952487,60.91784419752755
6.374964224,0.9999622936272691,60.76269530993608
6.377250816,1.0001355595181387,60.60503150787645
6.379536896,1.0003006807517016,60.44492724595938
6.381823488,1.0004474408487847,60.28257921651313
6.384109568,1.0005664269774528,60.11829908284282
6.38639616,1.0006500684858552,59.95253754192149
6.38868224,1.000693141399871,59.785866357971834
6.390968832,1.0006930285619156,59.61887754712077
6.393255424,1.0006494696030643,59.45224298537639
6.395541504,1.0005653573294158,59.28650431038076
6.397828096,1.0004460090093348,59.12222864268554
6.400114176,1.0002988477777164,58.9599083065263
6.402400768,1.0001332276311339,58.79985596037876
6.404686848,0.9999595436212688,58.642261227503866
6.40697344,0.9997888459970367,58.487184562123105
6.409260032,0.9996318858283175,58.334486394075675
6.411546112,0.9994986156720596,58.183883454544095
6.413832704,0.9993974580523518,58.03500513910502
6.416118784,0.9993349023686401,57.88734073493539
6.418405376,0.9993148003686441,57.74025987985055
6.420691456,0.9993385589620148,57.59314232067228
6.422978048,0.9994046159842056,57.4453977762113
6.425264128,0.9995087488433764,57.29641056102963
6.42755072,0.9996445963328132,57.145674761843466
6.429837312,0.9998033286388381,56.99282599148149
6.432123392,0.9999750073025131,56.83754860134686
6.434409984,1.0001488481588525,56.67979326614505
6.436696064,1.000313706828821,56.519567389659876
6.438982656,1.0004593558085109,56.35708212078087
6.441268736,1.0005764840782063,56.19269307704625
6.443555328,1.0006576854361569,56.02687467630623
6.44584192,1.000697826888392,55.86018778953284
6.448128,1.000694349044085,55.693224237171634
6.450414592,1.0006475390282257,55.526603742480695
6.452700672,1.0005601085630027,55.360980957955526
6.454987264,1.0004378787740567,55.19685917493763
6.457273344,1.000288327398567,55.03473316998622
6.459559936,1.0001210467046844,54.87488758602235
6.461846016,0.999946400535055,54.71751746307472
6.464132608,0.9997756091236307,54.562676558275044
6.4664192,0.9996193443141361,54.410193367264284
6.46870528,0.9994875584538058,54.25981679927112
6.470991872,0.9993886338829031,54.111103449507496
6.473277952,0.9993288462616713,53.963578047811694
6.475564544,0.9993119345293628,53.81658662692012
6.477850624,0.9993390223765283,53.66952315040161
6.480137216,0.9994083635843651,53.521783473431164
6.482423296,0.9995156980261052,53.372736015709556
6.484709888,0.9996540383629757,53.22190252538805
6.48699648,0.9998149732541024,53.06891096702981
6.48928256,0.9999879547984806,52.91347294897564
6.491569152,1.0001623378022955,52.755531446838845
6.493855232,1.000326895791203,52.59511253085846
6.496141824,1.000471340977242,52.43247856048568
6.498427904,1.0005865897712083,52.26793152565495
6.500714496,1.0006652297914875,52.10199530178115
6.503001088,1.000702355800289,51.93521869069107
6.505287168,1.0006956302894239,51.7682112333392
6.50757376,1.0006453952483947,51.60162533550767
6.50985984,1.0005548437913754,51.436036212676136
6.512146432,1.0004296022152441,51.2720031262904
6.514432512,1.0002778069763398,51.10999587174796
6.516719104,1.0001087352937768,50.95030561846721
6.519005184,0.9999331812419971,50.79313593247028
6.521291776,0.9997623293702571,50.638452442703695
6.523578368,0.9996068873907105,50.486138246949245
6.525864448,0.9994766903313056,50.33592022098494
6.52815104,0.999380056535471,50.18734005801806
6.53043712,0.9993230130558166,50.039883238139005
6.532723712,0.9993093572253514,49.892926186250854
6.535009792,0.9993397553632897,49.745855574368505
6.537296384,0.9994125400525441,49.5980334600323
6.539582976,0.9995228515032729,49.44887477394501
6.541869056,0.9996639641413444,49.29789745297876
6.544155648,0.9998268144505165,49.14469866258108
6.546441728,1.0000011229793682,48.98905482392835
6.54872832,1.0001758859690701,48.83086986746339
6.5510144,1.0003401168565118,48.67022223642705
6.553300992,1.0004833866204008,48.50735758552596
6.555587072,1.0005965876381393,48.34261124887962
6.557873664,1.0006725769597706,48.176489217064145
6.560160256,1.0007066663338016,48.00956421191623
6.562446336,1.0006965985061815,47.84247308770735
6.564732928,1.0006429119238436,47.67581907453396
6.567019008,1.0005491804280886,47.51025597964
6.5693056,1.0004211359951298,47.34628286886866
6.57159168,1.0002668894224336,47.18432528010435
6.573878272,1.0000962399693143,47.02474583772504
6.576164864,0.9999198913735454,46.86769473868101
6.578450944,0.9997489741373549,46.71314241181289
6.580737536,0.9995944062204549,46.56095058633725
6.583023616,0.9994658391295739,46.41081288775919
6.585310208,0.9993715044331755,46.26230458776644
6.587596288,0.9993173054782576,46.11486312331346
6.58988288,0.9993068781665669,45.96789271145012
6.59216896,0.9993406666308284,45.820749109917784
6.594455552,0.9994167491711979,45.672807028693505
6.596742144,0.99953020860665,45.52349516528949
6.599028224,0.999673921361031,45.37228171536107
6.601314816,0.9998386878265959,45.21882968163871
6.603600896,1.000014325655095,45.06291526254032
6.605887488,1.000189475196489,44.90444607507402
6.608173568,1.000353251163285,44.74349888089709
6.61046016,1.0004951954289285,44.58035815548837
6.612746752,1.0006064325263686,44.415352660438245
6.615032832,1.0006797910601752,44.24900153181164
6.617319424,1.0007107602857976,44.081879023808
6.619605504,1.0006973415337521,43.914633669196135
6.621892096,1.0006402314995704,43.747899205187814
6.624178176,1.0005432620678023,43.582263968378186
6.626464768,1.0004124384738338,43.41828428818848
6.628750848,1.0002559299432519,43.25636563588503
6.63103744,1.0000836034313247,43.09683824839349
6.633324032,0.9999064185026981,42.93981445290375
6.635610112,0.9997355321328715,42.78534656690708
6.637896704,0.9995818201570307,42.633234540516966
6.640182784,0.9994550087554708,42.483134210554795
6.642469376,0.9993630218907638,42.33461965335812
6.644755456,0.9993118147116888,42.18714977259946
6.647042048,0.9993046098773152,42.04009841866932
6.649328128,0.9993419221871703,41.89283484946098
6.65161472,0.9994212866261422,41.744699295022855
6.653901312,0.9995377840601106,41.595152808927025
6.656187392,0.9996841492930164,41.443691275324845
6.658473984,0.9998509360244985,41.28991688047171
6.660760064,1.000027686668998,41.133671555789014
6.663046656,1.0002031975270347,40.974843416828875
6.665332736,1.000366451073091,40.81355375186636
6.667619328,1.0005071575382976,40.650055217253886
6.66990592,1.00061625618518,40.48474181590825
6.672192,1.0006869468570616,40.31811117897041
6.674478592,1.0007148044357461,40.15075505946441
6.676764672,1.0006980028963788,39.98333611729497
6.679051264,1.000637593077338,39.81642959444156
6.681337344,1.0005374257337454,39.65069032289702
6.683623936,1.000403612533612,39.48663665186005
6.685910016,1.000244848576871,39.32468315028338
6.688196608,1.0000710190571664,39.16515617440747
6.6904832,0.9998930336573882,39.00816721807343
6.69276928,0.9997222989233757,38.85369719210041
6.695055872,0.9995695119174078,38.70157886756637
6.697341952,0.9994443698311818,38.551467113430355
6.699628544,0.9993548492239149,38.40292038847543
6.701914624,0.9993065422117314,38.255360654993076
6.704201216,0.9993026305154243,38.108178382010486
6.706487808,0.9993433633433251,37.96071990716142
6.708773888,0.9994260505142479,37.812351150214035
6.71106048,0.9995456676425273,37.662506418651915
6.71334656,0.9996944896974117,37.510710901743224
6.715633152,0.9998630725196372,37.35656920475288
6.717919232,1.000041016862213,37.19993570103892
6.720205824,1.000216935471534,37.04071119530868
6.722491904,1.0003795988708681,36.879009757401484
6.724778496,1.000518861005511,36.71512508014227
6.727065088,1.000625822586036,36.54944987196412
6.729351168,1.000693889048142,36.38246909956666
6.73163776,1.0007185990831464,36.2148314700246
6.73392384,1.0006983812036387,36.04715342880034
6.736210432,1.0006345504809524,35.88005602194543
6.738496512,1.0005311337122789,35.71415377391079
6.740783104,1.0003945815564168,35.54998102555937
6.743069696,1.0002335026554403,35.38794717386125
6.745355776,1.0000581193671763,35.228374301644145
6.747642368,0.9998794683496927,35.07134780399066
6.749928448,0.999708924661345,34.91683381980623
6.75221504,0.9995571375279415,34.76467270853441
6.75450112,0.9994338017876013,34.6144845480688
6.756787712,0.9993466860314656,34.46582436343765
6.759073792,0.9993013854600779,34.318116323726265
6.761360384,0.9993007476782958,34.170716936218234
6.763646976,0.9993448489143822,34.02302601723889
6.765933056,0.9994309280549527,33.874363566904115
6.768219648,0.9995535239923005,33.724181124353365
6.770505728,0.9997048973991611,33.57196889512908
6.77279232,0.9998754886269736,33.41743695778298
6.7750784,1.0000544170231183,33.26036223015633
6.777364992,1.00023049272759,33.10067107571701
6.779651584,1.0003926408091213,32.938523242918365
6.781937664,1.0005304678797082,32.77420317226534
6.784224256,1.000635250641001,32.60807877422962
6.786510336,1.0007005367881676,32.44074169768351
6.788796928,1.0007220692375278,32.27273938347019
6.791083008,1.0006984572858324,32.104746739021444
6.7933696,1.0006312664745305,31.93739956108359
6.79565568,1.0005246308239175,31.771299417692607
6.797942272,1.0003853454253502,31.60696505310912
6.800228864,1.0002220677661062,31.444803460265888
6.802514944,1.0000451939951385,31.285096730573816
6.804801536,0.9998659307042648,31.12798462421669
6.807087616,0.9996955543729884,30.973384006516746
6.809374208,0.9995448158536866,30.821106123989804
6.811660288,0.9994232445063793,30.670792954924277
6.81394688,0.9993387395016643,30.52196681780812
6.81623296,0.9992964551808637,30.374059461220032
6.818519552,0.9992991630923852,30.226430288641435
6.820806144,0.9993466595142119,30.07842052868762
6.823092224,0.9994360241967407,29.92940400115426
6.825378816,0.9995616885345765,29.778806482431392
6.827664896,0.9997155346941389,29.626163143096242
6.829951488,0.9998879195817166,29.471153236947504
6.832237568,1.0000679730767164,29.31356258093121
6.83452416,1.0002442477422553,29.153358453370057
6.836810752,1.0004056093766152,28.990707789814213
6.839096832,1.0005420212845708,28.825872750921647
6.841383424,1.0006446334858112,28.659308873484928
6.843669504,1.0007071106994798,28.491518167300324
6.845956096,1.0007254785377777,28.323115679341193
6.848242176,1.0006985215892559,28.15475467241221
6.850528768,1.0006278572727356,27.98710930661545
6.852814848,1.0005180535098341,27.820744376415746
6.85510144,1.0003759509168464,27.656195107903173
6.857388032,1.000210560470943,27.493853201716096
6.859674112,1.0000322416101124,27.333992064439755
6.861960704,0.999852350254062,27.17670983391746
6.864246784,0.9996821961875604,27.021973045003556
6.866533376,0.9995325208441601,26.869530799213067
6.868819456,0.9994129405025268,26.719042385723444
6.871106048,0.9993308726487559,26.569996753797664
6.87339264,0.9992915949340585,26.421820824301136
6.87567872,0.9992976170293489,26.27388850940416
6.877965312,0.9993485979899843,26.125523409096974
6.880251392,0.999441276320104,25.976080960399965
6.882537984,0.9995698824044914,25.825043038658368
6.884824064,0.999726159905826,25.671887799482075
6.887110656,0.9999003805824109,25.516343955529084
6.889396736,1.0000814268061773,25.358190856004455
6.891683328,1.0002578812852758,25.19743118020495
6.89396992,1.0004185086589978,25.034226866214723
6.896256,1.0005534238037506,24.86882912701029
6.898542592,1.0006538551058024,24.701740788692206
6.900828672,1.0007135716824354,24.533436027182205
6.903115264,1.0007286449556494,24.3646049306817
6.905401344,1.0006981751214674,24.195864237038545
6.907687936,1.000624298943823,24.027859504951422
6.909974528,1.0005112846384134,23.861160125209313
6.912260608,1.0003664729646602,23.69633886941505
6.9145472,1.0001989132992526,23.533777765022073
6.91683328,1.0000192518178848,23.3736994096214
6.919119872,0.9998387835394725,23.216209014115883
6.921405952,0.9996688850998822,23.06126644105554
6.923692544,0.999520392038099,22.908605363402696
6.925978624,0.99940271077258,22.757886605681826
6.928265216,0.9993231926492003,22.608564107081524
6.930551808,0.9992869540833188,22.46008463055607
6.932837888,0.9992963166169494,22.311771947094957
