freq,mag,phase
6.0,1.0000103550239743,174.32750155782304
6.004374016,1.0000289580017019,174.05547424350152
6.008748032,1.0000462544292932,173.78320271304474
6.013122048,1.0000612066065477,173.5106902314264
6.017496064,1.0000729342667558,173.2380070321526
6.02187008,1.0000808335575497,172.96519436351988
6.026244096,1.0000841601919093,172.69229530305932
6.0306176,1.0000830497816586,172.41938087944385
6.034991616,1.000077458437225,172.14653654240317
6.039365632,1.0000676161438955,171.87379842977873
6.043739648,1.0000541396488591,171.60123480281484
6.048113664,1.0000378448501477,171.32885351739486
6.05248768,1.000019665655893,171.0567508684146
6.056861696,1.0000008356834398,170.78488543908733
6.061235712,0.9999823044868679,170.51329831431073
6.065609728,0.9999651867659929,170.24197190091576
6.069983744,0.9999504015470281,169.9708765421865
6.07435776,0.999939101213883,169.69995122870873
6.078731776,0.9999317710074305,169.42916101793355
6.08310528,0.9999288824363395,169.15847906052238
6.087479296,0.9999306074930452,168.88775635295906
6.091853312,0.9999368562767383,168.61703647672596
6.096227328,0.9999470144793078,168.3461833927211
6.100601344,0.9999609877012069,168.0751464391947
6.10497536,0.9999775426744214,167.80392255023415
6.109349376,0.9999958634111981,167.53246273195558
6.113723392,1.0000147322331832,167.2607300564629
6.118097408,1.0000333129340961,166.98874633950862
6.122471424,1.0000501989697275,166.71650553639685
6.12684544,1.0000644243127075,166.4440851347426
6.131219456,1.000075437316702,166.1714446519493
6.135593472,1.0000822979530768,165.89871853387163
6.139966976,1.0000846258552585,165.62591861281092
6.144340992,1.0000824375515893,165.35313025164004
6.148715008,1.000075758241059,165.08037755523313
6.153089024,1.000064903743073,164.80777778434702
6.15746304,1.0000507494364044,164.5353499881126
6.161837056,1.000033813344043,164.26314757191102
6.166211072,1.0000152581732271,163.99121589702435
6.170585088,0.9999962454204373,163.719537830356
6.174959104,0.9999778520417446,163.44813876820993
6.17933312,0.9999612144137534,163.17697335273638
6.183707136,0.9999472775917412,162.90602423704868
6.188081152,0.9999366650343251,162.6352549530627
6.192454656,0.9999303593177031,162.36462351539495
6.196828672,0.9999284750523526,162.0940565482754
6.201202688,0.9999313015651461,161.82347645995483
6.205576704,0.9999385223322693,161.55282811709048
6.20995072,0.9999497722138094,161.28206736843973
6.214324736,0.9999645080445932,161.01111877655273
6.218698752,0.9999815425235578,160.73994356189397
6.223072768,1.0000001932352118,160.46852432177496
6.227446784,1.0000191698270553,160.19689011713572
6.2318208,1.0000375119714762,159.9249357052572
6.236194816,1.0000539941362754,159.6527778691607
6.240568832,1.0000676504593895,159.38040891645363
6.244942336,1.0000776329863472,159.10787926383682
6.249316352,1.0000834957861293,158.83523302611567
6.253690368,1.0000849042530935,158.56256068224727
6.258064384,1.0000815680469386,158.2898768570041
6.2624384,1.0000737050284174,158.01730533302185
6.266812416,1.0000620689661548,157.74487114678263
6.271186432,1.0000470583459282,157.47261228974844
6.275560448,1.0000296250142624,157.2005956823732
6.279934464,1.000010836806463,156.92884444984497
6.28430848,0.9999918089446476,156.65735825862973
6.288682496,0.999973642362714,156.38612277026192
6.293056512,0.999957291569103,156.11515280182687
6.297430528,0.9999441092563764,155.8443960007867
6.301804032,0.999934451516031,155.57382202187165
6.306178048,0.9999291115089692,155.3033313630037
6.310552064,0.999928350491335,155.03287061852342
6.31492608,0.999932253340773,154.762434296787
6.319300096,0.9999405007896821,154.49191507986575
6.323674112,0.9999526405950357,154.22122530697365
6.328048128,0.9999679997863633,153.95038387373964
6.332422144,0.999985744786488,153.67930357802285
6.33679616,1.0000046969874485,153.4079772415887
6.341170176,1.0000237495069124,153.13636585314836
6.345544192,1.0000416331042656,152.86451612617026
6.349918208,1.000057584004211,152.59241574811114
6.354291712,1.000070688826147,152.32014912765078
6.358665728,1.0000797959964451,152.04772754505183
6.363039744,1.000084571708145,151.77519597469282
6.36741376,1.0000847484945572,151.50264041479483
6.371787776,1.000080330461957,151.2301151214701
6.376161792,1.0000715690059387,150.95771016844742
6.380535808,1.0000589545010894,150.68543255932607
6.384909824,1.0000431922267967,150.41337156597442
6.38928384,1.0000253354267836,150.14157260536007
6.393657856,1.0000062464927848,149.86999748671636
6.398031872,0.9999872670882853,149.59871181629245
6.402405888,0.9999693467031893,149.32770460465127
6.406779904,0.9999536117117431,149.05695596857788
6.411153408,0.999941149788431,148.78636585232886
6.415527424,0.9999324296205001,148.5159487044762
6.41990144,0.999928117677123,148.24564233525692
6.424275456,0.9999284334109309,147.97537659969524
6.428649472,0.999933388917937,147.7050449748626
6.433023488,0.9999427178331132,147.43463890046948
6.437397504,0.9999557109675792,147.16408832659562
6.44177152,0.9999718517051636,146.89334507043912
6.446145536,0.999989959525401,146.6223388055728
6.450519552,1.0000090601262739,146.35108693744584
6.454893568,1.0000280590713198,146.079584914634
6.459267584,1.0000457784942738,145.80784018230017
6.463641088,1.0000611938019544,145.53582773186452
6.468015104,1.0000733429237132,145.26366071140808
6.47238912,1.0000815971551902,144.9913493470554
6.476763136,1.0000853280933475,144.7189619043258
6.481137152,1.000084410253797,144.44657070908957
6.485511168,1.0000789667029795,144.17420871454868
6.489885184,1.0000690853507543,143.9019629841129
6.4942592,1.0000556322006513,143.6299038862453
6.498633216,1.0000392306226904,143.35805089347767
6.503007232,1.000020877803953,143.08644059420357
6.507381248,1.0000016299697327,142.8151052506075
6.511755264,0.999982713170657,142.54406475189617
6.51612928,0.9999652484821157,142.27325829632687
6.520502784,0.9999500757269616,142.00270387713968
6.5248768,0.9999382718099781,141.73235312238273
6.529250816,0.9999306393399857,141.46211941945762
6.533624832,0.9999274198050956,141.19198630180355
6.537998848,0.9999288250482158,140.92184795141932
6.542372864,0.9999348189419428,140.6517047532837
6.54674688,0.9999451677157174,140.38143683651174
6.551120896,0.9999590731247208,140.11097082736077
6.555494912,0.9999757568610579,139.84034398691773
6.559868928,0.9999943697385435,139.56945973417297
6.564242944,1.0000136775596713,139.2983216416552
6.56861696,1.00003252656208,139.02689526885294
6.572990464,1.0000498562572644,138.7552534789241
6.57736448,1.0000645735334965,138.483380872013
6.581738496,1.0000759830835642,138.21131760687422
6.586112512,1.0000832017855004,137.93914466016616
6.590486528,1.0000859492442047,137.66688714959432
6.594860544,1.0000838780260772,137.39466425928177
6.59923456,1.000077245826816,137.12248467345262
6.603608576,1.0000665319472901,136.85045841363146
6.607982592,1.0000520906706998,136.57860195952892
6.612356608,1.0000350474407091,136.30697949166583
6.616730624,1.0000163554049994,136.0355817257686
6.62110464,0.9999969530910258,135.7645091367707
6.625478656,0.9999782211130036,135.49366498924286
6.62985216,0.999961033189125,135.22309668627676
6.634226176,0.9999466695339463,134.9527801775439
6.638600192,0.9999357092149507,134.6826129093202
6.642974208,0.9999290865451845,134.41258011800372
6.647348224,0.999926861320845,134.1426455747444
6.65172224,0.999929391344026,133.8726768351933
6.656096256,0.9999365518858961,133.60268848425886
6.660470272,0.9999477840532373,133.33254445969035
6.664844288,0.9999624912399552,133.06224809307835
6.669218304,0.999979881614497,132.7917146233562
6.67359232,0.999998873061025,132.52094465124128
6.677966336,1.000018174766166,132.24993458462345
6.68233984,1.0000368869590104,131.97862254614932
6.686713856,1.0000538212624202,131.7070849228443
6.691087872,1.0000678421797995,131.43532445908178
6.695461888,1.0000783560290825,131.16341973998703
6.699835904,1.0000845504153737,130.89139945746555
6.70420992,1.0000861198419617,130.61931546015194
6.708583936,1.000083021915136,130.34725931687242
6.712957952,1.0000753485284615,130.0752966967629
6.717331968,1.0000635807924259,129.8034736987272
6.721705984,1.0000484592420251,129.5318239185096
6.72608,1.0000308626756857,129.26044089181394
6.730454016,1.0000117748524677,128.98929855538623
6.73482752,0.9999924398522159,128.71843913840075
6.739201536,0.9999738098653485,128.44787525880093
6.743575552,0.9999570695364491,128.17752737398783
6.747949568,0.9999434042506551,127.90742659155825
6.752323584,0.9999333649685928,127.63748625751153
6.7566976,0.9999276361739748,127.36768450104036
6.761071616,0.999926523258658,127.097931306151
6.765445632,0.9999302538717524,126.82814588184249
6.769819648,0.9999384938057038,126.55829395966083
6.774193664,0.9999506478179929,126.28833118849911
6.77856768,0.9999661223693825,126.01817089061046
6.782941696,0.9999841260962151,125.74776033152722
6.787315712,1.0000033572819695,125.47710939131797
6.791689216,1.000022688664614,125.20618170665445
6.796063232,1.000041188721949,124.93503227734575
6.800437248,1.0000576257371916,124.66360165101443
6.804811264,1.0000709095111502,124.39201457297916
6.80918528,1.0000805173061955,124.12025127184164
6.813559296,1.0000856718033955,123.84837950561256
6.817933312,1.0000861673522614,123.57646811664567
6.822307328,1.0000819180626546,123.30462932629855
6.826681344,1.0000732366990908,123.03285714538174
6.83105536,1.0000605881211615,122.76125406228877
6.835429376,1.0000446030108112,122.48987122018102
6.839803392,1.0000264149278224,122.21870534072748
6.844176896,1.0000071879639505,121.94782174113807
6.848550912,0.999987652631745,121.67722933893263
6.852924928,0.9999693161088867,121.40688657820141
6.857298944,0.999953261856312,121.13680460255235
6.86167296,0.9999401923875676,120.86695296296872
6.866046976,0.9999311626779835,120.5972546805557
6.870420992,0.9999264636751083,120.3276445696623
6.874795008,0.9999265596827757,120.05810009310777
6.879169024,0.9999313889159186,119.78850456950985
6.88354304,0.9999405896208542,119.51882485553107
6.887917056,0.9999537029226483,119.24900935761517
6.892291072,0.9999699549393991,118.97897162593263
6.896665088,0.9999884174322307,118.70871187865275
6.901038592,1.0000078127840981,118.4381780035546
6.905412608,1.0000272723415755,118.1674090538407
6.909786624,1.0000453503568145,117.89636747032046
6.91416064,1.0000612098082857,117.6250867820196
6.918534656,1.0000738468578667,117.35361954321503
6.922908672,1.0000824259175585,117.08201555326548
6.927282688,1.0000864815804316,116.81033731992622
6.931656704,1.0000859401290343,116.53861781493605
6.93603072,1.0000804943925934,116.26697995368885
6.940404736,1.000070788706705,115.9954292779926
6.944778752,1.0000571982904738,115.72407415121828
6.949152768,1.0000406050791286,115.45291398466145
6.953526272,1.0000219151581755,115.18201642901636
6.957900288,1.0000023752202538,114.91138963378131
6.962274304,0.9999830321686473,114.64105956751705
6.96664832,0.9999650065865299,114.37098935520137
6.971022336,0.9999495230790394,114.10118028782664
6.975396352,0.999937270670527,113.83154027065694
6.979770368,0.9999291628130784,113.56207186594743
6.984144384,0.9999255893377216,113.29270043266497
6.9885184,0.9999268247583802,113.02333291206438
6.992892416,0.9999327159321711,112.75393756976729
6.997266432,0.9999430100593197,112.48443152781749
7.001640448,0.9999570414173691,112.21475116662559
7.006014464,0.999973956939123,111.9448756150991
7.010387968,0.9999927787716761,111.67475482621231
7.014761984,1.0000124300886937,111.40437695190069
7.019136,1.0000317607572462,111.13372699544449
7.023510016,1.0000495564899727,110.86283586675947
7.027884032,1.0000647665443012,110.59171112901717
7.032258048,1.0000765295714236,110.32039878248115
7.036632064,1.0000841468458566,110.04896192906253
7.04100608,1.0000871783049805,109.77745710069449
7.045380096,1.0000852835649356,109.50595964135914
7.049754112,1.0000789207363,109.23452441364726
7.054128128,1.00006820006327,108.96321505103292
7.058502144,1.000053707402271,108.69207305129294
7.062875648,1.0000364565188737,108.42119510989592
7.067249664,1.000017373561213,108.15054890100173
7.07162368,0.9999975939827898,107.88020530971305
7.075997696,0.9999784059856599,107.61013294214136
7.080371712,0.9999608033664252,107.34033768869931
7.084745728,0.9999458834825166,107.0707532300414
7.089119744,0.9999345650160218,106.80139463012678
7.09349376,0.9999274514290664,106.53214608076024
7.097867776,0.9999250125700353,106.26298070535663
7.102241792,0.9999273173127211,105.99383979606571
7.106615808,0.9999343828922953,105.72462507470183
7.110989824,0.9999456214133622,105.45528559854925
7.11536384,0.9999605370710782,105.18579869930664
7.119737344,0.9999780583500596,104.91606877719965
7.12411136,0.9999972788922108,104.6460959042411
7.128485376,1.0000170791488872,104.37584525656717
7.132859392,1.000036236169902,104.10532467823614
7.137233408,1.0000535758521543,103.83458124527284
7.141607424,1.0000681934024576,103.5636119859158
7.14598144,1.000079099888294,103.29246668996815
7.150355456,1.0000856466550834,103.02120682342441
7.154729472,1.0000875268067067,102.74990766656943
7.159103488,1.0000845535855478,102.47860294657917
7.163477504,1.0000770162098012,102.20739087901035
7.16785152,1.000065255606117,101.93632707456956
7.172225024,1.0000499385590265,101.66544513771429
7.17659904,1.0000321006080035,101.39481856656646
7.180973056,1.0000126562979694,101.1244587011754
7.185347072,0.9999928808852558,100.8543782420388
7.189721088,0.9999738673510404,100.58457409552138
7.194095104,0.9999566852232901,100.3150559159667
7.19846912,0.9999425072147246,100.04573200959646
7.202843136,0.9999320683151584,99.77661796653821
7.207217152,0.9999259694655858,99.50762407598941
7.211591168,0.9999245444610619,99.23866319875413
7.215965184,0.9999281130570029,98.9697207041118
7.2203392,0.9999361943354145,98.70070645222488
7.224712704,0.999948444150366,98.43154787631717
7.22908672,0.9999641527977242,98.16220887929914
7.233460736,0.9999822946071486,97.89264140120797
7.237834752,1.000001867663994,97.62279964578785
7.242208768,1.0000216943735598,97.35271215423279
7.246582784,1.0000406501902173,97.08235194122625
7.2509568,1.00005748666159,96.81174240865901
7.255330816,1.0000713482636259,96.54092613097212
7.259704832,1.0000813810073486,96.2699531999515
7.264078848,1.0000869178475182,95.99888610824424
7.268452864,1.0000875850750246,95.72776119213162
7.27282688,1.0000835522272584,95.4566966510339
7.277200896,1.0000749225759173,95.18571884157318
7.2815744,1.0000621356367532,94.91488552638103
7.285948416,1.0000460561625073,94.64427387137584
7.290322432,1.0000277027348572,94.37391797270806
7.294696448,1.0000079484739768,94.10384205489287
7.299070464,0.9999881466664545,93.83402965613146
7.30344448,0.9999693391639106,93.56450458139601
7.307818496,0.9999527465882894,93.29524029062446
7.312192512,0.999939236271261,93.02620777260007
7.316566528,0.9999297015789167,92.75732785825386
7.320940544,0.9999247257851109,92.48855140676284
7.32531456,0.9999245530877151,92.21983391610298
7.329688576,0.9999291821428046,91.9510947186005
7.33406208,0.9999383472740396,91.68226731448533
7.338436096,0.9999515625481482,91.41327629712379
7.342810112,0.9999680317721923,91.14411048747598
7.347184128,0.9999867067146175,90.87469262702635
7.351558144,1.0000065749145106,90.60500055541134
7.35593216,1.0000263956914834,90.3350403649491
7.360306176,1.0000449862037748,90.06483894424855
7.364680192,1.0000613952469473,89.7943827608571
7.369054208,1.0000743672492103,89.5237278125651
7.373428224,1.0000834623707462,89.25292718313217
7.37780224,1.0000878601329155,88.98204805130548
7.382176256,1.0000874880440194,88.71116667995287
7.386550272,1.0000822739577742,88.44030318127263
7.390923776,1.0000725734644398,88.16955210933305
7.395297792,1.0000589114396703,87.89897295019173
7.399671808,1.0000420747831558,87.62864727558376
7.404045824,1.0000230809645936,87.35855886605755
7.40841984,1.000003150636228,87.0887376709288
7.412793856,0.9999832566047613,86.81921338129024
7.417167872,0.9999648430553127,86.54995621125087
7.421541888,0.9999488455891256,86.28097325817856
7.425915904,0.9999361133956406,86.01219422277914
7.43028992,0.9999275561269436,85.74356682107432
7.434663936,0.9999236957157605,85.47502979806077
7.439037952,0.9999246978908405,85.20653437959031
7.443411456,0.9999304480573104,84.93799147625944
7.447785472,0.9999407552105476,84.66934004962596
7.452159488,0.9999548680770844,84.4005430497105
7.456533504,0.9999720417205764,84.13153253564569
7.46090752,0.9999912341471778,83.86225023992539
7.465281536,1.0000112437500033,83.59272796087144
7.469655552,1.0000310177791636,83.32291815072284
7.474029568,1.0000492473246692,83.05284330734631
7.478403584,1.0000650626968302,82.78256686893334
7.4827776,1.0000773357435213,82.51207114783273
7.487151616,1.0000853275350896,82.24145393364117
7.491525632,1.0000886373571256,81.97075913641879
7.495899648,1.0000870866943206,81.70007878494272
7.500273152,1.0000806577418462,81.42945455831995
7.504647168,1.00006994505275,81.15894148365632
7.509021184,1.0000553493958886,80.88863600481801
7.5133952,1.0000378660343368,80.61854317656928
7.517769216,1.0000184052153107,80.34873763967323
7.522143232,0.9999982974945569,80.07920851079332
7.526517248,0.999978546030961,79.80995512446772
7.530891264,0.9999604647622148,79.54099424667756
7.53526528,0.9999450343507679,79.2722779699611
7.539639296,0.9999331736705589,79.00374643845608
7.544013312,0.999925701699724,78.73537514466915
7.548387328,0.9999229602769868,78.46705463705045
7.552760832,0.999925013654727,78.19877851833218
7.557134848,0.9999319920828047,77.93044171012144
7.561508864,0.9999433283801784,77.66197119299981
7.56588288,0.9999583493648773,77.39332666876989
7.570256896,0.9999761129637689,77.1244765467102
7.574630912,0.9999958302968488,76.85536819826183
7.579004928,1.0000159467615988,76.58597429266192
7.583378944,1.0000356302382107,76.3163144103832
7.58775296,1.0000534993272647,76.04639067322371
7.592126976,1.0000685580976874,75.77626917575157
7.596500992,1.000079982356467,75.50594457875948
7.600875008,1.0000869428786274,75.23551912108847
7.605249024,1.0000891041460134,74.96502091200509
7.609622528,1.00008639778441,74.69453602099254
7.613996544,1.0000789047684815,74.42413910606633
7.61837056,1.000067080951916,74.15388658137866
7.622744576,1.0000515431745782,73.8838241417274
7.627118592,1.000033462334496,73.61402023639656
7.631492608,1.000013659346786,73.34446415660271
7.635866624,0.9999933260687044,73.07522928514523
7.64024064,0.9999737954688941,72.80625563118535
7.644614656,0.9999561788234159,72.53756268332977
7.648988672,0.9999414236806095,72.26909836166412
7.653362688,0.9999304880649396,72.00083486062837
7.657736704,0.9999240262979874,71.73271254013785
7.662110208,0.9999224309573915,71.46462385583392
7.666484224,0.9999258079973254,71.19655825103948
7.67085824,0.9999338546345148,70.9283959358263
7.675232256,0.999946099053411,70.66012301440303
7.679606272,0.9999619827286451,70.39163801121335
7.683980288,0.9999804899831097,70.1229467146731
7.688354304,1.0000004953842845,69.853971498902
7.69272832,1.0000207558837881,69.58471427128391
7.697102336,1.0000401622204915,69.3152131515104
7.701476352,1.0000575804209741,69.04545905067903
7.705850368,1.0000719502113713,68.77546884940072
7.710224384,1.0000824875686711,68.50531966669058
7.714597888,1.0000883156477667,68.23506966188587
7.718971904,1.0000893682283654,67.96476765118229
7.72334592,1.0000854770701249,67.69451019533342
7.727719936,1.0000768229067485,67.42432324830428
7.732093952,1.0000639465143624,67.15432341348206
7.736467968,1.0000476711153454,66.88451509185643
7.740841984,1.0000289386743189,66.61497357691982
7.745216,1.000008768372933,66.34571068175187
7.749590016,0.9999884410018964,66.07673865201146
7.753964032,0.9999691727909152,65.80806212027889
7.758338048,0.9999519315838048,65.5396356178302
7.762712064,0.9999379914775121,65.27143560890165
7.76708608,0.9999280398009782,65.00342407838842
7.771459584,0.9999226533243093,64.73552268341487
7.7758336,0.9999222497852482,64.46766002368749
