freq,mag,phase
6.0,0.9999952033307615,-144.09232268979295
6.008,0.9999933644427847,-144.48102559395363
6.016,0.999991607187035,-144.8694477124075
6.024,0.999989929804572,-145.25759128182213
6.032,0.9999883305588505,-145.6454585495084
6.04,0.9999868077355808,-146.03305177325828
6.048,0.9999853596425939,-146.42037322118406
6.056,0.9999839846097031,-146.80742517155898
6.064,0.9999826809885638,-147.19420991265957
6.072,0.9999814471525337,-147.58072974260998
6.08,0.9999802814965296,-147.96698696922695
6.088,0.9999791824368862,-148.35298390986736
6.096,0.9999781484112149,-148.73872289127655
6.104,0.9999771778782546,-149.12420624943863
6.112,0.9999762693177292,-149.50943632942833
6.12,0.9999754212302039,-149.89441548526395
6.128,0.9999746321369337,-150.2791460797623
6.136,0.9999739005797204,-150.66363048439533
6.144,0.9999732251207628,-151.0478710791473
6.152,0.9999726043425076,-151.43187025237472
6.16,0.9999720368475016,-151.8156304006667
6.168,0.9999715212582417,-152.1991539287076
6.176,0.9999710562170233,-152.58244324914068
6.184,0.9999706403857926,-152.96550078243314
6.192,0.9999702724459929,-153.34832895674336
6.2,0.9999699510984156,-153.7309302077884
6.208,0.9999696750630457,-154.11330697871406
6.216,0.9999694430789137,-154.49546171996587
6.224,0.9999692539039389,-154.87739688916128
6.232,0.9999691063147823,-155.2591149509636
6.24,0.9999689991066883,-155.6406183769576
6.248,0.9999689310933355,-156.02190964552548
6.256,0.9999689011066836,-156.40299124172554
6.264,0.9999689079968195,-156.78386565717116
6.272,0.9999689506318066,-157.16453538991158
6.28,0.9999690278975265,-157.5450029443141
6.288,0.999969138697529,-157.92527083094743
6.296,0.9999692819528858,-158.30534156646627
6.304,0.9999694566020237,-158.6852176734976
6.312,0.9999696616005807,-159.0649016805278
6.32,0.9999698959212557,-159.44439612179124
6.328,0.9999701585536479,-159.82370353716027
6.336,0.9999704485041084,-160.20282647203635
6.344,0.9999707647955902,-160.58176747724227
6.352,0.9999711064674923,-160.9605291089159
6.36,0.9999714725755081,-161.33911392840503
6.368,0.9999718621914794,-161.71752450216326
6.376,0.999972274403234,-162.09576340164742
6.384,0.9999727083144468,-162.47383320321592
6.392,0.9999731630444837,-162.851736488028
6.4,0.9999736377282483,-163.2294758419451
6.408,0.9999741315160386,-163.60705385543218
6.416,0.9999746435733898,-163.98447312346104
6.424,0.9999751730809344,-164.3617362454142
6.432,0.999975719234243,-164.73884582499034
6.44,0.9999762812436849,-165.11580447011036
6.448,0.9999768583342774,-165.49261479282504
6.456,0.9999774497455339,-165.86927940922325
6.464,0.9999780547313241,-166.24580093934156
6.472,0.9999786725597233,-166.6221820070746
6.48,0.9999793025128679,-166.9984252400867
6.4879999999999995,0.9999799438868088,-167.37453326972454
6.496,0.999980595991368,-167.75050873093048
6.504,0.9999812581499964,-168.12635426215704
6.5120000000000005,0.9999819296996243,-168.5020725052826
6.52,0.9999826099905239,-168.87766610552748
6.5280000000000005,0.9999832983861646,-169.25313771137172
6.536,0.9999839942630718,-169.6284899744727
6.5440000000000005,0.9999846970106827,-170.00372554958517
6.552,0.9999854060312117,-170.37884709448028
6.5600000000000005,0.9999861207395049,-170.75385726986752
6.568,0.9999868405629045,-171.12875873931566
6.5760000000000005,0.9999875649411082,-171.50355416917608
6.584,0.9999882933260305,-171.87824622850567
6.592,0.9999890251816697,-172.25283758899158
6.6,0.999989759983965,-172.62733092487596
6.608,0.9999904972206671,-173.00172891288204
6.616,0.9999912363911974,-173.37603423214077
6.624,0.9999919770065184,-173.75024956411806
6.632,0.999992718588997,-174.12437759254323
6.64,0.9999934606722719,-174.49842100333763
6.648,0.9999942028011232,-174.87238248454435
6.656,0.9999949445313375,-175.24626472625857
6.664,0.9999956854295817,-175.62007042055848
6.672,0.9999964250732681,-175.99380226143697
6.68,0.9999971630504296,-176.36746294473397
6.688,0.9999978989595889,-176.74105516806932
6.696,0.9999986324096305,-177.11458163077643
6.704,0.9999993630196741,-177.48804503383664
6.712,0.9999999999999999,-177.8614480798136
6.72,0.9999999999999999,-178.23479347278905
6.728,1.0,-178.6080839182987
6.736,1.0,-178.98132212326848
6.744,1.0,-179.35451079595188
6.752,0.9999999999999999,-179.72765264586744
6.76,1.0,179.8992496162633
6.768,0.9999999999999999,179.52619327857704
6.776,0.9999999999999999,179.15317562812982
6.784,1.0,178.7801939509574
6.792,1.0,178.40724553213533
6.8,0.9999999999999999,178.03432765583858
6.808,1.0,177.66143760540058
6.816,1.0,177.28857266337207
6.824,0.9999999999999999,176.91573011157962
6.832,1.0,176.54290723118325
6.84,1.0,176.17010130273445
6.848,1.0,175.79730960623326
6.856,1.0,175.42452942118524
6.864,1.0,175.051758026658
6.872,1.0,174.67899270133788
6.88,1.0,174.30623072358546
6.888,1.0,173.93346937149175
6.896,0.9999999999999998,173.56070592293358
6.904,1.0,173.1879376556286
6.912,0.9999999999999999,172.81516184719067
6.92,1.0,172.44237577518442
6.928,0.9999999999999999,172.06957671717993
6.936,0.9999999999999999,171.69676195080706
6.944,1.0,171.3239287538098
6.952,1.0,170.95107440410032
6.96,1.0,170.57819617981278
6.968,0.9999999999999999,170.20529135935726
6.976,1.0,169.8323572214734
6.984,1.0,169.45939104528387
6.992,1.0,169.08639011034813
7.0,1.0,168.7133516967156
7.008,0.9999999999999998,168.3402730849791
7.016,1.0,167.96715155632805
7.024,1.0,167.59398439260207
7.032,0.9999999999999998,167.2207688763439
7.04,1.0,166.84750229085282
7.048,1.0,166.47418192023792
7.056,0.9999999999999999,166.1008050494714
7.064,0.9999999999999999,165.7273689644419
7.072,1.0,165.35387095200778
7.08,1.0,164.98030830005087
7.088,1.0,164.60667829752973
7.096,1.0,164.23297823453348
7.104,1.0,163.8592054023354
7.112,1.0,163.48535709344694
7.12,1.0,163.11143060167169
7.128,1.0,162.7374232221595
7.136,0.9999999999999998,162.36333225146095
7.144,0.9999999999999999,161.98915498758174
7.152,1.0,161.6148887300374
7.16,1.0,161.2405307799083
7.168,1.0,160.86607843989478
7.176,0.9999999999999998,160.49152901437242
7.184,1.0,160.11687980944777
7.192,0.9999999999999999,159.74212813301426
7.2,1.0000000000000002,159.3672712948082
7.208,1.0,158.99230660646558
7.216,0.9999999999999999,158.61723138157836
7.224,0.9999999999999999,158.242042935752
7.232,1.0,157.86673858666262
7.24,1.0,157.49131565411486
7.248,1.0,157.11577146009984
7.256,1.0,156.74010332885396
7.264,0.9999999999999999,156.36430858691747
7.272,0.9999999999999999,155.98838456319396
7.28,0.9999999999999999,155.61232858900985
7.288,1.0,155.23613799817474
7.296,1.0,154.85981012704173
7.304,1.0,154.4833423145687
7.312,1.0,154.10673190237947
7.32,1.0,153.72997623482604
7.328,1.0,153.3530726590508
7.336,1.0,152.9760185250498
7.344,1.0,152.59881118573574
7.352,1.0,152.2214479970025
7.36,0.9999999999999999,151.84392631778934
7.368,0.9999999999999999,151.46624351014617
7.376,0.9999999999999999,151.08839693929903
7.384,0.9999999999999999,150.71038397371666
7.392,1.0,150.33220198517716
7.4,0.9999999999999999,149.95384834883546
7.4079999999999995,1.0,149.5753204432915
7.416,1.0,149.19661565065869
7.4239999999999995,0.9999999999999999,148.81773135663386
7.432,0.9999999999999998,148.43866495056656
7.4399999999999995,1.0,148.0594138255305
7.448,1.0,147.67997537839412
7.4559999999999995,1.0,147.30034700989364
7.464,1.0,146.92052612470485
7.4719999999999995,1.0,146.54051013151758
7.48,1.0,146.16029644310913
7.4879999999999995,0.9999999999999999,145.77988247641997
7.496,0.9999999999999999,145.39926565262883
7.504,1.0,145.0184433972299
7.5120000000000005,0.9999999999999999,144.6374131401095
7.52,0.9999999999999998,144.25617231562484
7.5280000000000005,1.0,143.87471836268222
7.536,0.9999999999999999,143.49304872481744
7.5440000000000005,1.0000000000000002,143.11116085027584
7.552,1.0,142.72905219209403
7.5600000000000005,1.0,142.34672020818186
7.568,1.0,141.96416236140593
7.5760000000000005,0.9999999999999999,141.58137611967302
7.584,1.0,141.19835895601565
7.5920000000000005,1.0,140.8151083486771
7.6,0.9999999999999999,140.4316217811988
7.6080000000000005,1.0,140.04789674250736
7.616,1.0,139.66393072700356
7.6240000000000006,1.0,139.27972123465133
7.632,1.0,138.89526577106875
7.640000000000001,1.0,138.51056184761876
7.648,1.0,138.1256069815023
7.656000000000001,1.0,137.7403986958507
7.664,1.0,137.35493451982111
7.672,0.9999999999999999,136.96921198869066
7.68,0.9999999999999998,136.58322864395373
7.688,1.0,136.19698203341883
7.696,1.0,135.81046971130715
7.704,1.0,135.42368923835195
7.712,0.9999999999999999,135.036638181899
7.72,1.0000000000000002,134.64931411600824
7.728,0.9999999999999999,134.26171462155625
7.736,1.0,133.87383728634
7.744,0.9999999999999999,133.48567970518167
7.752,0.9999999999999999,133.09723948003435
7.76,1.0,132.70851422008917
7.768,0.9999999999999999,132.31950154188328
7.776,1.0,131.93019906940916
7.784,1.0,131.54060443422475
7.792,1.0,131.15071527556506
7.8,0.9999999999999998,130.76052924045467
7.808,0.9999999999999999,130.37004398382157
7.816,1.0,129.97925716861187
7.824,1.0,129.58816646590614
7.832,0.9999999999999998,129.19676955503638
7.84,1.0,128.80506412370457
7.848,1.0,128.41304786810227
7.856,1.0,128.02071849303115
7.864,1.0,127.62807371202537
7.872,1.0,127.23511124747438
7.88,1.0,126.8418288307475
7.888,1.0,126.44822420231938
7.896,0.9999999999999999,126.05429511189699
7.904,1.0,125.66003931854728
7.912,1.0,125.26545459082682
7.92,1.0,124.87053870691206
7.928,1.0000000000000002,124.47528945473097
7.936,0.9999999999999999,124.07970463209612
7.944,0.9999999999999999,123.68378204683881
7.952,0.9999999999999999,123.28751951694443
7.96,1.0,122.8909148706892
7.968,0.9999999999999999,122.49396594677799
7.976,1.0,122.09667059448356
7.984,0.9999999999999999,121.69902667378688
7.992,1.0,121.30103205551892
8.0,1.0,120.90268462150335
8.008,0.9999999999999999,120.50398226470104
8.016,1.0000000000000002,120.10492288935495
8.024000000000001,1.0,119.7055044111375
8.032,1.0,119.30572475729808
8.04,1.0,118.9055818668121
8.048,0.9999999999999999,118.50507369053169
8.056000000000001,1.0,118.1041981913375
8.064,1.0,117.70295334429154
8.072,1.0,117.30133713679105
8.08,0.9999999999999999,116.8993475687244
8.088000000000001,0.9999999999999999,116.49698265262761
8.096,0.9999999999999999,116.09424041384246
8.104,1.0,115.69111889067516
8.112,0.9999999999999999,115.2876161345572
8.120000000000001,1.0,114.88373021020702
8.128,0.9999999999999999,114.47945919579273
8.136,0.9999998784042299,114.07480118309604
8.144,0.9999995416612577,113.66975427767767
8.152000000000001,0.9999992087463999,113.26431659904414
8.16,0.9999988797631304,112.85848628081521
8.168,0.9999985548132415,112.45226147089272
8.176,0.999998233996822,112.04564033163074
8.184000000000001,0.9999979174122393,111.6386210400071
8.192,0.9999976051561175,111.23120178779568
8.2,0.9999972973233214,110.8233807817398
8.208,0.9999969940069362,110.41515624372722
8.216000000000001,0.9999966952982501,110.00652641096622
8.224,0.9999964012867364,109.59748953616243
8.232,0.9999961120600362,109.18804388769692
8.24,0.9999958277039414,108.7781877498056
8.248000000000001,0.9999955483023787,108.3679194227598
8.256,0.9999952739373935,107.95723722304761
8.264,0.9999950046891326,107.54613948355629
8.272,0.9999947406358322,107.13462455375593
8.280000000000001,0.9999944818537995,106.72269079988449
8.288,0.9999942284174007,106.31033660513323
8.296,0.9999939803990462,105.89756036983324
8.304,0.9999937378691763,105.48436051164343
8.312,0.9999935008962493,105.07073546573947
8.32,0.9999932695467284,104.65668368500292
8.328,0.9999930438850673,104.24220364021247
8.336,0.9999928239737016,103.82729382023501
8.344,0.9999926098730354,103.41195273221867
8.352,0.9999924016414294,102.99617890178561
8.36,0.9999921993351932,102.57997087322704
8.368,0.9999920030085713,102.16332720969758
8.376,0.9999918127137359,101.74624649341206
8.384,0.9999916285007772,101.32872732584147
8.392,0.9999914504176937,100.91076832791144
8.4,0.9999912785103839,100.49236814019979
8.408,0.9999911128226384,100.07352542313642
8.416,0.9999909533961331,99.65423885720243
8.424,0.9999908002704203,99.23450714313137
8.432,0.9999906534829235,98.8143290021098
8.44,0.9999905130689302,98.39370317597982
8.448,0.9999903790615872,97.97262842744087
8.456,0.9999902514918937,97.55110354025362
8.464,0.9999901303886974,97.1291273194428
8.472,0.9999900157786903,96.70669859150216
8.48,0.9999899076864038,96.28381620459851
8.488,0.9999898061342052,95.86047902877758
8.496,0.9999897111422965,95.43668595616892
8.504,0.9999896227287088,95.01243590119277
8.512,0.9999895409093028,94.58772780076568
8.52,0.9999894656977656,94.16256061450808
8.528,0.9999893971056102,93.73693332495064
8.536,0.9999893351421741,93.31084493774246
8.544,0.9999892798146213,92.88429448185789
8.552,0.9999892311279381,92.45728100980521
8.56,0.9999891890849388,92.0298035978339
8.568,0.9999891536862641,91.60186134614356
8.576,0.9999891249303834,91.17345337909146
8.584,0.9999891028135964,90.74457884540162
8.592,0.9999890873300377,90.31523691837249
8.6,0.9999890784716766,89.88542679608601
8.608,0.9999890762283251,89.45514770161513
8.616,0.999989080587639,89.02439888323289
8.624,0.9999890915351227,88.59317961461966
8.632,0.999989109054136,88.16148919507177
8.64,0.999989133125898,87.72932694970844
8.648,0.9999891637294951,87.29669222968
8.656,0.9999892008418861,86.86358441237414
8.664,0.9999892444379096,86.4300029016234
8.672,0.9999892944902931,85.99594712791078
8.68,0.9999893509696592,85.56141654857635
8.688,0.999989413844536,85.1264106480218
8.696,0.9999894830813654,84.69092893791618
8.704,0.9999895586445127,84.25497095739918
8.712,0.9999896404962779,83.8185362732856
8.72,0.9999897285969057,83.38162448026739
8.728,0.9999898229045966,82.94423520111667
8.736,0.999989923375519,82.50636808688611
8.744,0.999990029963822,82.06802281711039
8.752,0.9999901426216471,81.62919910000484
8.76,0.9999902612991434,81.18989667266496
8.768,0.9999903859444795,80.75011530126315
8.776,0.9999905165038587,80.30985478124612
8.784,0.9999906529215349,79.86911493752947
8.792,0.9999907951398261,79.42789562469272
8.8,0.9999909430991323,78.98619672717155
8.808,0.999991096737951,78.54401815945027
8.815999999999999,0.9999912559928933,78.10135986625151
8.824,0.9999914207987046,77.65822182272548
8.832,0.9999915910882791,77.21460403463759
8.84,0.9999917667926799,76.77050653855423
8.847999999999999,0.9999919478411585,76.325929402027
8.856,0.9999921341611742,75.88087272377557
8.864,0.9999923256784133,75.43533663386886
8.872,0.9999925223168113,74.98932129390408
8.879999999999999,0.9999927239985725,74.54282689718404
8.888,0.9999929306441935,74.0958536688927
8.896,0.9999931421724824,73.64840186626903
8.904,0.9999933585005862,73.20047177877827
8.911999999999999,0.999993579544009,72.7520637282812
8.92,0.9999938052166387,72.30317806920165
8.928,0.9999940354307708,71.85381518869166
8.936,0.9999942700971327,71.40397550679425
8.943999999999999,0.9999945091249088,70.95365947660353
8.952,0.9999947524217667,70.50286758442297
8.96,0.9999949998938832,70.05160034992116
8.968,0.999995251445971,69.59985832628469
8.975999999999999,0.9999955069813057,69.14764210036824
8.984,0.9999957664017538,68.6949522928426
8.992,0.999996029607801,68.24178955833983
9.0,0.99999629649858,67.78815458559521
9.008,0.9999965669719003,67.33404809758643
9.016,0.999996840924278,66.87947085166998
9.024000000000001,0.9999971182509652,66.4244236397149
9.032,0.9999973988459804,65.96890728823266
9.04,0.9999976826021398,65.51292265850415
9.048,0.9999979694110892,65.0564706467038
9.056000000000001,0.9999982591633347,64.59955218402035
9.064,0.9999985517482761,64.14216823677397
9.072,0.9999988470542378,63.684319806529764
9.08,0.9999991449685047,63.22600793020848
9.088000000000001,0.9999994453773527,62.76723368019346
9.096,0.9999997481660852,62.30799816443361
9.104,0.9999999999999999,61.848302526542646
9.112,1.0000000000000002,61.38814794589506
9.120000000000001,1.0,60.927535637718286
9.128,0.9999999999999999,60.46646685318041
9.136,1.0,60.004942879474086
9.144,1.0,59.54296503989678
9.152000000000001,1.0,59.08053469392683
9.16,0.9999999999999999,58.61765323729521
9.168,1.0,58.15432210205264
9.176,1.0,57.69054275663333
9.184000000000001,1.0,57.226316705913945
9.192,0.9999999999999999,56.761645491267984
9.2,1.0,56.296530690615604
9.208,1.0,55.830973918469304
9.216000000000001,1.0,55.364976825975084
9.224,0.9999999999999999,54.89854110094845
9.232,1.0,54.43166846790568
9.24,1.0,53.96436068809081
9.248000000000001,0.9999999999999999,53.49661955949768
9.256,0.9999999999999999,53.02844691688676
9.264,0.9999999999999999,52.55984463179688
9.272,1.0,52.09081461255251
9.280000000000001,0.9999999999999999,51.621358804265846
9.288,1.0,51.15147918883341
9.296,1.0,50.68117778492746
9.304,0.9999999999999999,50.21045664798253
9.312000000000001,1.0,49.73931787017676
9.32,0.9999999999999999,49.267763580407404
9.328,1.0,48.79579594426095
9.336,1.0,48.323417163978284
9.344,1.0,47.85062947841431
9.352,1.0,47.3774351629912
9.36,1.0,46.90383652964748
9.368,1.0,46.42983592677982
9.376,1.0,45.95543573918096
9.384,1.0,45.480638387970004
9.392,1.0,45.00544633051894
9.4,1.0,44.529862060371386
9.408,1.0,44.05388810715744
9.416,1.0,43.57752703650087
9.424,1.0,43.100781449922
9.432,0.9999999999999999,42.62365398473318
9.44,0.9999999999999999,42.14614731392977
9.448,1.0,41.66826414607355
9.456,0.9999999999999999,41.19000722517183
9.464,1.0,40.71137933054874
9.472,1.0,40.232383276712056
9.48,0.9999999999999999,39.75302191321251
9.488,1.0000000000000002,39.273298124498325
9.496,1.0,38.79321482976225
9.504,1.0,38.31277498278368
9.512,0.9999999999999999,37.831981571763585
9.52,0.9999999999999999,37.35083761915416
9.528,1.0,36.86934618148119
9.536,1.0,36.38751034916151
9.544,0.9999999999999999,35.90533324631288
9.552,1.0,35.42281803055888
9.56,0.9999999999999999,34.93996789282636
9.568,1.0,34.456786057138025
9.576,1.0,33.97327578039715
9.584,1.0,33.489440352167804
9.592,0.9999999999999999,33.00528309444711
9.6,1.0,32.520807361433036
9.608,1.0,32.03601653928404
9.616,1.0,31.55091404587458
9.624,1.0,31.065503330542338
9.632,1.0,30.579787873831183
9.64,1.0,30.09377118722619
9.648,0.9999999999999999,29.60745681288425
9.656,1.0,29.12084832335676
9.664,0.9999999999999999,28.63394932130794
9.672,0.9999999999999999,28.146763439225452
9.68,1.0,27.65929433912646
9.688,1.0,27.171545712256172
9.696,1.0,26.683521278781978
9.704,1.0,26.1952247874798
9.712,1.0,25.70666001541652
9.72,0.9999999999999999,25.217830767624502
9.728,1.0,24.728740876772125
9.736,0.9999999999999999,24.23939420282677
9.744,1.0,23.749794632713726
9.752,1.0,23.259946079967705
9.76,1.0,22.769852484380337
9.768,0.9999999999999999,22.279517811640407
9.776,1.0,21.788946052970157
9.784,1.0,21.298141224754463
9.792,0.9999999999999998,20.80710736816614
9.8,1.0,20.315848548784285
9.808,1.0,19.824368856208928
9.816,1.0,19.332672403668617
9.824,1.0,18.84076332762473
9.832,1.0,18.34864578736876
9.84,0.9999999999999999,17.85632396461627
9.847999999999999,1.0,17.363802063094386
9.856,0.9999999999999999,16.871084308125283
9.864,0.9999999999999999,16.378174946204812
9.872,0.9999999999999999,15.88507824457597
9.879999999999999,1.0,15.391798490797576
9.888,0.9999999999999999,14.898339992308939
9.896,0.9999999999999998,14.40470707598987
9.904,1.0,13.91090408771594
9.911999999999999,0.9999999999999999,13.416935391909353
9.92,1.0,12.922805371086037
9.928,1.0,12.428518425398558
9.936,1.0,11.934078972174543
9.943999999999999,1.0,11.439491445451187
9.952,1.0,10.94476029550627
9.96,0.9999999999999999,10.449889988385452
9.968,0.9999999999999999,9.954885005425417
9.975999999999999,0.9999999999999998,9.45974984277355
9.984,0.9999999999999999,8.964489010904453
9.992,0.9999999999999999,8.469107034133277
10.0,0.9999999999999999,7.9736084501251945
10.008,1.0,7.477997809401899
10.016,0.9999999999999999,6.982279674845389
10.024000000000001,0.9999999999999998,6.4864586211989055
10.032,0.9999999999999999,5.990539234564605
10.04,1.0,5.494526111898554
10.048,0.9999999999999999,4.998423860503562
10.056000000000001,0.9999999999999999,4.502237097519586
