freq,mag,phase
6.0,0.9999963930196634,-152.08761710148522
6.008,0.9999948001838148,-152.4541998274777
6.016,0.9999932617629396,-152.8205138186275
6.024,0.9999917766794362,-153.1865622950957
6.032,0.9999903438696688,-153.55234848256325
6.04,0.999988962283858,-153.91787561211692
6.048,0.9999876308859706,-154.283146920138
6.056,0.9999863486536125,-154.6481656481927
6.064,0.9999851145779166,-155.01293504292454
6.072,0.9999839276634367,-155.37745835594876
6.08,0.9999827869280349,-155.74173884374864
6.088,0.9999816914027757,-156.10577976757392
6.096,0.999980640131814,-156.46958439334065
6.104,0.9999796321722877,-156.83315599153343
6.112,0.999978666594206,-157.1964978371094
6.12,0.9999777424803449,-157.5596132094036
6.128,0.9999768589261325,-157.9225053920368
6.136,0.9999760150395471,-158.28517767282452
6.144,0.9999752099410014,-158.64763334368843
6.152,0.9999744427632401,-159.00987570056876
6.16,0.9999737126512273,-159.371908043339
6.168,0.9999730187620403,-159.73373367572208
6.176,0.9999723602647639,-160.09535590520815
6.184,0.9999717363403807,-160.456778042974
6.192,0.9999711461816593,-160.81800340380457
6.2,0.9999705889930596,-161.17903530601495
6.208,0.9999700639906113,-161.53987707137543
6.216,0.9999695704018194,-161.90053202503677
6.224,0.9999691074655525,-162.2610034954578
6.232,0.999968674431937,-162.62129481433433
6.24,0.9999682705622553,-162.98140931652924
6.248,0.999967895128834,-163.34135034000462
6.256,0.9999675474149495,-163.7011212257547
6.264,0.9999672267147143,-164.06072531774075
6.272,0.9999669323329741,-164.42016596282707
6.28,0.9999666635852167,-164.77944651071812
6.288,0.9999664197974495,-165.13857031389782
6.296,0.999966200306112,-165.4975407275691
6.304,0.9999660044579671,-165.85636110959558
6.312,0.9999658316100024,-166.21503482044415
6.32,0.9999656811293254,-166.57356522312895
6.328,0.999965552393068,-166.93195568315627
6.336,0.9999654447882818,-167.29020956847128
6.344,0.9999653577118391,-167.64833024940526
6.352,0.9999652905703343,-168.00632109862454
6.36,0.9999652427799872,-168.36418549108015
6.368,0.999965213766541,-168.72192680395892
6.376,0.9999652029651681,-169.0795484166355
6.384,0.9999652098203694,-169.4370537106256
6.392,0.9999652337858801,-169.79444606954007
6.4,0.999965274324574,-170.1517288790402
6.408,0.9999653309083666,-170.50890552679397
6.416,0.9999654030181194,-170.86597940243337
6.424,0.9999654901435466,-171.22295389751233
6.432,0.9999655917831212,-171.57983240546625
6.44,0.9999657074439822,-171.9366183215718
6.448,0.9999658366418397,-172.29331504290795
6.456,0.9999659789008845,-172.6499259683179
6.464,0.9999661337536968,-173.0064544983717
6.472,0.999966300741153,-173.36290403533
6.48,0.9999664794123363,-173.71927798310807
6.4879999999999995,0.9999666693244501,-174.07557974724122
6.496,0.999966870042721,-174.43181273485087
6.504,0.9999670811403178,-174.78798035461068
6.5120000000000005,0.9999673021982585,-175.14408601671474
6.52,0.9999675328053266,-175.50013313284478
6.5280000000000005,0.9999677725579796,-175.85612511614008
6.536,0.9999680210602655,-176.21206538116576
6.5440000000000005,0.9999682779237391,-176.56795734388402
6.552,0.999968542767371,-176.92380442162386
6.5600000000000005,0.9999688152174693,-177.2796100330533
6.568,0.9999690949075889,-177.6353775981507
6.5760000000000005,0.9999693814784569,-177.99111053817774
6.584,0.9999696745778818,-178.34681227565184
6.592,0.9999699738606741,-178.70248623432042
6.6,0.9999702789885676,-179.05813583913434
6.608,0.9999705896301345,-179.41376451622276
6.616,0.999970905460707,-179.76937569286804
6.624,0.9999712261622965,179.8750272025188
6.632,0.9999715514235171,179.51944074042245
6.64,0.9999718809395031,179.16386149024683
6.648,0.9999722144118333,178.80828602033867
6.656,0.9999725515484553,178.45271089801045
6.664,0.9999728920636064,178.0971326895633
6.672,0.9999732356777362,177.74154796030913
6.68,0.9999735821174358,177.38595327459305
6.688,0.9999739311153587,177.03034519581504
6.696,0.999974282410147,176.67472028645167
6.704,0.9999746357463606,176.31907510807727
6.712,0.999974990874401,175.96340622138547
6.72,0.9999753475504395,175.60771018620983
6.728,0.9999757055363457,175.25198356154485
6.736,0.9999760645996173,174.89622290556653
6.744,0.9999764245133062,174.5404247756532
6.752,0.9999767850559506,174.18458572840555
6.76,0.9999771460115047,173.82870231966734
6.768,0.9999775071692716,173.4727711045455
6.776,0.9999778683238308,173.11678863743055
6.784,0.9999782292749745,172.76075147201675
6.792,0.9999785898276369,172.40465616132238
6.8,0.9999789497918301,172.0484992577099
6.808,0.9999793089825765,171.6922773129065
6.816,0.9999796672198429,171.33598687802422
6.824,0.9999800243284772,170.9796245035805
6.832,0.9999803801381417,170.62318673951881
6.84,0.9999807344832511,170.2666701352292
6.848,0.9999810872029077,169.9100712395692
6.856,0.9999814381408391,169.5533866008848
6.864,0.9999817871453363,169.19661276703167
6.872,0.999982134069191,168.83974628539647
6.88,0.9999824787696359,168.48278370291857
6.888,0.9999828211082823,168.1257215661118
6.896,0.999983160951061,167.76855642108669
6.904,0.9999834981681627,167.41128481357285
6.912,0.9999838326339779,167.0539032889418
6.92,0.9999841642270404,166.6964083922299
6.928,0.9999844928299669,166.33879666816193
6.936,0.9999848183294011,165.98106466117483
6.944,0.999985140615956,165.62320891544195
6.952,0.999985459584158,165.26522597489765
6.96,0.9999857751323888,164.90711238326233
6.968,0.9999860871628344,164.5488646840682
6.976,0.9999863955814248,164.19047942068494
6.984,0.9999867002977831,163.83195313634653
6.992,0.99998700122517,163.47328237417807
7.0,0.9999872982804311,163.11446367722363
7.008,0.9999875913839428,162.75549358847414
7.016,0.9999878804595608,162.3963686508964
7.024,0.9999881654345676,162.03708540746234
7.032,0.9999884462396199,161.67764040117902
7.04,0.9999887228086999,161.3180301751193
7.048,0.9999889950790622,160.95825127245337
7.056,0.9999892629911845,160.59830023648044
7.064,0.9999895264887182,160.23817361066182
7.072,0.9999897855184389,159.87786793865442
7.08,0.9999900400301962,159.51737976434484
7.088,0.9999902899768681,159.15670563188468
7.096,0.9999905353143099,158.7958420857262
7.104,0.9999907760013091,158.4347856706594
7.112,0.9999910119995369,158.07353293184917
7.12,0.9999912432735023,157.71208041487412
7.128,0.9999914697905052,157.3504246657657
7.136,0.9999916915205909,156.98856223104872
7.144,0.999991908436505,156.6264896577824
7.152,0.9999921205136477,156.26420349360276
7.16,0.9999923277300292,155.90170028676565
7.168,0.9999925300662275,155.53897658619115
7.176,0.999992727505341,155.17602894150872
7.184,0.9999929200329485,154.81285390310367
7.192,0.9999931076370643,154.44944802216443
7.2,0.9999932903080967,154.08580785073124
7.208,0.999993468038805,153.7219299417457
7.216,0.9999936408242572,153.35781084910172
7.224,0.999993808661791,152.99344712769732
7.232,0.9999939715509691,152.62883533348818
7.24,0.9999941294935417,152.26397202354173
7.248,0.9999942824934049,151.89885375609316
7.256,0.9999944305565599,151.53347709060216
7.264,0.9999945736910748,151.16783858781136
7.272,0.9999947119070458,150.8019348098059
7.28,0.9999948452165545,150.43576232007425
7.288,0.999994973633635,150.06931768357083
7.296,0.9999950971742319,149.70259746677934
7.304,0.9999952158561627,149.33559823777833
7.312,0.9999953296990822,148.9683165663075
7.32,0.9999954387244423,148.60074902383585
7.328,0.9999955429554597,148.23289218363132
7.336,0.9999956424170736,147.8647426208318
7.344,0.9999957371359148,147.49629691251775
7.352,0.9999958271402662,147.1275516377865
7.36,0.9999959124600292,146.75850337782788
7.368,0.9999959931266879,146.38914871600184
7.376,0.9999960691732733,146.01948423791737
7.384,0.9999961406343298,145.64950653151325
7.392,0.9999962075458817,145.2792121871406
7.4,0.9999962699453961,144.9085977976468
7.4079999999999995,0.9999963278717521,144.53765995846172
7.416,0.9999963813652061,144.1663952676849
7.4239999999999995,0.9999964304673592,143.79480032617562
7.432,0.9999964752211228,143.42287173764362
7.4399999999999995,0.9999965156706887,143.05060610874273
7.448,0.9999965518614944,142.6780000491653
7.4559999999999995,0.9999965838401923,142.3050501717398
7.464,0.9999966116546174,141.9317530925289
7.4719999999999995,0.9999966353537566,141.55810543093105
7.48,0.9999966549877161,141.1841038097823
7.4879999999999995,0.9999966706076913,140.80974485546196
7.496,0.999996682265937,140.43502519799867
7.504,0.9999966900157353,140.05994147117983
7.5120000000000005,0.9999966939113661,139.68449031266178
7.52,0.9999966940080779,139.30866836408356
7.5280000000000005,0.9999966903620567,138.93247227118138
7.536,0.9999966830303982,138.55589868390655
7.5440000000000005,0.9999966720710768,138.17894425654416
7.552,0.9999966575429187,137.80160564783563
7.5600000000000005,0.9999966395055712,137.42387952110172
7.568,0.9999966180194753,137.04576254436944
7.5760000000000005,0.9999965931458377,136.66725139049984
7.584,0.9999965649466026,136.2883427373193
7.5920000000000005,0.9999965334844232,135.90903326775205
7.6,0.9999964988226346,135.5293196699561
7.6080000000000005,0.9999964610252278,135.14919863746047
7.616,0.9999964201568191,134.7686668693061
7.6240000000000006,0.9999963762826276,134.3877210701876
7.632,0.9999963294684454,134.00635795059918
7.640000000000001,0.9999962797806123,133.62457422698157
7.648,0.9999962272859895,133.24236662187252
7.656000000000001,0.9999961720519333,132.85973186405894
7.664,0.9999961141462693,132.47666668873262
7.672,0.9999960536372671,132.09316783764731
7.68,0.9999959905936143,131.70923205927957
7.688,0.9999959250843923,131.3248561089913
7.696,0.9999958571790497,130.9400367491956
7.704,0.9999957869473789,130.5547707495248
7.712,0.9999957144594913,130.16905488700172
7.72,0.999995639785791,129.78288594621296
7.728,0.9999955629969536,129.39626071948553
7.736,0.9999954841638998,129.00917600706592
7.744,0.9999954033577719,128.62162861730204
7.752,0.9999953206499114,128.2336153668281
7.76,0.9999952361118335,127.84513308075205
7.768,0.9999951498152057,127.45617859284599
7.776,0.9999950618318232,127.06674874573952
7.784,0.9999949722335867,126.67684039111595
7.792,0.9999948810924792,126.28645038991131
7.8,0.9999947884805437,125.89557561251648
7.808,0.9999946944698607,125.50421293898205
7.816,0.9999945991325256,125.11235925922637
7.824,0.9999945025406269,124.72001147324637
7.832,0.9999944047662246,124.32716649133162
7.84,0.9999943058813278,123.93382123428121
7.848,0.9999942059578734,123.5399726336238
7.856,0.9999941050677043,123.14561763184076
7.864,0.9999940032825488,122.75075318259213
7.872,0.9999939006739997,122.35537625094605
7.88,0.9999937973134924,121.95948381361102
7.888,0.9999936932722843,121.56307285917141
7.896,0.9999935886214357,121.16614038832608
7.904,0.9999934834317867,120.76868341413018
7.912,0.99999337777394,120.37069896224003
7.92,0.9999932717182383,119.97218407116128
7.928,0.9999931653347451,119.57313579250024
7.936,0.9999930586932262,119.1735511912184
7.944,0.9999929518631281,118.77342734589016
7.952,0.9999928449135599,118.37276134896383
7.96,0.9999927379132735,117.97155030702582
7.968,0.9999926309306443,117.56979134106808
7.976,0.9999925240336529,117.16748158675881
7.984,0.9999924172898654,116.76461819471653
7.992,0.9999923107664155,116.36119833078718
8.0,0.9999922045299856,115.95721917632474
8.008,0.9999920986467883,115.55267792847509
8.016,0.999991993182549,115.14757180046277
8.024000000000001,0.9999918882024869,114.7418980218819
8.032,0.9999917837712978,114.33565383898954
8.04,0.9999916799531365,113.92883651500256
8.048,0.999991576811599,113.52144333039791
8.056000000000001,0.9999914744097043,113.11347158321666
8.064,0.9999913728098795,112.70491858937038
8.072,0.9999912720739398,112.29578168295127
8.08,0.9999911722630747,111.88605821654576
8.088000000000001,0.9999910734378288,111.4757455615514
8.096,0.9999909756580863,111.06484110849668
8.104,0.9999908789830549,110.65334226736414
8.112,0.9999907834712489,110.24124646791712
8.120000000000001,0.9999906891804742,109.82855116002973
8.128,0.9999905961678113,109.41525381401974
8.136,0.9999905044895999,109.00135192098467
8.144,0.9999904142014245,108.58684299314153
8.152000000000001,0.9999903253580974,108.17172456416972
8.16,0.9999902380136448,107.75599418955679
8.168,0.9999901522212912,107.33964944694739
8.176,0.9999900680334447,106.92268793649572
8.184000000000001,0.9999899855016827,106.50510728122111
8.192,0.9999899046767373,106.0869051273665
8.2,0.9999898256084809,105.66807914475982
8.208,0.9999897483459121,105.24862702717896
8.216000000000001,0.9999896729371421,104.82854649271975
8.224,0.9999895994293816,104.40783528416668
8.232,0.9999895278689251,103.98649116936643
8.24,0.9999894583011414,103.564511941605
8.248000000000001,0.999989390770456,103.14189541998762
8.256,0.9999893253203426,102.7186394498212
8.264,0.9999892619933063,102.29474190299979
8.272,0.9999892008308751,101.87020067839315
8.280000000000001,0.9999891418735846,101.44501370223807
8.288,0.9999890851609669,101.0191789285323
8.296,0.9999890307315399,100.59269433943103
8.304,0.9999889786227939,100.16555794564641
8.312,0.9999889288711811,99.73776778685
8.32,0.9999888815121046,99.30932193207667
8.328,0.9999888365799063,98.88021848013257
8.336,0.9999887941078583,98.45045556000409
8.344,0.9999887541281504,98.02003133127076
8.352,0.99998871667188,97.58894398451898
8.36,0.9999886817690434,97.15719174175973
8.368,0.9999886494485251,96.72477285684694
8.376,0.999988619738088,96.29168561589968
8.384,0.9999885926643645,95.85792833772486
8.392,0.9999885682528477,95.42349937424375
8.4,0.9999885465278817,94.98839711091885
8.408,0.9999885275126542,94.5526199671843
8.416,0.9999885112291872,94.11616639687674
8.424,0.9999884976983296,93.67903488866938
8.432,0.9999884869397496,93.2412239665064
8.44,0.9999884789719256,92.80273219004056
8.448,0.9999884738121415,92.36355815507078
8.456,0.9999884714764786,91.92370049398289
8.464,0.9999884719798071,91.48315787619029
8.472,0.9999884753357836,91.04192900857728
8.48,0.9999884815568412,90.60001263594243
8.488,0.9999884906541863,90.15740754144448
8.496,0.9999885026377914,89.7141125470478
8.504,0.9999885175163921,89.27012651397038
8.512,0.999988535297479,88.82544834313128
8.52,0.9999885559872956,88.38007697560032
8.528,0.9999885795908333,87.93401139304689
8.536,0.9999886061118279,87.48725061819103
8.544,0.9999886355527543,87.03979371525332
8.552,0.999988667914826,86.5916397904069
8.56,0.9999887031979886,86.14278799222787
8.568,0.99998874140092,85.69323751214772
8.576,0.9999887825210273,85.24298758490424
8.584,0.999988826554444,84.79203748899367
8.592,0.9999888734960288,84.34038654712131
8.6,0.9999889233393648,83.88803412665334
8.608,0.9999889760767584,83.4349796400666
8.616,0.9999890316992378,82.98122254539948
8.624,0.9999890901965532,82.52676234670032
8.632,0.9999891515571782,82.07159859447694
8.64,0.9999892157683079,81.61573088614324
8.648,0.9999892828158617,81.1591588664666
8.656,0.9999893526844842,80.70188222801225
8.664,0.9999894253575455,80.24390071158807
8.672,0.9999895008171449,79.78521410668611
8.68,0.9999895790441119,79.32582225192418
8.688,0.99998966001801,78.86572503548396
8.696,0.9999897437171389,78.40492239554887
8.704,0.9999898301185391,77.94341432073804
8.712,0.9999899191979942,77.48120085054002
8.72,0.9999900109300367,77.01828207574191
8.728,0.999990105287953,76.55465813885819
8.736,0.9999902022437865,76.09032923455463
8.744,0.9999903017683449,75.62529561007133
8.752,0.9999904038312059,75.15955756564092
8.76,0.9999905084007228,74.69311545490527
8.768,0.999990615444032,74.22596968532706
8.776,0.9999907249270602,73.75812071859957
8.784,0.9999908368145312,73.28956907105106
8.792,0.9999909510699748,72.82031531404692
8.8,0.9999910676557354,72.35036007438613
8.808,0.9999911865329798,71.87970403469502
8.815999999999999,0.9999913076617074,71.40834793381528
8.824,0.9999914310007599,70.93629256718819
8.832,0.9999915565078311,70.4635387872341
8.84,0.999991684139478,69.99008750372654
8.847999999999999,0.9999918138511316,69.51593968416114
8.856,0.999991945597108,69.04109635411962
8.864,0.9999920793306213,68.5655585976284
8.872,0.9999922150037941,68.08932755751094
8.879999999999999,0.9999923525676737,67.61240443573438
8.888,0.9999924919722418,67.13479049375026
8.896,0.99999263316643,66.65648705282926
8.904,0.9999927760981329,66.17749549438892
8.911999999999999,0.9999929207142245,65.69781726031472
8.92,0.9999930669605712,65.21745385327476
8.928,0.9999932147820487,64.73640683702747
8.936,0.9999933641225567,64.25467783672158
8.943999999999999,0.9999935149250359,63.77226853918871
8.952,0.999993667131485,63.289180693228836
8.96,0.9999938206829769,62.80541610988781
8.968,0.9999939755196782,62.32097666272668
8.975999999999999,0.9999941315808646,61.835864288082576
8.984,0.9999942888049416,61.35008098532173
8.992,0.9999944471294626,60.86362881708406
9.0,0.9999946064911482,60.3765099095183
9.008,0.9999947668259064,59.888726452508294
9.016,0.9999949280688518,59.40028069989062
9.024000000000001,0.9999950901543276,58.91117496966275
9.032,0.9999952530159253,58.42141164418123
9.04,0.9999954165865069,57.93099317035022
9.048,0.9999955807982268,57.43992205980051
9.056000000000001,0.9999957455825533,56.948200889058356
9.064,0.999995910870292,56.455832299703616
9.072,0.9999960765916088,55.962818998517484
9.08,0.9999962426760525,55.46916375761981
9.088000000000001,0.9999964090525794,54.974869414595766
9.096,0.9999965756495767,54.47993887261085
9.104,0.9999967423948889,53.98437510051486
9.112,0.9999969092158397,53.48818113293476
9.120000000000001,0.99999707603926,52.99136007035603
9.128,0.9999972427915117,52.49391507919185
9.136,0.9999974093985148,51.995849391840366
9.144,0.999997575785773,51.49716630673036
9.152000000000001,0.9999977418784005,50.99786918835448
9.16,0.9999979076011495,50.49796146728996
9.168,0.9999980728784362,49.997446640206384
9.176,0.9999982376343697,49.49632826986148
9.184000000000001,0.999998401792779,48.99460998508384
9.192,0.9999985652772411,48.49229548074229
9.2,0.9999987280111102,47.98938851770198
9.208,0.9999988899175459,47.48589292276768
9.216000000000001,0.9999990509195413,46.981812588613515
9.224,0.9999992109399541,46.477151473698804
9.232,0.999999369901535,45.97191360217004
9.24,0.9999995277269558,45.466103063749486
9.248000000000001,0.9999996843388421,44.959724013609886
9.256,0.9999998396598017,44.452780672234496
9.264,0.9999999936124553,43.94527732526301
9.272,0.9999999999999999,43.43721832332346
9.280000000000001,1.0,42.92860808185
9.288,0.9999999999999999,42.41945108088527
9.296,1.0000000000000002,41.909751864868554
9.304,1.0,41.39951504240939
9.312000000000001,0.9999999999999999,40.88874528604656
9.32,1.0,40.37744733199161
9.328,1.0,39.86562597985754
9.336,1.0,39.35328609237294
9.344,1.0,38.84043259508088
9.352,1.0,38.327070476022044
9.36,1.0,37.81320478540386
9.368,0.9999999999999999,37.29884063525292
9.376,1.0,36.78398319905377
9.384,1.0,36.26863771137073
9.392,1.0,35.752809467456004
9.4,1.0,35.23650382284089
9.408,1.0,34.7197261929132
9.416,1.0,34.20248205247764
9.424,0.9999999999999999,33.684776935302644
9.432,1.0,33.16661643364998
9.44,1.0,32.64800619779081
9.448,1.0,32.12895193550478
9.456,0.9999999999999999,31.609459411565478
9.464,0.9999999999999998,31.089534447208834
9.472,0.9999999999999999,30.56918291958818
9.48,1.0,30.048410761212374
9.488,1.0,29.527223959370538
9.496,0.9999999999999999,29.005628555539978
9.504,1.0,28.483630644781012
9.512,1.0,27.961236375115025
9.52,1.0,27.43845194688957
9.528,1.0,26.91528361212692
9.536,1.0,26.391737673859947
9.544,1.0,25.86782048545151
9.552,1.0,25.343538449901406
9.56,1.0,24.818898019137258
9.568,0.9999999999999999,24.293905693292995
9.576,1.0,23.76856801997161
9.584,0.9999999999999999,23.24289159349595
9.592,1.0,22.71688305414379
9.6,1.0,22.190549087371497
9.608,1.0,21.66389642302227
9.616,0.9999999999999998,21.136931834523118
9.624,0.9999999999999999,20.609662138067037
9.632,1.0,20.08209419178416
9.64,1.0,19.55423489489846
9.648,1.0,19.02609118687391
9.656,1.0,18.497670046546556
9.664,0.9999999999999999,17.968978491246506
9.672,1.0,17.44002357590625
