freq,mag,phase
6.0,0.9999876483945898,-120.22076586957327
6.008,0.9999907440634597,-120.65936264456808
6.016,0.999993733171772,-121.09784546897161
6.024,0.9999966175145705,-121.53621363560592
6.032,0.999999398872837,-121.9744664494523
6.04,0.9999999999999999,-122.41260322762406
6.048,0.9999999999999999,-122.85062329933855
6.056,1.0,-123.28852600588819
6.064,1.0,-123.72631070061121
6.072,1.0000000000000002,-124.16397674886095
6.08,1.0,-124.60152352797503
6.088,1.0,-125.03895042724348
6.096,1.0,-125.4762568478761
6.104,1.0,-125.91344220296934
6.112,0.9999999999999999,-126.35050591747229
6.12,0.9999999999999999,-126.78744742815198
6.128,1.0,-127.22426618355807
6.136,1.0,-127.66096164398701
6.144,1.0,-128.09753328144492
6.152,0.9999999999999999,-128.53398057961078
6.16,0.9999999999999999,-128.97030303379816
6.168,1.0,-129.40650015091657
6.176,1.0,-129.84257144943257
6.184,1.0,-130.2785164593296
6.192,1.0,-130.71433472206763
6.2,1.0,-131.15002579054232
6.208,1.0,-131.58558922904308
6.216,1.0,-132.0210246132113
6.224,1.0,-132.4563315299972
6.232,0.9999999999999999,-132.8915095776168
6.24,1.0,-133.32655836550825
6.248,1.0,-133.7614775142871
6.256,1.0,-134.19626665570152
6.264,0.9999999999999999,-134.63092543258733
6.272,1.0,-135.06545349882154
6.28,1.0,-135.4998505192764
6.288,1.0,-135.93411616977232
6.296,1.0,-136.36825013703077
6.304,1.0,-136.80225211862643
6.312,1.0,-137.2361218229387
6.32,1.0,-137.6698589691036
6.328,1.0,-138.10346328696414
6.336,0.9999999999999999,-138.53693451702122
6.344,1.0,-138.97027241038342
6.352,1.0,-139.40347672871687
6.36,1.0,-139.83654724419443
6.368,0.9999999999999999,-140.26948373944475
6.376,1.0,-140.70228600750067
6.384,0.9999999999999999,-141.13495385174744
6.392,1.0,-141.56748708587054
6.4,1.0,-141.9998855338032
6.408,0.9999999999999999,-142.43214902967355
6.416,1.0,-142.86427741775142
6.424,1.0,-143.29627055239473
6.432,0.9999999999999999,-143.72812829799594
6.44,1.0,-144.15985052892773
6.448,1.0,-144.59143712948872
6.456,1.0,-145.0228879938488
6.464,0.9999999999999999,-145.45420302599408
6.472,1.0,-145.88538213967175
6.48,1.0,-146.31642525833473
6.4879999999999995,1.0,-146.74733231508569
6.496,1.0000000000000002,-147.17810325262153
6.504,1.0,-147.6087380231766
6.5120000000000005,1.0,-148.03923658846693
6.52,1.0,-148.4695989196331
6.5280000000000005,1.0,-148.89982499718386
6.536,1.0,-149.32991481093867
6.5440000000000005,1.0,-149.759868359971
6.552,1.0,-150.18968565255034
6.5600000000000005,0.9999999999999999,-150.61936670608534
6.568,0.9999999999999999,-151.04891154706536
6.5760000000000005,0.9999999999999999,-151.47832021100328
6.584,1.0,-151.90759274237675
6.592,1.0,-152.33672919457072
6.6,1.0,-152.76572962981865
6.608,0.9999999999999999,-153.19459411914417
6.616,1.0,-153.62332274230258
6.624,1.0,-154.0519155877222
6.632,0.9999999999999999,-154.48037275244542
6.64,1.0,-154.90869434207005
6.648,1.0,-155.33688047069
6.656,1.0,-155.7649312608367
6.664,0.9999999999999999,-156.19284684341937
6.672,0.9999999999999999,-156.62062735766636
6.68,0.9999999999999999,-157.04827295106546
6.688,1.0,-157.4757837793047
6.696,0.9999999999999999,-157.90316000621297
6.704,0.9999999999999999,-158.33040180370057
6.712,1.0,-158.75750935169967
6.72,1.0,-159.1844828381048
6.728,0.9999999999999999,-159.61132245871332
6.736,1.0,-160.03802841716578
6.744,1.0,-160.4646009248864
6.752,1.0,-160.8910402010235
6.76,1.0,-161.31734647238966
6.768,1.0,-161.7435199734024
6.776,0.9999999999999999,-162.1695609460244
6.784,1.0,-162.5954696397039
6.792,1.0,-163.0212463113152
6.8,1.0,-163.446891225099
6.808,1.0,-163.87240465260294
6.816,0.9999999999999999,-164.2977868726221
6.824,1.0,-164.72303817113954
6.832,0.9999991261683925,-165.1481588412667
6.84,0.9999981285145262,-165.57314918318443
6.848,0.9999971349787175,-165.9980095040831
6.856,0.9999961459564506,-166.4227401181038
6.864,0.9999951618331181,-166.84734134627897
6.872,0.9999941829841155,-167.2718135164732
6.88,0.9999932097749367,-167.69615696332417
6.888,0.99999224256127,-168.12037202818377
6.896,0.9999912816890919,-168.54445905905897
6.904,0.9999903274947652,-168.9684184105531
6.912,0.9999893803051331,-169.39225044380728
6.92,0.9999884404376171,-169.8159555264413
6.928,0.9999875082003132,-170.23953403249547
6.936,0.9999865838920864,-170.6629863423719
6.944,0.999985667802672,-171.08631284277632
6.952,0.9999847602127667,-171.50951392665965
6.96,0.9999838613941305,-171.93258999315992
6.968,0.9999829716096809,-172.35554144754425
6.976,0.999982091113591,-172.77836870115095
6.984,0.9999812201513876,-173.2010721713315
6.992,0.9999803589600454,-173.62365228139322
7.0,0.9999795077680885,-174.04610946054143
7.008,0.9999786667956839,-174.4684441438222
7.016,0.9999778362547412,-174.89065677206497
7.024,0.9999770163490086,-175.3127477918254
7.032,0.9999762072741705,-175.73471765532835
7.04,0.9999754092179443,-176.15656682041117
7.048,0.999974622360179,-176.57829575046668
7.056,0.9999738468729499,-176.9999049143868
7.064,0.9999730829206569,-177.42139478650617
7.072,0.9999723306601217,-177.8427658465456
7.08,0.9999715902406829,-178.26401857955628
7.088,0.9999708618042947,-178.6851534758636
7.096,0.9999701454856214,-179.1061710310114
7.104,0.9999694414121347,-179.5270717457064
7.112,0.9999687497042102,-179.9478561257626
7.12,0.9999680704752215,179.63147531795389
7.128,0.9999674038316382,179.21092206958002
7.136,0.9999667498731207,178.79048360831086
7.144,0.9999661086926138,178.37015940845427
7.152,0.9999654803764444,177.9499489394856
7.16,0.9999648650044146,177.52985166610202
7.168,0.9999642626498974,177.10986704827684
7.176,0.9999636733799294,176.68999454131364
7.184,0.9999630972553071,176.2702335959001
7.192,0.9999625343306794,175.85058365816167
7.2,0.9999619846546408,175.4310441697151
7.208,0.9999614482698241,175.0116145677219
7.216,0.9999609252129964,174.5922942849413
7.224,0.9999604155151476,174.17308274978322
7.232,0.9999599192015851,173.7539793863613
7.24,0.999959436292025,173.33498361454508
7.248,0.9999589668006839,172.91609485001254
7.256,0.999958510736369,172.49731250430233
7.264,0.9999580681025712,172.0786359848657
7.272,0.9999576388975525,171.66006469511822
7.28,0.9999572231144375,171.24159803449146
7.288,0.999956820741306,170.82323539848426
7.296,0.999956431761275,170.40497617871392
7.304,0.9999560561525956,169.98681976296734
7.312,0.9999556938887362,169.5687655352515
7.32,0.9999553449384723,169.1508128758443
7.328,0.9999550092659728,168.73296116134475
7.336,0.9999546868308897,168.31520976472316
7.344,0.9999543775884427,167.8975580553711
7.352,0.9999540814895056,167.48000539915117
7.36,0.9999537984806924,167.06255115844652
7.368,0.9999535285044431,166.6451946922101
7.376,0.9999532714991071,166.22793535601392
7.384,0.9999530273990296,165.81077250209773
7.392,0.9999527961346341,165.39370547941806
7.4,0.9999525776325049,164.97673363369628
7.4079999999999995,0.9999523718154726,164.55985630746738
7.416,0.9999521786026933,164.1430728401274
7.4239999999999995,0.9999519979097334,163.72638256798206
7.432,0.9999518296486504,163.3097848242936
7.4399999999999995,0.9999516737280703,162.89327893932898
7.448,0.9999515300532732,162.47686424040634
7.4559999999999995,0.9999513985262689,162.06054005194284
7.464,0.9999512790458794,161.64430569550058
7.4719999999999995,0.999951171507814,161.2281604898341
7.48,0.9999510758047506,160.81210375093576
7.4879999999999995,0.9999509918264119,160.396134792083
7.496,0.999950919459643,159.98025292388323
7.504,0.9999508585884868,159.5644574543205
7.5120000000000005,0.9999508090942616,159.14874768880017
7.52,0.9999507708556357,158.7331229301952
7.5280000000000005,0.9999507437487014,158.3175824788902
7.536,0.9999507276470511,157.90212563282736
7.5440000000000005,0.9999507224218496,157.4867516875502
7.552,0.9999507279419072,157.07145993624894
7.5600000000000005,0.999950744073753,156.65624966980388
7.568,0.9999507706817066,156.2411201768304
7.5760000000000005,0.999950807627949,155.82607074372186
7.584,0.9999508547725938,155.41110065469417
7.5920000000000005,0.9999509119737576,154.9962091918284
7.6,0.9999509790876291,154.58139563511475
7.6080000000000005,0.9999510559685378,154.1666592624948
7.616,0.9999511424690238,153.75199934990522
7.6240000000000006,0.9999512384399043,153.3374151713195
7.632,0.9999513437303409,152.9229059987911
7.640000000000001,0.9999514581879065,152.50847110249506
7.648,0.999951581658652,152.0941097507706
7.656000000000001,0.9999517139871698,151.67982121016215
7.664,0.9999518550166608,151.26560474546176
7.672,0.999952004588997,150.85145961974996
7.68,0.9999521625447854,150.43738509443705
7.688,0.9999523287234307,150.0233804293043
7.696,0.9999525029631987,149.60944488254447
7.704,0.9999526851012772,149.19557771080255
7.712,0.9999528749738362,148.78177816921615
7.72,0.99995307241609,148.3680455114557
7.728,0.999953277262356,147.9543789897644
7.736,0.9999534893461149,147.540777854998
7.744,0.999953708500068,147.12724135666454
7.752,0.999953934556195,146.7137687429637
7.76,0.9999541673458134,146.30035926082596
7.768,0.999954406699634,145.88701215595168
7.776,0.9999546524478161,145.47372667285
7.784,0.9999549044200233,145.06050205487747
7.792,0.9999551624454808,144.64733754427635
7.8,0.9999554263530258,144.2342323822131
7.808,0.9999556959711637,143.82118580881635
7.816,0.9999559711281207,143.40819706321486
7.824,0.9999562516518953,142.99526538357517
7.832,0.999956537370311,142.58239000713914
7.84,0.9999568281110656,142.16957017026132
7.848,0.9999571237017847,141.75680510844612
7.856,0.9999574239700688,141.34409405638482
7.864,0.9999577287435435,140.93143624799217
7.872,0.9999580378499087,140.5188309164433
7.88,0.9999583511169851,140.10627729421003
7.888,0.9999586683727638,139.69377461309708
7.896,0.9999589894454507,139.28132210427825
7.904,0.9999593141635132,138.86891899833222
7.912,0.9999596423557278,138.45656452527854
7.92,0.9999599738512208,138.04425791461284
7.928,0.9999603084795171,137.63199839534255
7.936,0.9999606460705808,137.2197851960219
7.944,0.9999609864548592,136.80761754478706
7.952,0.999961329463325,136.39549466939118
7.96,0.9999616749275185,135.98341579723873
7.968,0.9999620226795879,135.5713801554205
7.976,0.9999623725523314,135.15938697074762
7.984,0.999962724379235,134.747435469786
7.992,0.999963077994514,134.33552487889037
8.0,0.99996343323315,133.92365442423798
8.008,0.9999637899309299,133.51182333186273
8.016,0.9999641479244832,133.10003082768822
8.024000000000001,0.9999645070513192,132.6882761375617
8.032,0.9999648671498629,132.27655848728713
8.04,0.9999652280594904,131.86487710265803
8.048,0.999965589620565,131.45323120949075
8.056000000000001,0.9999659516744707,131.04162003365724
8.064,0.9999663140636467,130.63004280111767
8.072,0.9999666766316208,130.21849873795267
8.08,0.9999670392230412,129.80698707039608
8.088000000000001,0.9999674016837097,129.39550702486682
8.096,0.9999677638606128,128.98405782800128
8.104,0.9999681256019525,128.5726387066848
8.112,0.9999684867571766,128.16124888808358
8.120000000000001,0.9999688471770093,127.74988759967654
8.128,0.9999692067134791,127.33855406928654
8.136,0.9999695652199486,126.92724752511164
8.144,0.9999699225511419,126.51596719575629
8.152000000000001,0.9999702785631718,126.10471231026267
8.16,0.9999706331135675,125.69348209814137
8.168,0.9999709860613001,125.28227578940208
8.176,0.9999713372668094,124.87109261458409
8.184000000000001,0.9999716865920281,124.4599318047873
8.192,0.9999720339004061,124.04879259170225
8.2,0.9999723790569364,123.6376742076401
8.208,0.9999727219281762,123.226575885563
8.216000000000001,0.9999730623822718,122.81549685911412
8.224,0.9999734002889803,122.40443636264746
8.232,0.9999737355196909,121.9933936312571
8.24,0.9999740679474467,121.58236790080727
8.248000000000001,0.9999743974469651,121.17135840796163
8.256,0.9999747238946592,120.7603643902127
8.264,0.9999750471686556,120.3493850859106
8.272,0.9999753671488147,119.93841973429255
8.280000000000001,0.9999756837167488,119.52746757551174
8.288,0.9999759967558409,119.11652785066609
8.296,0.9999763061512608,118.70559980182682
8.304,0.9999766117899833,118.29468267206701
8.312,0.9999769135608038,117.88377570549052
8.32,0.9999772113543555,117.47287814725955
8.328,0.9999775050631232,117.06198924362367
8.336,0.9999777945814586,116.65110824194709
8.344,0.9999780798055962,116.24023439073746
8.352,0.9999783606336643,115.82936693967298
8.36,0.9999786369657018,115.41850513963084
8.368,0.9999789087036675,115.00764824271411
8.376,0.9999791757514553,114.59679550228016
8.384,0.9999794380149036,114.18594617296709
8.392,0.999979695401809,113.77509951072196
8.4,0.9999799478219354,113.36425477282714
8.408,0.9999801951870254,112.95341121792816
8.416,0.9999804374108089,112.54256810605999
8.424,0.9999806744090138,112.13172469867453
8.432,0.9999809060993741,111.72088025866674
8.44,0.999981132401638,111.31003405040198
8.448,0.9999813532375772,110.89918533974185
8.456,0.9999815685309926,110.48833339407126
8.464,0.9999817782077226,110.07747748232418
8.472,0.9999819821956485,109.66661687501056
8.48,0.9999821804247015,109.25575084424162
8.488,0.9999823728268674,108.84487866375683
8.496,0.9999825593361932,108.43399960894882
8.504,0.999982739888789,108.02311295689022
8.512,0.9999829144228352,107.6122179863585
8.52,0.9999830828785842,107.20131397786233
8.528,0.9999832451983645,106.79040021366642
8.536,0.9999834013265836,106.37947597781772
8.544,0.9999835512097299,105.9685405561699
8.552,0.9999836947963757,105.55759323640943
8.56,0.9999838320371767,105.14663330808
8.568,0.9999839628848753,104.73566006260815
8.576,0.9999840872943004,104.32467279332765
8.584,0.9999842052223671,103.91367079550503
8.592,0.9999843166280774,103.50265336636357
8.6,0.9999844214725186,103.09161980510875
8.608,0.9999845197188635,102.68056941295205
8.616,0.9999846113323676,102.2695014931362
8.624,0.9999846962803693,101.85841535095882
8.632,0.9999847745322845,101.44731029379746
8.64,0.9999848460596067,101.03618563113302
8.648,0.9999849108359035,100.62504067457465
8.656,0.9999849688368116,100.21387473788303
8.664,0.9999850200400348,99.80268713699505
8.672,0.999985064425338,99.39147719004681
8.68,0.9999851019745448,98.98024421739831
8.688,0.9999851326715301,98.56898754165613
8.696,0.9999851565022163,98.15770648769791
8.704,0.9999851734545674,97.74640038269509
8.712,0.9999851835185817,97.33506855613693
8.72,0.9999851866862861,96.92371033985319
8.728,0.9999851829517304,96.51232506803798
8.736,0.9999851723109779,96.10091207727227
8.744,0.9999851547620988,95.68947070654755
8.752,0.9999851303051629,95.27800029728816
8.76,0.9999850989422291,94.86650019337475
8.768,0.9999850606773402,94.45496974116647
8.776,0.9999850155165109,94.04340828952425
8.784,0.9999849634677191,93.6318151898328
8.792,0.9999849045408977,93.22018979602377
8.8,0.9999848387479228,92.80853146459744
8.808,0.9999847661026039,92.39683955464584
8.815999999999999,0.9999846866206739,91.98511342787432
8.824,0.9999846003197768,91.57335244862406
8.832,0.9999845072194579,91.16155598389417
8.84,0.9999844073411511,90.74972340336369
8.847999999999999,0.9999843007081664,90.33785407941313
8.856,0.9999841873456795,89.92594738714664
8.864,0.9999840672807182,89.51400270441374
8.872,0.9999839405421483,89.10201941183091
8.879999999999999,0.9999838071606623,88.68999689280291
8.888,0.9999836671687655,88.27793453354437
8.896,0.9999835206007607,87.86583172310144
8.904,0.9999833674927365,87.45368785337281
8.911999999999999,0.9999832078825518,87.04150231913081
8.92,0.9999830418098199,86.62927451804259
8.928,0.999982869315896,86.21700385069137
8.936,0.9999826904438605,85.80468972059722
8.943999999999999,0.9999825052385035,85.3923315342377
8.952,0.9999823137463096,84.97992870106867
8.96,0.9999821160154425,84.56748063354536
8.968,0.9999819120957268,84.15498674714253
8.975999999999999,0.999981702038633,83.74244646037485
8.984,0.9999814858972609,83.32985919481752
8.992,0.9999812637263219,82.91722437512666
9.0,0.9999810355821216,82.50454142905934
9.008,0.9999808015225428,82.09180978749356
9.016,0.9999805616070271,81.67902888444833
9.024000000000001,0.999980315896559,81.26619815710391
9.032,0.9999800644536437,80.85331704582136
9.04,0.9999798073422932,80.44038499416207
9.048,0.9999795446280045,80.02740144890768
9.056000000000001,0.9999792763777413,79.61436586007967
9.064,0.9999790026599161,79.20127768095873
9.072,0.9999787235443696,78.78813636810382
9.08,0.999978439102352,78.3749413813717
9.088000000000001,0.9999781494065032,77.9616921839362
9.096,0.9999778545308318,77.54838824230707
9.104,0.9999775545506964,77.13502902634882
9.112,0.9999772495427851,76.72161400929967
9.120000000000001,0.999976939585093,76.30814266779052
9.128,0.9999766247569055,75.89461448186346
9.136,0.9999763051387729,75.48102893499
9.144,0.9999759808124924,75.06738551408982
9.152000000000001,0.9999756518610862,74.65368370954927
9.16,0.9999753183687794,74.23992301523936
9.168,0.9999749804209788,73.82610292853374
9.176,0.9999746381042517,73.41222295032695
9.184000000000001,0.9999742915063031,72.9982825850524
9.192,0.9999739407159552,72.58428134070012
9.2,0.9999735858231227,72.17021872883416
9.208,0.9999732269187923,71.75609426461047
9.216000000000001,0.9999728640950009,71.34190746679448
9.224,0.9999724974448109,70.92765785777836
9.232,0.9999721270622883,70.51334496359793
9.24,0.9999717530424808,70.09896831395014
9.248000000000001,0.9999713754813934,69.6845274422103
9.256,0.9999709944759655,69.27002188544861
9.264,0.9999706101240493,68.85545118444698
9.272,0.9999702225243831,68.44081488371575
9.280000000000001,0.9999698317765712,68.02611253151053
9.288,0.9999694379810582,67.61134367984836
9.296,0.9999690412391067,67.1965078845239
9.304,0.9999686416527719,66.7816047051258
9.312000000000001,0.9999682393248789,66.36663370505299
9.32,0.9999678343589987,65.95159445153034
9.328,0.9999674268594234,65.53648651562445
9.336,0.9999670169311423,65.12130947225936
9.344,0.9999666046798187,64.70606290023257
9.352,0.9999661902117629,64.29074638222971
9.36,0.9999657736339117,63.875359504840645
9.368,0.9999653550538004,63.45990185857394
9.376,0.9999649345795397,63.04437303787257
9.384,0.9999645123197917,62.62877264112817
9.392,0.9999640883837443,62.21310027069654
9.4,0.9999636628810868,61.79735553291155
9.408,0.9999632359219855,61.381538038100345
9.416,0.9999628076170584,60.9656474005971
9.424,0.9999623780773501,60.549683238757794
9.432,0.9999619474143081,60.133645174973786
9.44,0.9999615157397571,59.71753283568634
9.448,0.9999610831658741,59.30134585139978
9.456,0.9999606498051631,58.88508385669582
9.464,0.9999602157704307,58.4687464902464
9.472,0.9999597811747617,58.05233339482774
9.48,0.9999593461314925,57.63584421733296
9.488,0.999958910754187,57.219278608785615
9.496,0.9999584751566118,56.80263622435218
9.504,0.9999580394527111,56.38591672335533
9.512,0.9999576037565808,55.96911976928591
9.52,0.9999571681824452,55.55224502981613
9.528,0.9999567328446298,55.1352921768111
9.536,0.9999562978575378,54.71826088634169
9.544,0.9999558633356262,54.30115083869581
9.552,0.9999554293933773,53.883961718390935
9.56,0.999954996145278,53.46669321418505
9.568,0.9999545637057917,53.04934501908881
9.576,0.9999541321893352,52.631916830376234
9.584,0.999953701710253,52.2144083495965
9.592,0.9999532723827936,51.79681928258429
9.6,0.9999528443210836,51.37914933947119
9.608,0.9999524176391036,50.96139823469577
9.616,0.999951992450664,50.54356568701468
9.624,0.9999515688693794,50.125651419512266
9.632,0.9999511470086453,49.7076551596114
9.64,0.9999507269816131,49.289576639082675
9.648,0.9999503089011655,48.87141559405495
9.656,0.9999498928798927,48.45317176502413
9.664,0.9999494790300683,48.03484489686335
9.672,0.999949067463624,47.616434738831416
9.68,0.9999486582921283,47.1979410445826
9.688,0.9999482516267596,46.77936357217476
9.696,0.9999478475782839,46.36070208407865
9.704,0.9999474462570306,45.94195634718575
9.712,0.9999470477728691,45.52312613281715
9.72,0.9999466522351862,45.104211216731
9.728,0.9999462597528604,44.685211379131104
9.736,0.999945870434241,44.26612640467375
9.744,0.999945484387123,43.846956082476154
9.752,0.999945101718726,43.427700206122786
