freq,mag,phase
6.0,0.9999999999999999,47.15954457343031
6.008,1.0,46.94836798725416
6.016,0.9999999840280027,46.73709412287107
6.024,0.9999993329519524,46.52572315839869
6.032,0.9999986937976141,46.31425527347243
6.04,0.999998066450084,46.10269064924644
6.048,0.9999974507949678,45.8910294683945
6.056,0.9999968467183805,45.67927191511108
6.064,0.9999962541069469,45.467418175112094
6.072,0.9999956728478042,45.25546843563579
6.08,0.9999951028286009,45.043422885443505
6.088,0.9999945439374991,44.83128171482033
6.096,0.999993996063175,44.619045115575965
6.104,0.9999934590948193,44.40671328104517
6.112,0.9999929329221393,44.194286406088516
6.12,0.9999924174353583,43.98176468709274
6.128,0.9999919125252171,43.76914832197144
6.136,0.9999914180829754,43.556437510165374
6.144,0.9999909340004115,43.34363245264296
6.152,0.9999904601698238,43.13073335190046
6.16,0.999989996484032,42.91774041196255
6.168,0.9999895428363762,42.704653838382285
6.176,0.9999890991207199,42.49147383824143
6.184,0.9999886652314488,42.27820062015068
6.192,0.9999882410634735,42.06483439424959
6.2,0.9999878265122277,41.85137537220677
6.208,0.9999874214736723,41.63782376721978
6.216,0.9999870258442917,41.424179794015195
6.224,0.9999866395210989,41.21044366884836
6.232,0.9999862624016332,40.99661560950333
6.24,0.9999858943839629,40.782695835292664
6.248,0.9999855353666833,40.568684567057105
6.256,0.9999851852489209,40.35458202716536
6.264,0.9999848439303303,40.14038843951363
6.272,0.9999845113110977,39.92610402952529
6.28,0.9999841872919404,39.711729024150394
6.288,0.9999838717741065,39.49726365186511
6.296,0.9999835646593771,39.282708142671225
6.304,0.9999832658500659,39.06806272809547
6.312,0.9999829752490199,38.853327641188805
6.32,0.9999826927596193,38.63850311652586
6.328,0.9999824182857799,38.42358939020387
6.336,0.9999821517319513,38.20858669984211
6.344,0.9999818930031187,37.9934952845808
6.352,0.9999816420048034,37.778315385080326
6.36,0.9999813986430623,37.56304724352007
6.368,0.9999811628244891,37.34769110359745
6.376,0.9999809344562148,37.13224721052683
6.384,0.999980713445908,36.916715811038294
6.392,0.9999804997017748,36.70109715337644
6.4,0.9999802931325594,36.485391487299104
6.408,0.9999800936475441,36.269599064076075
6.416,0.9999799011565522,36.0537201364876
6.424,0.9999797155699433,35.83775495882305
6.432,0.9999795367986191,35.62170378687936
6.44,0.999979364754019,35.405566877959465
6.448,0.999979199348124,35.18934449087078
6.456,0.9999790404934549,34.973036885923385
6.464,0.9999788881030731,34.756644324928416
6.472,0.9999787420905805,34.54016707119622
6.48,0.9999786023701204,34.32360538953458
6.4879999999999995,0.9999784688563775,34.106959546246735
6.496,0.9999783414645776,33.890229809129444
6.504,0.999978220110488,33.67341644747112
6.5120000000000005,0.9999781047104177,33.456519732049486
6.52,0.9999779951812175,33.23953993512977
6.5280000000000005,0.9999778914402806,33.022477330462216
6.536,0.9999777934055414,32.805332193280115
6.5440000000000005,0.9999777009954769,32.58810480029724
6.552,0.9999776141291062,32.37079542970581
6.5600000000000005,0.9999775327259908,32.15340436117366
6.568,0.9999774567062342,31.93593187584229
6.5760000000000005,0.9999773859904818,31.718378256323756
6.584,0.9999773204999216,31.500743786698617
6.592,0.9999772601562841,31.283028752512873
6.6,0.9999772048818413,31.06523344077553
6.608,0.9999771545994075,30.847358139955684
6.616,0.9999771092323393,30.629403139979757
6.624,0.9999770687045346,30.411368732228635
6.632,0.9999770329404335,30.193255209534655
6.64,0.999977001865018,29.97506286617868
6.648,0.9999769754038113,29.756791997886992
6.656,0.9999769534828775,29.5384429018282
6.664,0.9999769360288229,29.320015876610025
6.672,0.9999769229687936,29.101511222276134
6.68,0.9999769142304771,28.882929240302765
6.688,0.9999769097421016,28.664270233595424
6.696,0.9999769094324344,28.44553450648545
6.704,0.9999769132307842,28.226722364726548
6.712,0.9999769210669984,28.00783411549125
6.72,0.9999769328714642,27.78887006736732
6.728,0.9999769485751073,27.56983053035414
6.736,0.9999769681093924,27.350715815858923
6.744,0.9999769914063227,27.131526236693
6.752,0.9999770183984388,26.912262107067985
6.76,0.9999770490188189,26.692923742591887
6.768,0.9999770832010789,26.473511460265097
6.776,0.9999771208793704,26.254025578476483
6.784,0.9999771619883819,26.034466416999237
6.792,0.9999772064633371,25.814834296986785
6.8,0.9999772542399952,25.595129540968593
6.808,0.9999773052546499,25.375352472845915
6.816,0.999977359444129,25.155503417887488
6.824,0.9999774167457945,24.935582702725146
6.832,0.9999774770975405,24.71559065534946
6.84,0.9999775404377939,24.495527605105167
6.848,0.9999776067055136,24.27539388268665
6.856,0.9999776758401897,24.055189820133407
6.864,0.9999777477818423,23.83491575082525
6.872,0.9999778224710221,23.614572009477723
6.88,0.9999778998488087,23.39415893213722
6.888,0.9999779798568094,23.173676856176197
6.896,0.9999780624371607,22.953126120288232
6.904,0.9999781475325249,22.73250706448311
6.912,0.9999782350860913,22.51182003008175
6.92,0.9999783250415747,22.29106535971118
6.928,0.9999784173432137,22.07024339729937
6.936,0.9999785119357715,21.84935448807006
6.944,0.9999786087645345,21.628398978537444
6.952,0.9999787077753105,21.40737721650094
6.96,0.9999788089144294,21.186289551039778
6.968,0.9999789121287406,20.96513633250757
6.976,0.9999790173656142,20.743917912526786
6.984,0.9999791245729371,20.522634643983324
6.992,0.9999792336991162,20.301286881020744
7.0,0.9999793446930729,20.07987497903474
7.008,0.999979457504245,19.858399294667347
7.016,0.9999795720825851,19.63686018580119
7.024,0.9999796883785596,19.415258011553625
7.032,0.9999798063431464,19.19359313227089
7.04,0.9999799259278366,18.971865909522105
7.048,0.9999800470846302,18.750076706093264
7.056,0.9999801697660371,18.52822588598125
7.064,0.9999802939250757,18.306313814387583
7.072,0.999980419515271,18.084340857712352
7.08,0.9999805464906543,17.862307383547922
7.088,0.999980674805761,17.64021376067267
7.096,0.9999808044156309,17.4180603590446
7.104,0.9999809352758057,17.19584754979497
7.112,0.9999810673423277,16.973575705221847
7.12,0.99998120057174,16.751245198783543
7.128,0.9999813349210837,16.52885640509205
7.136,0.999981470347897,16.306409699906474
7.144,0.9999816068102148,16.08390546012627
7.152,0.9999817442665658,15.86134406378456
7.16,0.9999818826759725,15.638725890041307
7.168,0.9999820219979495,15.4160513191765
7.176,0.9999821621925018,15.19332073258323
7.184,0.9999823032201233,14.97053451276073
7.192,0.9999824450417963,14.747693043307388
7.2,0.9999825876189886,14.524796708913671
7.208,0.9999827309136535,14.301845895355
7.216,0.9999828748882276,14.078840989484585
7.224,0.9999830195056292,13.855782379226227
7.232,0.9999831647292574,13.632670453566995
7.24,0.9999833105229895,13.409505602549935
7.248,0.9999834568511812,13.18628821726668
7.256,0.9999836036786631,12.96301868985001
7.264,0.9999837509707405,12.739697413466363
7.272,0.9999838986931909,12.516324782308331
7.28,0.999984046812263,12.29290119158703
7.288,0.9999841952946757,12.069427037524477
7.296,0.9999843441076143,11.845902717345933
7.304,0.9999844932187305,11.622328629272117
7.312,0.999984642596141,11.39870517251143
7.32,0.999984792208426,11.175032747252134
7.328,0.9999849420246233,10.95131175465446
7.336,0.9999850920142341,10.727542596842639
7.344,0.9999852421472146,10.50372567689694
7.352,0.9999853923939777,10.279861398845652
7.36,0.9999855427253899,10.055950167656974
7.368,0.9999856931127693,9.831992389230882
7.376,0.9999858435278862,9.607988470390946
7.384,0.9999859939429572,9.38393881887615
7.392,0.999986144330647,9.159843843332549
7.4,0.999986294664065,8.935703953304984
7.4079999999999995,0.9999864449167633,8.711519559228774
7.416,0.9999865950627344,8.48729107242111
7.4239999999999995,0.9999867450764112,8.263018905072906
7.432,0.999986894932663,8.03870347023993
7.4399999999999995,0.9999870446067947,7.814345181834645
7.448,0.9999871940745442,7.589944454617204
7.4559999999999995,0.9999873433120813,7.365501704187232
7.464,0.9999874922960043,7.141017346974739
7.4719999999999995,0.9999876410033399,6.916491800231781
7.48,0.9999877894115391,6.691925482023312
7.4879999999999995,0.9999879374984771,6.467318811218759
7.496,0.9999880852424499,6.242672207482791
7.504,0.9999882326221726,6.0179860912667795
7.5120000000000005,0.999988379616778,5.793260883799515
7.52,0.9999885262058132,5.5684970070785935
7.5280000000000005,0.9999886723692388,5.343694883861005
7.536,0.999988818087426,5.118854937654486
7.5440000000000005,0.9999889633411547,4.893977592708008
7.552,0.9999891081116111,4.6690632740030455
7.5600000000000005,0.9999892523803865,4.444112407243996
7.568,0.9999893961294736,4.21912541884936
7.5760000000000005,0.9999895393412656,3.994102735942088
7.584,0.999989681998553,3.769044786340694
7.5920000000000005,0.999989824084523,3.543951998549522
7.6,0.9999899655827549,3.31882480174977
7.6080000000000005,0.99999010647722,3.0936636257896923
7.616,0.9999902467522777,2.8684689011755724
7.6240000000000006,0.9999903863926755,2.643241059061813
7.632,0.9999905253835436,2.4179805312418616
7.640000000000001,0.9999906637103954,2.192687750138238
7.648,0.9999908013591233,1.967363148793372
7.656000000000001,0.9999909383159977,1.7420071608595733
7.664,0.9999910745676641,1.5166202205897892
7.672,0.9999912101011404,1.2912027628275593
7.68,0.9999913449038155,1.065755222997557
7.688,0.999991478963446,0.8402780370957221
7.696,0.999991612268154,0.6147716416795275
7.704,0.9999917448064263,0.38923647385814364
7.712,0.9999918765671083,0.1636729712826204
7.72,0.9999920075394068,-0.06191842786399906
7.728,0.9999921377128822,-0.28753728487657104
7.736,0.9999922670774503,-0.513183160537778
7.744,0.9999923956233774,-0.7388556151280926
7.752,0.999992523341279,-0.9645542084357561
7.76,0.9999926502221165,-1.1902784997668083
7.768,0.9999927762571965,-1.4160280479551042
7.776,0.9999929014381657,-1.6418024113724083
7.784,0.9999930257570105,-1.8676011479384722
7.792,0.9999931492060534,-2.093423815131163
7.8,0.9999932717779519,-2.319269969996601
7.808,0.9999933934656936,-2.5451391691593512
7.816,0.9999935142625962,-2.7710309688325903
7.824,0.9999936341623035,-2.9969449248283446
7.832,0.9999937531587834,-3.2228805925677273
7.84,0.9999938712463251,-3.448837527091204
7.848,0.9999939884195362,-3.6748152830688836
7.856,0.9999941046733424,-3.900813414810815
7.864,0.9999942200029809,-4.1268314762773395
7.872,0.9999943344040014,-4.352869021089419
7.88,0.9999944478722619,-4.578925602539027
7.888,0.9999945604039272,-4.805000773599519
7.896,0.9999946719954642,-5.031094086936071
7.904,0.9999947826436417,-5.25720509491608
7.912,0.999994892345527,-5.483333349619629
7.92,0.9999950010984818,-5.709478402849946
7.928,0.9999951089001626,-5.935639806143886
7.936,0.9999952157485149,-6.161817110782428
7.944,0.9999953216417731,-6.388009867801192
7.952,0.9999954265784561,-6.614217628000966
7.96,0.999995530557366,-6.840439941958256
7.968,0.9999956335775845,-7.066676360035837
7.976,0.999995735638471,-7.292926432393327
7.984,0.999995836739659,-7.519189708997781
7.992,0.9999959368810548,-7.7454657396342785
8.0,0.9999960360628335,-7.97175407391654
8.008,0.9999961342854374,-8.198054261297527
8.016,0.999996231549573,-8.424365851080188
8.024000000000001,0.9999963278562076,-8.6506883924279
8.032,0.999996423206568,-8.877021434375223
8.04,0.9999965176021371,-9.103364525838664
8.048,0.9999966110446508,-9.329717215627284
8.056000000000001,0.9999967035360963,-9.55607905245323
8.064,0.9999967950787084,-9.782449584942553
8.072,0.9999968856749685,-10.008828361645993
8.08,0.9999969753275997,-10.235214931049583
8.088000000000001,0.9999970640395652,-10.461608841585267
8.096,0.9999971518140667,-10.688009641641678
8.104,0.9999972386545405,-10.914416879574997
8.112,0.9999973245646538,-11.140830103719567
8.120000000000001,0.9999974095483053,-11.367248862398482
8.128,0.9999974936096182,-11.593672703934473
8.136,0.9999975767529417,-11.820101176660696
8.144,0.9999976589828455,-12.04653382893139
8.152000000000001,0.9999977403041189,-12.2729702091325
8.16,0.9999978207217665,-12.499409865692508
8.168,0.9999979002410065,-12.725852347093301
8.176,0.9999979788672686,-12.952297201880766
8.184000000000001,0.9999980566061897,-13.178743978675467
8.192,0.999998133463613,-13.405192226183436
8.2,0.9999982094455838,-13.631641493207038
8.208,0.9999982845583486,-13.858091328655597
8.216000000000001,0.9999983588083499,-14.084541281556016
8.224,0.9999984322022264,-14.310990901063601
8.232,0.9999985047468088,-14.537439736472878
8.24,0.9999985764491173,-14.763887337228226
8.248000000000001,0.9999986473163581,-14.99033325293445
8.256,0.9999987173559234,-15.21677703336764
8.264,0.9999987865753859,-15.443218228485911
8.272,0.9999988549824981,-15.669656388440027
8.280000000000001,0.999998922585188,-15.896091063583977
8.288,0.9999989893915587,-16.122521804485746
8.296,0.9999990554098835,-16.348948161938093
8.304,0.9999991206486051,-16.575369686969083
8.312,0.9999991851163316,-16.80178593085262
8.32,0.9999992488218351,-17.028196445119384
8.328,0.9999993117740483,-17.254600781567127
8.336,0.9999993739820623,-17.480998492271624
8.344,0.9999994354551239,-17.70738912959689
8.352,0.999999496202633,-17.9337722462062
8.36,0.9999995562341402,-18.160147395072244
8.368,0.9999996155593441,-18.38651412948807
8.376,0.9999996741880893,-18.61287200307729
8.384,0.9999997321303632,-18.83922056980494
8.392,0.9999997893962931,-19.06555938398766
8.4,0.9999998459961453,-19.29188800030458
8.408,0.9999999019403212,-19.518205973807373
8.416,0.9999999572393545,-19.744512859931184
8.424,1.0,-19.970808214504647
8.432,1.0,-20.19709159376068
8.44,1.0000000000000002,-20.42336255434662
8.448,1.0,-20.649620653334864
8.456,0.9999999999999998,-20.87586544823296
8.464,1.0,-21.10209649699434
8.472,0.9999999999999999,-21.328313358028215
8.48,0.9999999999999999,-21.554515590210322
8.488,0.9999999999999999,-21.780702752892825
8.496,1.0000000000000002,-22.00687440591496
8.504,1.0,-22.233030109612887
8.512,1.0,-22.45916942483032
8.52,1.0,-22.68529191292834
8.528,0.9999999999999999,-22.911397135795923
8.536,1.0,-23.137484655859755
8.544,0.9999999999999999,-23.36355403609472
8.552,0.9999999999999999,-23.58960484003356
8.56,1.0,-23.815636631777426
8.568,0.9999999999999999,-24.041648976005494
8.576,1.0,-24.26764143798532
8.584,0.9999999999999999,-24.493613583582533
8.592,1.0,-24.719564979271116
8.6,0.9999999999999999,-24.94549519214296
8.608,1.0,-25.171403789918177
8.616,0.9999999999999999,-25.397290340954573
8.624,1.0,-25.62315441425784
8.632,1.0,-25.848995579491035
8.64,1.0,-26.07481340698472
8.648,0.9999999999999999,-26.300607467746303
8.656,0.9999999999999999,-26.526377333470133
8.664,1.0,-26.752122576546864
8.672,1.0,-26.977842770073384
8.68,1.0,-27.203537487862103
8.688,0.9999999999999998,-27.429206304450922
8.696,0.9999999999999999,-27.65484879511234
8.704,1.0,-27.88046453586339
8.712,1.0,-28.10605310347471
8.72,1.0,-28.33161407548034
8.728,1.0,-28.557147030186766
8.736,1.0,-28.782651546682647
8.744,1.0,-29.00812720484774
8.752,1.0,-29.2335735853626
8.76,1.0,-29.45899026971738
8.768,1.0,-29.684376840221507
8.776,1.0,-29.90973288001235
8.784,1.0,-30.135057973064846
8.792,1.0,-30.36035170420008
8.8,1.0,-30.585613659094808
8.808,1.0,-30.810843424290045
8.815999999999999,1.0,-31.036040587200304
8.824,1.0,-31.261204736122426
8.832,1.0,-31.486335460244373
8.84,1.0,-31.71143234965405
8.847999999999999,0.9999999999999999,-31.936494995348312
8.856,1.0,-32.16152298924152
8.864,1.0,-32.38651592417418
8.872,1.0,-32.61147339392167
8.879999999999999,0.9999999999999999,-32.83639499320292
8.888,1.0,-33.06128031768898
8.896,0.9999999999999999,-33.286128964011255
8.904,1.0,-33.51094052977022
8.911999999999999,1.0,-33.73571461354388
8.92,1.0000000000000002,-33.96045081489602
8.928,1.0,-34.18514873438446
8.936,1.0,-34.40980797356938
8.943999999999999,1.0,-34.634428135021736
8.952,1.0,-34.85900882233121
8.96,1.0,-35.08354964011434
8.968,1.0,-35.30805019402263
8.975999999999999,0.9999999999999999,-35.53251009075064
8.984,1.0,-35.756928938044005
8.992,0.9999999999999999,-35.98130634470708
9.0,1.0,-36.20564192061099
9.008,1.0,-36.429935276701556
9.016,1.0,-36.65418602500691
9.024000000000001,1.0,-36.87839377864515
9.032,1.0,-37.102558151832085
9.04,1.0,-37.326678759888864
9.048,1.0,-37.55075521924958
9.056000000000001,1.0,-37.77478714746845
9.064,0.9999999999999999,-37.99877416322756
9.072,1.0000000000000002,-38.22271588634418
9.08,1.0,-38.446611937778115
9.088000000000001,1.0,-38.67046193963871
9.096,0.9999999999999999,-38.8942655151924
9.104,0.9999999999999999,-39.118022288869746
9.112,0.9999999999999999,-39.3417318862725
9.120000000000001,0.9999999999999999,-39.56539393418058
9.128,1.0,-39.78900806055909
9.136,0.9999999999999999,-40.012573894565435
9.144,0.9999999999999999,-40.23609106655595
9.152000000000001,1.0,-40.45955920809266
9.16,1.0,-40.68297795195017
9.168,1.0,-40.906346932122354
9.176,0.9999999999999999,-41.12966578382894
9.184000000000001,1.0000000000000002,-41.352934143521935
9.192,1.0,-41.576151648892214
9.2,1.0,-41.79931793887608
9.208,0.9999999999999999,-42.0224326536615
9.216000000000001,1.0000000000000002,-42.24549543469431
9.224,0.9999999999999999,-42.46850592468464
9.232,1.0,-42.69146376761303
9.24,1.0,-42.91436860873659
9.248000000000001,0.9999999999999999,-43.13722009459486
9.256,0.9999999999999999,-43.36001787301597
9.264,1.0,-43.58276159312256
9.272,1.0,-43.8054509053376
9.280000000000001,0.9999999999999999,-44.02808546139004
9.288,1.0,-44.250664914320616
9.296,0.9999999999999999,-44.47318891848768
9.304,0.9999999999999999,-44.69565712957252
9.312000000000001,1.0,-44.9180692045849
9.32,1.0,-45.14042480186854
9.328,1.0,-45.362723581106636
9.336,0.9999999999999999,-45.584965203326945
9.344,1.0,-45.807149330907016
9.352,0.9999999999999999,-46.02927562757957
9.36,1.0,-46.25134375843719
9.368,0.9999999999999999,-46.473353389937806
9.376,1.0,-46.6953041899092
9.384,1.0,-46.91719582755418
9.392,0.9999999999999999,-47.13902797345508
9.4,1.0,-47.3608002995788
9.408,0.9999999999999999,-47.582512479281036
9.416,0.9999999999999998,-47.80416418731131
9.424,1.0,-48.0257550998169
9.432,1.0,-48.247284894347786
9.44,1.0,-48.4687532498605
9.448,1.0,-48.690159846722715
9.456,0.9999999999999999,-48.91150436671708
9.464,1.0,-49.132786493045685
9.472,1.0,-49.354005910333576
9.48,1.0,-49.57516230463311
9.488,1.0,-49.79625536342741
9.496,0.9999999999999999,-50.01728477563441
9.504,1.0,-50.23825023161017
9.512,1.0,-50.459151423152825
9.52,1.0,-50.679988043505574
9.528,0.9999999999999999,-50.90075978736059
9.536,0.9999999999999999,-51.12146635086178
9.544,1.0,-51.34210743160848
9.552,1.0,-51.562682728658025
9.56,1.0,-51.783191942529285
9.568,0.9999999999999999,-52.00363477520504
9.576,1.0,-52.2240109301353
9.584,1.0,-52.44432011223951
9.592,1.0,-52.66456202790961
9.6,1.0,-52.88473638501211
9.608,1.0,-53.10484289289085
9.616,1.0000000000000002,-53.324881262368955
9.624,0.9999999999999998,-53.544851205751286
9.632,0.9999999999999999,-53.764752436826235
9.64,1.0,-53.98458467086797
9.648,1.0,-54.2043476246379
9.656,0.9999999999999999,-54.42404101638679
9.664,1.0,-54.64366456585593
9.672,0.9999999999999999,-54.863217994279
9.68,1.0,-55.08270102438301
9.688,0.9999999999999999,-55.30211338038991
9.696,0.9999999999999999,-55.52145478801729
9.704,0.9999999999999999,-55.7407249744796
9.712,1.0,-55.9599236684887
9.72,0.9999999999999999,-56.179050600254826
9.728,0.9999999999999999,-56.39810550148676
9.736,1.0,-56.61708810539243
9.744,0.9999999999999999,-56.83599814667896
9.752,1.0,-57.05483536155286
9.76,1.0,-57.27359948771973
9.768,1.0,-57.49229026438415
9.776,1.0,-57.710907432249016
9.784,1.0,-57.92945073351512
9.792,0.9999999999999999,-58.147919911880116
9.8,1.0,-58.36631471253771
9.808,0.9999999999999999,-58.58463488217608
9.816,1.0,-58.802880168977076
9.824,1.0,-59.02105032261389
9.832,1.0,-59.2391450942497
9.84,0.9999999999999999,-59.45716423653534
9.847999999999999,1.0,-59.67510750360718
9.856,1.0,-59.89297465108442
9.864,0.9999999999999999,-60.11076543606634
