freq,mag,phase
6.0,0.9999951307981519,177.78423188624353
6.008,0.9999956906422174,177.4462369879435
6.016,0.9999962303164079,177.10818409077123
6.024,0.9999967501831486,176.77006744295926
6.032,0.9999972506005808,176.43188128276464
6.04,0.9999977319226054,176.09361983834273
6.048,0.9999981944989212,175.75527732761952
6.056,0.9999986386750647,175.41684795816323
6.064,0.9999990647924499,175.0783259270542
6.072,0.9999994731884063,174.73970542075423
6.08,0.9999998641962204,174.40098061497469
6.088,1.0,174.06214567454344
6.096,1.0,173.72319475327106
6.104,0.9999999999999999,173.3841219938162
6.112,0.9999999999999999,173.04492152754972
6.12,1.0000000000000002,172.70558747441834
6.128,1.0,172.36611394280717
6.136,1.0,172.026495029402
6.144,1.0,171.68672481905023
6.152,0.9999999999999999,171.3467973846215
6.16,0.9999999999999999,171.00670678686788
6.168,0.9999999999999999,170.66644707428287
6.176,1.0,170.32601228296053
6.184,1.0,169.98539643645367
6.192,1.0,169.64459354563178
6.2,0.9999999999999999,169.30359760853835
6.208,1.0,168.9624026102482
6.216,0.9999999999999999,168.62100252272413
6.224,1.0,168.2793913046734
6.232,0.9999999999999999,167.9375629014042
6.24,0.9999999999999998,167.59551124468155
6.248,0.9999999999999998,167.25323025258345
6.256,0.9999999999999999,166.91071382935678
6.264,0.9999999999999999,166.56795586527312
6.272,0.9999999999999999,166.22495023648472
6.28,1.0,165.88169080488035
6.288,1.0,165.53817141794164
6.296,1.0,165.1943859085992
6.304,0.9999999999999999,164.8503280950891
6.312,0.9999999999999999,164.50599178080986
6.32,0.9999999999999999,164.16137075417936
6.328,1.0,163.8164587884925
6.336,0.9999999999999999,163.4712496417793
6.344,0.9999999999999999,163.12573705666318
6.352,1.0,162.7799147602201
6.36,1.0,162.43377646383834
6.368,1.0000000000000002,162.0873158630789
6.376,0.9999999999999999,161.74052663753656
6.384,0.9999999999999999,161.39340245070187
6.392,1.0,161.04593694982395
6.4,1.0,160.69812376577437
6.408,0.9999999999999999,160.3499565129119
6.416,1.0,160.00142878894835
6.424,0.9999999999999999,159.65253417481563
6.432,1.0,159.30326623453396
6.44,1.0,158.9536185150815
6.448,1.0,158.60358454626507
6.456,1.0,158.25315784059256
6.464,0.9999999999999999,157.9023318931468
6.472,1.0,157.5511001814609
6.48,1.0,157.19945616539545
6.4879999999999995,1.0,156.84739328701724
6.496,0.9999999999999999,156.4949049704799
6.504,0.9999999999999999,156.14198462190674
6.5120000000000005,1.0000000000000002,155.78862562927478
6.52,0.9999999999999999,155.434821362302
6.5280000000000005,1.0,155.08056517233567
6.536,1.0,154.7258503922438
6.5440000000000005,0.9999999999999998,154.37067033630805
6.552,1.0,154.0150183001203
6.5600000000000005,1.0,153.65888756048005
6.568,1.0,153.30227137529664
6.5760000000000005,0.9999999999999999,152.94516298349183
6.584,1.0,152.58755560490727
6.592,1.0,152.22944244021343
6.6,0.9999999999999998,151.87081667082236
6.608,1.0,151.51167145880348
6.616,1.0,151.15199994680228
6.624,0.9999999999999999,150.7917952579628
6.632,1.0,150.4310504958533
6.64,0.9999999999999999,150.0697587443956
6.648,0.9999998691665489,149.70791306779822
6.656,0.9999996641976225,149.34550651049312
6.664,0.9999994575253082,148.98253209707673
6.672,0.9999992492725271,148.61898283225457
6.68,0.9999990395603097,148.25485170079062
6.688,0.9999988285078102,147.89013166746048
6.696,0.9999986162323302,147.52481567700937
6.704,0.9999984028493334,147.15889665411444
6.712,0.9999981884724666,146.79236750335215
6.72,0.9999979732135765,146.42522110917008
6.728,0.9999977571827281,146.05745033586408
6.736,0.9999975404882216,145.68904802756032
6.744,0.9999973232366113,145.3200070082029
6.752,0.9999971055327218,144.9503200815467
6.76,0.9999968874796649,144.57998003115574
6.768,0.999996669178857,144.2089796204076
6.776,0.9999964507300353,143.83731159250348
6.784,0.9999962322312747,143.46496867048444
6.792,0.9999960137790026,143.09194355725379
6.8,0.9999957954680174,142.7182289356059
6.808,0.9999955773915018,142.34381746826165
6.816,0.9999953596410394,141.96870179791057
6.824,0.9999951423066296,141.59287454725975
6.832,0.9999949254767035,141.21632831909017
6.84,0.9999947092381383,140.83905569631986
6.848,0.9999944936762719,140.46104924207486
6.856,0.9999942788749174,140.08230149976785
6.864,0.9999940649163787,139.70280499318415
6.872,0.9999938518814622,139.3225522265764
6.88,0.9999936398494929,138.9415356847669
6.888,0.9999934288983273,138.5597478332588
6.896,0.9999932191043668,138.17718111835546
6.904,0.9999930105425707,137.79382796728936
6.912,0.9999928032864713,137.40968078835914
6.92,0.9999925974081842,137.0247319710767
6.928,0.9999923929784227,136.6389738863234
6.936,0.9999921900665095,136.252398886516
6.944,0.999991988740391,135.86499930578248
6.952,0.9999917890666462,135.47676746014832
6.96,0.9999915911105022,135.08769564773266
6.968,0.9999913949358434,134.69777614895574
6.976,0.9999912006052252,134.3070012267563
6.984,0.9999910081798834,133.91536312682126
6.992,0.9999908177197477,133.52285407782554
7.0,0.9999906292834513,133.12946629168442
7.008,0.9999904429283417,132.73519196381727
7.016,0.9999902587104936,132.3400232734235
7.024,0.9999900766847165,131.94395238377086
7.032,0.9999898969045671,131.5469714424965
7.04,0.9999897194223589,131.14907258192085
7.048,0.9999895442891731,130.7502479193747
7.056,0.9999893715548671,130.35048955753948
7.064,0.999989201268086,129.94978958480192
7.072,0.9999890334762701,129.54814007562186
7.08,0.9999888682256663,129.1455330909152
7.088,0.9999887055613356,128.7419606784507
7.096,0.9999885455271642,128.33741487326228
7.104,0.9999883881658709,127.93188769807607
7.112,0.9999882335190161,127.52537116375309
7.12,0.9999880816270111,127.11785726974779
7.128,0.9999879325291268,126.70933800458248
7.136,0.9999877862634995,126.29980534633839
7.144,0.999987642867143,125.88925126316312
7.152,0.999987502375953,125.47766771379557
7.16,0.999987364824718,125.0650466481077
7.168,0.999987230247124,124.65138000766426
7.176,0.9999870986757662,124.23665972630057
7.184,0.999986970142151,123.82087773071831
7.192,0.9999868446767087,123.40402594110024
7.2,0.9999867223087967,122.98609627174366
7.208,0.9999866030667091,122.5670806317135
7.216,0.9999864869776814,122.14697092551464
7.224,0.9999863740678991,121.72575905378467
7.232,0.9999862643625042,121.3034369140066
7.24,0.9999861578856004,120.8799964012424
7.248,0.9999860546602589,120.45542940888758
7.256,0.9999859547085302,120.0297278294473
7.264,0.9999858580514408,119.60288355533365
7.272,0.999985764709008,119.17488847968566
7.28,0.999985674700241,118.74573449721133
7.288,0.9999855880431481,118.31541350505252
7.296,0.999985504754741,117.88391740367298
7.304,0.9999854248510426,117.4512380977699
7.312,0.9999853483470917,117.01736749720921
7.32,0.9999852752569462,116.58229751798515
7.328,0.9999852055936925,116.14602008320436
7.336,0.9999851393694456,115.70852712409479
7.344,0.9999850765953574,115.26981058103993
7.352,0.9999850172816234,114.82986240463885
7.36,0.9999849614374803,114.38867455679164
7.368,0.9999849090712192,113.94623901181191
7.376,0.9999848601901853,113.50254775756527
7.384,0.9999848148007843,113.05759279663522
7.392,0.9999847729084846,112.61136614751632
7.4,0.9999847345178253,112.16385984583485
7.4079999999999995,0.9999846996324182,111.71506594559794
7.416,0.9999846682549504,111.26497652047036
7.4239999999999995,0.9999846403871927,110.81358366508111
7.432,0.9999846160300015,110.36087949635757
7.4399999999999995,0.999984595183322,109.90685615489056
7.448,0.9999845778461935,109.45150580632772
7.4559999999999995,0.9999845640167518,108.99482064279802
7.464,0.9999845536922364,108.5367928843654
7.4719999999999995,0.99998454686899,108.07741478051447
7.48,0.9999845435424655,107.6166786116652
7.4879999999999995,0.9999845437072291,107.15457669072093
7.496,0.9999845473569619,106.69110136464577
7.504,0.9999845544844664,106.22624501607564
7.5120000000000005,0.9999845650816693,105.76000006495943
7.52,0.9999845791396245,105.2923589702342
7.5280000000000005,0.9999845966485166,104.8233142315313
7.536,0.999984617597665,104.35285839091645
7.5440000000000005,0.9999846419755278,103.88098403466176
7.552,0.9999846697697045,103.40768379505191
7.5600000000000005,0.9999847009669407,102.93295035222245
7.568,0.9999847355531305,102.45677643603302
7.5760000000000005,0.9999847735133197,101.97915482797289
7.584,0.9999848148317119,101.50007836310171
7.5920000000000005,0.9999848594916698,101.01953993202281
7.6,0.9999849074757189,100.53753248289222
7.6080000000000005,0.9999849587655523,100.05404902346032
7.616,0.9999850133420337,99.56908262314933
7.6240000000000006,0.9999850711852012,99.08262641516362
7.632,0.9999851322742713,98.59467359863633
7.640000000000001,0.9999851965876416,98.10521744080842
7.648,0.9999852641028972,97.61425127924427
7.656000000000001,0.9999853347968121,97.12176852407977
7.664,0.9999854086453535,96.62776266030698
7.672,0.9999854856236877,96.1322272500911
7.68,0.9999855657061825,95.63515593512354
7.688,0.9999856488664118,95.13654243900827
7.696,0.9999857350771608,94.63638056968247
7.704,0.999985824310429,94.13466422187138
7.712,0.9999859165374357,93.6313873795767
7.72,0.9999860117286243,93.12654411859873
7.728,0.9999861098536679,92.62012860909184
7.736,0.9999862108814718,92.11213511815293
7.744,0.9999863147801819,91.60255801244301
7.752,0.9999864215171876,91.09139176084078
7.76,0.9999865310591265,90.57863093712872
7.768,0.9999866433718926,90.06427022271082
7.776,0.9999867584206382,89.54830440936145
7.784,0.9999868761697834,89.03072840200528
7.792,0.9999869965830198,88.51153722152745
7.8,0.9999871196233165,87.99072600761349
7.808,0.999987245252927,87.46829002161864
7.816,0.9999873734333963,86.94422464946558
7.824,0.9999875041255667,86.4185254045704
7.832,0.9999876372895842,85.89118793079557
7.84,0.9999877728849073,85.3622080054297
7.848,0.9999879108703122,84.83158154219291
7.856,0.9999880512039021,84.29930459426727
7.864,0.9999881938431142,83.76537335735124
7.872,0.9999883387447276,83.22978417273735
7.88,0.9999884858648718,82.69253353041212
7.888,0.9999886351590358,82.15361807217721
7.896,0.9999887865820749,81.61303459479065
7.904,0.999988940088222,81.07078005312731
7.912,0.9999890956310957,80.52685156335728
7.92,0.9999892531637103,79.98124640614091
7.928,0.9999894126384856,79.43396202983945
7.936,0.9999895740072562,78.88499605373987
7.944,0.9999897372212834,78.3343462712926
7.952,0.9999899022312657,77.78201065336071
7.96,0.9999900689873487,77.22798735147904
7.968,0.9999902374391376,76.67227470112208
7.976,0.9999904075357089,76.11487122497854
7.984,0.999990579225621,75.55577563623157
7.992,0.9999907524569295,74.99498684184252
8.0,0.9999909271771967,74.43250394583674
8.008,0.9999911033335068,73.86832625258974
8.016,0.9999912808724783,73.30245327011127
8.024000000000001,0.999991459740278,72.73488471332698
8.032,0.9999916398826351,72.16562050735372
8.04,0.9999918212448556,71.5946607907676
8.048,0.9999920037718377,71.02200591886313
8.056000000000001,0.999992187408086,70.44765646690082
8.064,0.9999923720977278,69.87161323334094
8.072,0.9999925577845281,69.2938772430611
8.08,0.9999927444119073,68.7144497505567
8.088000000000001,0.9999929319229566,68.13333224312065
8.096,0.9999931202604556,67.55052644400038
8.104,0.9999933093668898,66.96603431552933
8.112,0.9999934991844679,66.37985806223186
8.120000000000001,0.9999936896551405,65.79200013389799
8.128,0.9999938807206177,65.2024632286252
8.136,0.9999940723223889,64.61125029582516
8.144,0.9999942644017428,64.01836453919326
8.152000000000001,0.9999944568997841,63.423809419637955
8.16,0.999994649757457,62.82758865816639
8.168,0.9999948429155625,62.22970623872438
8.176,0.9999950363147824,61.6301664109884
8.184000000000001,0.9999952298956964,61.028973693106124
8.192,0.999995423598807,60.42613287438249
8.2,0.9999956173645593,59.82164901790857
8.208,0.9999958111333639,59.21552746313109
8.216000000000001,0.9999960048456186,58.60777382835917
8.224,0.9999961984417318,57.99839401320479
8.232,0.9999963918621454,57.387394200954425
8.24,0.9999965850473579,56.774780860869555
8.248000000000001,0.9999967779379482,56.160560750412614
8.256,0.9999969704746,55.54474091739448
8.264,0.9999971625981243,54.9273287020415
8.272,0.9999973542494865,54.30833173897918
8.280000000000001,0.999997545369829,53.6877579591293
8.288,0.9999977359004967,53.06561559151659
8.296,0.9999979257830633,52.44191316498286
8.304,0.9999981149593549,51.81665950980579
8.312,0.9999983033714765,51.189863759219215
8.32,0.9999984909618381,50.56153535083035
8.328,0.9999986776731806,49.93168402793457
8.336,0.9999988634486009,49.300319840720235
8.344,0.9999990482315786,48.6674531473655
8.352,0.9999992319660035,48.03309461501948
8.36,0.9999994145962007,47.39725522066981
8.368,0.9999995960669567,46.75994625188871
8.376,0.9999997763235479,46.12117930746012
8.384,0.999999955311765,45.48096629788001
8.392,1.0,44.839319445732286
8.4,1.0,44.196251285932846
8.408,1.0,43.551774665844114
8.416,1.0000000000000002,42.905902745252725
8.424,1.0,42.25864899621316
8.432,1.0,41.610027202749684
8.44,0.9999999999999999,40.96005146041978
8.448,1.0,40.30873617573184
8.456,0.9999999999999999,39.656096065419995
8.464,0.9999999999999998,39.002146155569434
8.472,1.0,38.34690178059501
8.48,1.0,37.69037858206709
8.488,1.0,37.03259250738712
8.496,1.0,36.37355980830742
8.504,1.0,35.71329703929817
8.512,0.9999999999999999,35.05182105575568
8.52,1.0,34.38914901205562
8.528,0.9999999999999999,33.72529835944561
8.536,1.0,33.0602868437807
8.544,0.9999999999999999,32.39413250309703
8.552,1.0,31.726853665026834
8.56,1.0,31.058468944050592
8.568,1.0,30.38899723859033
8.576,1.0000000000000002,29.718457727939214
8.584,1.0,29.046869869032452
8.592,1.0,28.374253393054705
8.6,1.0,27.700628301889314
8.608,0.9999999999999999,27.02601486440511
8.616,1.0,26.35043361258606
8.624,1.0,25.673905337500063
8.632,0.9999999999999999,24.99645108511261
8.64,1.0,24.318092151941634
8.648,1.0,23.63885008055984
8.656,0.9999999999999999,22.95874665494113
8.664,1.0,22.277803895657737
8.672,1.0,21.596044054924928
8.68,0.9999999999999999,20.913489611500456
8.688,0.9999999999999999,20.23016326543573
8.696,1.0000000000000002,19.54608793268633
8.704,1.0,18.861286739579207
8.712,0.9999999999999998,18.175783017144393
8.72,0.9999999999999999,17.489600295309042
8.728,0.9999999999999999,16.802762296961866
8.736,1.0,16.115292931886184
8.744,1.0,15.427216290569767
8.752,0.9999999999999999,14.738556637890309
8.76,1.0,14.049338406684813
8.768,1.0,13.359586191201961
8.776,1.0,12.669324740446303
8.784,0.9999999999999999,11.978578951413413
8.792,1.0,11.287373862225136
8.8,1.0,10.595734645164395
8.808,0.9999999999999999,9.903686599618966
8.815999999999999,1.0,9.211255144934036
8.824,1.0,8.518465813182068
8.832,1.0,7.825344241853203
8.84,1.0,7.131916166470602
8.847999999999999,0.9999999999999999,6.438207413136348
8.856,0.9999999999999999,5.744243891013722
8.864,0.9999999999999999,5.050051584750385
8.872,1.0,4.355656546847145
8.879999999999999,1.0,3.661084889978291
8.888,1.0,2.9663627792695353
8.896,0.9999999999999999,2.271516424538393
8.904,1.0,1.5765720725019556
8.911999999999999,0.9999999999999999,0.88155599895821
8.92,1.0,0.18649450094714634
8.928,0.9999999999999999,-0.5085861111033306
8.936,0.9999999999999999,-1.2036595212416574
8.943999999999999,0.9999999999999999,-1.8986994158607393
8.952,0.9999999999999999,-2.593679491563655
8.96,1.0,-3.288573463021915
8.968,0.9999999999999999,-3.9833550708211685
8.975999999999999,1.0,-4.6779980892881765
8.984,0.9999999999999999,-5.372476334292767
8.992,1.0,-6.066763671019771
9.0,0.9999999999999999,-6.7608340217061365
9.008,0.9999999999999999,-7.454661373336942
9.016,0.9999999999999999,-8.148219785294383
9.024000000000001,1.0000000000000002,-8.84148339695492
9.032,1.0,-9.534426435229857
9.04,1.0,-10.22702322204356
9.048,1.0,-10.919248181743527
9.056000000000001,1.0,-11.611075848437842
9.064,1.0,-12.302480873255693
9.072,1.0,-12.993438031525471
9.08,1.0,-13.68392222986498
9.088000000000001,0.9999999999999999,-14.373908513179948
9.096,1.0,-15.063372071566713
9.104,1.0,-15.752288247114116
9.112,0.9999999999999998,-16.44063254059986
9.120000000000001,0.9999999999999999,-17.128380618077603
9.128,0.9999999999999999,-17.815508317351522
9.136,1.0,-18.501991654333874
9.144,0.9999999999999999,-19.187806829281186
9.152000000000001,1.0,-19.872930232906146
9.16,1.0,-20.557338452362433
9.168,1.0,-21.241008277098558
9.176,1.0,-21.923916704577042
9.184000000000001,1.0,-22.606040945856634
9.192,1.0,-23.287358431035365
9.2,1.0,-23.967846814551336
9.208,1.0,-24.647483980337977
9.216000000000001,0.9999999999999999,-25.326248046832347
9.224,1.0,-26.004117371834933
9.232,1.0,-26.68107055721821
9.24,0.9999999999999999,-27.357086453481937
9.248000000000001,1.0,-28.032144164153895
9.256,0.9999999999999999,-28.706223050035497
9.264,1.0,-29.379302733290125
9.272,1.0,-30.051363101372914
9.280000000000001,0.9999999999999999,-30.722384310801264
9.288,0.9999999999999999,-31.39234679076623
9.296,1.0000000000000002,-32.06123124658336
9.304,1.0,-32.72901866298218
9.312000000000001,1.0,-33.39569030723452
9.32,0.9999999999999999,-34.061227732122305
9.328,0.9999999999999999,-34.725612778744114
9.336,1.0,-35.38882757916011
9.344,0.9999999999999998,-36.05085455887632
9.352,1.0,-36.711676439170375
9.36,0.9999999999999999,-37.37127623925543
9.368,0.9999999999999999,-38.02963727828769
9.376,1.0000000000000002,-38.68674317721419
9.384,0.9999999999999999,-39.34257786046583
9.392,1.0,-39.997125557492794
9.4,1.0,-40.65037080414811
9.408,0.9999999999999999,-41.3022984439159
9.416,1.0,-41.95289362899097
9.424,1.0,-42.60214182120646
9.432,0.9999999999999999,-43.25002879281591
9.44,1.0,-43.896540627127095
9.448,1.0,-44.54166371899448
9.456,1.0,-45.185384775166995
9.464,0.9999999999999999,-45.82769081449883
9.472,1.0,-46.46856916802027
9.48,0.9999999999999999,-47.10800747887553
9.488,0.9999999999999999,-47.74599370212564
9.496,1.0,-48.38251610442333
9.504,1.0,-49.01756326355776
9.512,0.9999999999999999,-49.65112406787645
9.52,1.0,-50.28318771558237
9.528,1.0,-50.91374371391335
9.536,0.9999999999999999,-51.54278187820238
9.544,1.0,-52.17029233082586
9.552,0.9999999999999999,-52.796265500038004
9.56,0.9999999999999999,-53.42069211869918
9.568,0.9999999999999999,-54.043563222896225
9.576,0.9999999999999999,-54.664870150462306
9.584,0.9999999999999999,-55.28460453939493
9.592,1.0,-55.90275832617916
9.6,1.0,-56.51932374401508
9.608,0.9999999999999999,-57.13429332095669
9.616,1.0,-57.74765987796046
9.624,0.9999999999999999,-58.359416526851916
9.632,1.0,-58.96955666820775
9.64,1.0,-59.578073989161716
9.648,1.0,-60.1849624611325
9.656,0.9999999999999999,-60.790216337480985
9.664,1.0,-61.393830151095685
9.672,1.0,-61.995798711913565
9.68,0.9999999999999999,-62.59611710437465
9.688,1.0,-63.19478068481819
9.696,0.9999999999999999,-63.79178507881834
9.704,0.9999999999999999,-64.38712617846714
9.712,0.9999999999999999,-64.98080013960278
9.72,1.0,-65.57280337899063
9.728,0.9999999999999999,-66.1631325714556
9.736,1.0,-66.75178464697237
9.744,1.0,-67.33875678771241
9.752,1.0,-67.92404642505456
9.76,1.0,-68.5076512365575
9.768,1.0,-69.08956914290103
9.776,1.0,-69.66979830479418
9.784,0.9999999999999999,-70.24833711985758
9.792,1.0,-70.82518421947732
9.8,0.9999999999999999,-71.40033846563787
9.808,0.9999999999999999,-71.97379894773154
9.816,1.0,-72.54556497935134
9.824,1.0,-73.1156360950652
9.832,0.9999999999999999,-73.68401204717796
9.84,0.9999999999999999,-74.25069280247905
9.847999999999999,1.0,-74.81567853898203
9.856,1.0,-75.37896964265491
9.864,1.0,-75.94056670414442
9.872,0.9999999999999999,-76.50047051549693
9.879999999999999,1.0,-77.05868206687693
9.888,1.0,-77.61520254328484
9.896,0.9999999999999999,-78.17003332127615
9.904,1.0,-78.72317596568428
9.911999999999999,1.0,-79.27463222634826
9.92,0.9999999999999999,-79.82440403484642
9.928,0.9999999999999998,-80.37249350123808
9.936,1.0,-80.91890291081525
9.943999999999999,1.0,-81.46363472086554
9.952,1.0,-82.00669155744679
9.96,1.0,-82.54807621217564
9.968,1.0,-83.08779163903178
9.975999999999999,1.0,-83.62584095117833
