freq,mag,phase
6.0,0.9999934105331144,-12.899895262139527
6.008,0.9999966135262681,-13.230979795209588
6.016,0.999999694608007,-13.562016418458583
6.024,1.0,-13.893003010415976
6.032,1.0,-14.223937453638909
6.04,1.0,-14.554817634826872
6.048,1.0,-14.88564144493583
6.056,0.9999999999999999,-15.216406779291818
6.064,0.9999999999999999,-15.547111537704048
6.072,0.9999999999999998,-15.877753624577489
6.08,1.0,-16.20833094902475
6.088,0.9999999999999998,-16.538841424977605
6.096,1.0,-16.869282971297764
6.104,0.9999999999999999,-17.19965351188708
6.112,0.9999999999999998,-17.529950975797206
6.12,1.0,-17.860173297338505
6.128,1.0,-18.19031841618847
6.136,0.9999999999999999,-18.52038427749935
6.144,0.9999999999999999,-18.85036883200519
6.152,0.9999999999999999,-19.180270036128135
6.16,1.0,-19.510085852084146
6.168,1.0,-19.839814247987814
6.176,1.0,-20.169453197956706
6.184,0.9999999999999999,-20.49900068221476
6.192,1.0,-20.82845468719508
6.2,1.0,-21.15781320564187
6.208,1.0,-21.48707423671171
6.216,1.0,-21.816235786074
6.224,0.9999999999999999,-22.145295866010542
6.232,1.0,-22.4742524955145
6.24,1.0,-22.803103700388345
6.248,0.9999999999999999,-23.131847513341146
6.256,0.9999999999999998,-23.460481974084914
6.264,0.9999999999999999,-23.78900512943017
6.272,1.0,-24.117415033380656
6.28,1.0,-24.445709747227095
6.288,1.0,-24.773887339640247
6.296,0.9999999999999999,-25.101945886762877
6.304,1.0,-25.429883472301018
6.312,1.0,-25.757698187614203
6.32,1.0,-26.08538813180485
6.328,1.0,-26.41295141180675
6.336,1.0,-26.74038614247253
6.344,1.0,-27.06769044666027
6.352,0.9999999999999999,-27.394862455319164
6.36,1.0,-27.721900307574177
6.368,1.0,-28.048802150809827
6.376,0.9999999999999999,-28.375566140752905
6.384,0.9999999999999999,-28.70219044155427
6.392,1.0,-29.028673225869728
6.4,1.0000000000000002,-29.355012674939776
6.408,0.9999999999999999,-29.68120697866844
6.416,0.9999999999999999,-30.00725433570117
6.424,0.9999999999999999,-30.333152953501596
6.432,1.0,-30.658901048427317
6.44,1.0,-30.98449684580481
6.448,1.0,-31.309938580003003
6.456,1.0,-31.635224494506218
6.464,1.0,-31.960352841985717
6.472,1.0,-32.28532188437038
6.48,1.0,-32.61012989291644
6.4879999999999995,1.0,-32.934775148275854
6.496,1.0,-33.25925594056407
6.504,0.9999999999999999,-33.5835705694261
6.5120000000000005,0.9999999999999999,-33.907717344102466
6.52,1.0,-34.23169458349286
6.5280000000000005,1.0,-34.55550061622009
6.536,1.0,-34.879133780691646
6.5440000000000005,0.9999999999999999,-35.202592425161356
6.552,0.9999999999999999,-35.52587490778896
6.5600000000000005,0.9999999999999999,-35.8489795966995
6.568,1.0,-36.1719048700408
6.5760000000000005,1.0,-36.49464911604062
6.584,1.0,-36.81721073306198
6.592,1.0,-37.139588129658236
6.6,0.9999999999999999,-37.46177972462622
6.608,1.0,-37.78378394705891
6.616,1.0,-38.105599236396664
6.624,0.9999999999999999,-38.427224042477576
6.632,1.0,-38.748656825586565
6.64,1.0,-39.069896056503524
6.648,0.9999999999999999,-39.39094021655025
6.656,1.0,-39.71178779763633
6.664,1.0000000000000002,-40.03243730230401
6.672,1.0,-40.35288724377185
6.68,1.0,-40.67313614597725
6.688,1.0,-40.9931825436182
6.696,0.9999999999999999,-41.313024982193454
6.704,1.0,-41.63266201804211
6.712,1.0,-41.95209221838166
6.72,1.0,-42.271314161345295
6.728,1.0,-42.59032643601793
6.736,0.9999989948916367,-42.90912764247126
6.744,0.9999977948140378,-43.22771639179763
6.752,0.9999965983060702,-43.546091306142884
6.76,0.9999954059776275,-43.86425101873817
6.768,0.9999942184247275,-44.182194173930625
6.776,0.9999930362296195,-44.49991942721296
6.784,0.9999918599608952,-44.817425445252105
6.792,0.9999906901735953,-45.13471090591658
6.8,0.9999895274093211,-45.45177449830306
6.808,0.9999883721963467,-45.76861492276168
6.816,0.999987225049728,-46.085230890920336
6.824,0.9999860864714198,-46.40162112570805
6.832,0.999984956950384,-46.71778436137708
6.84,0.9999838369627079,-47.033719343524176
6.848,0.9999827269717163,-47.349424829110745
6.856,0.9999816274280883,-47.66489958648193
6.864,0.999980538769973,-47.98014239538463
6.872,0.9999794614231055,-48.29515204698474
6.88,0.9999783958009251,-48.60992734388301
6.888,0.9999773423046914,-48.92446710013015
6.896,0.9999763013236048,-49.23877014124088
6.904,0.9999752732349227,-49.55283530420688
6.912,0.9999742584040807,-49.86666143750887
6.92,0.9999732571848109,-50.18024740112755
6.928,0.9999722699192618,-50.49359206655377
6.936,0.9999712969381203,-50.806694316797405
6.944,0.9999703385607301,-51.11955304639561
6.952,0.9999693950952145,-51.43216716141983
6.96,0.9999684668385973,-51.744535579481955
6.968,0.9999675540769237,-52.056657229739564
6.976,0.999966657085383,-52.36853105290008
6.984,0.9999657761284308,-52.68015600122414
6.992,0.9999649114599108,-52.991531038527974
7.0,0.9999640633231777,-53.302655140184655
7.008,0.9999632319512193,-53.613527293124854
7.016,0.9999624175667797,-53.92414649583625
7.024,0.9999616203824828,-54.23451175836224
7.032,0.9999608406009544,-54.54462210229979
7.04,0.9999600784149452,-54.85447656079619
7.048,0.999959334007455,-55.16407417854515
7.056,0.9999586075518545,-55.47341401178181
7.064,0.9999578992120097,-55.78249512827707
7.072,0.9999572091424038,-56.0913166073309
7.08,0.9999565374882612,-56.399877539764866
7.088,0.9999558843856695,-56.708177027913784
7.096,0.9999552499617043,-57.016214185616505
7.104,0.9999546343345499,-57.32398813820597
7.112,0.9999540376136222,-57.631498022498285
7.12,0.9999534598996931,-57.93874298678112
7.128,0.9999529012850105,-58.24572219080119
7.136,0.999952361853422,-58.55243480575098
7.144,0.9999518416804967,-58.85888001425462
7.152,0.9999513408336459,-59.16505701035323
7.16,0.9999508593722455,-59.47096499948896
7.168,0.9999503973477567,-59.77660319848885
7.176,0.9999499548038473,-60.08197083554754
7.184,0.9999495317765126,-60.38706715020934
7.192,0.9999491282941941,-60.69189139334959
7.2,0.9999487443779022,-60.99644282715525
7.208,0.9999483800413322,-61.3007207251048
7.216,0.9999480352909864,-61.604724371947285
7.224,0.9999477101262924,-61.90845306368086
7.232,0.9999474045397199,-62.211906107530496
7.24,0.9999471185169007,-62.51508282192499
7.248,0.999946852036745,-62.817982536473366
7.256,0.999946605071559,-63.12060459194053
7.264,0.9999463775871609,-63.422948340222305
7.272,0.9999461695429978,-63.72501314431979
7.28,0.9999459808922607,-64.02679837831305
7.288,0.9999458115820001,-64.32830342733419
7.296,0.9999456615532398,-64.62952768753982
7.304,0.9999455307410923,-64.93047056608287
7.312,0.9999454190748703,-65.23113148108378
7.32,0.9999453264782014,-65.53150986160104
7.328,0.9999452528691395,-65.83160514760135
7.336,0.9999451981602759,-66.13141678992885
7.344,0.9999451622588523,-66.43094425027408
7.352,0.999945145066869,-66.73018700114224
7.36,0.9999451464811965,-67.02914452582083
7.368,0.9999451663936838,-67.32781631834689
7.376,0.9999452046912668,-67.62620188347356
7.384,0.9999452612560766,-67.9243007366362
7.392,0.9999453359655468,-68.22211240391792
7.4,0.9999454286925193,-68.51963642201463
7.4079999999999995,0.99994553930535,-68.81687233819957
7.416,0.9999456676680155,-69.11381971028749
7.4239999999999995,0.9999458136402151,-69.41047810659782
7.432,0.9999459770774759,-69.70684710591829
7.4399999999999995,0.9999461578312557,-70.00292629746693
7.448,0.9999463557490441,-70.29871528085478
7.4559999999999995,0.9999465706744648,-70.59421366604705
7.464,0.9999468024473761,-70.8894210733249
7.4719999999999995,0.99994705090397,-71.18433713324558
7.48,0.9999473158768717,-71.47896148660355
7.4879999999999995,0.9999475971952382,-71.77329378438972
7.496,0.9999478946848553,-72.06733368775164
7.504,0.9999482081682349,-72.36108086795203
7.5120000000000005,0.9999485374647089,-72.65453500632812
7.52,0.9999488823905271,-72.94769579424947
7.5280000000000005,0.9999492427589493,-73.24056293307648
7.536,0.9999496183803394,-73.53313613411746
7.5440000000000005,0.9999500090622574,-73.82541511858648
7.552,0.9999504146095524,-74.11739961755968
7.5600000000000005,0.9999508348244517,-74.40908937193248
7.568,0.999951269506652,-74.70048413237511
7.5760000000000005,0.9999517184534089,-74.99158365928925
7.584,0.9999521814596234,-75.28238772276293
7.5920000000000005,0.9999526583179309,-75.57289610252643
7.6,0.9999531488187878,-75.86310858790672
7.6080000000000005,0.9999536527505555,-76.15302497778262
7.616,0.9999541698995879,-76.44264508053875
7.6240000000000006,0.9999547000503127,-76.73196871402017
7.632,0.9999552429853159,-77.02099570548562
7.640000000000001,0.9999557984854239,-77.30972589156178
7.648,0.9999563663297842,-77.59815911819598
7.656000000000001,0.9999569462959466,-77.88629524060985
7.664,0.9999575381599416,-78.17413412325169
7.672,0.9999581416963605,-78.46167563974952
7.68,0.9999587566784314,-78.74891967286314
7.688,0.9999593828780975,-79.03586611443654
7.696,0.9999600200660923,-79.3225148653498
7.704,0.9999606680120151,-79.60886583547088
7.712,0.9999613264844042,-79.89491894360715
7.72,0.9999619952508111,-80.18067411745692
7.728,0.9999626740778724,-80.46613129356052
7.736,0.9999633627313814,-80.7512904172515
7.744,0.9999640609763588,-81.03615144260738
7.752,0.9999647685771215,-81.32071433240041
7.76,0.9999654852973524,-81.60497905804826
7.768,0.9999662109001677,-81.88894559956432
7.776,0.9999669451481837,-82.1726139455081
7.784,0.9999676878035835,-82.45598409293534
7.792,0.9999684386281807,-82.73905604734806
7.8,0.999969197383486,-83.02182982264456
7.808,0.999969963830768,-83.30430544106918
7.816,0.9999707377311172,-83.58648293316206
7.824,0.999971518845508,-83.86836233770875
7.832,0.9999723069348572,-84.14994370168972
7.84,0.9999731017600859,-84.43122708022989
7.848,0.9999739030821779,-84.71221253654792
7.856,0.9999747106622373,-84.99290014190561
7.864,0.9999755242615457,-85.273289975557
7.872,0.9999763436416181,-85.55338212469773
7.88,0.9999771685642603,-85.83317668441406
7.888,0.9999779987916202,-86.1126737576319
7.896,0.9999788340862441,-86.39187345506603
7.904,0.9999796742111284,-86.67077589516899
7.912,0.9999805189297714,-86.94938120408003
7.92,0.9999813680062245,-87.22768951557414
7.928,0.9999822212051427,-87.50570097101098
7.936,0.9999830782918335,-87.78341571928378
7.944,0.999983939032306,-88.06083391676825
7.952,0.9999848031933174,-88.33795572727156
7.96,0.9999856705424214,-88.61478132198121
7.968,0.9999865408480118,-88.89131087941394
7.976,0.9999874138793714,-89.16754458536477
7.984,0.9999882894067117,-89.44348263285585
7.992,0.9999891672012196,-89.7191252220856
8.0,0.9999900470351,-89.99447256037755
8.008,0.9999909286816154,-90.2695248621295
8.016,0.9999918119151284,-90.54428234876275
8.024000000000001,0.9999926965111426,-90.81874524867092
8.032,0.9999935822463408,-91.09291379716932
8.04,0.9999944688986238,-91.36678823644431
8.048,0.9999953562471477,-91.64036881550251
8.056000000000001,0.9999962440723635,-91.91365579011996
8.064,0.9999971321560498,-92.18664942279182
8.072,0.9999980202813505,-92.45934998268183
8.08,0.9999989082328091,-92.73175774557185
8.088000000000001,0.9999997957964019,-93.00387299381146
8.096,1.0,-93.27569601626769
8.104,0.9999999999999999,-93.54722710827508
8.112,1.0,-93.81846657158547
8.120000000000001,1.0,-94.08941471431785
8.128,0.9999999999999999,-94.36007185090868
8.136,1.0,-94.63043830206219
8.144,1.0,-94.90051439470056
8.152000000000001,1.0,-95.17030046191437
8.16,1.0,-95.43979684291314
8.168,1.0,-95.70900388297632
8.176,0.9999999999999999,-95.97792193340372
8.184000000000001,0.9999999999999999,-96.2465513514666
8.192,1.0,-96.5148925003586
8.2,1.0,-96.78294574914726
8.208,1.0,-97.05071147272515
8.216000000000001,1.0,-97.31819005176119
8.224,0.9999999999999999,-97.58538187265242
8.232,0.9999999999999999,-97.85228732747586
8.24,0.9999999999999999,-98.1189068139404
8.248000000000001,1.0,-98.38524073533857
8.256,1.0,-98.65128950049899
8.264,0.9999999999999999,-98.91705352373887
8.272,1.0,-99.18253322481638
8.280000000000001,1.0,-99.44772902888322
8.288,0.9999999999999999,-99.71264136643764
8.296,1.0,-99.97727067327759
8.304,1.0,-100.24161739045375
8.312,0.9999999999999999,-100.50568196422284
8.32,0.9999999999999999,-100.76946484600145
8.328,1.0,-101.03296649231937
8.336,1.0,-101.29618736477403
8.344,1.0,-101.55912792998396
8.352,0.9999999999999999,-101.82178865954374
8.36,1.0,-102.08417002997778
8.368,0.9999999999999999,-102.34627252269571
8.376,1.0,-102.60809662394648
8.384,1.0,-102.86964282477409
8.392,0.9999999999999999,-103.13091162097221
8.4,0.9999999999999999,-103.39190351304018
8.408,1.0,-103.65261900613811
8.416,0.9999999999999999,-103.91305861004327
8.424,0.9999999999999999,-104.17322283910553
8.432,1.0,-104.4331122122042
8.44,1.0,-104.6927272527039
8.448,1.0,-104.95206848841178
8.456,1.0,-105.21113645153387
8.464,0.9999999999999999,-105.4699316786326
8.472,0.9999999999999999,-105.72845471058369
8.48,0.9999999999999999,-105.98670609253404
8.488,1.0,-106.24468637385907
8.496,1.0,-106.502396108121
8.504,1.0,-106.75983585302671
8.512,0.9999999999999998,-107.0170061703864
8.52,1.0,-107.27390762607178
8.528,0.9999999999999999,-107.53054078997542
8.536,1.0,-107.78690623596925
8.544,1.0,-108.04300454186425
8.552,0.9999999999999999,-108.29883628936955
8.56,1.0,-108.55440206405251
8.568,1.0,-108.80970245529834
8.576,0.9999999999999999,-109.0647380562705
8.584,0.9999999999999999,-109.31950946387092
8.592,1.0,-109.57401727870075
8.6,1.0,-109.82826210502105
8.608,1.0,-110.08224455071411
8.616,0.9999999999999999,-110.33596522724446
8.624,1.0,-110.58942474962072
8.632,1.0,-110.84262373635706
8.64,0.9999999999999999,-111.09556280943558
8.648,1.0,-111.34824259426811
8.656,1.0,-111.60066371965914
8.664,0.9999999999999999,-111.85282681776812
8.672,1.0,-112.10473252407279
8.68,1.0,-112.35638147733195
8.688,0.9999999999999999,-112.6077743195493
8.696,1.0,-112.85891169593674
8.704,0.9999999999999999,-113.10979425487851
8.712,0.9999999999999999,-113.36042264789508
8.72,1.0,-113.61079752960784
8.728,1.0,-113.86091955770327
8.736,0.9999999999999999,-114.11078939289825
8.744,1.0,-114.36040769890468
8.752,1.0,-114.60977514239524
8.76,1.0,-114.85889239296844
8.768,1.0,-115.10776012311501
8.776,1.0,-115.35637900818324
8.784,1.0,-115.60474972634596
8.792,0.9999999999999999,-115.85287295856634
8.8,0.9999999999999999,-116.10074938856528
8.808,1.0,-116.34837970278782
8.815999999999999,0.9999999999999999,-116.59576459037086
8.824,1.0,-116.84290474311028
8.832,1.0,-117.08980085542868
8.84,1.0,-117.33645362434326
8.847999999999999,1.0,-117.58286374943434
8.856,1.0,-117.82903193281336
8.864,1.0,-118.07495887909164
8.872,1.0,-118.32064529534924
8.879999999999999,0.9999999999999999,-118.5660918911042
8.888,0.9999999999999999,-118.81129937828177
8.896,1.0,-119.05626847118398
8.904,1.0,-119.30099988645948
8.911999999999999,1.0,-119.54549434307363
8.92,0.9999999999999999,-119.78975256227888
8.928,1.0,-120.03377526758493
8.936,0.9999999999999999,-120.27756318472989
8.943999999999999,1.0,-120.521117041651
8.952,1.0,-120.76443756845615
8.96,1.0,-121.00752549739492
8.968,1.0,-121.2503815628305
8.975999999999999,0.9999999999999999,-121.49300650121165
8.984,1.0,-121.73540105104482
8.992,1.0,-121.97756595286636
9.0,1.0,-122.21950194921521
9.008,1.0,-122.46120978460593
9.016,1.0,-122.7026902055015
9.024000000000001,1.0,-122.94394396028669
9.032,1.0,-123.18497179924152
9.04,1.0,-123.42577447451521
9.048,1.0,-123.66635274009995
9.056000000000001,0.9999999999999999,-123.90670735180514
9.064,1.0,-124.14683906723164
9.072,1.0,-124.38674864574683
9.08,1.0,-124.62643684845915
9.088000000000001,0.9999999999999999,-124.8659044381932
9.096,1.0,-125.10515217946498
9.104,0.9999999999999999,-125.34418083845775
9.112,1.0000000000000002,-125.5829911829975
9.120000000000001,1.0,-125.82158398252889
9.128,1.0,-126.05996000809145
9.136,0.9999999999999999,-126.29812003229617
9.144,0.9999999999999999,-126.536064829302
9.152000000000001,1.0,-126.77379517479254
9.16,1.0,-127.0113118459532
9.168,1.0,-127.2486156214486
9.176,1.0,-127.48570728139981
9.184000000000001,1.0,-127.72258760736216
9.192,0.9999999999999999,-127.95925738230297
9.2,0.9999999999999999,-128.19571739058003
9.208,1.0,-128.43196841791953
9.216000000000001,1.0,-128.6680112513948
9.224,1.0,-128.90384667940475
9.232,1.0,-129.13947549165334
9.24,0.9999999999999999,-129.37489847912826
9.248000000000001,1.0,-129.61011643408048
9.256,1.0000000000000002,-129.84513015000357
9.264,1.0,-130.07994042161388
9.272,1.0,-130.3145480448302
9.280000000000001,1.0,-130.54895381675385
9.288,1.0,-130.78315853564928
9.296,1.0,-131.0171630009244
9.304,0.9999999999999999,-131.25096801311167
9.312000000000001,0.9999999999999999,-131.4845743738486
9.32,0.9999999999999998,-131.71798288585913
9.328,0.9999999999999998,-131.95119435293512
9.336,1.0,-132.18420957991768
9.344,1.0,-132.4170293726789
9.352,1.0,-132.649654538104
9.36,1.0,-132.88208588407292
9.368,1.0,-133.11432421944346
9.376,1.0,-133.34637035403287
9.384,0.9999999999999999,-133.5782250986013
9.392,0.9999999999999999,-133.80988926483406
9.4,0.9999999999999999,-134.04136366532512
9.408,0.9999999999999999,-134.27264911356005
9.416,1.0,-134.5037464238996
9.424,1.0,-134.7346564115633
9.432,0.9999999999999999,-134.96537989261324
9.44,1.0,-135.1959176839379
9.448,1.0,-135.42627060323656
9.456,1.0,-135.6564394690033
9.464,1.0,-135.8864251005119
9.472,1.0,-136.11622831780008
9.48,1.0,-136.3458499416548
9.488,1.0,-136.57529079359685
9.496,1.0,-136.8045516958665
9.504,1.0,-137.03363347140845
9.512,1.0,-137.26253694385778
9.52,1.0,-137.49126293752522
9.528,1.0,-137.71981227738357
9.536,1.0,-137.94818578905316
9.544,1.0,-138.1763842987887
9.552,0.9999999999999999,-138.40440863346507
9.56,1.0,-138.63225962056435
9.568,1.0,-138.85993808816224
9.576,0.9999999999999999,-139.08744486491506
9.584,1.0,-139.3147807800467
9.592,1.0,-139.5419466633361
9.6,1.0,-139.76894334510405
9.608,0.9999999999999999,-139.99577165620147
9.616,1.0,-140.22243242799627
9.624,0.9999999999999998,-140.44892649236198
9.632,1.0,-140.67525468166497
9.64,1.0,-140.9014178287533
9.648,1.0,-141.1274167669444
9.656,1.0,-141.3532523300141
9.664,1.0,-141.5789253521846
9.672,1.0,-141.80443666811388
9.68,0.9999999999999999,-142.02978711288398
9.688,0.9999999999999999,-142.25497752199055
9.696,1.0,-142.48000873133174
9.704,1.0,-142.70488157719763
9.712,1.0,-142.92959689625965
9.72,1.0,-143.1541555255604
9.728,1.0,-143.37855830250317
9.736,1.0,-143.60280606484207
9.744,0.9999999999999999,-143.82689965067186
9.752,0.9999999999999999,-144.05083989841836
9.76,1.0,-144.2746276468286
9.768,1.0,-144.49826373496145
9.776,1.0,-144.72174900217806
9.784,1.0,-144.9450842881328
9.792,1.0,-145.16827043276385
9.8,0.9999999999999999,-145.39130827628458
9.808,1.0,-145.6141986591742
9.816,1.0,-145.8369424221697
9.824,1.0,-146.05954040625647
9.832,0.9999999999999999,-146.28199345266057
9.84,1.0,-146.5043024028397
9.847999999999999,0.9999995373794762,-146.72646809847564
9.856,0.9999986547589728,-146.94849138146574
9.864,0.9999977698562644,-147.17037309391503
9.872,0.9999968827859381,-147.39211407812846
9.879999999999999,0.9999959936625404,-147.6137151766032
9.888,0.9999951026005657,-147.83517723202095
9.896,0.9999942097144404,-148.0565010872406
9.904,0.9999933151185092,-148.27768758529064
9.911999999999999,0.9999924189270216,-148.49873756936222
9.92,0.9999915212541188,-148.71965188280203
9.928,0.9999906222138185,-148.9404313691049
9.936,0.9999897219200026,-149.1610768719074
9.943999999999999,0.9999888204864028,-149.38158923498085
9.952,0.999987918026588,-149.60196930222477
9.96,0.9999870146539499,-149.82221791766023
9.968,0.999986110481691,-150.0423359254234
9.975999999999999,0.9999852056228108,-150.26232416975952
9.984,0.9999843001900927,-150.48218349501641
9.992,0.9999833942960906,-150.70191474563853
10.0,0.9999824880531181,-150.9215187661608
10.008,0.9999815815732327,-151.1409964012031
10.016,0.9999806749682255,-151.3603484954642
10.024000000000001,0.9999797683496077,-151.57957589371617
10.032,0.999978861828598,-151.79867944079882
10.04,0.9999779555161104,-152.01765998161437
10.048,0.9999770495227421,-152.23651836112208
