freq,mag,phase
6.0,0.9999912685555618,-123.85747136967511
6.008,0.9999902595722951,-124.253593959262
6.016,0.9999892795703266,-124.64926646933363
6.024,0.9999883280115976,-125.04449039148672
6.032,0.999987404363943,-125.43926724134917
6.04,0.9999865081010814,-125.83359855828286
6.048,0.9999856387026077,-126.22748590508805
6.056,0.9999847956539804,-126.62093086770965
6.064,0.9999839784465108,-127.01393505494495
6.072,0.9999831865773495,-127.40650009815336
6.08,0.9999824195494735,-127.79862765096762
6.088,0.9999816768716713,-128.19031938900696
6.096,0.9999809580585273,-128.581577009592
6.104,0.9999802626304056,-128.9724022314616
6.112,0.9999795901134317,-129.36279679449135
6.12,0.999978940039477,-129.75276245941436
6.128,0.9999783119461358,-130.14230100754338
6.136,0.9999777053767099,-130.53141424049534
6.144,0.9999771198801849,-130.9201039799176
6.152,0.9999765550112097,-131.30837206721625
6.16,0.9999760103300753,-131.69622036328647
6.168,0.9999754854026921,-132.08365074824457
6.176,0.9999749798005643,-132.47066512116248
6.184,0.9999744931007686,-132.85726539980408
6.192,0.9999740248859275,-133.24345352036357
6.2,0.9999735747441849,-133.62923143720593
6.208,0.9999731422691782,-134.01460112260946
6.216,0.9999727270600153,-134.39956456651035
6.224,0.9999723287212428,-134.7841237762497
6.232,0.9999719468628222,-135.168280776322
6.24,0.9999715811000989,-135.55203760812657
6.248,0.9999712310537743,-135.93539632972022
6.256,0.9999708963498758,-136.31835901557295
6.264,0.9999705766197281,-136.70092775632514
6.272,0.9999702714999219,-137.08310465854723
6.28,0.9999699806322829,-137.46489184450152
6.288,0.9999697036638414,-137.846291451906
6.296,0.9999694402467997,-138.22730563370055
6.304,0.9999691900384997,-138.60793655781535
6.312,0.9999689527013916,-138.98818640694108
6.32,0.9999687279030005,-139.36805737830187
6.328,0.9999685153158923,-139.74755168343003
6.336,0.9999683146176416,-140.12667154794315
6.344,0.999968125490796,-140.50541921132336
6.352,0.9999679476228429,-140.88379692669878
6.36,0.9999677807061756,-141.26180696062715
6.368,0.9999676244380563,-141.63945159288178
6.376,0.9999674785205837,-142.01673311623944
6.384,0.999967342660654,-142.39365383627057
6.392,0.9999672165699292,-142.77021607113196
6.4,0.999967099964798,-143.14642215136098
6.408,0.9999669925663419,-143.5222744196727
6.416,0.9999668941002984,-143.89777523075867
6.424,0.9999668042970216,-144.27292695108812
6.432,0.9999667228914502,-144.64773195871132
6.44,0.9999666496230677,-145.0221926430649
6.448,0.9999665842358652,-145.39631140477974
6.456,0.9999665264783052,-145.77009065549055
6.464,0.9999664761032849,-146.14353281764792
6.472,0.9999664328680966,-146.51664032433234
6.48,0.9999663965343908,-146.88941561907052
6.4879999999999995,0.9999663668681401,-147.26186115565358
6.496,0.9999663436396,-147.63397939795775
6.504,0.9999663266232705,-148.00577281976652
6.5120000000000005,0.9999663155978591,-148.37724390459593
6.52,0.9999663103462427,-148.74839514552062
6.5280000000000005,0.9999663106554291,-149.1192290450033
6.536,0.9999663163165187,-149.48974811472516
6.5440000000000005,0.9999663271246673,-149.85995487541942
6.552,0.9999663428790463,-150.22985185670564
6.5600000000000005,0.9999663633828061,-150.59944159692745
6.568,0.9999663884430365,-150.96872664299113
6.5760000000000005,0.9999664178707293,-151.33770955020725
6.584,0.9999664514807395,-151.70639288213323
6.592,0.9999664890917472,-152.074779210419
6.6,0.9999665305262202,-152.44287111465363
6.608,0.9999665756103733,-152.81067118221475
6.616,0.9999666241741336,-153.17818200811934
6.624,0.9999666760510996,-153.54540619487693
6.632,0.9999667310785039,-153.9123463523443
6.64,0.9999667890971757,-154.27900509758248
6.648,0.9999668499515029,-154.64538505471535
6.656,0.9999669134893923,-155.01148885479037
6.664,0.9999669795622339,-155.377319135641
6.672,0.9999670480248627,-155.7428785417511
6.68,0.9999671187355198,-156.10816972412127
6.688,0.999967191555816,-156.47319534013664
6.696,0.9999672663506946,-156.83795805343698
6.704,0.9999673429883918,-157.20246053378835
6.712,0.9999674213404023,-157.56670545695644
6.72,0.9999675012814394,-157.930695504582
6.728,0.9999675826894003,-158.29443336405768
6.736,0.9999676654453277,-158.657921728407
6.744,0.9999677494333726,-159.0211632961646
6.752,0.9999678345407589,-159.38416077125865
6.76,0.9999679206577461,-159.74691686289472
6.768,0.9999680076775925,-160.1094342854413
6.776,0.9999680954965198,-160.47171575831706
6.784,0.9999681840136757,-160.8337640058799
6.792,0.9999682731310998,-161.19558175731748
6.8,0.999968362753685,-161.55717174653915
6.808,0.9999684527891441,-161.91853671207005
6.816,0.9999685431479738,-162.27967939694642
6.824,0.9999686337434177,-162.64060254861232
6.832,0.9999687244914335,-163.00130891881844
6.84,0.9999688153106563,-163.36180126352195
6.848,0.9999689061223634,-163.72208234278807
6.856,0.9999689968504413,-164.08215492069328
6.864,0.9999690874213495,-164.44202176522978
6.872,0.9999691777640866,-164.80168564821147
6.88,0.9999692678101573,-165.1611493451816
6.888,0.9999693574935355,-165.5204156353216
6.896,0.9999694467506334,-165.87948730136154
6.904,0.9999695355202665,-166.2383671294918
6.912,0.9999696237436203,-166.59705790927623
6.92,0.999969711364217,-166.95556243356688
6.928,0.9999697983278819,-167.31388349841964
6.936,0.9999698845827125,-167.6720239030116
6.944,0.9999699700790424,-168.0299864495596
6.952,0.999970054769412,-168.38777394324018
6.96,0.9999701386085343,-168.74538919211057
6.968,0.999970221553264,-169.10283500703127
6.976,0.9999703035625642,-169.46011420158968
6.984,0.9999703845974759,-169.81722959202497
6.992,0.9999704646210854,-170.17418399715442
7.0,0.9999705435984944,-170.53098023830057
7.008,0.9999706214967876,-170.8876211392199
7.016,0.9999706982850024,-171.24410952603256
7.024,0.9999707739340976,-171.60044822715307
7.032,0.9999708484169237,-171.9566400732226
7.04,0.9999709217081929,-172.31268789704197
7.048,0.9999709937844465,-172.66859453350585
7.056,0.9999710646240283,-173.02436281953828
7.064,0.9999711342070535,-173.37999559402883
7.072,0.9999712025153782,-173.73549569777026
7.08,0.9999712695325719,-174.090865973397
7.088,0.9999713352438864,-174.44610926532457
7.096,0.9999713996362299,-174.8012284196902
7.104,0.9999714626981354,-175.15622628429435
7.112,0.9999715244197338,-175.51110570854314
7.12,0.9999715847927252,-175.8658695433919
7.128,0.999971643810351,-176.22052064128954
7.136,0.9999717014673665,-176.57506185612368
7.144,0.9999717577600117,-176.9294960431672
7.152,0.9999718126859861,-177.28382605902505
7.16,0.99997186624442,-177.63805476158237
7.168,0.9999719184358483,-177.99218500995337
7.176,0.9999719692621826,-178.3462196644309
7.184,0.9999720187266847,-178.70016158643705
7.192,0.9999720668339431,-179.05401363847443
7.2,0.9999721135898426,-179.40777868407824
7.208,0.9999721590015409,-179.76145958776922
7.216,0.9999722030774421,179.88494078499266
7.224,0.9999722458271707,179.531419567854
7.232,0.9999722872615482,179.17797389361266
7.24,0.9999723273925643,178.82460089426206
7.248,0.9999723662333557,178.4712977010345
7.256,0.9999724037981795,178.11806144444418
7.264,0.9999724401023878,177.76488925432918
7.272,0.9999724751624054,177.41177825989286
7.28,0.9999725089957046,177.05872558974497
7.288,0.9999725416207801,176.7057283719417
7.296,0.9999725730571272,176.35278373402522
7.304,0.9999726033252172,175.9998888030631
7.312,0.9999726324464734,175.64704070568635
7.32,0.9999726604432495,175.29423656812767
7.328,0.9999726873388057,174.94147351625864
7.336,0.9999727131572848,174.58874867562668
7.344,0.9999727379236917,174.23605917149146
7.352,0.9999727616638688,173.88340212886058
7.36,0.9999727844044757,173.53077467252518
7.368,0.999972806172966,173.17817392709478
7.376,0.9999728269975654,172.82559701703173
7.384,0.9999728469072504,172.47304106668523
7.392,0.9999728659317274,172.12050320032517
7.4,0.9999728841014092,171.76798054217525
7.4079999999999995,0.9999729014473959,171.41547021644567
7.416,0.9999729180014543,171.06296934736594
7.4239999999999995,0.9999729337959938,170.7104750592169
7.432,0.9999729488640511,170.3579844763623
7.4399999999999995,0.9999729632392638,170.00549472328075
7.448,0.999972976955855,169.65300292459634
7.4559999999999995,0.9999729900486111,169.30050620511003
7.464,0.9999730025528613,168.9480016898297
7.4719999999999995,0.9999730145044599,168.5954865040012
7.48,0.9999730259397644,168.24295777313768
7.4879999999999995,0.9999730368956185,167.89041262305005
7.496,0.9999730474093296,167.53784817987616
7.504,0.9999730575186544,167.1852615701107
7.5120000000000005,0.9999730672617758,166.83264992063397
7.52,0.9999730766772855,166.4800103587413
7.5280000000000005,0.9999730858041673,166.12734001217186
7.536,0.9999730946817755,165.77463600913745
7.5440000000000005,0.9999731033498196,165.42189547835096
7.552,0.9999731118483445,165.0691155490554
7.5600000000000005,0.9999731202177129,164.71629335105158
7.568,0.999973128498588,164.36342601472725
7.5760000000000005,0.9999731367319155,164.01051067108475
7.584,0.9999731449589067,163.65754445176972
7.5920000000000005,0.9999731532210204,163.3045244890988
7.6,0.9999731615599475,162.9514479160884
7.6080000000000005,0.9999731700175906,162.59831186648202
7.616,0.999973178636052,162.24511347477934
7.6240000000000006,0.9999731874576124,161.89184987626356
7.632,0.9999731965247178,161.5385182070303
7.640000000000001,0.9999732058799615,161.18511560401515
7.648,0.9999732155660677,160.83163920502275
7.656000000000001,0.9999732256258768,160.47808614875436
7.664,0.9999732361023285,160.1244535748371
7.672,0.9999732470384458,159.770738623852
7.68,0.9999732584773208,159.4169384373629
7.688,0.9999732704620974,159.06305015794538
7.696,0.9999732830359573,158.70907092921556
7.704,0.9999732962421038,158.35499789585938
7.712,0.9999733101237485,158.00082820366188
7.72,0.9999733247240941,157.64655899953678
7.728,0.9999733400863213,157.29218743155604
7.736,0.999973356253574,156.93771064898004
7.744,0.999973373268944,156.58312580228767
7.752,0.9999733911754575,156.22843004320666
7.76,0.9999734100160601,155.87362052474444
7.768,0.9999734298336034,155.518694401219
7.776,0.9999734506708312,155.16364882829035
7.784,0.9999734725703653,154.80848096299178
7.792,0.9999734955746912,154.45318796376213
7.8,0.9999735197261457,154.09776699047768
7.808,0.999973545066903,153.74221520448506
7.816,0.9999735716389619,153.386529768634
7.824,0.9999735994841313,153.03070784731074
7.832,0.9999736286440185,152.67474660647167
7.84,0.9999736591600158,152.31864321367772
7.848,0.9999736910732887,151.96239483812857
7.856,0.9999737244247605,151.60599865069796
7.864,0.9999737592551037,151.24945182396894
7.872,0.9999737956047242,150.89275153226993
7.88,0.999973833513751,150.535894951711
7.888,0.9999738730220232,150.17887926022078
7.896,0.9999739141690787,149.82170163758406
7.904,0.9999739569941418,149.46435926547946
7.912,0.999974001536111,149.10684932751795
7.92,0.9999740478335485,148.749169009282
7.928,0.9999740959246677,148.39131549836512
7.936,0.9999741458473221,148.03328598441192
7.944,0.9999741976389944,147.67507765915894
7.952,0.9999742513367849,147.31668771647617
7.96,0.9999743069773999,146.95811335240876
7.968,0.9999743645971427,146.59935176521995
7.976,0.9999744242319006,146.24040015543417
7.984,0.999974485917135,145.8812557258811
7.992,0.9999745496878716,145.52191568174018
8.0,0.9999746155786892,145.16237723058623
8.008,0.9999746836237089,144.80263758243527
8.016,0.9999747538565856,144.44269394979108
8.024000000000001,0.9999748263104956,144.08254354769346
8.032,0.9999749010181284,143.72218359376583
8.04,0.9999749780116761,143.36161130826446
8.048,0.9999750573228239,143.00082391412812
8.056000000000001,0.9999751389827402,142.63981863702932
8.064,0.9999752230220672,142.27859270542515
8.072,0.9999753094709115,141.91714335060968
8.08,0.9999753983588355,141.55546780676698
8.088000000000001,0.9999754897148463,141.19356331102554
8.096,0.9999755835673889,140.83142710351262
8.104,0.9999756799443361,140.46905642741004
8.112,0.99997577887298,140.10644852901086
8.120000000000001,0.9999758803800223,139.74360065777702
8.128,0.9999759844915675,139.3805100663978
8.136,0.9999760912331134,139.0171740108488
8.144,0.9999762006295425,138.6535897504527
8.152000000000001,0.999976312705114,138.28975454794062
8.16,0.9999764274834558,137.92566566951422
8.168,0.9999765449875571,137.56132038490892
8.176,0.9999766652397588,137.1967159674584
8.184000000000001,0.9999767882617476,136.83184969416
8.192,0.9999769140745471,136.466718845741
8.2,0.9999770426985112,136.10132070672603
8.208,0.999977174153315,135.73565256550535
8.216000000000001,0.99997730845795,135.36971171440513
8.224,0.9999774456307143,135.0034954497575
8.232,0.9999775856892082,134.63700107197258
8.24,0.9999777286503243,134.27022588561115
8.248000000000001,0.9999778745302434,133.90316719945938
8.256,0.9999780233444259,133.53582232660335
8.264,0.9999781751076062,133.1681885845058
8.272,0.9999783298337857,132.80026329508334
8.280000000000001,0.9999784875362269,132.43204378478583
8.288,0.9999786482274465,132.0635273846759
8.296,0.9999788119192106,131.69471143051
8.304,0.9999789786225269,131.3255932628212
8.312,0.9999791483476402,130.95617022700281
8.32,0.9999793211040263,130.586439673393
8.328,0.9999794969003867,130.21639895736152
8.336,0.9999796757446415,129.84604543939653
8.344,0.9999798576439272,129.47537648519426
8.352,0.9999800426045876,129.1043894657482
8.36,0.9999802306321723,128.73308175744137
8.368,0.9999804217314293,128.36145074213846
8.376,0.9999806159063008,127.98949380728057
8.384,0.999980813159919,127.61720834598003
8.392,0.9999810134946014,127.24459175711807
8.4,0.9999812169118453,126.87164144544235
8.408,0.9999814234123253,126.49835482166732
8.416,0.9999816329958869,126.12472930257474
8.424,0.9999818456615449,125.75076231111672
8.432,0.9999820614074774,125.3764512765192
8.44,0.9999822802310232,125.001793634388
8.448,0.9999825021286775,124.62678682681498
8.456,0.9999827270960895,124.25142830248714
8.464,0.9999829551280572,123.87571551679582
8.472,0.9999831862185263,123.49964593194875
8.48,0.9999834203605852,123.1232170170822
8.488,0.9999836575464633,122.7464262483761
8.496,0.9999838977675282,122.36927110916929
8.504,0.999984141014282,121.99174909007765
8.512,0.9999843872763597,121.61385768911254
8.52,0.9999846365425277,121.23559441180198
8.528,0.9999848888006786,120.85695677131223
8.536,0.9999851440378331,120.47794228857218
8.544,0.9999854022401345,120.0985484923981
8.552,0.9999856633928502,119.71877291962124
8.56,0.9999859274803666,119.33861311521576
8.568,0.9999861944861915,118.95806663242962
8.576,0.999986464392949,118.5771310329158
8.584,0.999986737182382,118.19580388686634
8.592,0.9999870128353484,117.814082773147
8.6,0.9999872913318218,117.4319652794346
8.608,0.9999875726508906,117.04944900235489
8.616,0.9999878567707566,116.66653154762335
8.624,0.9999881436687368,116.28321053018637
8.632,0.9999884333212611,115.89948357436552
8.64,0.9999887257038734,115.51534831400204
8.648,0.999989020791232,115.1308023926044
8.656,0.9999893185571086,114.74584346349644
8.664,0.9999896189743908,114.3604691899684
8.672,0.9999899220150819,113.97467724542813
8.68,0.9999902276503009,113.58846531355593
8.688,0.9999905358502852,113.20183108845917
8.696,0.999990846584391,112.81477227483046
8.704,0.9999911598210942,112.42728658810596
8.712,0.9999914755279936,112.03937175462686
8.72,0.9999917936718113,111.65102551180132
8.728,0.9999921142183953,111.26224560826947
8.736,0.9999924371327208,110.87302980406879
8.744,0.9999927623788942,110.48337587080272
8.752,0.9999930899201543,110.09328159180949
8.76,0.9999934197188761,109.7027447623343
8.768,0.9999937517365723,109.31176318970185
8.776,0.999994085933898,108.92033469349178
8.784,0.9999944222706525,108.52845710571492
8.792,0.9999947607057845,108.1361282709923
8.8,0.9999951011973945,107.74334604673489
8.808,0.9999954437027393,107.35010830332617
8.815999999999999,0.9999957881782365,106.95641292430548
8.824,0.9999961345794677,106.56225780655384
8.832,0.9999964828611839,106.1676408604814
8.84,0.9999968329773107,105.77256001021652
8.847999999999999,0.999997184880952,105.37701319379643
8.856,0.9999975385243963,104.98099836336007
8.864,0.9999978938591213,104.5845134853427
8.872,0.9999982508358003,104.1875565406719
8.879999999999999,0.9999986094043073,103.79012552496529
8.888,0.9999989695137234,103.3922184487304
8.896,0.9999993311123424,102.99383333756629
8.904,0.9999996941476791,102.59496823236641
8.911999999999999,0.9999999999999999,102.19562118952342
8.92,0.9999999999999999,101.79579028113582
8.928,1.0,101.39547359521654
8.936,1.0,100.9946692359026
8.943999999999999,1.0,100.59337532366679
8.952,1.0,100.19158999553105
8.96,1.0,99.78931140528178
8.968,0.9999999999999998,99.38653772368627
8.975999999999999,1.0,98.98326713871096
8.984,1.0,98.57949785574142
8.992,1.0,98.1752280978043
9.0,1.0,97.77045610579016
9.008,1.0,97.36518013867818
9.016,0.9999999999999998,96.95939847376269
9.024000000000001,1.0,96.55310940688118
9.032,1.0,96.14631125264359
9.04,1.0,95.73900234466319
9.048,1.0,95.33118103578913
9.056000000000001,1.0,94.9228456983406
9.064,0.9999999999999999,94.51399472434208
9.072,1.0,94.10462652576008
9.08,0.9999999999999999,93.69473953474153
9.088000000000001,1.0,93.28433220385364
9.096,0.9999999999999999,92.87340300632485
9.104,1.0,92.46195043628698
9.112,1.0,92.04997300901924
9.120000000000001,1.0,91.63746926119332
9.128,1.0,91.22443775111964
9.136,0.9999999999999999,90.81087705899466
9.144,1.0,90.39678578714981
9.152000000000001,1.0,89.98216256030169
9.16,1.0,89.56700602580291
9.168,1.0,89.1513148538942
9.176,0.9999999999999999,88.735087737958
9.184000000000001,1.0,88.31832339477282
9.192,1.0,87.90102056476866
9.2,0.9999999999999998,87.48317801228312
9.208,0.9999999999999998,87.064794525819
9.216000000000001,0.9999999999999999,86.64586891830277
9.224,1.0,86.2264000273434
9.232,1.0,85.80638671549232
9.24,1.0,85.38582787050437
9.248000000000001,0.9999999999999999,84.96472240559946
9.256,0.9999999999999999,84.54306925972467
9.264,0.9999999999999999,84.12086739781708
9.272,0.9999999999999999,83.69811581106744
9.280000000000001,1.0,83.27481351718454
9.288,0.9999999999999999,82.85095956065973
9.296,0.9999999999999999,82.4265530130319
9.304,1.0,82.00159297315335
9.312000000000001,0.9999999999999999,81.57607856745588
9.32,0.9999999999999999,81.1500089502171
9.328,0.9999999999999999,80.72338330382688
9.336,0.9999999999999999,80.29620083905436
9.344,0.9999999999999999,79.8684607953154
9.352,1.0,79.44016244093915
9.36,0.9999999999999999,79.01130507343609
9.368,0.9999999999999999,78.5818880197646
9.376,0.9999999999999999,78.15191063659906
9.384,1.0,77.72137231059614
9.392,1.0,77.29027245866286
9.4,1.0,76.85861052822234
9.408,1.0,76.42638599748149
9.416,0.9999999999999999,75.99359837569615
9.424,0.9999999999999999,75.56024720343785
9.432,0.9999999999999999,75.12633205285832
9.44,1.0,74.69185252795515
9.448,1.0,74.25680826483512
9.456,1.0,73.82119893197871
9.464,0.9999999999999999,73.385024230502
9.472,1.0,72.94828389441949
9.48,0.9999999999999998,72.5109776909045
9.488,1.0,72.07310542055015
9.496,1.0,71.63466691762771
9.504,1.0,71.19566205034546
9.512,1.0,70.75609072110488
9.52,1.0,70.31595286675704
9.528,0.9999999999999999,69.87524845885619
9.536,1.0,69.43397750391344
9.544,0.9999999999999999,68.99214004364757
9.552,0.9999999999999999,68.54973615523555
9.56,1.0,68.10676595156019
9.568,1.0,67.6632295814574
9.576,1.0,67.21912722996021
9.584,0.9999999999999999,66.7744591185424
9.592,1.0,66.32922550535858
9.6,1.0,65.883426685484
9.608,1.0,65.43706299115024
9.616,1.0,64.99013479198075
9.624,0.9999999999999999,64.5426424952221
9.632,1.0,64.09458654597461
9.64,1.0,63.64596742741882
9.648,1.0,63.196785661041154
9.656,0.9999999999999999,62.747041806855066
9.664,1.0,62.29673646362124
9.672,1.0,61.8458702690632
9.68,1.0,61.394443900081704
9.688,1.0,60.942458072964506
9.696,0.9999999999999999,60.48991354359444
9.704,1.0,60.03681110765287
9.712,1.0,59.58315160082136
9.72,0.9999999999999999,59.12893589897837
9.728,1.0,58.67416491839401
