freq,mag,phase
6.0,0.9999842056620708,61.65160192858323
6.008,0.9999876553589285,61.448564210324356
6.016,0.9999910707977033,61.245356241126046
6.024,0.9999944519984261,61.04197815295995
6.032,0.999997798980456,60.838430079910424
6.04,1.0,60.63471215818283
6.048,1.0,60.43082452611194
6.056,0.9999999999999999,60.226767324170424
6.064,1.0,60.02254069497724
6.072,1.0,59.81814478330601
6.08,1.0,59.61357973609353
6.088,1.0,59.408845702448296
6.096,1.0,59.20394283365871
6.104,1.0,58.99887128320185
6.112,0.9999999999999998,58.79363120675174
6.12,1.0,58.58822276218795
6.128,1.0,58.38264610960405
6.136,1.0000000000000002,58.17690141131621
6.144,1.0,57.97098883187154
6.152,0.9999999999999999,57.764908538056964
6.16,1.0,57.55866069890744
6.168,1.0,57.35224548571458
6.176,1.0000000000000002,57.14566307203558
6.184,1.0,56.93891363370148
6.192,0.9999999999999999,56.73199734882573
6.2,1.0,56.52491439781316
6.208,1.0,56.31766496336841
6.216,1.0,56.11024923050468
6.224,1.0,55.90266738655228
6.232,0.9999999999999999,55.69491962116782
6.24,1.0,55.48700612634191
6.248,1.0,55.2789270964095
6.256,1.0,55.07068272805696
6.264,1.0,54.86227322033215
6.272,1.0,54.65369877465254
6.28,1.0,54.444959594814435
6.288,0.9999999999999999,54.236055887001626
6.296,1.0,54.026987859794495
6.304,0.9999999999999999,53.817755724178525
6.312,0.9999999999999999,53.60835969355367
6.32,0.9999999999999999,53.39879998374328
6.328,1.0,53.18907681300273
6.336,1.0,52.97919040202908
6.344,1.0,52.76914097396889
6.352,1.0,52.55892875442947
6.36,1.0,52.34855397148566
6.368,0.9999999999999999,52.13801685569005
6.376,1.0,51.92731764008228
6.384,1.0,51.71645656019769
6.392,0.9999999999999999,51.50543385407713
6.4,1.0,51.29424976227556
6.408,1.0,51.082904527871754
6.416,0.9999999999999998,50.87139839647719
6.424,1.0,50.65973161624581
6.432,0.9999999999999999,50.44790443788268
6.44,1.0,50.23591711465426
6.448,1.0000000000000002,50.02376990239685
6.456,0.9999999999999999,49.811463059526524
6.464,0.9999999999999999,49.59899684704797
6.472,1.0,49.386371528564766
6.48,0.9999999999999999,49.17358737028788
6.4879999999999995,1.0,48.96064464104571
6.496,0.9999999999999999,48.747543612292816
6.504,1.0,48.53428455812069
6.5120000000000005,1.0000000000000002,48.320867755265716
6.52,0.9999999999999999,48.107293483118816
6.5280000000000005,1.0,47.893562023736024
6.536,1.0,47.679673661846955
6.5440000000000005,0.9999999999999999,47.46562868486377
6.552,1.0,47.25142738289146
6.5600000000000005,1.0,47.03707004873708
6.568,1.0,46.82255697791821
6.5760000000000005,0.9999999999999999,46.6078884686736
6.584,1.0,46.39306482197083
6.592,1.0000000000000002,46.17808634151702
6.6,1.0,45.96295333376619
6.608,1.0,45.74766610793011
6.616,1.0000000000000002,45.53222497598603
6.624,1.0,45.316630252686096
6.632,1.0,45.100882255565786
6.64,1.0,44.884981304952845
6.648,0.9999999999999999,44.66892772397608
6.656,1.0,44.452721838572764
6.664,1.0,44.23636397749822
6.672,0.9999999999999998,44.01985447233284
6.68,0.9999999999999999,43.80319365749069
6.688,1.0,43.58638187022722
6.696,1.0,43.36941945064657
6.704,0.9999999999999999,43.152306741708806
6.712,1.0,42.935044089237586
6.72,0.9999999999999999,42.71763184192684
6.728,1.0,42.50007035134637
6.736,1.0,42.28235997195024
6.744,1.0,42.06450106108064
6.752,1.0000000000000002,41.846493978974536
6.76,1.0,41.628339088769124
6.768,0.9999999999999999,41.410036756506955
6.776,1.0,41.19158735113912
6.784,1.0,40.97299124453062
6.792,1.0,40.75424881146425
6.8,0.9999999999999999,40.53536042964266
6.808,1.0,40.316326479691845
6.816,1.0,40.097147345162846
6.824,1.0,39.87782341253422
6.832,0.9999999999999999,39.65835507121147
6.84,0.9999999999999999,39.43874271352933
6.848,1.0,39.218986734749684
6.856,1.0,38.9990875330623
6.864,1.0,38.77904550958147
6.872,0.9999999999999998,38.558861068345315
6.88,1.0,38.33853461631087
6.888,1.0,38.11806656335194
6.896,0.9999999999999999,37.8974573222525
6.904,1.0000000000000002,37.67670730870215
6.912,0.9999999999999999,37.45581694128857
6.92,0.9999999999999999,37.23478664149084
6.928,1.0000000000000002,37.01361683367041
6.936,1.0,36.79230794506073
6.944,1.0,36.57086040575778
6.952,1.0,36.34927464870792
6.96,1.0,36.12755110969446
6.968,1.0,35.90569022732426
6.976,1.0,35.68369244301219
6.984,0.9999999999999999,35.46155820096465
6.992,1.0,35.23928794816192
7.0,1.0,35.016882134339404
7.008,0.9999999999999999,34.79434121196702
7.016,0.9999999999999999,34.57166563622755
7.024,1.0,34.34885586499429
7.032,0.9999999999999999,34.125912358805834
7.04,1.0,33.902835580841135
7.048,1.0,33.67962599689214
7.056,1.0,33.456284075335525
7.064,1.0000000000000002,33.2328102871018
7.072,1.0,33.009205105645634
7.08,1.0,32.785469006911825
7.088,1.0,32.56160246930131
7.096,0.9999999999999999,32.33760597363591
7.104,1.0,32.11348000312176
7.112,0.9999999999999999,31.889225043309693
7.12,1.0,31.664841582056994
7.128,1.0,31.440330109485576
7.136,1.0,31.215691117939475
7.144,1.0,30.99092510194213
7.152,1.0,30.76603255815085
7.16,0.9999999999999999,30.541013985311498
7.168,1.0,30.315869884210816
7.176,1.0,30.09060075762919
7.184,0.9999999999999999,29.865207110290687
7.192,1.0,29.639689448814064
7.2,1.0,29.414048281661632
7.208,0.9999999999999999,29.188284119087754
7.216,1.0,28.962397473086988
7.224,1.0,28.736388857341513
7.232,0.9999999999999999,28.510258787167935
7.24,1.0,28.284007779464453
7.248,1.0,28.057636352657273
7.256,0.9999999999999999,27.831145026646624
7.264,1.0000000000000002,27.60453432275408
7.272,0.9999999999999999,27.377804763669083
7.28,1.0,27.150956873395764
7.288,1.0,26.923991177201113
7.296,0.9999999999999999,26.696908201563065
7.304,0.9999999999999999,26.46970847411975
7.312,1.0,26.242392523619085
7.32,1.0,26.014960879870696
7.328,1.0,25.787414073697775
7.336,0.9999999999999999,25.559752636890924
7.344,1.0,25.331977102164075
7.352,1.0,25.10408800311117
7.36,1.0,24.876085874165472
7.368,1.0,24.647971250560516
7.376,1.0,24.419744668293532
7.384,0.9999999999999999,24.19140666409087
7.392,0.9999999999999999,23.962957775376424
7.4,1.0,23.73439854024183
7.4079999999999995,0.9999999999999999,23.50572949742027
7.416,1.0,23.276951186262483
7.4239999999999995,1.0,23.04806414671631
7.432,0.9999999999999999,22.819068919308545
7.4399999999999995,0.9999999999999999,22.589966045130794
7.448,1.0,22.360756065827804
7.4559999999999995,1.0,22.131439523589574
7.464,1.0,21.902016961146632
7.4719999999999995,0.9999999999999999,21.67248892176891
7.48,1.0,21.442855949267503
7.4879999999999995,1.0,21.213118588000828
7.496,1.0,20.983277382883298
7.504,0.9999999999999999,20.7533328793979
7.5120000000000005,1.0,20.523285623612136
7.52,1.0,20.293136162197676
7.5280000000000005,1.0,20.062885042452333
7.536,0.9999999999999999,19.83253281232684
7.5440000000000005,1.0,19.602080020453226
7.552,1.0,19.371527216177657
7.5600000000000005,1.0,19.140874949595183
7.568,1.0,18.910123771588278
7.5760000000000005,1.0,18.679274233867215
7.584,0.9999999999999999,18.448326889013956
7.5920000000000005,1.0,18.217282290527674
7.6,0.9999999999999999,17.98614099287324
7.6080000000000005,1.0,17.754903551531147
7.616,0.9999999999999999,17.523570523050175
7.6240000000000006,0.9999999999999999,17.292142465100724
7.632,1.0,17.06061993653088
7.640000000000001,0.9999999999999999,16.82900349742278
7.648,0.9999999999999999,16.597293709150843
7.656000000000001,0.9999999999999999,16.365491134440354
7.664,1.0,16.13359633742731
7.672,1.0,15.90160988371815
7.68,1.0,15.669532340450342
7.688,0.9999999999999998,15.43736427635261
7.696,0.9999999999999999,15.205106261805229
7.704,0.9999999999999999,14.972758868899916
7.712,0.9999999999999999,14.74032267149906
7.72,1.0,14.507798245294381
7.728,1.0,14.27518616786444
7.736,0.9999999999999999,14.042487018731151
7.744,1.0,13.809701379414838
7.752,1.0,13.576829833487945
7.76,0.9999999999999999,13.34387296662696
7.768,0.9999999999999999,13.110831366662572
7.776,1.0,12.877705623627888
7.784,1.0,12.64449632980454
7.792,1.0,12.411204079766586
7.8,1.0,12.177829470422072
7.808,1.0,11.944373101052193
7.816,0.9999997967118659,11.710835573347918
7.824,0.9999990050436378,11.477217491444023
7.832,0.9999982412792667,11.243519461950497
7.84,0.9999975052403739,11.00974209398118
7.848,0.9999967967268028,10.77588599917969
7.856,0.9999961155174439,10.54195179174254
7.864,0.9999954613710786,10.307940088439427
7.872,0.9999948340272369,10.073851508630746
7.88,0.9999942332070706,9.839686674282216
7.888,0.9999936586142342,9.605446209976739
7.896,0.9999931099357763,9.37113074292343
7.904,0.9999925868430314,9.136740902963897
7.912,0.9999920889925199,8.902277322575753
7.92,0.9999916160268429,8.667740636873472
7.928,0.999991167575578,8.433131483606573
7.936,0.9999907432561683,8.19845050315522
7.944,0.9999903426748067,7.963698338523318
7.952,0.9999899654273093,7.728875635329106
7.96,0.99998961109998,7.493983041793444
7.968,0.9999892792704624,7.259021208725704
7.976,0.9999889695085753,7.023990789507551
7.984,0.9999886813771368,6.788892440074474
7.992,0.9999884144327674,6.5537268188953535
8.0,0.9999881682266767,6.3184945869500435
8.008,0.9999879423054305,6.083196407705124
8.016,0.9999877362116973,5.8478329470877215
8.024000000000001,0.9999875494849716,5.61240487345805
8.032,0.9999873816622783,5.376912857579966
8.04,0.999987232278851,5.141357572590115
8.048,0.9999871008687873,4.905739693965879
8.056000000000001,0.9999869869656807,4.670059899492041
8.064,0.9999868901032283,4.434318869226043
8.072,0.9999868098158122,4.198517285462146
8.08,0.9999867456390557,3.962655832694791
8.088000000000001,0.9999866971103573,3.726735197581015
8.096,0.9999866637693945,3.4907560689018733
8.104,0.9999866451586072,3.254719137523045
8.112,0.9999866408236543,3.018625096355036
8.120000000000001,0.9999866503138429,2.7824746403127594
8.128,0.9999866731825371,2.546268466274419
8.136,0.9999867089875392,2.3100072730399286
8.144,0.999986757291448,2.073691761289196
8.152000000000001,0.9999868176619957,1.8373226335400976
8.16,0.9999868896723555,1.6009005941060233
8.168,0.9999869729014346,1.3644263490532094
8.176,0.9999870669341384,1.1279006061582157
8.184000000000001,0.999987171361617,0.8913240748653162
8.192,0.9999872857814891,0.6546974662436731
8.2,0.9999874097980461,0.4180214929445594
8.208,0.9999875430224355,0.18129686915886917
8.216000000000001,0.999987685072828,-0.055475689425228014
8.224,0.9999878355745616,-0.29229546566468334
8.232,0.9999879941602724,-0.529161741003759
8.24,0.9999881604700053,-0.7660737955157686
8.248000000000001,0.9999883341513107,-1.00303090794453
8.256,0.9999885148593219,-1.2400323557457622
8.264,0.9999887022568237,-1.4770774151281107
8.272,0.9999888960142981,-1.714165361093664
8.280000000000001,0.999989095809964,-1.9512954674780456
8.288,0.9999893013298008,-2.18846700699038
8.296,0.999989512267558,-2.425679251252836
8.304,0.9999897283247565,-2.6629314708394825
8.312,0.9999899492106757,-2.900222935314771
8.32,0.9999901746423339,-3.1375529132720064
8.328,0.9999904043444533,-3.37492067237062
8.336,0.9999906380494225,-3.6123254793738044
8.344,0.9999908754972442,-3.8497666001848834
8.352,0.9999911164354796,-4.087243299883995
8.36,0.999991360619182,-4.324754842763513
8.368,0.999991607810826,-4.562300492363817
8.376,0.9999918577802267,-4.799879511507752
8.384,0.9999921103044582,-5.037491162335441
8.392,0.9999923651677601,-5.275134706337842
8.4,0.9999926221614461,-5.5128094043905955
8.408,0.9999928810838016,-5.750514516786661
8.416,0.9999931417399799,-5.988249303269262
8.424,0.9999934039418972,-6.226013023063576
8.432,0.9999936675081185,-6.463804934908809
8.44,0.999993932263746,-6.701624297089002
8.448,0.9999941980403014,-6.93947036746423
8.456,0.9999944646756067,-7.177342403500527
8.464,0.9999947320136647,-7.415239662300271
8.472,0.9999949999045352,-7.653161400631292
8.48,0.9999952682042119,-7.891106874956409
8.488,0.9999955367744963,-8.12907534146178
8.496,0.9999958054828735,-8.367066056085644
8.504,0.9999960742023837,-8.605078274545939
8.512,0.9999963428114966,-8.843111252368297
8.52,0.999996611193985,-9.081164244912927
8.528,0.9999968792387949,-9.319236507401932
8.536,0.999997146839922,-9.557327294945503
8.544,0.9999974138962836,-9.79543586256859
8.552,0.9999976803115922,-10.033561465236412
8.56,0.9999979459942313,-10.27170335788056
8.568,0.9999982108571315,-10.509860795423863
8.576,0.9999984748176447,-10.748033032805905
8.584,0.9999987377974253,-10.986219325007365
8.592,0.9999989997223062,-11.224418927074918
8.6,0.9999992605221802,-11.462631094145094
8.608,0.9999995201308826,-11.700855081468653
8.616,0.9999997784860719,-11.93909014443392
8.624,0.9999999999999999,-12.177335538590718
8.632,0.9999999999999999,-12.415590519673216
8.64,1.0,-12.653854343623419
8.648,1.0,-12.892126266613573
8.656,0.9999999999999999,-13.130405545069241
8.664,0.9999999999999999,-13.368691435691328
8.672,0.9999999999999999,-13.606983195478739
8.68,0.9999999999999999,-13.845280081750042
8.688,1.0,-14.08358135216576
8.696,1.0,-14.321886264749681
8.704,1.0,-14.56019407791084
8.712,1.0,-14.79850405046448
8.72,1.0,-15.03681544165372
8.728,1.0,-15.275127511170243
8.736,0.9999999999999999,-15.513439519175652
8.744,0.9999999999999999,-15.751750726321857
8.752,0.9999999999999999,-15.990060393772227
8.76,0.9999999999999999,-16.22836778322168
8.768,0.9999999999999999,-16.466672156917536
8.776,1.0,-16.70497277767948
8.784,0.9999999999999999,-16.943268908920064
8.792,0.9999999999999998,-17.181559814664496
8.8,1.0,-17.419844759570978
8.808,1.0,-17.65812300895018
8.815999999999999,0.9999999999999999,-17.89639382878539
8.824,0.9999999999999998,-18.134656485752036
8.832,1.0,-18.372910247237176
8.84,0.9999999999999999,-18.61115438135911
8.847999999999999,1.0,-18.849388156986855
8.856,1.0000000000000002,-19.087610843759407
8.864,1.0,-19.32582171210489
8.872,0.9999999999999999,-19.564020033259723
8.879999999999999,1.0,-19.80220507928795
8.888,1.0,-20.040376123100028
8.896,1.0,-20.278532438471686
8.904,0.9999999999999998,-20.51667330006287
8.911999999999999,1.0,-20.754797983436667
8.92,0.9999999999999999,-20.992905765077868
8.928,0.9999999999999999,-21.23099592241153
8.936,1.0,-21.469067733821635
8.943999999999999,0.9999999999999999,-21.70712047866972
8.952,0.9999999999999999,-21.9451534373132
8.96,1.0,-22.183165891123654
8.968,1.0,-22.421157122505193
8.975999999999999,1.0,-22.659126414912876
8.984,1.0,-22.897073052870745
8.992,1.0,-23.134996321989853
9.0,1.0000000000000002,-23.37289550898642
9.008,1.0000000000000002,-23.610769901699946
9.016,0.9999999999999999,-23.848618789111033
9.024000000000001,0.9999999999999999,-24.08644146135915
9.032,0.9999999999999999,-24.324237209760554
9.04,1.0,-24.562005326826174
9.048,1.0,-24.799745106279143
9.056000000000001,0.9999999999999999,-25.03745584307235
9.064,1.0,-25.275136833406133
9.072,1.0,-25.51278737474586
9.08,1.0,-25.750406765839287
9.088000000000001,0.9999999999999999,-25.987994306733817
9.096,1.0,-26.225549298793993
9.104,1.0,-26.46307104471875
9.112,1.0,-26.700558848558632
9.120000000000001,1.0,-26.93801201573274
9.128,1.0,-27.175429853045912
9.136,1.0,-27.41281166870593
9.144,1.0,-27.650156772340225
9.152000000000001,1.0,-27.887464475012738
9.16,1.0,-28.12473408924082
9.168,1.0,-28.36196492901209
9.176,0.9999999999999999,-28.599156309801042
9.184000000000001,1.0,-28.83630754858547
9.192,1.0,-29.0734179638632
9.2,1.0,-29.310486875668698
9.208,0.9999999999999999,-29.547513605589266
9.216000000000001,0.9999999999999999,-29.784497476781382
9.224,0.9999999999999999,-30.021437813987042
9.232,0.9999999999999999,-30.258333943550106
9.24,0.9999999999999999,-30.495185193432206
9.248000000000001,1.0,-30.731990893228883
9.256,1.0,-30.968750374185465
9.264,1.0,-31.205462969213322
9.272,0.9999999999999999,-31.442128012905343
9.280000000000001,1.0,-31.678744841551854
9.288,1.0,-31.91531279315618
9.296,1.0,-32.1518312074505
9.304,0.9999999999999999,-32.38829942591124
9.312000000000001,1.0,-32.6247167917744
9.32,1.0,-32.86108265005109
9.328,1.0,-33.09739634754285
9.336,1.0,-33.3336572328568
9.344,0.9999999999999999,-33.569864656420705
9.352,1.0,-33.8060179704982
9.36,0.9999999999999999,-34.04211652920353
9.368,0.9999999999999999,-34.278159688516766
9.376,1.0,-34.51414680629818
9.384,1.0,-34.75007724230339
9.392,1.0,-34.98595035819761
9.4,1.0,-35.22176551757062
9.408,0.9999999999999999,-35.457522085950714
9.416,0.9999999999999999,-35.693219430819546
9.424,0.9999999999999999,-35.928856921626064
9.432,1.0000000000000002,-36.164433929800964
9.44,1.0,-36.39994982877056
9.448,0.9999999999999999,-36.635403993971025
9.456,1.0,-36.87079580286201
9.464,1.0,-37.10612463494089
9.472,1.0,-37.34138987175604
9.48,1.0,-37.57659089692087
9.488,1.0,-37.81172709612703
9.496,1.0,-38.04679785715824
9.504,0.9999999999999999,-38.281802569903206
9.512,0.9999999999999998,-38.51674062636937
9.52,1.0,-38.751611420695546
9.528,1.0000000000000002,-38.986414349165535
9.536,1.0,-39.221148810220555
9.544,0.9999999999999999,-39.45581420447263
9.552,1.0,-39.690409934716875
9.56,0.9999999999999999,-39.92493540594459
9.568,1.0,-40.15939002535548
9.576,1.0,-40.393773202370454
9.584,1.0,-40.62808434864367
9.592,1.0,-40.862322878075126
9.6,1.0000000000000002,-41.09648820682247
9.608,1.0,-41.330579753313486
9.616,1.0,-41.564596938257594
9.624,0.9999999999999999,-41.798539184658146
9.632,1.0,-42.032405917823766
9.64,0.9999999999999999,-42.26619656538043
9.648,1.0,-42.49991055728256
9.656,0.9999999999999999,-42.733547325824844
9.664,1.0,-42.96710630565325
9.672,1.0,-43.20058693377665
9.68,1.0,-43.4339886495774
9.688,1.0,-43.667310894822876
9.696,0.9999999999999999,-43.90055311367602
9.704,0.9999999999999999,-44.13371475270637
9.712,1.0,-44.366795260900496
9.72,1.0,-44.5997940896729
9.728,0.9999999999999999,-44.83271069287617
9.736,1.0,-45.06554452681162
9.744,1.0000000000000002,-45.29829505023924
9.752,1.0,-45.53096172438825
9.76,1.0,-45.76354401296665
9.768,1.0,-45.99604138217158
9.776,1.0,-46.22845330069881
9.784,1.0,-46.46077923975269
9.792,0.9999999999999999,-46.69301867305552
9.8,0.9999999999999999,-46.92517107685724
9.808,1.0,-47.15723592994462
9.816,0.9999999999999999,-47.38921271365072
9.824,0.9999999999999999,-47.621100911863756
9.832,1.0,-47.85290001103649
9.84,1.0,-48.08460950019479
9.847999999999999,1.0,-48.31622887094673
9.856,1.0,-48.54775761749123
9.864,1.0,-48.77919523662648
9.872,0.9999999999999999,-49.01054122775854
9.879999999999999,1.0,-49.24179509290979
9.888,1.0,-49.47295633672714
9.896,0.9999999999999999,-49.70402446648997
9.904,1.0,-49.93499899211838
9.911999999999999,0.9999999999999999,-50.16587942618109
9.92,1.0,-50.39666528390325
9.928,1.0,-50.62735608317398
9.936,1.0,-50.857951344553996
9.943999999999999,1.0,-51.088450591283284
9.952,0.9999999999999999,-51.31885334928835
9.96,1.0,-51.54915914718924
9.968,0.9999999999999999,-51.779367516306884
9.975999999999999,0.9999999999999998,-52.00947799067025
9.984,1.0,-52.23949010702299
9.992,1.0,-52.469403404830324
10.0,1.0,-52.6992174262857
10.008,1.0,-52.92893171631749
10.016,0.9999999999999999,-53.15854582259539
10.024000000000001,0.9999999999999999,-53.3880592955367
10.032,1.0,-53.61747168831249
10.04,1.0,-53.84678255685406
10.048,1.0000000000000002,-54.07599145985874
10.056000000000001,1.0,-54.305097958795606
10.064,1.0,-54.53410161791163
10.072,1.0,-54.76300200423719
10.08,0.9999999999999999,-54.99179868759176
10.088000000000001,1.0,-55.22049124058914
10.096,1.0,-55.44907923864296
10.104,1.0,-55.67756225997209
10.112,0.9999999999999999,-55.90593988560554
10.120000000000001,1.0,-56.13421169938756
10.128,0.9999999999999999,-56.362377287982476
10.136,1.0,-56.590436240879804
10.144,0.9999999999999999,-56.81838815039868
10.152000000000001,1.0,-57.046232611692496
10.16,0.9999999999999999,-57.27396922275336
10.168,0.9999999999999999,-57.50159758441671
10.176,1.0,-57.7291173003654
10.184000000000001,0.9999999999999999,-57.95652797713384
10.192,1.0,-58.18382922411208
10.2,1.0,-58.411020653549926
10.208,1.0,-58.63810188056074
10.216000000000001,1.0,-58.865072523124944
10.224,1.0,-59.09193220209395
10.232,1.0,-59.31868054119363
10.24,1.0,-59.54531716702779
