freq,mag,phase
6.0,0.9999902442298113,60.66603554786846
6.008,0.9999907496095338,60.49319160844642
6.016,0.9999912420266825,60.32029892841255
6.024,0.9999917216698232,60.147357492096596
6.032,0.9999921887259703,59.97436728397296
6.04,0.9999926433805936,59.801328288661765
6.048,0.999993085817621,59.62824049092984
6.056,0.9999935162194455,59.45510387569172
6.064,0.9999939347669279,59.281918428010734
6.072,0.9999943416394038,59.108684133099956
6.08,0.9999947370146871,58.935400976323294
6.088,0.9999951210690754,58.76206894319645
6.096,0.9999954939773549,58.58868801938796
6.104,0.9999958559128058,58.4152581907202
6.112,0.9999962070472068,58.24177944317039
6.12,0.9999965475508407,58.06825176287165
6.128,0.9999968775924981,57.89467513611394
6.136,0.9999971973394852,57.72104954934513
6.144,0.9999975069576258,57.54737498917199
6.152,0.9999978066112687,57.373651442361194
6.16,0.999998096463292,57.19987889584025
6.168,0.9999983766751078,57.02605733669862
6.176,0.9999986474066688,56.85218675218871
6.184,0.9999989088164721,56.678267129726734
6.192,0.9999991610615655,56.50429845689387
6.2,0.9999994042975516,56.330280721437134
6.208,0.999999638678595,56.156213911270484
6.216,0.9999998643574256,55.98209801447571
6.224,1.0,55.80793301930348
6.232,1.0,55.63371891417431
6.24,1.0,55.45945568767957
6.248,1.0,55.285143328582414
6.256,0.9999999999999999,55.110781825818826
6.264,1.0,54.936371168498546
6.272,1.0,54.76191134590611
6.28,1.0,54.587402347501744
6.288,0.9999999999999999,54.41284416292242
6.296,1.0000000000000002,54.23823678198276
6.304,1.0,54.063580194676064
6.312,1.0,53.8888743911752
6.32,1.0,53.71411936183367
6.328,0.9999999999999999,53.53931509718649
6.336,1.0,53.364461587951176
6.344,1.0,53.18955882502872
6.352,1.0000000000000002,53.01460679950451
6.36,0.9999999999999999,52.839605502649384
6.368,1.0,52.66455492592039
6.376,1.0,52.48945506096192
6.384,1.0,52.3143058996066
6.392,0.9999999999999999,52.13910743387616
6.4,1.0,51.963859655982496
6.408,0.9999999999999999,51.78856255832852
6.416,1.0,51.61321613350916
6.424,1.0,51.43782037431223
6.432,0.9999999999999999,51.26237527371942
6.44,0.9999999999999999,51.0868808249072
6.448,1.0,50.91133702124773
6.456,1.0000000000000002,50.735743856309846
6.464,1.0,50.5601013238599
6.472,0.9999999999999999,50.38440941786277
6.48,1.0,50.20866813248267
6.4879999999999995,0.9999999999999999,50.032877462084194
6.496,1.0,49.85703740123306
6.504,1.0,49.681147944697265
6.5120000000000005,1.0,49.50520908744765
6.52,1.0,49.32922082465918
6.5280000000000005,1.0,49.15318315171151
6.536,0.9999999999999999,48.97709606419019
6.5440000000000005,1.0,48.80095955788721
6.552,0.9999999999999999,48.624773628802295
6.5600000000000005,1.0,48.448538273143384
6.568,1.0,48.272253487327944
6.5760000000000005,0.9999999999999998,48.095919267983376
6.584,1.0,47.91953561194834
6.592,1.0,47.743102516273346
6.6,0.9999999999999999,47.56661997822174
6.608,1.0,47.39008799527056
6.616,1.0,47.21350656511142
6.624,0.9999999999999999,47.03687568565131
6.632,1.0,46.860195355013545
6.64,1.0,46.68346557153858
6.648,1.0,46.50668633378482
6.656,0.9999999999999999,46.32985764052959
6.664,1.0,46.15297949076987
6.672,1.0,45.976051883723194
6.68,1.0,45.799074818828515
6.688,1.0,45.62204829574695
6.696,1.0,45.444972314362744
6.704,1.0,45.26784687478399
6.712,1.0000000000000002,45.090671977343575
6.72,0.9999999999999999,44.91344762259983
6.728,0.9999999999999999,44.73617381133757
6.736,1.0,44.55885054456871
6.744,1.0,44.38147782353328
6.752,1.0,44.204055649700024
6.76,0.9999999999999999,44.02658402476735
6.768,0.9999999999999999,43.84906295066415
6.776,1.0,43.67149242955047
6.784,1.0,43.49387246381846
6.792,0.9999999999999999,43.31620305609303
6.8,0.9999999999999999,43.13848420923275
6.808,1.0,42.96071592633059
6.816,1.0,42.782898210714684
6.824,1.0,42.60503106594914
6.832,1.0,42.42711449583483
6.84,1.0,42.24914850441009
6.848,1.0,42.071133095951545
6.856,0.9999999999999999,41.893068274974894
6.864,0.9999999999999999,41.714954046235626
6.872,1.0,41.53679041472975
6.88,1.0,41.35857738569462
6.888,1.0,41.180314964609636
6.896,1.0,41.002003157197024
6.904,1.0,40.823641969422496
6.912,1.0,40.64523140749606
6.92,0.9999999999999999,40.46677147787278
6.928,0.9999999371288268,40.28826218725341
6.936,0.9999998415082813,40.10970354258514
6.944,0.9999997458257789,39.93109555106239
6.952,0.9999996501271177,39.752438220127445
6.96,0.9999995544572208,39.57373155747123
6.968,0.9999994588601444,39.39497557103391
6.976,0.9999993633790838,39.216170269005715
6.984,0.9999992680563794,39.03731565982759
6.992,0.9999991729335236,38.85841175219184
7.0,0.9999990780511672,38.67945855504293
7.008,0.9999989834491252,38.50045607757804
7.016,0.999998889166384,38.32140432924785
7.024,0.9999987952411069,38.14230331975716
7.032,0.9999987017106423,37.963153059065604
7.04,0.9999986086115271,37.78395355738823
7.048,0.9999985159794967,37.604704825196286
7.056,0.9999984238494881,37.42540687321779
7.064,0.9999983322556487,37.24605971243821
7.072,0.9999982412313415,37.06666335410112
7.08,0.9999981508091522,36.887217809708815
7.088,0.9999980610208945,36.70772309102301
7.096,0.9999979718976177,36.52817921006542
7.104,0.9999978834696125,36.348586179118406
7.112,0.999997795766418,36.16894401072559
7.12,0.9999977088168268,35.98925271769252
7.128,0.9999976226488925,35.80951231308723
7.136,0.9999975372899361,35.629722810240914
7.144,0.9999974527665518,35.449884222748445
7.152,0.9999973691046135,35.26999656446905
7.16,0.9999972863292816,35.090059849526895
7.168,0.9999972044650088,34.91007409231168
7.176,0.9999971235355474,34.73003930747918
7.184,0.999997043563954,34.549955509951864
7.192,0.9999969645725977,34.3698227149195
7.2,0.9999968865831651,34.18964093783964
7.208,0.9999968096166678,34.00941019443833
7.216,0.9999967336934477,33.82913050071047
7.224,0.9999966588331833,33.648801872920586
7.232,0.9999965850548976,33.468424327603245
7.24,0.9999965123769622,33.28799788156364
7.248,0.9999964408171056,33.107522551878105
7.256,0.9999963703924174,32.92699835589474
7.264,0.9999963011193574,32.74642531123381
7.272,0.9999962330137594,32.56580343578839
7.28,0.9999961660908381,32.38513274772481
7.288,0.9999961003651965,32.2044132654832
7.296,0.9999960358508306,32.02364500777802
7.304,0.9999959725611371,31.84282799359854
7.312,0.9999959105089186,31.661962242209295
7.32,0.9999958497063903,31.48104777315068
7.328,0.9999957901651858,31.300084606239366
7.336,0.9999957318963643,31.119072761568788
7.344,0.9999956749104156,30.938012259509666
7.352,0.9999956192172675,30.756903120710437
7.36,0.9999955648262912,30.575745366097717
7.368,0.9999955117463072,30.394539016876827
7.376,0.9999954599855927,30.213284094532128
7.384,0.9999954095518863,30.03198062082762
7.392,0.9999953604523957,29.850628617807253
7.4,0.9999953126938027,29.66922810779547
7.4079999999999995,0.9999952662822695,29.487779113397583
7.416,0.999995221223445,29.306281657500165
7.4239999999999995,0.9999951775224715,29.124735763271616
7.432,0.9999951351839892,28.943141454162365
7.4399999999999995,0.9999950942121444,28.76149875390554
7.448,0.9999950546105939,28.57980768651708
7.4559999999999995,0.9999950163825118,28.398068276296435
7.464,0.9999949795305948,28.216280547826674
7.4719999999999995,0.99999494405707,28.034444525975143
7.48,0.9999949099636989,27.852560235893574
7.4879999999999995,0.9999948772517844,27.67062770301874
7.496,0.999994845922177,27.48864695307255
7.504,0.9999948159752803,27.306618012062692
7.5120000000000005,0.9999947874110566,27.124540906282682
7.52,0.9999947602290342,26.942415662312552
7.5280000000000005,0.9999947344283122,26.760242307018867
7.536,0.9999947100075667,26.578020867555374
7.5440000000000005,0.9999946869650561,26.395751371363037
7.552,0.9999946652986293,26.213433846170666
7.5600000000000005,0.9999946450057287,26.0310683199949
7.568,0.9999946260833967,25.84865482114095
7.5760000000000005,0.9999946085282839,25.66619337820239
7.584,0.9999945923366521,25.483684020062007
7.5920000000000005,0.9999945775043811,25.3011267758916
7.6,0.9999945640269751,25.11852167515271
7.6080000000000005,0.9999945518995673,24.93586874759648
7.616,0.9999945411169272,24.75316802326435
7.6240000000000006,0.9999945316734651,24.570419532487968
7.632,0.9999945235632377,24.38762330588975
7.640000000000001,0.9999945167799552,24.204779374382888
7.648,0.9999945113169854,24.02188776917185
7.656000000000001,0.9999945071673608,23.838948521752336
7.664,0.999994504323783,23.65596166391186
7.672,0.9999945027786292,23.472927227729674
7.68,0.999994502523957,23.28984524557719
7.688,0.9999945035515116,23.106715750118134
7.696,0.9999945058527291,22.923538774308756
7.704,0.9999945094187441,22.740314351398073
7.712,0.9999945142403943,22.557042514928018
7.72,0.9999945203082257,22.373723298733694
7.728,0.999994527612499,22.190356736943514
7.736,0.9999945361431943,22.00694286397944
7.744,0.9999945458900174,21.82348171455709
7.752,0.999994556842404,21.639973323685947
7.76,0.9999945689895264,21.45641772666955
7.768,0.9999945823202984,21.27281495910559
7.776,0.9999945968233803,21.08916505688608
7.784,0.9999946124871849,20.90546805619755
7.792,0.999994629299882,20.721723993521085
7.8,0.999994647249405,20.53793290563255
7.808,0.9999946663234549,20.35409482960266
7.816,0.9999946865095064,20.170209802797093
7.824,0.9999947077948125,19.98627786287664
7.832,0.9999947301664105,19.802299047797277
7.84,0.9999947536111267,19.618273395810256
7.848,0.9999947781155814,19.434200945462216
7.856,0.9999948036661944,19.250081735595256
7.864,0.9999948302491901,19.065915805347007
7.872,0.9999948578506029,18.881703194150703
7.88,0.9999948864562811,18.697443941735237
7.888,0.9999949160518936,18.513138088125228
7.896,0.9999949466229336,18.32878567364108
7.904,0.9999949781547245,18.144386738898973
7.912,0.9999950106324245,17.959941324810952
7.92,0.9999950440410312,17.77544947258494
7.928,0.9999950783653874,17.590911223724724
7.936,0.9999951135901852,17.406326620030033
7.944,0.9999951496999713,17.221695703596467
7.952,0.9999951866791519,17.03701851681558
7.96,0.9999952245119974,16.85229510237479
7.968,0.9999952631826468,16.667525503257426
7.976,0.9999953026751133,16.482709762742676
7.984,0.9999953429732887,16.297847924405573
7.992,0.9999953840609482,16.11294003211693
8.0,0.9999954259217543,15.927986130043355
8.008,0.9999954685392627,15.742986262647154
8.016,0.9999955118969261,15.557940474686209
8.024000000000001,0.9999955559780994,15.372848811214112
8.032,0.999995600766044,15.187711317579941
8.04,0.999995646243932,15.002528039428155
8.048,0.9999956923948515,14.817299022698542
8.056000000000001,0.9999957392018105,14.632024313626241
8.064,0.9999957866477418,14.446703958741555
8.072,0.9999958347155067,14.261338004869744
8.08,0.9999958833879008,14.075926499131013
8.088000000000001,0.9999959326476567,13.890469488940449
8.096,0.9999959824774498,13.704967022007835
8.104,0.999996032859902,13.51941914633742
8.112,0.9999960837775856,13.333825910227853
8.120000000000001,0.9999961352130287,13.148187362272116
8.128,0.9999961871487181,12.9625035513573
8.136,0.9999962395671048,12.776774526664317
8.144,0.9999962924506074,12.591000337667866
8.152000000000001,0.9999963457816162,12.405181034136277
8.16,0.9999963995424979,12.219316666131286
8.168,0.9999964537155988,12.033407284007733
8.176,0.9999965082832502,11.847452938413456
8.184000000000001,0.9999965632277713,11.661453680289139
8.192,0.9999966185314733,11.475409560868055
8.2,0.9999966741766643,11.289320631675714
8.208,0.9999967301456517,11.103186944529744
8.216000000000001,0.999996786420748,10.917008551539725
8.224,0.9999968429842729,10.730785505106844
8.232,0.9999968998185578,10.544517857923601
8.24,0.9999969569059508,10.358205662973571
8.248000000000001,0.999997014228818,10.171848973531276
8.256,0.9999970717695497,9.98544784316178
8.264,0.9999971295105627,9.799002325720346
8.272,0.9999971874343043,9.612512475352235
8.280000000000001,0.9999972455232563,9.425978346492451
8.288,0.9999973037599381,9.239399993865407
8.296,0.9999973621269105,9.052777472484477
8.304,0.9999974206067795,8.866110837651803
8.312,0.9999974791821993,8.679400144958048
8.32,0.9999975378358766,8.492645450281794
8.328,0.9999975965505729,8.305846809789527
8.336,0.9999976553091089,8.119004279934964
8.344,0.9999977140943677,7.932117917458997
8.352,0.9999977728892977,7.74518777938902
8.36,0.9999978316769166,7.558213923038876
8.368,0.999997890440314,7.371196406008157
8.376,0.9999979491626549,7.184135286182118
8.384,0.9999980078271836,6.9970306217309926
8.392,0.9999980664172253,6.8098824711098755
8.4,0.9999981249161917,6.622690893058004
8.408,0.9999981833075804,6.435455946598678
8.416,0.9999982415749824,6.248177691038476
8.424,0.9999982997020821,6.060856185967172
8.432,0.9999983576726609,5.873491491256959
8.44,0.9999984154706008,5.686083667062324
8.448,0.9999984730798868,5.498632773819269
8.456,0.9999985304846102,5.311138872245177
8.464,0.9999985876689717,5.123602023337991
8.472,0.999998644617282,4.936022288376101
8.48,0.9999987013139692,4.748399728917483
8.488,0.9999987577435758,4.560734406799578
8.496,0.999998813890767,4.373026384138424
8.504,0.999998869740329,4.1852757233284965
8.512,0.9999989252771744,3.997482487041858
8.52,0.9999989804863432,3.809646738227954
8.528,0.9999990353530066,3.6217685401127637
8.536,0.9999990898624687,3.4338479561985737
8.544,0.9999991440001695,3.2458850502631256
8.552,0.9999991977516866,3.057879886359364
8.56,0.999999251102739,2.8698325288145567
8.568,0.9999993040391888,2.6817430422300568
8.576,0.9999993565470423,2.493611491480389
8.584,0.9999994086124548,2.305437941712996
8.592,0.9999994602217314,2.1172224583473147
8.6,0.9999995113613286,1.9289651070745117
8.608,0.9999995620178584,1.7406659538565348
8.616,0.9999996121780886,1.5523250649258393
8.624,0.999999661828947,1.3639425067844224
8.632,0.999999710957521,1.175518346203537
8.64,0.9999997595510624,0.9870526502227085
8.648,0.9999998075969863,0.7985454861494332
8.656,0.9999998550828761,0.6099969215581837
8.664,0.9999999019964845,0.4214070242900841
8.672,0.9999999483257342,0.23277586245191031
8.68,0.9999999940587209,0.04410350441574919
8.688,1.0,-0.1446099811820201
8.696,1.0,-0.33336452544109296
8.704,0.9999999999999999,-0.5221600591982488
8.712,1.0,-0.7109965130277435
8.72,1.0,-0.899873817242347
8.728,0.9999999999999999,-1.088791901893729
8.736,1.0,-1.2777506967735255
8.744,1.0,-1.4667501314137363
8.752,1.0,-1.6557901350878046
8.76,1.0,-1.844870636811029
8.768,1.0,-2.0339915653416596
8.776,0.9999999999999999,-2.2231528491813304
8.784,0.9999999999999998,-2.412354416576155
8.792,1.0,-2.6015961955171862
8.8,0.9999999999999999,-2.7908781137415284
8.808,0.9999999999999998,-2.9802000987327983
8.815999999999999,0.9999999999999998,-3.1695620777222264
8.824,1.0,-3.3589639776893305
8.832,1.0,-3.548405725362656
8.84,1.0,-3.7378872472206814
8.847999999999999,0.9999999999999999,-3.9274084694927325
8.856,1.0,-4.116969318159733
8.864,1.0,-4.306569718954982
8.872,0.9999999999999999,-4.496209597365065
8.879999999999999,1.0,-4.685888878630825
8.888,1.0,-4.875607487748126
8.896,1.0,-5.065365349468652
8.904,0.9999999999999999,-5.255162388300876
8.911999999999999,0.9999999999999999,-5.4449985285110225
8.92,0.9999999999999998,-5.634873694123894
8.928,1.0,-5.824787808923677
8.936,1.0,-6.0147407964549435
8.943999999999999,1.0,-6.204732580023656
8.952,1.0,-6.394763082697993
8.96,1.0,-6.584832227309219
8.968,1.0,-6.774939936452696
8.975999999999999,0.9999999999999999,-6.965086132488898
8.984,1.0,-7.1552707375443125
8.992,0.9999999999999999,-7.3454936735122995
9.0,1.0,-7.535754862054135
9.008,1.0,-7.726054224600078
9.016,1.0,-7.916391682350268
9.024000000000001,0.9999999999999999,-8.106767156275636
9.032,1.0,-8.297180567118957
9.04,0.9999999999999999,-8.487631835395982
9.048,1.0,-8.678120881396305
9.056000000000001,1.0,-8.868647625184348
9.064,0.9999999999999999,-9.059211986600436
9.072,1.0,-9.249813885261911
9.08,0.9999999999999999,-9.440453240564109
9.088000000000001,1.0,-9.631129971681297
9.096,0.9999999999999999,-9.821843997567798
9.104,1.0,-10.01259523695916
9.112,1.0,-10.203383608373132
9.120000000000001,1.0,-10.39420903011061
9.128,1.0,-10.585071420256849
9.136,1.0,-10.775970696682608
9.144,1.0,-10.966906777045143
9.152000000000001,0.9999999999999998,-11.157879578789236
9.16,0.9999999999999999,-11.348889019148395
9.168,0.9999999999999999,-11.539935015146021
9.176,0.9999999999999999,-11.731017483596446
9.184000000000001,1.0,-11.922136341105988
9.192,0.9999999999999999,-12.113291504074141
9.2,0.9999999999999999,-12.304482888694835
9.208,0.9999999999999999,-12.495710410957441
9.216000000000001,1.0,-12.686973986647862
9.224,0.9999999999999999,-12.878273531349787
9.232,1.0,-13.069608960445914
9.24,1.0,-13.260980189119044
9.248000000000001,1.0,-13.452387132353156
9.256,1.0,-13.643829704934712
9.264,0.9999999999999999,-13.83530782145388
9.272,1.0,-14.026821396305651
9.280000000000001,0.9999999999999999,-14.218370343691003
9.288,1.0,-14.409954577618105
9.296,0.9999999999999999,-14.601574011903717
9.304,1.0,-14.793228560174216
9.312000000000001,0.9999999999999999,-14.984918135866812
9.32,0.9999999999999998,-15.176642652230832
9.328,1.0,-15.368402022329061
9.336,1.0,-15.560196159038862
9.344,0.9999999999999999,-15.752024975053315
9.352,1.0,-15.94388838288279
9.36,1.0,-16.13578629485584
9.368,1.0,-16.327718623120806
9.376,1.0,-16.51968527964677
9.384,1.0,-16.711686176225133
9.392,1.0,-16.903721224470633
9.4,0.9999999999999999,-17.095790335822862
9.408,0.9999999999999999,-17.287893421547324
9.416,1.0,-17.48003039273701
9.424,0.9999999999999999,-17.672201160313428
9.432,1.0,-17.864405635028156
9.44,1.0,-18.05664372746391
9.448,0.9999999999999999,-18.248915348036167
9.456,0.9999999999999999,-18.441220406994162
9.464,1.0,-18.633558814422532
9.472,1.0,-18.825930480242377
9.48,1.0,-19.018335314212905
9.488,0.9999999999999999,-19.210773225932403
9.496,1.0,-19.403244124840022
9.504,1.0,-19.595747920216713
9.512,1.0,-19.788284521187
9.52,1.0,-19.980853836719948
9.528,0.9999999999999999,-20.173455775630917
9.536,1.0,-20.366090246582623
9.544,0.9999999999999999,-20.558757158086795
9.552,1.0,-20.751456418505285
9.56,0.9999999556599048,-20.944187936051804
9.568,0.9999999085288511,-21.136951618792942
9.576,0.9999998607581607,-21.32974737464995
9.584,0.9999998123584883,-21.522575111399792
9.592,0.9999997633406399,-21.71543473667693
9.6,0.999999713715568,-21.90832615797435
9.608,0.9999996634943727,-22.10124928264537
9.616,0.9999996126882966,-22.294204017904757
9.624,0.9999995613087249,-22.48719027083041
9.632,0.9999995093671821,-22.68020794836456
9.64,0.9999994568753298,-22.873256957315487
9.648,0.9999994038449651,-23.066337204358657
9.656,0.9999993502880182,-23.259448596038514
9.664,0.9999992962165495,-23.4525910387696
9.672,0.9999992416427477,-23.64576443883835
9.68,0.9999991865789284,-23.838968702404195
9.688,0.9999991310375298,-24.032203735501444
9.696,0.9999990750311126,-24.225469444040336
9.704,0.9999990185723557,-24.418765733808936
9.712,0.9999989616740549,-24.612092510474206
9.72,0.9999989043491203,-24.8054496795839
9.728,0.9999988466105737,-24.998837146567656
9.736,0.9999987884715461,-25.19225481673888
9.744,0.9999987299452755,-25.385702595295914
9.752,0.9999986710451039,-25.5791803873238
9.76,0.999998611784475,-25.77268809779556
9.768,0.9999985521769327,-25.96622563157396
9.776,0.9999984922361165,-26.159792893412725
9.784,0.9999984319757603,-26.35338978795842
9.792,0.9999983714096897,-26.547016219751587
9.8,0.9999983105518189,-26.74067209322863
9.808,0.9999982494161489,-26.934357312723023
9.816,0.9999981880167632,-27.1280717824672
9.824,0.9999981263678274,-27.32181540659368
9.832,0.9999980644835845,-27.51558808913702
9.84,0.9999980023783535,-27.70938973403501
9.847999999999999,0.9999979400665256,-27.903220245130505
9.856,0.9999978775625626,-28.097079526172852
9.864,0.9999978148809936,-28.290967480819354
9.872,0.9999977520364114,-28.484884012636957
9.879999999999999,0.9999976890434713,-28.67882902510383
9.888,0.999997625916887,-28.872802421610917
9.896,0.999997562671429,-29.066804105463344
9.904,0.9999974993219202,-29.26083397988218
