freq,mag,phase
6.0,0.9999934560026886,80.55655540530434
6.008,0.9999940928909976,80.397667957215
6.016,0.9999947117531408,80.2386805383192
6.024,0.9999953128365452,80.07959312671092
6.032,0.9999958963870477,79.92040570105773
6.04,0.9999964626488964,79.76111824060379
6.048,0.9999970118647494,79.60173072517277
6.056,0.9999975442756754,79.44224313517083
6.064,0.9999980601211536,79.28265545158948
6.072,0.999998559639073,79.1229676560086
6.08,0.9999990430657344,78.9631797305994
6.088,0.9999995106358476,78.80329165812732
6.096,0.9999999625825338,78.64330342195501
6.104,1.0,78.48321500604531
6.112,1.0,78.32302639496412
6.12,1.0,78.16273757388345
6.128,1.0,78.00234852858432
6.136,0.9999999999999999,77.84185924545982
6.144,0.9999999999999999,77.6812697115179
6.152,1.0,77.52057991438448
6.16,1.0,77.35978984230636
6.168,1.0,77.19889948415415
6.176,0.9999999999999999,77.0379088294253
6.184,0.9999999999999999,76.87681786824704
6.192,1.0,76.71562659137929
6.2,1.0000000000000002,76.55433499021774
6.208,1.0,76.3929430567967
6.216,1.0,76.23145078379214
6.224,1.0,76.06985816452466
6.232,1.0,75.9081651929624
6.24,1.0,75.74637186372406
6.248,0.9999999999999998,75.58447817208183
6.256,0.9999999999999999,75.42248411396439
6.264,0.9999999999999999,75.26038968595986
6.272,0.9999999999999999,75.09819488531878
6.28,1.0,74.93589970995703
6.288,0.9999999999999999,74.77350415845888
6.296,1.0,74.61100823007986
6.304,0.9999999999999998,74.44841192474978
6.312,0.9999999999999999,74.28571524307573
6.32,1.0,74.1229181863449
6.328,0.9999999999999999,73.96002075652774
6.336,1.0,73.79702295628074
6.344,0.9999999999999999,73.63392478894951
6.352,1.0,73.47072625857166
6.36,1.0,73.30742736987982
6.368,1.0,73.14402812830453
6.376,1.0,72.98052853997727
6.384,1.0,72.81692861173332
6.392,1.0,72.65322835111476
6.4,0.9999999999999999,72.48942776637348
6.408,1.0,72.325526866474
6.416,0.9999999999999999,72.16152566109643
6.424,1.0,71.99742416063957
6.432,0.9999999999999999,71.83322237622362
6.44,1.0,71.6689203196933
6.448,1.0,71.50451800362066
6.456,0.9999999999999999,71.34001544130811
6.464,0.9999999999999999,71.17541264679126
6.472,1.0000000000000002,71.01070963484186
6.48,0.9999999999999999,70.84590642097082
6.4879999999999995,1.0,70.68100302143098
6.496,1.0,70.51599945322012
6.504,0.9999999999999998,70.3508957340839
6.5120000000000005,0.9999999999999999,70.1856918825186
6.52,1.0,70.02038791777429
6.5280000000000005,0.9999999999999999,69.85498385985738
6.536,1.0,69.68947972953399
6.5440000000000005,1.0,69.52387554833228
6.552,1.0,69.35817133854587
6.5600000000000005,0.9999999999999999,69.19236712323634
6.568,0.9999999999999999,69.0264629262363
6.5760000000000005,1.0,68.86045877215221
6.584,1.0,68.69435468636729
6.592,1.0,68.5281506950443
6.6,1.0,68.36184682512848
6.608,1.0,68.19544310435042
6.616,0.9999999999999999,68.02893956122882
6.624,0.9999999999999999,67.86233622507345
6.632,1.0,67.69563312598784
6.64,0.9999999999999999,67.52883029487232
6.648,1.0,67.36192776342662
6.656,1.0,67.19492556415291
6.664,1.0,67.02782373035845
6.672,0.9999999999999999,66.86062229615848
6.68,1.0,66.69332129647904
6.688,1.0,66.52592076705973
6.696,1.0,66.35842074445651
6.704,1.0,66.1908212660445
6.712,0.9999999999999999,66.02312237002073
6.72,1.0,65.85532409540698
6.728,1.0,65.68742648205246
6.736,0.9999999999999999,65.51942957063665
6.744,1.0000000000000002,65.35133340267197
6.752,1.0,65.18313802050662
6.76,1.0,65.01484346732721
6.768,1.0,64.84644978716157
6.776,1.0,64.67795702488147
6.784,0.9999999999999999,64.50936522620528
6.792,1.0,64.3406744377007
6.8,0.9999999999999999,64.1718847067875
6.808,1.0,64.00299608174012
6.816,1.0,63.83400861169046
6.824,1.0,63.66492234663048
6.832,1.0,63.495737337414866
6.84,0.9999999999999999,63.32645363576372
6.848,1.0000000000000002,63.15707129426517
6.856,0.9999999999999999,62.98759036637804
6.864,1.0,62.81801090643444
6.872,0.999999951101242,62.64833296964242
6.88,0.9999997503641227,62.478556612088575
6.888,0.9999995494414438,62.3086818907406
6.896,0.9999993484163281,62.138708863449935
6.904,0.9999991473705728,61.96863758895433
6.912,0.9999989463846531,61.79846812688039
6.92,0.9999987455377275,61.62820053774615
6.928,0.9999985449076441,61.45783488296364
6.936,0.9999983445709446,61.287371224841365
6.944,0.9999981446028708,61.116809626586914
6.952,0.9999979450773693,60.946150152309414
6.96,0.999997746067096,60.77539286702206
6.968,0.9999975476434242,60.604537836644624
6.976,0.9999973498764467,60.43358512800587
6.984,0.999997152834984,60.26253480884612
6.992,0.9999969565865885,60.09138694781964
7.0,0.999996761197551,59.92014161449713
7.008,0.9999965667329049,59.74879887936816
7.016,0.9999963732564342,59.57735881384352
7.024,0.9999961808306768,59.40582149025777
7.032,0.9999959895169326,59.234186981871474
7.04,0.9999957993752672,59.06245536287375
7.048,0.9999956104645197,58.89062670838453
7.056,0.9999954228423074,58.71870109445694
7.064,0.9999952365650321,58.54667859807971
7.072,0.9999950516878869,58.37455929717941
7.08,0.9999948682648611,58.20234327062288
7.088,0.9999946863487466,58.03003059821948
7.096,0.9999945059911449,57.85762136072336
7.104,0.9999943272424727,57.68511563983576
7.112,0.9999941501519681,57.51251351820733
7.12,0.9999939747676967,57.33981507944032
7.128,0.9999938011365589,57.167020408090835
7.136,0.9999936293042949,56.99412958967106
7.144,0.9999934593154925,56.82114271065152
7.152,0.999993291213593,56.648059858463164
7.16,0.9999931250408971,56.47488112149964
7.168,0.9999929608385729,56.301606589119444
7.176,0.9999927986466607,56.12823635164803
7.184,0.9999926385040815,55.95477050037996
7.192,0.9999924804486416,55.78120912758109
7.2,0.9999923245170423,55.60755232649056
7.208,0.9999921707448832,55.43380019132298
7.216,0.9999920191666716,55.25995281727047
7.224,0.9999918698158279,55.08601030050462
7.232,0.9999917227246934,54.91197273817875
7.24,0.9999915779245372,54.737840228429675
7.248,0.9999914354455618,54.56361287037993
7.256,0.9999912953169118,54.38929076413959
7.264,0.9999911575666806,54.21487401080837
7.272,0.9999910222219165,54.04036271247753
7.28,0.9999908893086303,53.8657569722318
7.288,0.999990758851804,53.691056894151295
7.296,0.999990630875395,53.516262583313456
7.304,0.9999905054023458,53.34137414579488
7.312,0.9999903824545907,53.16639168867331
7.32,0.9999902620530619,52.9913153200293
7.328,0.9999901442176992,52.81614514894823
7.336,0.9999900289674546,52.64088128552197
7.344,0.9999899163203019,52.46552384085074
7.352,0.999989806293243,52.29007292704494
7.36,0.9999896989023163,52.11452865722681
7.368,0.9999895941626028,51.938891145532196
7.376,0.9999894920882352,51.763160507112346
7.384,0.9999893926924044,51.58733685813547
7.392,0.9999892959873679,51.41142031578854
7.4,0.9999892019844568,51.23541099827889
7.4079999999999995,0.9999891106940839,51.05930902483589
7.416,0.999989022125751,50.88311451571249
7.4239999999999995,0.9999889362880574,50.706827592186976
7.432,0.9999888531887068,50.530448376564365
7.4399999999999995,0.9999887728345157,50.35397699217814
7.448,0.9999886952314213,50.177413563391546
7.4559999999999995,0.999988620384489,50.00075821559948
7.464,0.9999885482979199,49.82401107522957
7.4719999999999995,0.9999884789750605,49.64717226974401
7.48,0.9999884124184082,49.47024192764071
7.4879999999999995,0.9999883486296213,49.293220178455016
7.496,0.9999882876095258,49.116107152760854
7.504,0.9999882293581248,48.93890298217237
7.5120000000000005,0.9999881738746044,48.76160779934505
7.52,0.9999881211573438,48.58422173797732
7.5280000000000005,0.9999880712039227,48.40674493281161
7.536,0.9999880240111295,48.22917751963593
7.5440000000000005,0.9999879795749692,48.05151963528482
7.552,0.9999879378906721,47.87377141764102
7.5600000000000005,0.999987898952701,47.695933005636206
7.568,0.9999878627547614,47.518004539252736
7.5760000000000005,0.9999878292898078,47.33998615952433
7.584,0.9999877985500533,47.16187800853769
7.5920000000000005,0.9999877705269765,46.98368022943322
7.6,0.9999877452113314,46.80539296640651
7.6080000000000005,0.9999877225931554,46.62701636470911
7.616,0.9999877026617766,46.448550570649886
7.6240000000000006,0.9999876854058236,46.26999573159581
7.632,0.999987670813233,46.091351995973234
7.640000000000001,0.9999876588712583,45.91261951326859
7.648,0.999987649566478,45.73379843402967
7.656000000000001,0.9999876428848045,45.55488890986628
7.664,0.9999876388114924,45.37589109345146
7.672,0.9999876373311467,45.19680513852207
7.68,0.999987638427732,45.017631199879915
7.688,0.9999876420845805,44.83836943339246
7.696,0.999987648284401,44.659019995993674
7.704,0.9999876570092864,44.47958304568482
7.712,0.999987668240724,44.30005874153526
7.72,0.9999876819596032,44.12044724368315
7.728,0.9999876981462236,43.940748713336205
7.736,0.9999877167803041,43.76096331277232
7.744,0.9999877378409922,43.58109120534029
7.752,0.999987761306872,43.401132555460464
7.76,0.9999877871559719,43.221087528625254
7.768,0.9999878153657762,43.04095629139988
7.776,0.9999878459132303,42.86073901142272
7.784,0.9999878787747513,42.68043585740606
7.792,0.9999879139262369,42.500046999136416
7.8,0.9999879513430733,42.3195726074751
7.808,0.9999879910001441,42.13901285435865
7.816,0.9999880328718395,41.958367912799254
7.824,0.9999880769320643,41.77763795688514
7.832,0.9999881231542475,41.59682316178087
7.84,0.9999881715113501,41.41592370372781
7.848,0.9999882219758744,41.234939760044334
7.856,0.9999882745198733,41.053871509126125
7.864,0.9999883291149577,40.87271913044643
7.872,0.9999883857323063,40.69148280455629
7.88,0.9999884443426741,40.51016271308471
7.888,0.9999885049164008,40.32875903873884
7.896,0.9999885674234201,40.14727196530411
7.904,0.9999886318332687,39.96570167764429
7.912,0.9999886981150938,39.78404836170167
7.92,0.999988766237663,39.60231220449696
7.928,0.9999888361693727,39.42049339412944
7.936,0.9999889078782574,39.23859211977684
7.944,0.9999889813319971,39.05660857169538
7.952,0.9999890564979272,38.874542941219644
7.96,0.9999891333430472,38.69239542076246
7.968,0.9999892118340287,38.51016620381484
7.976,0.9999892919372249,38.32785548494576
7.984,0.9999893736186788,38.14546345980196
7.992,0.9999894568441328,37.96299032510773
8.0,0.999989541579036,37.780436278664645
8.008,0.9999896277885538,37.597801519351336
8.016,0.9999897154375765,37.41508624712299
8.024000000000001,0.9999898044907286,37.23229066301127
8.032,0.9999898949123756,37.049414969123774
8.04,0.9999899866666349,36.86645936864354
8.048,0.9999900797173826,36.68342406582872
8.056000000000001,0.9999901740282636,36.50030926601214
8.064,0.9999902695626994,36.31711517560074
8.072,0.9999903662838971,36.13384200207495
8.08,0.999990464154857,35.950489953988175
8.088000000000001,0.9999905631383829,35.767059240966304
8.096,0.9999906631970893,35.583550073706974
8.104,0.99999076429341,35.39996266397879
8.112,0.9999908663896079,35.21629722462076
8.120000000000001,0.999990969447782,35.03255396954162
8.128,0.9999910734298765,34.84873311371895
8.136,0.9999911782976896,34.66483487319836
8.144,0.9999912840128814,34.48085946509266
8.152000000000001,0.9999913905369824,34.29680710758114
8.16,0.9999914978314023,34.112678019908564
8.168,0.9999916058574384,33.92847242238416
8.176,0.9999917145762832,33.74419053638071
8.184000000000001,0.9999918239490334,33.559832584333655
8.192,0.9999919339366986,33.37539878974003
8.2,0.9999920445002078,33.19088937715718
8.208,0.9999921556004208,33.006304572201906
8.216000000000001,0.9999922671981327,32.821644601549295
8.224,0.9999923792540848,32.63690969293151
8.232,0.9999924917289722,32.452100075136485
8.24,0.9999926045834513,32.26721597800685
8.248000000000001,0.9999927177781482,32.08225763243864
8.256,0.9999928312736671,31.897225270379966
8.264,0.9999929450305983,31.712119124829538
8.272,0.9999930590095263,31.526939429835508
8.280000000000001,0.9999931731710366,31.341686420493975
8.288,0.9999932874757256,31.156360332947582
8.296,0.9999934018842074,30.970961404383885
8.304,0.9999935163571214,30.78548987303397
8.312,0.9999936308551409,30.599945978171014
8.32,0.9999937453389817,30.41432996010842
8.328,0.9999938597694066,30.228642060198506
8.336,0.9999939741072372,30.042882520830577
8.344,0.9999940883133593,29.857051585429517
8.352,0.9999942023487308,29.671149498453744
8.36,0.9999943161743899,29.48517650539384
8.368,0.9999944297514624,29.299132852770345
8.376,0.9999945430411687,29.11301878813233
8.384,0.9999946560048327,28.92683456005515
8.392,0.9999947686038876,28.74058041813894
8.4,0.9999948807998845,28.554256613006288
8.408,0.9999949925544994,28.367863396300617
8.416,0.9999951038295408,28.18140102068389
8.424,0.9999952145869561,27.994869739834844
8.432,0.9999953247888398,27.808269808446617
8.44,0.9999954343974401,27.621601482224964
8.448,0.9999955433751672,27.43486501788575
8.456,0.9999956516845986,27.248060673153134
8.464,0.999995759288487,27.061188706757026
8.472,0.9999958661497682,26.874249378431116
8.48,0.9999959722315658,26.687242948910303
8.488,0.9999960774972014,26.50016967992866
8.496,0.9999961819101983,26.313029834216742
8.504,0.9999962854342896,26.12582367549959
8.512,0.9999963880334253,25.938551468493852
8.52,0.9999964896717781,25.75121347890573
8.528,0.9999965903137511,25.56380997342809
8.536,0.999996689923983,25.376341219738304
8.544,0.9999967884673573,25.18880748649528
8.552,0.9999968859090042,25.00120904333721
8.56,0.9999969822143114,24.813546160878587
8.568,0.999997077348929,24.625819110707845
8.576,0.9999971712787745,24.438028165384296
8.584,0.9999972639700407,24.250173598435712
8.592,0.9999973553892016,24.062255684355176
8.6,0.9999974455030174,23.87427469859863
8.608,0.9999975342785419,23.6862309175816
8.616,0.9999976216831278,23.498124618676684
8.624,0.9999977076844332,23.30995608021024
8.632,0.9999977922504263,23.121725581459785
8.64,0.9999978753493926,22.933433402650586
8.648,0.99999795694994,22.745079824952988
8.656,0.999998037021004,22.556665130478983
8.664,0.9999981155318545,22.368189602279415
8.672,0.9999981924521002,22.17965352434047
8.68,0.9999982677516945,21.99105718158087
8.688,0.9999983414009417,21.802400859848234
8.696,0.9999984133705007,21.613684845916197
8.704,0.9999984836313921,21.424909427480742
8.712,0.9999985521550017,21.23607489315721
8.72,0.9999986189130871,21.04718153247656
8.728,0.9999986838777817,20.858229635882367
8.736,0.9999987470216004,20.669219494726914
8.744,0.9999988083174448,20.480151401268156
8.752,0.9999988677386068,20.291025648665805
8.76,0.9999989252587741,20.101842530978104
8.768,0.999998980852036,19.912602343157936
8.776,0.9999990344928859,19.7233053810495
8.784,0.9999990861562276,19.53395194138431
8.792,0.9999991358173793,19.344542321777837
8.8,0.9999991834520775,19.155076820725448
8.808,0.9999992290364823,18.965555737598926
8.815999999999999,0.9999992725471806,18.77597937264244
8.824,0.9999993139611912,18.58634802696874
8.832,0.9999993532559691,18.39666200255542
8.84,0.9999993904094083,18.206921602240907
8.847999999999999,0.9999994253998465,18.017127129720432
8.856,0.9999994582060702,17.82727888954207
8.864,0.9999994888073154,17.637377187102885
8.872,0.9999995171832748,17.447422328644738
8.879999999999999,0.9999995433140996,17.257414621250113
8.888,0.9999995671804033,17.067354372838096
8.896,0.9999995887632656,16.877241892160267
8.904,0.9999996080442349,16.687077488796437
8.911999999999999,0.9999996250053329,16.496861473150336
8.92,0.9999996396290572,16.30659415644538
8.928,0.9999996518983842,16.116275850720527
8.936,0.9999996617967731,15.925906868825793
8.943999999999999,0.9999996693081676,15.735487524417838
8.952,0.9999996744170006,15.545018131955585
8.96,0.9999996771081948,15.354499006695939
8.968,0.9999996773671679,15.163930464689166
8.975999999999999,0.999999675179833,14.97331282277433
8.984,0.9999996705326035,14.782646398574805
8.992,0.9999996634123934,14.591931510493804
9.0,0.9999996538066213,14.401168477709687
9.008,0.999999641703212,14.21035762017119
9.016,0.9999996270905989,14.019499258592866
9.024000000000001,0.9999996099577265,13.82859371445044
9.032,0.9999995902940526,13.637641309975987
9.04,0.9999995680895488,13.44664236815305
9.048,0.9999995433347046,13.255597212711912
9.056000000000001,0.9999995160205281,13.064506168124845
9.064,0.9999994861385475,12.873369559601121
9.072,0.9999994536808131,12.682187713082048
9.08,0.9999994186398998,12.490960955236057
9.088000000000001,0.9999993810089064,12.299689613453854
9.096,0.99999934078146,12.10837401584329
9.104,0.9999992979517136,11.917014491224258
9.112,0.999999252514351,11.725611369123655
9.120000000000001,0.9999992044645856,11.534164979770416
9.128,0.9999991537981623,11.342675654090225
9.136,0.9999991005113588,11.15114372370031
9.144,0.9999990446009851,10.959569520904276
9.152000000000001,0.9999989860643861,10.767953378686986
9.16,0.9999989248994411,10.576295630709183
9.168,0.9999988611045647,10.384596611302113
9.176,0.9999987946787072,10.192856655462275
9.184000000000001,0.9999987256213557,10.001076098846154
9.192,0.9999986539325333,9.809255277764715
9.2,0.9999985796128011,9.617394529177902
9.208,0.9999985026632561,9.425494190689303
9.216000000000001,0.9999984230855333,9.233554600540684
9.224,0.9999983408818046,9.041576097606432
9.232,0.9999982560547788,8.849559021387917
9.24,0.9999981686077026,8.657503712007973
9.248000000000001,0.9999980785443578,8.465410510205407
9.256,0.999997985869064,8.273279757329274
9.264,0.9999978905866761,8.081111795333092
9.272,0.9999977927025837,7.88890696676927
9.280000000000001,0.9999976922227123,7.696665614783453
9.288,0.9999975891535204,7.504388083108666
9.296,0.9999974835020006,7.312074716059496
9.304,0.9999973752756772,7.119725858526292
9.312000000000001,0.999997264482606,6.927341855969474
9.32,0.9999971511313731,6.7349230544135485
9.328,0.9999970352310943,6.542469800441133
9.336,0.9999969167914122,6.34998244118712
9.344,0.9999967958224971,6.15746132433285
9.352,0.9999966723350442,5.964906798099828
9.36,0.9999965463402719,5.772319211244074
9.368,0.9999964178499208,5.579698913049739
9.376,0.9999962868762531,5.38704625332337
9.384,0.9999961534320488,5.194361582387514
9.392,0.9999960175306047,5.001645251074921
9.4,0.9999958791857324,4.808897610722069
9.408,0.9999957384117566,4.616119013163341
9.416,0.9999955952235136,4.42330981072449
9.424,0.9999954496363471,4.230470356216765
9.432,0.9999953016661084,4.0376010029303355
9.44,0.9999951513291518,3.8447021046283383
9.448,0.9999949986423338,3.651774015540273
9.456,0.9999948436230093,3.458817090356004
9.464,0.9999946862890311,3.2658316842190933
9.472,0.9999945266587443,3.0728181527207634
9.48,0.9999943647509856,2.8797768518931783
9.488,0.9999942005850802,2.6867081382033544
9.496,0.999994034180838,2.4936123685463825
9.504,0.9999938655585516,2.3004899002393313
9.512,0.9999936947389922,2.1073410910143995
9.52,0.9999935217434079,1.9141662990127486
9.528,0.9999933465935182,1.7209658827776393
9.536,0.9999931693115134,1.5277402012482315
9.544,0.9999929899200485,1.334489613752648
9.552,0.9999928084422414,1.1412144800017334
9.56,0.9999926249016695,0.9479151600820754
9.568,0.9999924393223647,0.7545920144497477
9.576,0.9999922517288108,0.5612454039232624
9.584,0.9999920621459387,0.36787568967725087
9.592,0.9999918705991243,0.1744832332354209
9.6,0.9999916771141824,-0.01893160353581158
9.608,0.9999914817173642,-0.2123684584344444
9.616,0.9999912844353516,-0.4058269689292643
9.624,0.9999910852952559,-0.5993067721670262
9.632,0.9999908843246099,-0.7928075049788424
9.64,0.9999906815513665,-0.9863288038873964
9.648,0.9999904770038928,-1.1798703051134334
9.656,0.9999902707109658,-1.3734316445829426
9.664,0.9999900627017685,-1.5670124579337075
9.672,0.9999898530058844,-1.7606123805225335
9.68,0.999989641653294,-1.9542310474318227
9.688,0.9999894286743682,-2.1478680934768324
9.696,0.9999892140998657,-2.341523153212302
9.704,0.9999889979609266,-2.535195860939739
9.712,0.9999887802890673,-2.7288858507140636
9.72,0.9999885611161768,-2.922592756350956
9.728,0.9999883404745111,-3.1163162114334995
9.736,0.9999881183966866,-3.3100558493195877
9.744,0.999987894915677,-3.503811303148605
9.752,0.9999876700648069,-3.69758220584882
9.76,0.9999874438777467,-3.8913681901441337
