freq,mag,phase
6.0,0.999972221002884,52.73641295680128
6.008,0.9999695136966655,52.53711373012159
6.016,0.9999668593136292,52.33770781866984
6.024,0.9999642573979257,52.138195306622045
6.032,0.9999617074945218,51.938576278817024
6.04,0.9999592091492147,51.73885082075863
6.048,0.9999567619086421,51.53901901861772
6.056,0.9999543653202991,51.3390809592342
6.064,0.9999520189325503,51.13903673011904
6.072,0.999949722294642,50.93888641945645
6.08,0.9999474749567169,50.73863011610576
6.088,0.9999452764698267,50.53826790960357
6.096,0.9999431263859457,50.337799890165556
6.104,0.9999410242579854,50.13722614868887
6.112,0.9999389696398038,49.936546776753836
6.12,0.9999369620862237,49.735761866626
6.128,0.9999350011530425,49.53487151125833
6.136,0.9999330863970466,49.333875804292916
6.144,0.9999312173760261,49.13277484006333
6.152,0.9999293936487852,48.93156871359622
6.16,0.9999276147751571,48.73025752061361
6.168,0.9999258803160186,48.52884135753468
6.176,0.9999241898332993,48.32732032147783
6.184,0.9999225428899988,48.12569451026257
6.192,0.9999209390501986,47.92396402241156
6.2,0.9999193778790753,47.72212895715255
6.208,0.9999178589429127,47.520189414420194
6.216,0.9999163818091164,47.318145494858264
6.224,0.999914946046226,47.11599729982119
6.232,0.9999135512239296,46.91374493137629
6.24,0.999912196913075,46.7113884923057
6.248,0.9999108826856838,46.50892808610789
6.256,0.9999096081149652,46.3063638170003
6.264,0.9999083727753285,46.10369578992019
6.272,0.9999071762423952,45.90092411052763
6.28,0.9999060180930117,45.698048885206646
6.288,0.9999048979052662,45.49507022106721
6.296,0.9999038152584965,45.29198822594745
6.304,0.9999027697333065,45.088803008415155
6.312,0.9999017609115772,44.88551467776963
6.32,0.999900788376481,44.682123344043724
6.328,0.9998998517124937,44.47862911800551
6.336,0.9998989505054074,44.27503211116027
6.344,0.9998980843423442,44.071332435751955
6.352,0.9998972528117682,43.86753020476559
6.36,0.999896455503497,43.66362553192837
6.368,0.9998956920087168,43.45961853171195
6.376,0.999894961919994,43.25550931933403
6.384,0.9998942648312901,43.05129801076015
6.392,0.9998936003379688,42.846984722705464
6.4,0.999892968036815,42.642569572636404
6.408,0.999892367526043,42.43805267877262
6.416,0.999891798405312,42.23343416008838
6.424,0.9998912602757349,42.028714136314605
6.432,0.9998907527398947,41.823892727940425
6.44,0.9998902754018549,41.618970056215076
6.448,0.9998898278671736,41.41394624314899
6.456,0.9998894097429142,41.20882141151639
6.464,0.9998890206376545,41.003595684856094
6.472,0.9998886601615088,40.79826918747381
6.48,0.9998883279261312,40.59284204444338
6.4879999999999995,0.9998880235447274,40.38731438160863
6.496,0.9998877466320775,40.1816863255848
6.504,0.9998874968045339,39.97595800376038
6.5120000000000005,0.999887273680045,39.77012954429864
6.52,0.9998870768781587,39.56420107613901
6.5280000000000005,0.9998869060200416,39.358172728999016
6.536,0.9998867607284843,39.15204463337551
6.5440000000000005,0.9998866406279224,38.94581692054665
6.552,0.9998865453444333,38.73948972257277
6.5600000000000005,0.9998864745057666,38.5330631722985
6.568,0.9998864277413412,38.326537403354344
6.5760000000000005,0.9998864046822642,38.11991255015756
6.584,0.9998864049613393,37.913188747914155
6.592,0.9998864282130829,37.706366132620424
6.6,0.9998864740737291,37.49944484106391
6.608,0.9998865421812462,37.29242501082544
6.616,0.9998866321753483,37.08530678028023
6.624,0.9998867436975016,36.87809028859936
6.632,0.9998868763909423,36.670775675751294
6.64,0.9998870299006838,36.46336308250323
6.648,0.9998872038735271,36.25585265042229
6.656,0.9998873979580771,36.04824452187735
6.664,0.999887611804747,35.840538840039876
6.672,0.9998878450657767,35.63273574888576
6.68,0.9998880973952355,35.42483539319623
6.688,0.9998883684490418,35.21683791855949
6.696,0.999888657884963,35.00874347137173
6.704,0.9998889653626404,34.80055219883876
6.712,0.9998892905435878,34.59226424897698
6.72,0.9998896330912053,34.38387977061492
6.728,0.9998899926707969,34.17539891339405
6.736,0.9998903689495695,33.966821827770616
6.744,0.9998907615966536,33.75814866501631
6.752,0.9998911702831043,33.549379577219746
6.76,0.9998915946819223,33.340514717287775
6.768,0.9998920344680544,33.131554238946066
6.776,0.9998924893184097,32.922498296741125
6.784,0.999892958911866,32.71334704604069
6.792,0.9998934429292835,32.504100643035166
6.8,0.9998939410535101,32.29475924473878
6.808,0.9998944529693972,32.08532300899073
6.816,0.9998949783638029,31.875792094455857
6.824,0.9998955169256074,31.66616666062603
6.832,0.9998960683457181,31.45644686782128
6.84,0.9998966323170829,31.246632877190574
6.848,0.9998972085346968,31.036724850712968
6.856,0.9998977966956136,30.826722951198388
6.864,0.9998983964989523,30.616627342289114
6.872,0.9998990076459087,30.40643818846001
6.88,0.999899629839765,30.196155655020096
6.888,0.9999002627858952,29.985779908113162
6.896,0.9999009061917794,29.77531111471865
6.904,0.9999015597670077,29.56474944265269
6.912,0.9999022232232907,29.354095060568998
6.92,0.9999028962744697,29.14334813795945
6.928,0.9999035786365229,28.932508845155112
6.936,0.9999042700275746,28.721577353327135
6.944,0.9999049701679068,28.51055383448747
6.952,0.9999056787799611,28.299438461489466
6.96,0.999906395588352,28.088231408029
6.968,0.9999071203198714,27.876932848644778
6.976,0.999907852703502,27.66554295871952
6.984,0.9999085924704191,27.454061914480235
6.992,0.9999093393540018,27.242489892999224
7.0,0.9999100930898388,27.030827072194526
7.008,0.9999108534157403,26.819073630830808
7.016,0.9999116200717364,26.607229748519647
7.024,0.9999123928000967,26.39529560572041
7.032,0.9999131713453256,26.18327138374086
7.04,0.9999139554541783,25.971157264737354
7.048,0.9999147448756633,25.758953431716
7.056,0.9999155393610504,25.546660068532546
7.064,0.9999163386638777,25.33427735989336
7.072,0.9999171425399574,25.121805491355595
7.08,0.9999179507473857,24.909244649327935
7.088,0.9999187630465421,24.69659502107073
7.096,0.999919579200105,24.483856794696752
7.104,0.9999203989730503,24.2710301591713
7.112,0.9999212221326607,24.05811530431282
7.12,0.9999220484485335,23.845112420793107
7.128,0.9999228776925813,23.632021700137656
7.136,0.9999237096390433,23.41884333472605
7.144,0.9999245440644862,23.205577517792257
7.152,0.9999253807478127,22.992224443424835
7.16,0.9999262194702686,22.77878430656732
7.168,0.9999270600154407,22.565257303018196
7.176,0.9999279021692703,22.351643629431408
7.184,0.9999287457200521,22.137943483316302
7.192,0.9999295904584439,21.924157063038088
7.2,0.9999304361774658,21.710284567817567
7.208,0.9999312826725111,21.4963261977317
7.216,0.9999321297413444,21.282282153713233
7.224,0.99993297718411,21.068152637551243
7.232,0.999933824803336,20.853937851890926
7.24,0.9999346724039353,20.639638000233585
7.248,0.9999355197932129,20.425253286936822
7.256,0.9999363667808671,20.210783917214368
7.264,0.9999372131789948,19.996230097136195
7.272,0.9999380588020932,19.781592033628208
7.28,0.9999389034670656,19.566869934472454
7.288,0.9999397469932216,19.35206400830674
7.296,0.9999405892022819,19.137174464624753
7.304,0.9999414299183804,18.922201513775644
7.312,0.9999422689680693,18.70714536696413
7.32,0.999943106180316,18.49200623624996
7.328,0.999943941386512,18.276784334548022
7.336,0.9999447744204697,18.06147987562781
7.344,0.9999456051184294,17.84609307411334
7.352,0.9999464333190569,17.63062414548275
7.36,0.9999472588634465,17.415073306067967
7.368,0.9999480815951248,17.199440773054384
7.376,0.9999489013600494,16.983726764480508
7.384,0.9999497180066107,16.767931499237505
7.392,0.9999505313856343,16.552055197068814
7.4,0.99995134135038,16.336098078569627
7.4079999999999995,0.9999521477565436,16.12006036518654
7.416,0.9999529504622583,15.90394227921683
7.4239999999999995,0.9999537493280931,15.687744043808262
7.432,0.9999545442170544,15.471465882958132
7.4399999999999995,0.9999553349945862,15.255108021513077
7.448,0.9999561215285685,15.038670685168093
7.4559999999999995,0.9999569036893183,14.822154100466312
7.464,0.9999576813495892,14.605558494797883
7.4719999999999995,0.9999584543845691,14.388884096399766
7.48,0.9999592226718816,14.172131134354512
7.4879999999999995,0.9999599860915839,13.955299838590125
7.496,0.9999607445261642,13.738390439878657
7.504,0.9999614978605426,13.521403169835947
7.5120000000000005,0.999962245982068,13.304338260920392
7.52,0.9999629887805177,13.087195946432551
7.5280000000000005,0.9999637261480929,12.869976460513756
7.536,0.9999644579794196,12.652680038145636
7.5440000000000005,0.9999651841715429,12.435306915148955
7.552,0.999965904623928,12.21785732818281
7.5600000000000005,0.9999666192384548,12.000331514743454
7.568,0.9999673279194147,11.782729713163567
7.5760000000000005,0.9999680305735102,11.565052162610849
7.584,0.9999687271098489,11.347299103087423
7.5920000000000005,0.99996941743994,11.129470775428222
7.6,0.9999701014776927,10.91156742130038
7.6080000000000005,0.9999707791394092,10.693589283201618
7.616,0.9999714503437834,10.475536604459483
7.6240000000000006,0.9999721150118938,10.257409629229741
7.632,0.9999727730672008,10.039208602495584
7.640000000000001,0.9999734244355408,9.82093377006591
7.648,0.9999740690451219,9.602585378574439
7.656000000000001,0.9999747068265173,9.384163675478028
7.664,0.9999753377126619,9.16566890905572
7.672,0.9999759616388442,8.947101328406951
7.68,0.9999765785427015,8.728461183450454
7.688,0.9999771883642142,8.509748724922675
7.696,0.9999777910456985,8.290964204376365
7.704,0.9999783865318002,8.072107874179043
7.712,0.9999789747694877,7.853179987511499
7.72,0.9999795557080448,7.63418079836623
7.728,0.9999801292990631,7.415110561545853
7.736,0.9999806954964359,7.195969532661501
7.744,0.9999812542563481,6.976757968131169
7.752,0.99998180553727,6.757476125178031
7.76,0.9999823492999482,6.538124261828738
7.768,0.9999828855073976,6.318702636911707
7.776,0.9999834141248918,6.0992115100553255
7.784,0.9999839351199543,5.8796511416861446
7.792,0.9999844484623506,5.660021793027087
7.8,0.9999849541240766,5.440323726095545
7.808,0.9999854520793506,5.2205572037015315
7.816,0.9999859423046018,5.00072248944572
7.824,0.9999864247784617,4.780819847717519
7.832,0.9999868994817521,4.560849543693054
7.84,0.9999873663974751,4.340811843333191
7.848,0.9999878255108019,4.120707013381448
7.856,0.999988276809062,3.900535321361939
7.864,0.9999887202817308,3.680297035577245
7.872,0.9999891559204179,3.4599924251062815
7.88,0.9999895837188565,3.2396217598021084
7.888,0.9999900036728893,3.0191853102897235
7.896,0.9999904157804564,2.798683347963818
7.904,0.9999908200415834,2.5781161449865015
7.912,0.9999912164583664,2.3574839742849867
7.92,0.9999916050349614,2.136787109549252
7.928,0.9999919857775673,1.9160258252296614
7.936,0.9999923586944149,1.695200396534556
7.944,0.9999927237957514,1.4743110994278117
7.952,0.9999930810938253,1.2533582106263563
7.96,0.9999934306028733,1.032342007597665
7.968,0.9999937723391039,0.8112627685572104
7.976,0.9999941063206823,0.590120772465883
7.984,0.9999944325677159,0.36891629902737666
7.992,0.9999947511022368,0.1476496286855405
8.0,0.9999950619481878,-0.07367895737830496
8.008,0.9999953651314031,-0.29506917724806275
8.016,0.9999956606795943,-0.5165207482757366
8.024000000000001,0.9999959486223327,-0.7380333870839977
8.032,0.9999962289910305,-0.9596068095691337
8.04,0.9999965018189252,-1.1812407309040072
8.048,0.9999967671410606,-1.4029348655408533
8.056000000000001,0.9999970249942701,-1.6246889272141136
8.064,0.999997275417156,-1.846502628943504
8.072,0.9999975184500726,-2.068375683037118
8.08,0.9999977541351076,-2.2903078010943645
8.088000000000001,0.9999979825160603,-2.512298694008958
8.096,0.9999982036384251,-2.734348071972126
8.104,0.9999984175493699,-2.956455644475856
8.112,0.9999986242977156,-3.178621120315996
8.120000000000001,0.9999988239339178,-3.4008442075953735
8.128,0.9999990165100434,-3.6231246137271693
8.136,0.9999992020797515,-3.845462045438308
8.144,0.9999993806982715,-4.06785620877271
8.152000000000001,0.9999995524223811,-4.290306809094569
8.16,0.9999997173103853,-4.512813551091867
8.168,0.9999998754220941,-4.735376138779927
8.176,1.0,-4.957994275504818
8.184000000000001,1.0,-5.180667663946791
8.192,1.0000000000000002,-5.4033960061239386
8.2,1.0,-5.626179003395927
8.208,1.0,-5.849016356467532
8.216000000000001,1.0,-6.071907765392254
8.224,1.0,-6.294852929576131
8.232,1.0,-6.517851547781628
8.24,1.0,-6.740903318131344
8.248000000000001,1.0,-6.964007938111778
8.256,0.9999999999999999,-7.187165104577312
8.264,1.0,-7.410374513754268
8.272,1.0,-7.633635861244767
8.280000000000001,0.9999999999999999,-7.856948842030675
8.288,0.9999999999999998,-8.080313150477757
8.296,1.0,-8.303728480339874
8.304,1.0,-8.527194524763054
8.312,1.0,-8.750710976289511
8.32,0.9999999999999999,-8.974277526862261
8.328,1.0,-9.197893867828965
8.336,1.0,-9.421559689946683
8.344,1.0,-9.645274683385821
8.352,1.0,-9.869038537734955
8.36,0.9999999999999999,-10.09285094200487
8.368,1.0,-10.316711584633477
8.376,1.0,-10.540620153489945
8.384,0.9999999999999999,-10.764576335879706
8.392,0.9999999999999999,-10.98857981854866
8.4,0.9999999999999999,-11.212630287688292
8.408,0.9999999999999999,-11.43672742893997
8.416,0.9999999999999999,-11.660870927400133
8.424,0.9999999999999999,-11.885060467624703
8.432,1.0,-12.109295733634351
8.44,1.0,-12.333576408919022
8.448,1.0,-12.557902176443257
8.456,0.9999999999999999,-12.782272718650846
8.464,0.9999999999999999,-13.006687717470255
8.472,1.0,-13.23114685431933
8.48,1.0,-13.455649810110858
8.488,1.0,-13.680196265257345
8.496,0.9999999999999999,-13.904785899676678
8.504,1.0,-14.129418392797033
8.512,1.0,-14.354093423562576
8.52,1.0,-14.578810670438513
8.528,1.0,-14.803569811416887
8.536,1.0,-15.028370524021678
8.544,0.9999999999999999,-15.253212485314785
8.552,1.0,-15.478095371901158
8.56,0.9999999999999999,-15.703018859934886
8.568,0.9999999999999999,-15.927982625124473
8.576,1.0,-16.152986342738977
8.584,1.0,-16.378029687613434
8.592,1.0,-16.60311233415505
8.6,1.0,-16.828233956348747
8.608,1.0,-17.053394227763498
8.616,1.0,-17.278592821557904
8.624,1.0000000000000002,-17.50382941048669
8.632,1.0,-17.729103666906372
8.64,1.0,-17.954415262781808
8.648,0.9999999276046247,-18.179763869692046
8.656,0.9999998288388529,-18.405149158836945
8.664,0.9999997288356817,-18.630570801043103
8.672,0.9999996276935341,-18.85602846677063
8.68,0.999999525510411,-19.08152182611915
8.688,0.9999994223838586,-19.307050548834674
8.696,0.999999318410932,-19.532614304315732
8.704,0.9999992136881618,-19.758212761620346
8.712,0.9999991083115187,-19.983845589472246
8.72,0.9999990023763785,-20.20951245626798
8.728,0.9999988959774901,-20.43521303008321
8.736,0.999998789208939,-20.66094697867994
8.744,0.999998682164113,-20.886713969512922
8.752,0.9999985749356701,-21.11251366973697
8.76,0.9999984676155029,-21.338345746213502
8.768,0.999998360294705,-21.564209865517935
8.776,0.9999982530635383,-21.790105693946344
8.784,0.9999981460113978,-22.016032897522965
8.792,0.9999980392267808,-22.24199114200695
8.8,0.9999979327972516,-22.467980092899978
8.808,0.9999978268094092,-22.693999415453113
8.815999999999999,0.9999977213488564,-22.920048774674466
8.824,0.9999976165001645,-23.146127835336454
8.832,0.9999975123468429,-23.372236261983055
8.84,0.9999974089713078,-23.59837371893741
8.847999999999999,0.9999973064548502,-23.824539870309444
8.856,0.9999972048776025,-24.050734380003366
8.864,0.9999971043185114,-24.276956911725115
8.872,0.9999970048553044,-24.503207128990248
8.879999999999999,0.9999969065644607,-24.72948469513164
8.888,0.9999968095211814,-24.955789273307275
8.896,0.9999967137993595,-25.182120526507898
8.904,0.9999966194715515,-25.40847811756501
8.911999999999999,0.999996526608948,-25.63486170915891
8.92,0.9999964352813465,-25.861270963826527
8.928,0.9999963455571226,-26.08770554396938
8.936,0.9999962575032033,-26.31416511186172
8.943999999999999,0.9999961711850405,-26.540649329658745
8.952,0.9999960866665831,-26.767157859404715
8.96,0.9999960040102541,-26.99369036304097
8.968,0.9999959232769225,-27.22024650241433
8.975999999999999,0.9999958445258804,-27.446825939285507
8.984,0.9999957678148181,-27.673428335337338
8.992,0.9999956931998013,-27.900053352183022
9.0,0.999995620735247,-28.126700651374726
9.008,0.9999955504739023,-28.353369894412115
9.016,0.9999954824668232,-28.580060742750728
9.024000000000001,0.9999954167633518,-28.806772857810515
9.032,0.9999953534110976,-29.033505900984437
9.04,0.9999952924559172,-29.260259533647254
9.048,0.9999952339418957,-29.487033417164106
9.056000000000001,0.9999951779113289,-29.71382721289903
9.064,0.9999951244047046,-29.940640582223907
9.072,0.999995073460687,-30.16747318652729
9.08,0.9999950251161008,-30.394324687223097
9.088000000000001,0.9999949794059164,-30.62119474575936
9.096,0.9999949363632338,-30.848083023627265
9.104,0.9999948960192712,-31.074989182370068
9.112,0.9999948584033521,-31.301912883591978
9.120000000000001,0.9999948235428922,-31.528853788967037
9.128,0.9999947914633901,-31.75581156024814
9.136,0.9999947621884159,-31.982785859276245
9.144,0.9999947357396031,-32.20977634798925
9.152000000000001,0.9999947121366409,-32.436782688431016
9.16,0.9999946913972647,-32.6638045427605
9.168,0.9999946735372521,-32.89084157326098
9.176,0.9999946585704165,-33.11789344234911
9.184000000000001,0.9999946465086027,-33.34495981258393
9.192,0.999994637361684,-33.572040346676204
9.2,0.9999946311375586,-33.7991347074976
9.208,0.9999946278421499,-34.02624255808987
9.216000000000001,0.9999946274794046,-34.25336356167388
9.224,0.9999946300512942,-34.480497381658964
9.232,0.9999946355578156,-34.70764368165231
9.24,0.9999946439969957,-34.934802125467975
9.248000000000001,0.999994655364893,-35.161972377136124
9.256,0.999994669655603,-35.3891541009123
9.264,0.9999946868612658,-35.616346961286844
9.272,0.9999947069720706,-35.843550622993945
9.280000000000001,0.999994729976265,-36.07076475102091
9.288,0.9999947558601636,-36.2979890106174
9.296,0.9999947846081593,-36.52522306730482
9.304,0.9999948162027325,-36.75246658688543
9.312000000000001,0.999994850624466,-36.9797192354515
9.32,0.9999948878520567,-37.206980679394604
9.328,0.9999949278623304,-37.434250585414894
9.336,0.9999949706302587,-37.661528620530284
9.344,0.9999950161289748,-37.888814452085334
9.352,0.999995064329791,-38.11610774776091
9.36,0.9999951152022187,-38.34340817558279
9.368,0.9999951687139891,-38.57071540393124
9.376,0.9999952248310718,-38.79802910154972
9.384,0.9999952835177004,-39.02534893755436
9.392,0.9999953447363934,-39.25267458144252
9.4,0.9999954084479805,-39.480005703102314
9.408,0.9999954746116267,-39.70734197282107
9.416,0.9999955431848605,-39.934683061294784
9.424,0.9999956141235999,-40.16202863963661
9.432,0.9999956873821834,-40.389378379386116
9.44,0.9999957629133972,-40.61673195251768
9.448,0.9999958406685088,-40.84408903144976
9.456,0.9999959205972965,-41.07144928905329
9.464,0.999996002648085,-41.298812398660615
9.472,0.9999960867677765,-41.526178034073936
9.48,0.9999961729018876,-41.75354586957424
9.488,0.9999962609945847,-41.980915579929466
9.496,0.9999963509887201,-42.20828684040343
9.504,0.9999964428258715,-42.43565932676393
9.512,0.9999965364463792,-42.66303271529144
9.52,0.999996631789386,-42.8904066827872
9.528,0.9999967287928787,-43.11778090658175
9.536,0.9999968273937281,-43.345155064542865
9.544,0.9999969275277325,-43.57252883508408
9.552,0.9999970291296596,-43.79990189717242
9.56,0.9999971321332911,-44.02727393033673
9.568,0.999997236471468,-44.25464461467535
9.576,0.9999973420761334,-44.48201363086441
9.584,0.9999974488783819,-44.709380660165145
9.592,0.9999975568085038,-44.936745384432115
9.6,0.9999976657960341,-45.16410748612047
9.608,0.9999977757697995,-45.391466648294
9.616,0.9999978866579681,-45.61882255463214
9.624,0.9999979983880979,-45.84617488943794
9.632,0.9999981108871869,-46.073523337644914
9.64,0.999998224081724,-46.300867584824815
9.648,0.9999983378977384,-46.52820731719437
9.656,0.9999984522608525,-46.75554222162284
9.664,0.9999985670963328,-46.98287198563857
