freq,mag,phase
6.0,0.9999945624603482,-120.19164213125728
6.008,0.9999940311986556,-120.54202693132534
6.016,0.999993516693633,-120.89177927717668
6.024,0.9999930186278041,-121.24090225315503
6.032,0.9999925366878103,-121.5893989537436
6.04,0.9999920705643845,-121.93727248326333
6.048,0.9999916199523169,-122.28452595557529
6.056,0.999991184550429,-122.63116249378798
6.064,0.9999907640615413,-122.97718522996891
6.072,0.9999903581924435,-123.32259730486105
6.08,0.9999899666538626,-123.66740186760349
6.088,0.999989589160436,-124.0116020754565
6.096,0.9999892254306735,-124.35520109353136
6.104,0.999988875186934,-124.69820209452422
6.112,0.99998853815539,-125.04060825845441
6.12,0.9999882140659953,-125.38242277240727
6.128,0.9999879026524574,-125.7236488302809
6.136,0.9999876036522024,-126.06428963253742
6.144,0.9999873168063457,-126.40434838595841
6.152,0.9999870418596579,-126.74382830340458
6.16,0.9999867785605356,-127.0827326035792
6.168,0.9999865266609687,-127.42106451079614
6.176,0.9999862859165068,-127.75882725475184
6.184,0.9999860560862298,-128.09602407030096
6.192,0.9999858369327147,-128.43265819723652
6.2,0.9999856282220033,-128.76873288007377
6.208,0.9999854297235714,-129.1042513678378
6.216,0.9999852412102956,-129.43921691385552
6.224,0.999985062458422,-129.77363277555082
6.232,0.9999848932475346,-130.10750221424428
6.24,0.9999847333605227,-130.440828494956
6.248,0.9999845825835482,-130.77361488621258
6.256,0.9999844407060162,-131.10586465985767
6.264,0.9999843075205429,-131.43758109086602
6.272,0.9999841828229195,-131.76876745716157
6.28,0.9999840664120865,-132.09942703943858
6.288,0.9999839580900992,-132.42956312098673
6.296,0.9999838576620954,-132.7591789875196
6.304,0.9999837649362657,-133.08827792700643
6.312,0.999983679723822,-133.41686322950775
6.32,0.9999836018389642,-133.74493818701393
6.328,0.9999835310988524,-134.07250609328744
6.336,0.9999834673235728,-134.39957024370813
6.344,0.9999834103361078,-134.72613393512216
6.352,0.9999833599623065,-135.05220046569377
6.36,0.9999833160308524,-135.37777313476067
6.368,0.999983278373233,-135.70285524269224
6.376,0.9999832468237099,-136.02745009075113
6.384,0.9999832212192881,-136.35156098095774
6.392,0.9999832013996868,-136.67519121595808
6.4,0.9999831872073078,-136.9983440988942
6.408,0.9999831784872062,-137.32102293327816
6.416,0.9999831750870615,-137.6432310228683
6.424,0.9999831768571478,-137.9649716715491
6.432,0.999983183650303,-138.28624818321367
6.44,0.9999831953219018,-138.60706386164867
6.448,0.9999832117298236,-138.92742201042273
6.456,0.9999832327344275,-139.2473259327772
6.464,0.9999832581985201,-139.5667789315198
6.472,0.9999832879873284,-139.88578430892096
6.48,0.999983321968472,-140.20434536661278
6.4879999999999995,0.9999833600119328,-140.52246540549075
6.496,0.9999834019900299,-140.84014772561792
6.504,0.999983447777389,-141.15739562613166
6.5120000000000005,0.9999834972509167,-141.47421240515334
6.52,0.9999835502897717,-141.79060135969974
6.5280000000000005,0.9999836067753378,-142.10656578559778
6.536,0.9999836665911978,-142.42210897740097
6.5440000000000005,0.9999837296231052,-142.737234228309
6.552,0.9999837957589581,-143.05194483008876
6.5600000000000005,0.9999838648887729,-143.3662440729988
6.568,0.9999839369046578,-143.68013524571504
6.5760000000000005,0.9999840117007863,-143.9936216352598
6.584,0.9999840891733718,-144.30670652693192
6.592,0.9999841692206412,-144.61939320424028
6.6,0.9999842517428105,-144.93168494883864
6.608,0.9999843366420582,-145.2435850404629
6.616,0.9999844238225012,-145.5550967568707
6.624,0.9999845131901688,-145.86622337378296
6.632,0.9999846046529793,-146.17696816482714
6.64,0.9999846981207146,-146.48733440148334
6.648,0.9999847935049961,-146.79732535303148
6.656,0.9999848907192601,-147.10694428650123
6.664,0.9999849896787346,-147.41619446662338
6.672,0.9999850903004162,-147.72507915578342
6.68,0.9999851925030446,-148.03360161397688
6.688,0.999985296207081,-148.34176509876656
6.696,0.9999854013346848,-148.64957286524157
6.704,0.99998550780969,-148.9570281659783
6.712,0.9999856155575834,-149.26413425100304
6.72,0.9999857245054814,-149.57089436775644
6.728,0.9999858345821082,-149.87731176105964
6.736,0.9999859457177736,-150.1833896730821
6.744,0.9999860578443512,-150.48913134331121
6.752,0.9999861708952569,-150.79454000852354
6.76,0.9999862848054273,-151.09961890275747
6.768,0.9999863995112979,-151.40437125728783
6.776,0.9999865149507833,-151.70880030060178
6.784,0.9999866310632558,-152.01290925837634
6.792,0.9999867477895243,-152.3167013534577
6.8,0.9999868650718141,-152.62017980584147
6.808,0.9999869828537473,-152.9233478326551
6.816,0.9999871010803226,-153.2262086481412
6.824,0.9999872196978945,-153.52876546364254
6.832,0.9999873386541547,-153.83102148758854
6.84,0.9999874578981128,-154.13297992548289
6.848,0.9999875773800756,-154.43464397989283
6.856,0.9999876970516304,-154.7360168504395
6.864,0.9999878168656241,-155.03710173378988
6.872,0.9999879367761451,-155.3379018236498
6.88,0.999988056738506,-155.63842031075842
6.888,0.9999881767092238,-155.93866038288374
6.896,0.9999882966460026,-156.2386252248196
6.904,0.9999884165077157,-156.53831801838385
6.912,0.999988536254388,-156.8377419424174
6.92,0.9999886558471776,-157.13690017278495
6.928,0.9999887752483598,-157.43579588237648
6.936,0.9999888944213098,-157.73443224111014
6.944,0.999989013330484,-158.03281241593592
6.952,0.9999891319414066,-158.330939570841
6.96,0.999989250220649,-158.62881686685535
6.968,0.9999893681358172,-158.92644746205931
6.976,0.9999894856555326,-159.22383451159146
6.984,0.9999896027494176,-159.52098116765794
6.992,0.9999897193880795,-159.81789057954262
7.0,0.9999898355430953,-160.11456589361825
7.008,0.9999899511869941,-160.41101025335874
7.016,0.9999900662932444,-160.7072267993521
7.024,0.9999901808362383,-161.00321866931458
7.032,0.9999902947912741,-161.2989889981057
7.04,0.9999904081345453,-161.59454091774396
7.048,0.9999905208431236,-161.88987755742372
7.056,0.9999906328949442,-162.18500204353276
7.064,0.9999907442687935,-162.47991749967073
7.072,0.9999908549442925,-162.77462704666857
7.08,0.9999909649018845,-163.0691338026085
7.088,0.9999910741228211,-163.36344088284503
7.096,0.9999911825891475,-163.65755140002662
7.104,0.9999912902836904,-163.95146846411834
7.112,0.9999913971900433,-164.2451951824249
7.12,0.9999915032925548,-164.53873465961487
7.128,0.9999916085763146,-164.8320899977452
7.136,0.9999917130271405,-165.12526429628682
7.144,0.9999918166315659,-165.41826065215074
7.152,0.9999919193768281,-165.71108215971483
7.16,0.9999920212508542,-166.00373191085149
7.168,0.9999921222422505,-166.29621299495554
7.176,0.9999922223402895,-166.58852849897332
7.184,0.9999923215348979,-166.8806815074319
7.192,0.9999924198166443,-167.17267510246927
7.2,0.9999925171767301,-167.46451236386505
7.208,0.9999926136069732,-167.7561963690715
7.216,0.9999927090998026,-168.0477301932456
7.224,0.9999928036482418,-168.33911690928142
7.232,0.9999928972459001,-168.63035958784283
7.24,0.9999929898869613,-168.9214612973974
7.248,0.9999930815661744,-169.2124251042501
7.256,0.9999931722788395,-169.50325407257787
7.264,0.9999932620207995,-169.79395126446482
7.272,0.9999933507884301,-170.08451973993772
7.28,0.9999934385786274,-170.3749625570018
7.288,0.9999935253887999,-170.6652827716776
7.296,0.9999936112168576,-170.95548343803753
7.304,0.9999936960612005,-171.24556760824365
7.312,0.9999937799207115,-171.53553833258508
7.32,0.9999938627947454,-171.8253986595166
7.328,0.9999939446831178,-172.11515163569712
7.336,0.9999940255860988,-172.40480030602876
7.344,0.9999941055044019,-172.6943477136963
7.352,0.9999941844391739,-172.98379690020707
7.36,0.9999942623919875,-173.27315090543107
7.368,0.9999943393648315,-173.56241276764163
7.376,0.9999944153601025,-173.85158552355614
7.384,0.9999944903805948,-174.14067220837748
7.392,0.9999945644294934,-174.42967585583543
7.4,0.9999946375103644,-174.71859949822874
7.4079999999999995,0.999994709627147,-175.00744616646716
7.416,0.9999947807841457,-175.29621889011403
7.4239999999999995,0.9999948509860208,-175.58492069742888
7.432,0.9999949202377801,-175.87355461541082
7.4399999999999995,0.9999949885447742,-176.1621236698415
7.448,0.9999950559126839,-176.45063088532893
7.4559999999999995,0.9999951223475166,-176.73907928535124
7.464,0.9999951878555945,-177.02747189230078
7.4719999999999995,0.9999952524435514,-177.3158117275282
7.48,0.9999953161183222,-177.6041018113874
7.4879999999999995,0.9999953788871362,-177.89234516327983
7.496,0.9999954407575096,-178.18054480169965
7.504,0.9999955017372398,-178.4687037442787
7.5120000000000005,0.9999955618343962,-178.7568250078321
7.52,0.9999956210573141,-179.04491160840337
7.5280000000000005,0.9999956794145886,-179.33296656131017
7.536,0.9999957369150656,-179.62099288119032
7.5440000000000005,0.9999957935678383,-179.90899358204743
7.552,0.9999958493822372,179.80302832270286
7.5600000000000005,0.9999959043678256,179.51506982018654
7.568,0.9999959585343923,179.2271278980253
7.5760000000000005,0.9999960118919455,178.93919954428952
7.584,0.9999960644507064,178.65128174745246
7.5920000000000005,0.9999961162211033,178.36337149634272
7.6,0.999996167213765,178.0754657800985
7.6080000000000005,0.9999962174395146,177.7875615881199
7.616,0.9999962669093642,177.49965591002282
7.6240000000000006,0.9999963156345082,177.2117457355913
7.632,0.999996363626318,176.92382805473136
7.640000000000001,0.9999964108963368,176.63589985742314
7.648,0.9999964574562727,176.3479581336747
7.656000000000001,0.9999965033179928,176.05999987347408
7.664,0.9999965484935205,175.7720220667431
7.672,0.9999965929950266,175.48402170328944
7.68,0.9999966368348259,175.19599577276017
7.688,0.9999966800253712,174.90794126459434
7.696,0.9999967225792489,174.61985516797608
7.704,0.9999967645091722,174.33173447178737
7.712,0.9999968058279782,174.04357616456136
7.72,0.9999968465486206,173.75537723443503
7.728,0.9999968866841669,173.46713466910262
7.736,0.9999969262477917,173.17884545576857
7.744,0.9999969652527727,172.89050658110094
7.752,0.9999970037124866,172.60211503118447
7.76,0.9999970416404022,172.3136677914743
7.768,0.9999970790500787,172.0251618467492
7.776,0.9999971159551586,171.73659418106527
7.784,0.9999971523693649,171.44796177770974
7.792,0.9999971883064963,171.15926161915465
7.8,0.999997223780421,170.8704906870109
7.808,0.9999972588050751,170.58164596198245
7.816,0.9999972933944569,170.29272442382037
7.824,0.9999973275626228,170.00372305127752
7.832,0.9999973613236828,169.71463882206294
7.84,0.9999973946917969,169.42546871279666
7.848,0.9999974276811716,169.13620969896473
7.856,0.9999974603060542,168.84685875487435
7.864,0.9999974925807309,168.55741285360907
7.872,0.9999975245195207,168.2678689669846
7.88,0.9999975561367739,167.97822406550438
7.888,0.9999975874468664,167.6884751183157
7.896,0.9999976184641968,167.39861909316605
7.904,0.9999976492031829,167.10865295635944
7.912,0.9999976796782578,166.8185736727133
7.92,0.9999977099038657,166.5283782055155
7.928,0.9999977398944593,166.23806351648173
7.936,0.9999977696644962,165.947626565713
7.944,0.9999977992284348,165.65706431165356
7.952,0.9999978286007314,165.36637371104936
7.96,0.9999978577958362,165.07555171890624
7.968,0.9999978868281912,164.78459528844908
7.976,0.9999979157122263,164.49350137108092
7.984,0.999997944462355,164.20226691634247
7.992,0.999997973092973,163.91088887187212
8.0,0.9999980016184541,163.61936418336626
8.008,0.999998030053147,163.32768979453988
8.016,0.9999980584113726,163.0358626470876
8.024000000000001,0.9999980867074209,162.74387968064536
8.032,0.9999981149555477,162.4517378327522
8.04,0.9999981431699719,162.15943403881244
8.048,0.9999981713648735,161.86696523205853
8.056000000000001,0.9999981995543882,161.57432834351442
8.064,0.9999982277526068,161.2815203019591
8.072,0.9999982559735728,160.98853803389053
8.08,0.9999982842312776,160.69537846349053
8.088000000000001,0.9999983125396585,160.40203851258985
8.096,0.9999983409125974,160.10851510063387
8.104,0.999998369363916,159.81480514464826
8.112,0.9999983979073743,159.52090555920623
8.120000000000001,0.999998426556669,159.2268132563955
8.128,0.9999984553254286,158.93252514578603
8.136,0.9999984842272128,158.63803813439836
8.144,0.9999985132755089,158.3433491266725
8.152000000000001,0.9999985424837305,158.04845502443757
8.16,0.9999985718652138,157.7533527268819
8.168,0.9999986014332153,157.45803913052347
8.176,0.9999986312009114,157.16251112918155
8.184000000000001,0.9999986611813925,156.8667656139487
8.192,0.9999986913876645,156.57079947316345
8.2,0.9999987218326442,156.27460959238334
8.208,0.9999987525291568,155.97819285435926
8.216000000000001,0.9999987834899354,155.6815461390102
8.224,0.9999988147276181,155.38466632339856
8.232,0.9999988462547439,155.08755028170617
8.24,0.9999988780837545,154.7901948852116
8.248000000000001,0.9999989102269884,154.49259700226744
8.256,0.9999989426966805,154.19475349827923
8.264,0.9999989755049612,153.8966612356841
8.272,0.9999990086638509,153.59831707393116
8.280000000000001,0.9999990421852615,153.2997178694625
8.288,0.999999076080993,153.00086047569476
8.296,0.9999991103627311,152.70174174300143
8.304,0.9999991450420456,152.40235851869647
8.312,0.9999991801303895,152.10270764701897
8.32,0.9999992156390948,151.80278596911765
8.328,0.9999992515793734,151.50259032303768
8.336,0.9999992879623127,151.20211754370712
8.344,0.9999993247988759,150.90136446292547
8.352,0.9999993620998979,150.6003279093522
8.36,0.9999993998760867,150.2990047084971
8.368,0.9999994381380177,149.9973916827109
8.376,0.9999994768961361,149.69548565117768
8.384,0.9999995161607509,149.39328342990729
8.392,0.9999995559420369,149.09078183173014
8.4,0.999999596250031,148.78797766629174
8.408,0.9999996370946311,148.48486774004942
8.416,0.9999996784855941,148.18144885626947
8.424,0.999999720432535,147.8777178150257
8.432,0.9999997629449245,147.57367141319898
8.44,0.999999806032088,147.26930644447853
8.448,0.9999998497032029,146.96461969936317
8.456,0.999999893967299,146.65960796516546
8.464,0.9999999388332557,146.3542680260153
8.472,0.9999999843098002,146.04859666286643
8.48,0.9999999999999999,145.74259065350284
8.488,1.0,145.43624677254755
8.496,1.0,145.12956179147173
8.504,0.9999999999999999,144.82253247860615
8.512,1.0,144.51515559915308
8.52,1.0,144.20742791520038
8.528,1.0,143.89934618573628
8.536,1.0,143.59090716666614
8.544,1.0,143.28210761083025
8.552,0.9999999999999999,142.97294426802358
8.56,1.0,142.6634138850163
8.568,0.9999999999999999,142.35351320557675
8.576,1.0000000000000002,142.04323897049508
8.584,1.0,141.7325879176092
8.592,0.9999999999999999,141.42155678183153
8.6,1.0000000000000002,141.11014229517832
8.608,1.0,140.7983411867996
8.616,1.0,140.48615018301183
8.624,1.0,140.17356600733117
8.632,1.0,139.86058538050958
8.64,1.0,139.54720502057157
8.648,1.0,139.23342164285373
8.656,1.0,138.91923196004512
8.664,0.9999999999999999,138.60463268223054
8.672,0.9999999999999999,138.2896205169345
8.68,1.0,137.97419216916796
8.688,0.9999999999999999,137.65834434147658
8.696,1.0,137.34207373399101
8.704,0.9999999999999999,137.025377044479
8.712,1.0,136.70825096839994
8.72,1.0,136.39069219896058
8.728,1.0,136.07269742717395
8.736,1.0,135.7542633419191
8.744,1.0,135.43538663000422
8.752,1.0,135.11606397623063
8.76,1.0,134.79629206346019
8.768,0.9999999999999999,134.47606757268372
8.776,1.0,134.1553871830927
8.784,1.0,133.83424757215238
8.792,1.0,133.51264541567784
8.8,1.0,133.19057738791184
8.808,1.0,132.86804016160562
8.815999999999999,1.0,132.54503040810127
8.824,1.0,132.22154479741727
8.832,1.0,131.89757999833625
8.84,1.0,131.57313267849517
8.847999999999999,1.0,131.2481995044777
8.856,1.0,130.9227771419098
8.864,1.0,130.5968622555576
8.872,0.9999999999999999,130.27045150942766
8.879999999999999,0.9999999999999999,129.94354156687
8.888,1.0,129.61612909068413
8.896,0.9999999999999999,129.28821074322738
8.904,1.0,128.95978318652635
8.911999999999999,1.0,128.6308430823906
8.92,1.0,128.3013870925297
8.928,0.9999999999999999,127.97141187867302
8.936,1.0,127.64091410269232
8.943999999999999,1.0,127.30989042672702
8.952,1.0,126.97833751331282
8.96,0.9999999999999999,126.64625202551339
8.968,1.0,126.3136306270547
8.975999999999999,1.0000000000000002,125.98046998246237
8.984,1.0,125.64676675720267
8.992,0.9999999999999999,125.31251761782627
9.0,1.0,124.97771923211525
9.008,1.0,124.64236826923307
9.016,0.9999999999999999,124.30646139987817
9.024000000000001,1.0,123.96999529644086
9.032,1.0,123.63296663316322
9.04,1.0,123.2953720863023
9.048,1.0,122.95720833429718
9.056000000000001,1.0,122.61847205793924
9.064,1.0,122.27915994054578
9.072,1.0,121.93926866813699
9.08,1.0,121.59879492961689
9.088000000000001,1.0000000000000002,121.25773541695776
9.096,1.0,120.91608682538794
9.104,1.0,120.57384585358324
9.112,1.0,120.2310092038623
9.120000000000001,1.0,119.88757358238581
9.128,1.0,119.5435356993591
9.136,1.0,119.19889226923834
9.144,1.0,118.85364001094136
9.152000000000001,1.0,118.50777564806177
9.16,0.9999999999999999,118.16129590908706
9.168,1.0,117.81419752762054
9.176,1.0,117.46647724260752
9.184000000000001,1.0,117.11813179856549
9.192,1.0,116.76915794581815
9.2,1.0,116.41955244073336
9.208,0.9999999999999999,116.06931204596572
9.216000000000001,1.0,115.71843353070302
9.224,1.0,115.3669136709169
9.232,0.9999999999999999,115.01474924961738
9.24,1.0,114.66193705711227
9.248000000000001,0.9999999999999999,114.30847389127062
9.256,1.0,113.95435655779039
9.264,0.9999999999999999,113.5995818704702
9.272,0.9999999999999999,113.24414665148605
9.280000000000001,1.0,112.88804773167234
9.288,0.9999999999999999,112.53128195080696
9.296,0.9999999999999999,112.1738461579009
9.304,1.0,111.8157372114928
9.312000000000001,0.9999999999999999,111.45695197994779
9.32,1.0,111.09748734176083
9.328,1.0,110.73734018586445
9.336,1.0,110.37650741194155
9.344,1.0,110.01498593074282
9.352,1.0,109.65277266440825
9.36,1.0,109.28986454679413
9.368,1.0,108.92625852380402
9.376,1.0,108.56195155372522
9.384,1.0,108.1969406075692
9.392,1.0,107.83122266941773
9.4,1.0,107.46479473677275
9.408,0.9999999999999999,107.09765382091233
9.416,1.0,106.72979694725016
9.424,1.0,106.36122115570114
9.432,1.0,105.99192350105079
9.44,1.0,105.62190105333049
9.448,1.0,105.25115089819674
9.456,1.0,104.87967013731648
9.464,0.9999999999999999,104.5074558887559
9.472,1.0,104.13450528737579
9.48,1.0,103.76081548523037
9.488,1.0,103.38638365197251
9.496,1.0000000000000002,103.01120697526251
9.504,0.9999999999999999,102.63528266118333
9.512,0.9999999999999999,102.25860793465934
9.52,1.0,101.88118003988153
9.528,1.0,101.50299624073634
9.536,1.0,101.12405382124078
9.544,1.0,100.74435008598131
9.552,1.0,100.36388236055897
9.56,1.0,99.98264799203821
9.568,0.9999999999999999,99.60064434940202
9.576,1.0,99.2178688240107
9.584,1.0,98.83431883006702
9.592,0.9999999999999999,98.44999180508488
9.6,0.9999999999999999,98.06488521036421
9.608,1.0,97.67899653146975
9.616,1.0,97.29232327871566
9.624,0.9999999999999999,96.90486298765403
9.632,1.0,96.51661321956938
9.64,1.0,96.1275715619768
9.648,1.0,95.7377356291261
9.656,0.9999999999999999,95.34710306250962
9.664,1.0,94.95567153137586
9.672,1.0,94.56343873324671
9.68,0.9999999999999999,94.17040239444066
9.688,0.9999999999999999,93.77656027059919
9.696,0.9999999999999998,93.38191014721936
9.704,1.0,92.98644984018927
9.712,1.0,92.59017719632975
9.72,1.0,92.1930900939389
9.728,1.0,91.79518644334254
9.736,0.9999999999999998,91.39646418744758
9.744,1.0,90.99692130230115
9.752,1.0,90.59655579765241
9.76,0.9999999999999999,90.19536571752035
9.768,1.0,89.79334914076368
9.776,0.9999999999999999,89.39050418165674
9.784,1.0,88.9868289904677
9.792,1.0,88.58232175404208
9.8,1.0,88.17698069638874
9.808,1.0,87.77080407927102
9.816,1.0,87.36379020280006
9.824,0.9999999999999999,86.9559374060332
9.832,0.9999999999999999,86.54724406757428
9.84,1.0,86.13770860617899
9.847999999999999,0.9999999999999999,85.72732948136185
9.856,1.0,85.31610519400752
9.864,0.9999999999999999,84.90403428698504
9.872,0.9999999999999999,84.4911153457645
