freq,mag,phase
6.0,1.0010589322324095,-151.62701038646495
6.002287616,1.0009986292713065,-151.7859252767858
6.004575232,1.000875578786934,-151.94353812531497
6.006862848,1.000697681013817,-152.0989390430818
6.009150464,1.0004760741610668,-152.25147854848663
6.011438592,1.00022495628353,-152.40057096669076
6.013726208,0.9999600087422029,-152.54588340811998
6.016013824,0.9996982052556499,-152.68739329011757
6.01830144,0.9994560595349246,-152.82522530783768
6.020589056,0.9992490019126299,-152.95975617573103
6.022876672,0.999090129725718,-153.09167986984187
6.025164288,0.998989622467788,-153.22167315652183
6.027451904,0.9989538611468979,-153.35065726401012
6.029740032,0.998985191292719,-153.4796487062657
6.032027648,0.9990815019907225,-153.60953514334236
6.034315264,0.9992368977750906,-153.7412518049346
6.03660288,0.9994413269723849,-153.87559569558402
6.038890496,0.9996819216969667,-154.0131694501442
6.041178112,0.9999434085459603,-154.15440923781284
6.043465728,1.0002091007972878,-154.29947316288641
6.045753344,1.0004623723367907,-154.44832872385578
6.04804096,1.0006869058657653,-154.60059914062285
6.050329088,1.0008687023267329,-154.75589404137068
6.052616704,1.0009961108244543,-154.91336075945475
6.05490432,1.001061054316972,-155.07226210814716
6.057191936,1.0010595340592103,-155.23161206824182
6.059479552,1.0009914814623468,-155.39047749489166
6.061767168,1.0008613206637291,-155.5478967981422
6.064054784,1.000677053629361,-155.7030244415873
6.0663424,1.0004505144750362,-155.85517462823321
6.068630016,1.0001959969185017,-156.00384955205203
6.070918144,0.9999295703551818,-156.1487063235921
6.07320576,0.9996681543229885,-156.28975029595242
6.075493376,0.9994283060320471,-156.4271205545771
6.077780992,0.9992252944798018,-156.56129446127466
6.080068608,0.9990719504993172,-156.69284524374027
6.082356224,0.9989781819825194,-156.8225803596468
6.08464384,0.9989499039248672,-156.95144010861986
6.086931456,0.9989888454436714,-157.08035356039056
6.089219584,0.9990926718056983,-157.21030304917062
6.0915072,0.999254805502577,-157.34221053423897
6.093794816,0.9994648946432187,-157.47683848702204
6.096082432,0.9997095383741761,-157.61473257977948
6.098370048,0.9999734056772255,-157.75633251234908
6.100657664,1.0002396756670477,-157.90180033775064
6.10294528,1.0004913279112746,-158.05104997480314
6.105232896,1.000712612791584,-158.2036859035352
6.107520512,1.0008894201166834,-158.35926277737082
6.10980864,1.0010106373230598,-158.5169726684944
6.112096256,1.0010684592589087,-158.67597784541303
6.114383872,1.0010592129352134,-158.8353312205658
6.116671488,1.0009836115122954,-158.99409199544246
6.118959104,1.0008462384793202,-159.15129378178673
6.12124672,1.0006558836991872,-159.30609233577835
6.123534336,1.0004244833592868,-159.4578806423822
6.125821952,1.0001667843862978,-159.6060833231699
6.128109568,0.9998989829518095,-159.7504770218828
6.130397696,0.9996381680232306,-159.89100222938225
6.132685312,0.9994007963657113,-160.02791999254353
6.134972928,0.9992019930310332,-160.16164305511322
6.137260544,0.9990544808275902,-160.29287272697104
6.13954816,0.9989675010941729,-160.42233463271498
6.141835776,0.9989467277053168,-160.55103108290737
6.144123392,0.9989934031989423,-160.6798967457322
6.146411008,0.9991047085263353,-160.80997690042557
6.148699136,0.9992735229957396,-160.94203369192797
6.150986752,0.9994890016773026,-161.07687543157988
6.153274368,0.999737701037922,-161.21510814470423
6.155561984,1.0000037141454323,-161.35710863718882
6.1578496,1.0002701636132998,-161.50294664992032
6.160137216,1.000520223513912,-161.65255651138796
6.162424832,1.0007379404400922,-161.80554562490184
6.164712448,1.0009096533638737,-161.96136079733452
6.167000064,1.0010244547517242,-162.11926391185952
6.169288192,1.0010749781690358,-162.27837020105972
6.171575808,1.0010580333607548,-162.43766985029268
6.173863424,1.0009747928937893,-162.5963032753079
6.17615104,1.0008303462578627,-162.75326619412704
6.178438656,1.0006338582500665,-162.90773053440887
6.180726272,1.000397839280022,-163.05909347261294
6.183013888,1.0001370380323595,-163.20683008287747
6.185301504,0.9998681035451884,-163.35069258521418
6.18758912,0.9996081253801358,-163.49072844972733
6.189877248,0.9993735109238711,-163.62716136189027
6.192164864,0.9991790897206951,-163.76046593330568
6.19445248,0.9990374617036912,-163.89128666496146
6.196740096,0.9989574950398202,-164.0205229806719
6.199027712,0.9989442909921069,-164.14907258289244
6.201315328,0.9989987421769344,-164.27788495112617
6.203602944,0.9991175036717964,-164.40798415406385
6.20589056,0.9992928965074253,-164.5401996949677
6.208178688,0.9995137275268223,-164.67531364418318
6.210466304,0.9997662195904687,-164.81385271475042
6.21275392,1.0000342323361298,-164.95620432307223
6.215041536,1.0003007472376235,-165.10242644644964
6.217329152,1.000548894087336,-165.25238590458764
6.219616768,1.0007628755237854,-165.40566780248773
6.221904384,1.0009292931687404,-165.56174406073882
6.224192,1.001037540236311,-165.7197932518653
6.226479616,1.0010806147483813,-165.87894343814926
6.228767744,1.0010560332886929,-166.03821006410337
6.23105536,1.000965088604018,-166.19668633295282
6.233342976,1.0008136811368171,-166.3533480490162
6.235630592,1.0006112428977476,-166.5074612970181
6.237918208,1.0003705868789312,-166.6583528861079
6.240205824,1.0001069377014065,-166.80560496861872
6.24249344,0.9998370993462431,-166.94895780688572
6.244781056,0.9995781283057227,-167.0884675599366
6.247068672,0.9993463386486198,-167.22438994239155
6.2493568,0.9991566919257947,-167.35720733847634
6.251644416,0.9990211368670241,-167.48769181024127
6.253932032,0.9989482622789345,-167.61662930278175
6.256219648,0.9989427573633598,-167.74499595030582
6.258507264,0.9990050466910018,-167.87375765130247
6.26079488,0.9991310935745717,-168.00390829278746
6.263082496,0.999312950403633,-168.1362909001751
6.265370112,0.9995391662034752,-168.27166533016344
6.26765824,0.999795302525898,-168.41049541616027
6.269945856,1.000065065719626,-168.55316579251271
6.272233472,1.000331427012189,-168.69974613130074
6.274521088,1.000577429190413,-168.85002090023372
6.276808704,1.0007875421580044,-169.00360781225677
6.27909632,1.0009485262003999,-169.15992216238735
6.281383936,1.0010499995415238,-169.3180788403295
6.283671552,1.0010856193753894,-169.4772677787159
6.285959168,1.0010531719834856,-169.63647968801692
6.288247296,1.000954713185807,-169.79473027347606
6.290534912,1.0007961431503267,-169.95111759401505
6.292822528,1.0005878939101993,-170.10483900297913
6.295110144,1.0003428151590674,-170.25527718144662
6.29739776,1.000076575973509,-170.40196124125873
6.299685376,0.9998059435455947,-170.54477602764442
6.301972992,0.9995482812709895,-170.68372315888644
6.304260608,0.9993195894530179,-170.81913322686765
6.306548224,0.9991348079018068,-170.95149590373828
6.308836352,0.9990054556399062,-171.0816066311545
6.311123968,0.9989397908124477,-171.2102621426145
6.313411584,0.9989420460377986,-171.33845797843975
6.3156992,0.9990121033950613,-171.46716019168122
6.317986816,0.9991455962983894,-171.5973594278752
6.320274432,0.9993338130737411,-171.72985296262
6.322562048,0.9995651758441925,-171.8654375560074
6.324849664,0.9998247430471658,-172.0046011581513
6.327137792,1.0000960518261472,-172.1476107400938
6.329425408,1.0003620185838562,-172.29452154428802
6.331713024,1.000605726743113,-172.44510391303612
6.33400064,1.000811745999719,-172.59894822753736
6.336288256,1.0009669968300527,-172.75545986127977
6.338575872,1.0010617053294435,-172.9137268762426
6.340863488,1.0010896708381791,-173.07291799761794
6.343151104,1.0010494141067705,-173.23199322070693
6.34543872,1.000943285235357,-173.39002523267817
6.347726848,1.0007778419035307,-173.54607950174608
6.350014464,1.000563731492034,-173.69936632303012
6.35230208,1.0003145381311715,-173.8492983911781
6.354589696,1.0000457638181726,-173.99545279545472
6.356877312,0.9997746319321964,-174.13770397501304
6.359164928,0.9995183676874636,-174.27608141069413
6.361452544,0.9992931427547324,-174.41095280600413
6.36374016,0.9991132691105652,-174.54286772592965
6.366027776,0.9989902670725271,-174.67256361049715
6.368315904,0.9989320359412562,-174.8009452193552
6.37060352,0.9989420914687516,-174.92894069120894
6.372891136,0.9990199689595877,-175.05755558545184
6.375178752,0.9991608200877736,-175.18779346742025
6.377466368,0.9993555028437658,-175.32047174263153
6.379753984,0.9995917323149134,-175.45627687124065
6.3820416,0.9998545884683143,-175.5956846227873
6.384329216,1.0001273693141097,-175.73901167063607
6.386617344,1.000392758873152,-175.88627198587045
6.38890496,1.0006339333934058,-176.03714710917254
6.391192576,1.000835528759532,-176.19126822453754
6.393480192,1.0009849799575496,-176.3479097988217
6.395767808,1.0010726690497562,-176.50626739086394
6.398055424,1.0010930762260064,-176.66541397021464
6.40034304,1.0010449208879515,-176.82436184836035
6.402630656,1.0009309926174237,-176.98215978297515
6.404918272,1.0007588061751895,-177.13783454410026
6.4072064,1.000539050843385,-177.2906743910236
6.409494016,1.000285642263218,-177.44009438118368
6.411781632,1.0000146634553406,-177.58566295191883
6.414069248,0.999743256623449,-177.72729574043495
6.416356864,0.9994886121957216,-177.8650977726237
6.41864448,0.9992670097547656,-177.99943905791991
6.420932096,0.9990923879038751,-178.13083678011256
6.423219712,0.998975963409511,-178.26016233267669
6.425507328,0.9989250090518257,-178.3882286328368
6.427795456,0.9989430719480005,-178.51606711616265
6.430083072,0.9990288825799482,-178.64463813344113
6.432370688,0.9991769094479784,-178.77491000832237
6.434658304,0.9993778913116718,-178.90771072619927
6.43694592,0.9996189956542848,-179.04372230829233
6.439233536,0.9998849991665085,-179.18343467438072
6.441521152,1.0001589872768906,-179.32705337264417
6.443808768,1.000423535552108,-179.47457357576317
6.446096896,1.0006618578321784,-179.6257548066622
6.448384512,1.000859003999274,-179.78007799017868
6.450672128,1.0010024418238186,-179.93690453754095
6.452959744,1.0010829706649453,179.90469994129506
6.45524736,1.0010956256173915,179.74560899464677
6.457534976,1.0010394273973455,179.58681588732998
6.459822592,1.0009179675854452,179.42932714583753
6.462110208,1.0007389588189342,179.2740407533214
6.464397824,1.0005136904987233,179.1216724324944
6.466685952,1.0002563486875304,178.97280332940002
6.468973568,0.9999831798481548,178.82782557151614
6.471261184,0.9997117622360322,178.6867988316558
6.4735488,0.9994589926110755,178.549589127299
6.475836416,0.9992411453117843,178.41583023934828
6.478124032,0.9990719067778168,178.2848908343841
6.480411648,0.9989621713018607,178.1560045501075
6.482699264,0.9989189668594416,178.02820634469313
6.48498688,0.9989449591487316,177.90060119295305
6.487275008,0.9990385625691298,177.77208790079175
6.489562624,0.9991937942482244,177.64178456895917
6.49185024,0.9994010291867303,177.50884378981542
6.494137856,0.9996468456947311,177.3726419918602
6.496425472,0.9999158290994764,177.23264228804896
6.498713088,1.000190720592039,177.08874841051855
6.501000704,1.0004541718940838,176.94092068775103
6.50328832,1.0006896360768478,176.78947142943585
6.505576448,1.0008819492667205,176.63493963430395
6.507864064,1.001019327088267,176.4780126228081
6.51015168,1.0010925883451616,176.31954421364875
6.512439296,1.0010973299275154,176.16054802493832
6.514726912,1.0010330978360023,176.00196509614648
6.517014528,1.000904071340073,175.84480114816338
6.519302144,1.0007182600284603,175.68991386541668
6.52158976,1.0004876629477004,175.5380608611598
6.523877376,1.000226515737661,175.38976781548382
6.526165504,0.9999515957657572,175.24540797499185
6.52845312,0.9996801388185307,175.1050227614052
6.530740736,0.9994294391341866,174.9684352474442
6.533028352,0.9992155837306205,174.83524589972586
6.535315968,0.9990519590915338,174.70481855219597
6.537603584,0.9989491359762185,174.57630137526465
6.5398912,0.9989136525827862,174.44887052430582
6.542178816,0.9989476563424903,174.3214111519089
6.544466432,0.9990491044570543,174.19297393891088
6.54675456,0.9992116325061319,174.0626632573786
6.549042176,0.9994248265138758,173.92958150237212
6.551329792,0.999675212483326,173.79316180432565
6.553617408,0.9999468907281819,173.65293018836394
6.555905024,1.0002225646304994,173.50873307050247
6.55819264,1.0004848203968684,173.36063332781842
6.560480256,1.0007171353515476,173.20894908902704
6.562767872,1.0009046658483296,173.05422077921529
6.565056,1.0010352914454959,172.8971746027094
6.567343616,1.0011012522378333,172.73874889551035
6.569631232,1.0010980491951875,172.57984283513395
6.571918848,1.0010257921445034,172.42149248663222
6.574206464,1.0008891652524696,172.26467291306872
6.57649408,1.000696872588961,172.1102156367565
6.578781696,1.0004608311334255,171.95891124481574
6.581069312,1.0001960538498122,171.8112296964352
6.583356928,0.9999194242906672,171.66750264284153
6.585645056,0.9996483027943114,171.52773227256935
6.587932672,0.9994001202855775,171.3917721583029
6.590220288,0.9991904693827125,171.25915028200265
6.592507904,0.9990326943902906,171.12924091643336
6.59479552,0.9989368622505849,171.0011641097216
6.597083136,0.998909148136271,170.87401903403656
6.599370752,0.9989512555740474,170.74676738520432
6.601658368,0.9990606115867529,170.6184449765364
6.603945984,0.9992303064373041,170.48807248156308
6.606234112,0.9994495298954682,170.35487563624454
6.608521728,0.9997042778161361,170.218237089103
6.610809344,0.9999783816375055,170.0777642667173
6.61309696,1.0002547721005144,169.93329518379088
6.615384576,1.0005155361911535,169.78494039859734
6.617672192,1.0007443855276306,169.63302890994075
6.619959808,1.0009267056419224,169.47811399615858
6.622247424,1.001050962796043,169.32102625704707
6.624535552,1.0011092655233274,169.16259545326614
6.626823168,1.0010978836597213,169.00382121092207
6.629110784,1.0010177229864485,168.84572632907742
6.6313984,1.0008735248827008,168.68927556255815
6.633686016,1.0006745266436818,168.53531796679098
6.635973632,1.0004334097477954,168.38453698090643
6.638261248,1.0001652847899396,168.23749348258892
6.640548864,0.9998871138314299,168.0943963903812
6.64283648,0.9996165630444019,167.95533511384897
6.645124608,0.9993709397593058,167.82001836145088
6.647412224,0.9991656304354778,167.68799539042996
6.64969984,0.9990138690153758,167.55857903835332
6.651987456,0.9989252295160962,167.43094412042853
6.654275072,0.9989054706321078,167.30412375807722
6.656562688,0.9989557534147353,167.1770257819094
6.658850304,0.9990730504199197,167.0487766728143
6.66113792,0.9992498124859529,166.9183838755483
6.663426048,0.9994748293572687,166.7850982193535
6.665713664,0.999733833700352,166.64825516636995
6.66800128,1.0000104432035672,166.50752787149537
6.670288896,1.0002870450030066,166.36281589057631
6.672576512,1.0005461467537486,166.2142032178766
6.674864128,1.000771276812768,166.06206576109003
6.677151744,1.0009482039489495,165.9070150217354
6.67943936,1.0010656723623124,165.74987221433486
6.681726976,1.0011164485757196,165.59146579993947
6.684015104,1.0010969833464858,165.4328707172512
6.68630272,1.0010086102027405,165.27507026575483
6.688590336,1.0008569772158682,165.11899496912977
6.690877952,1.0006516251893949,164.96554101936277
6.693165568,1.0004052903880614,164.81534593703108
6.695453184,1.0001339261327247,164.66894229165936
6.6977408,0.9998544805736002,164.52652189102113
6.700028416,0.9995848055440766,164.38811011640178
6.702316032,0.9993418538003964,164.25346132661613
6.70460416,0.9991412517511588,164.12207960583842
6.706891776,0.9989957588682662,163.99317505950344
6.709179392,0.9989144769287273,163.8659519251096
6.711467008,0.9989027488434346,163.73943029569787
6.713754624,0.9989612647226052,163.61257644274548
6.71604224,0.9990863532188501,163.4843783880841
6.718329856,0.9992701306875895,163.35398184990905
6.720617472,0.9995008230429707,163.22057423764915
6.7229056,0.9997640125873847,163.08353422400316
6.725193216,1.0000428170378517,162.942552874665
6.727480832,1.000319520598057,162.79757163945902
6.729768448,1.0005766898299142,162.64872654263993
6.732056064,1.0007979480886133,162.49641413539962
6.73434368,1.0009692315097303,162.3412564571238
6.736631296,1.0010799250965956,162.18404555285278
6.738918912,1.0011228123623195,162.0257246351861
6.741206528,1.001095121451301,161.86733261986438
6.743494656,1.0009985760510864,161.70982117367544
6.745782272,1.0008396146784442,161.55418684513228
6.748069888,1.0006277182946977,161.40124525081484
6.750357504,1.0003766063535868,161.2516631311897
6.75264512,1.0001021689888157,161.10588211991984
6.754932736,0.9998216030762331,160.96415750329408
6.757220352,0.9995528531254974,160.82648115235617
6.759507968,0.9993130185286399,160.69247903161207
6.761795584,0.9991173261957156,160.5616808868464
6.764083712,0.9989781148818001,160.433337838244
6.766371328,0.9989043244592091,160.30653035876367
6.768658944,0.9989007537797715,160.18033935130163
6.77094656,0.9989676891973737,160.0536617865333
6.773234176,0.9991006093303066,159.92556919054854
6.775521792,0.9992913775187091,159.79513422587408
6.777809408,0.999527763941223,159.66156240241722
6.780097024,0.9997948385938429,159.52434350075316
6.782385152,1.0000754744038916,159.3831643847991
6.784672768,1.0003520819515108,159.23794694479818
6.786960384,1.000607065086173,159.08887607067837
6.789248,1.000824148343094,158.93637256099294
6.791535616,1.0009898144361,158.7811083205755
6.793823232,1.0010934002232073,158.62389082961965
6.796110848,1.0011282306393925,158.46566264078223
6.798398464,1.0010923215891145,158.30747229402306
6.80068608,1.0009877684234108,158.15028709787592
6.802974208,1.0008211573142005,157.99512387429021
6.805261824,1.0006030095146354,157.84270497451624
6.80754944,1.000347180750976,157.69375356140637
6.809837056,1.0000697666762886,157.54869286680994
6.812124672,0.9997884801556942,157.4076896612867
6.814412288,0.9995209284877901,157.27069497466607
6.816699904,0.999284426663816,157.13737804097138
6.81898752,0.9990937520204805,157.00718239468594
6.821275136,0.9989611396725177,156.87938196643933
6.823563264,0.9988951651116026,156.75301569413347
6.82585088,0.9988997627518412,156.62712451180917
6.828138496,0.9989748813877753,156.50069641814147
6.830426112,0.9991158069623445,156.37262684179828
6.832713728,0.9993134297717807,156.24215940916736
6.835001344,0.9995553100031039,156.10848390551695
6.83728896,0.9998261239492794,155.97108169033513
6.839576576,1.0001086170987303,155.8296778260911
6.841864704,1.0003847999543265,155.6842054314611
6.84415232,1.0006374193780057,155.5349017529179
6.846439936,1.0008502088749045,155.38224288489124
6.848727552,1.00100973031401,155.2269113789891
6.851015168,1.0011061474473206,155.06969603497797
6.853302784,1.0011328963842385,154.91160366723423
6.8555904,1.0010885665601916,154.75364294050385
6.857878016,1.0009758296753644,154.5968228033307
6.860165632,1.00080177102505,154.4421011744203
6.86245376,1.000577545640968,154.29028238545055
6.864741376,1.0003171176357926,154.1419709608007
6.867028992,1.0000369735290937,153.99761330104184
6.869316608,0.9997550096764509,153.85733134273613
6.871604224,0.9994890591579616,153.72106349371188
6.87389184,0.9992560865563984,153.58845371171037
6.876179456,0.9990707135309936,153.45888822374488
6.878467072,0.9989449951407626,153.33161569777684
6.880754688,0.9988867271527663,153.20567476717306
6.883042816,0.9988997239175214,153.08012103848355
6.885330432,0.9989832038259233,152.95381539124574
6.887618048,0.9991319167430118,152.82587591421768
6.889905664,0.9993364448410187,152.6953761249573
6.89219328,0.9995837402315537,152.561581472046
6.894480896,0.9998579955999835,152.42400260575175
6.896768512,1.00014196997673,152.28236078091652
6.899056128,1.0004176577668022,152.13667695029852
6.901344256,1.0006675464672228,151.9871712130166
6.903631872,1.0008758459596354,151.83434978119035
6.905919488,1.0010291741533293,151.67891069824051
6.908207104,1.0011179753089476,151.52176199472146
6.91049472,1.0011366982095296,151.36377958115494
6.912782336,1.0010838595658322,151.20609508654672
6.915069952,1.0009629799175197,151.04964412328036
