freq,mag,phase
6.0,0.9999955235214079,-150.41930312935818
6.008,0.9999963629222278,-150.82324810749182
6.016,0.9999971553983031,-151.22683197726244
6.024,0.9999979022781887,-151.63005801615418
6.032,0.9999986048658158,-152.03292951314634
6.04,0.999999264440795,-152.43544976849472
6.048,0.9999998822587063,-152.83762209351525
6.056,1.0,-153.23944981037127
6.064,1.0,-153.6409362518637
6.072,0.9999999999999999,-154.04208476122355
6.08,1.0,-154.44289869190843
6.088,1.0,-154.84338140740098
6.096,1.0,-155.24353628101113
6.104,0.9999999999999999,-155.6433666956807
6.112,1.0,-156.04287604379033
6.12,1.0,-156.44206772697075
6.128,1.0,-156.84094515591542
6.136,1.0,-157.2395117501968
6.144,0.9999999999999999,-157.63777093808477
6.152,1.0,-158.0357261563687
6.16,1.0,-158.43338085018095
6.168,1.0,-158.83073847282395
6.176,0.9999999999999998,-159.22780248560034
6.184,1.0,-159.62457635764423
6.192,1.0,-160.02106356575663
6.2,1.0,-160.41726759424253
6.208,1.0,-160.81319193475073
6.216,0.9999999999999999,-161.20884008611645
6.224,1.0,-161.6042155542065
6.232,1.0,-161.99932185176573
6.24,0.9999999999999998,-162.39416249826823
6.248,1.0,-162.7887410197682
6.256,1.0,-163.183060948756
6.264,0.9999999999999999,-163.57712582401382
6.272,1.0,-163.9709391904758
6.28,1.0,-164.36450459908937
6.288,1.0,-164.75782560667975
6.296,1.0,-165.1509057758148
6.304,0.9999999999999999,-165.5437486746748
6.312,0.9999999999999999,-165.93635787692213
6.32,1.0,-166.32873696157458
6.328,1.0,-166.72088951287952
6.336,1.0,-167.1128191201912
6.344,1.0,-167.50452937785025
6.352,1.0,-167.89602388506404
6.36,0.9999999999999999,-168.2873062457898
6.368,1.0,-168.6783800686202
6.376,1.0,-169.0692489666702
6.384,0.9999999999999999,-169.4599165574658
6.392,1.0,-169.85038646283485
6.4,0.9999999999999999,-170.24066230880032
6.408,0.9999999999999999,-170.63074772547432
6.416,1.0,-171.0206463469549
6.424,1.0,-171.41036181122402
6.432,0.9999997696263522,-171.7998977600471
6.44,0.9999994546177469,-172.1892578388757
6.448,0.9999991360564164,-172.57844569675012
6.456,0.9999988143250274,-172.96746498620425
6.464,0.9999984897951305,-173.3563193631729
6.472,0.9999981628273593,-173.74501248689992
6.48,0.9999978337716202,-174.13354801984732
6.4879999999999995,0.9999975029672726,-174.52192962760807
6.496,0.999997170743334,-174.91016097881774
6.504,0.999996837418653,-175.2982457450695
6.5120000000000005,0.9999965033020938,-175.6861876008303
6.52,0.9999961686927202,-176.07399022335747
6.5280000000000005,0.9999958338799705,-176.4616572926185
6.536,0.9999954991438468,-176.8491924912099
6.5440000000000005,0.9999951647550693,-177.23659950428012
6.552,0.9999948309752662,-177.623882019451
6.5600000000000005,0.9999944980571357,-178.01104372674314
6.568,0.9999941662446238,-178.3980883185
6.5760000000000005,0.9999938357730802,-178.78501948931574
6.584,0.9999935068694298,-179.17184093596222
6.592,0.9999931797523335,-179.55855635731848
6.6,0.9999928546323521,-179.94516945430047
6.608,0.9999925317121018,179.6683160702073
6.616,0.9999922111864081,179.28189651141935
6.624,0.9999918932424724,178.89556816271622
6.632,0.9999915780600116,178.5093273157093
6.64,0.9999912658114178,178.12317026030598
6.648,0.9999909566619039,177.7370932847727
6.656,0.9999906507696553,177.35109267579762
6.664,0.9999903482859674,176.96516471855233
6.672,0.9999900493553964,176.57930569675244
6.68,0.9999897541158964,176.1935118927175
6.688,0.9999894626989664,175.80777958742996
6.696,0.9999891752297793,175.42210506059337
6.704,0.9999888918273228,175.0364845906897
6.712,0.9999886126045353,174.6509144550361
6.72,0.9999883376684341,174.2653909298405
6.728,0.9999880671202501,173.87991029025724
6.736,0.9999878010555556,173.49446881044116
6.744,0.9999875395643899,173.10906276360154
6.752,0.9999872827313905,172.72368842205555
6.76,0.9999870306359084,172.33834205728058
6.768,0.9999867833521391,171.95301993996648
6.776,0.9999865409492362,171.56771834006685
6.784,0.9999863034914344,171.18243352685028
6.792,0.9999860710381637,170.79716176895073
6.8,0.9999858436441693,170.41189933441757
6.808,0.9999856213596199,170.0266424907652
6.816,0.9999854042302229,169.64138750502212
6.824,0.9999851922973366,169.25613064378004
6.832,0.9999849855980754,168.87086817324197
6.84,0.9999847841654198,168.4855963592706
6.848,0.9999845880283219,168.100311467436
6.856,0.9999843972118089,167.71500976306334
6.864,0.9999842117370868,167.32968751127999
6.872,0.9999840316216414,166.94434097706267
6.88,0.9999838568793373,166.55896642528447
6.888,0.9999836875205173,166.1735601207614
6.896,0.9999835235520982,165.78811832829916
6.904,0.999983364977667,165.4026373127394
6.912,0.9999832117975741,165.01711333900622
6.92,0.9999830640090245,164.6315426721526
6.928,0.999982921606173,164.24592157740648
6.936,0.9999827845802077,163.86024632021724
6.944,0.9999826529194435,163.47451316630188
6.952,0.9999825266094057,163.0887183816914
6.96,0.9999824056329166,162.7028582327773
6.968,0.9999822899701789,162.31692898635794
6.976,0.9999821795988604,161.93092690968547
6.984,0.9999820744941714,161.5448482705123
6.992,0.9999819746289496,161.1586893371383
7.0,0.9999818799737344,160.772446378458
7.008,0.9999817904968481,160.38611566400783
7.016,0.99998170616447,159.9996934640141
7.024,0.9999816269407109,159.61317604944057
7.032,0.999981552787688,159.22655969203709
7.04,0.9999814836655977,158.8398406643879
7.048,0.9999814195327851,158.45301523996105
7.056,0.9999813603458165,158.0660796931572
7.064,0.9999813060595447,157.67903029935985
7.072,0.9999812566271801,157.2918633349854
7.08,0.9999812120003558,156.9045750775339
7.088,0.9999811721291927,156.51716180564014
7.096,0.9999811369623631,156.12961979912552
7.104,0.9999811064471558,155.74194533905023
7.112,0.9999810805295347,155.35413470776606
7.12,0.9999810591542041,154.96618418897015
7.128,0.999981042264664,154.5780900677585
7.136,0.9999810298032719,154.18984863068133
7.144,0.9999810217112978,153.80145616579807
7.152,0.9999810179289841,153.41290896273367
7.16,0.999981018395595,153.02420331273538
7.168,0.9999810230494798,152.63533550873058
7.176,0.9999810318281176,152.24630184538478
7.184,0.9999810446681746,151.85709861916132
7.192,0.9999810615055548,151.46772212838118
7.2,0.9999810822754495,151.07816867328398
7.208,0.9999811069123865,150.68843455608976
7.216,0.9999811353502791,150.29851608106188
7.224,0.999981167522475,149.90840955457048
7.232,0.9999812033618001,149.5181112851576
7.24,0.9999812428006057,149.12761758360233
7.248,0.9999812857708117,148.7369247629878
7.256,0.9999813322039547,148.34602913876918
7.264,0.9999813820312239,147.95492702884192
7.272,0.9999814351835101,147.56361475361243
7.28,0.9999814915914416,147.1720886360685
7.288,0.9999815511854256,146.78034500185208
7.296,0.9999816138956921,146.3883801793325
7.304,0.9999816796523241,145.99619049968106
7.312,0.999981748385302,145.60377229694706
7.32,0.9999818200245376,145.21112190813494
7.328,0.9999818944999117,144.81823567328289
7.336,0.9999819717413085,144.4251099355423
7.344,0.9999820516786468,144.03174104125924
7.352,0.9999821342419184,143.63812534005675
7.36,0.9999822193612213,143.24425918491897
7.368,0.9999823069667864,142.85013893227622
7.376,0.9999823969890124,142.45576094209218
7.384,0.9999824893584957,142.06112157795175
7.392,0.9999825840060628,141.66621720715128
7.4,0.9999826808627934,141.27104420078953
7.4079999999999995,0.999982779860053,140.87559893386089
7.416,0.9999828809295206,140.47987778534946
7.4239999999999995,0.9999829840032135,140.08387713832576
7.432,0.9999830890135151,139.68759338004375
7.4399999999999995,0.9999831958931982,139.29102290204116
7.448,0.9999833045754531,138.8941621002395
7.4559999999999995,0.9999834149939085,138.49700737504793
7.464,0.9999835270826567,138.09955513146716
7.4719999999999995,0.999983640776277,137.70180177919624
7.48,0.9999837560098545,137.30374373274026
7.4879999999999995,0.9999838727190052,136.90537741152104
7.496,0.9999839908398943,136.50669923998814
7.504,0.9999841103092588,136.10770564773344
7.5120000000000005,0.999984231064425,135.70839306960585
7.52,0.9999843530433263,135.3087579458299
7.5280000000000005,0.9999844761845272,134.90879672212438
7.536,0.9999846004272327,134.50850584982453
7.5440000000000005,0.9999847257113132,134.10788178600487
7.552,0.9999848519773157,133.7069209936056
7.5600000000000005,0.9999849791664819,133.30561994155934
7.568,0.9999851072207646,132.9039751049216
7.5760000000000005,0.9999852360828391,132.50198296500204
7.584,0.9999853656961205,132.09964000949884
7.5920000000000005,0.9999854960047779,131.6969427326344
7.6,0.9999856269537429,131.2938876352941
7.6080000000000005,0.9999857584887287,130.89047122516646
7.616,0.9999858905562365,130.48669001688623
7.6240000000000006,0.9999860231035699,130.08254053217883
7.632,0.9999861560788451,129.67801930000857
7.640000000000001,0.9999862894310028,129.2731228567272
7.648,0.9999864231098146,128.8678477462269
7.656000000000001,0.9999865570658976,128.46219052009366
7.664,0.9999866912507177,128.05614773776472
7.672,0.9999868256166029,127.64971596668713
7.68,0.9999869601167491,127.24289178247949
7.688,0.9999870947052265,126.83567176909604
7.696,0.9999872293369895,126.42805251899287
7.704,0.999987363967881,126.02003063329708
7.712,0.9999874985546385,125.61160272197789
7.72,0.999987633054902,125.20276540402119
7.728,0.9999877674272162,124.79351530760557
7.736,0.999987901631037,124.38384907028174
7.744,0.9999880356267359,123.97376333915427
7.752,0.9999881693756022,123.5632547710658
7.76,0.9999883028398492,123.15232003278436
7.768,0.9999884359826138,122.74095580119267
7.776,0.999988568767962,122.3291587634808
7.784,0.9999887011608897,121.91692561734111
7.792,0.9999888331273245,121.50425307116613
7.8,0.9999889646341266,121.09113784424899
7.808,0.9999890956490913,120.67757666698672
7.816,0.9999892261409484,120.26356628108651
7.824,0.9999893560793616,119.8491034397743
7.832,0.9999894854349294,119.43418490800656
7.84,0.9999896141791854,119.01880746268503
7.848,0.9999897422845944,118.60296789287361
7.856,0.9999898697245536,118.18666300001897
7.864,0.9999899964733912,117.76988959817344
7.872,0.99999012250636,117.35264451422094
7.88,0.999990247799641,116.934924588106
7.888,0.9999903723303363,116.51672667306545
7.896,0.9999904960764678,116.09804763586307
7.904,0.9999906190169725,115.67888435702739
7.912,0.9999907411317001,115.25923373109217
7.92,0.9999908624014069,114.83909266683996
7.928,0.9999909828077537,114.41845808754873
7.936,0.9999911023332989,113.99732693124125
7.944,0.9999912209614944,113.57569615093774
7.952,0.9999913386766799,113.15356271491122
7.96,0.9999914554640761,112.7309236069461
7.968,0.999991571309781,112.30777582659975
7.976,0.9999916862007611,111.88411638946684
7.984,0.9999918001248459,111.45994232744711
7.992,0.9999919130707204,111.03525068901583
8.0,0.999992025027918,110.61003853949745
8.008,0.9999921359868131,110.18430296134228
8.016,0.9999922459386131,109.75804105440592
8.024000000000001,0.9999923548753503,109.33124993623247
8.032,0.9999924627898729,108.90392674233992
8.04,0.9999925696758373,108.47606862650885
8.048,0.999992675527698,108.04767276107437
8.056000000000001,0.9999927803407005,107.61873633722118
8.064,0.9999928841108684,107.18925656528128
8.072,0.9999929868349968,106.75923067503462
8.08,0.9999930885106412,106.32865591601315
8.088000000000001,0.9999931891361064,105.89752955780803
8.096,0.9999932887104379,105.46584889037929
8.104,0.9999933872334097,105.0336112243685
8.112,0.9999934847055135,104.6008138914149
8.120000000000001,0.9999935811279487,104.16745424447443
8.128,0.9999936765026091,103.73352965814125
8.136,0.9999937708320739,103.2990375289724
8.144,0.9999938641195931,102.86397527581562
8.152000000000001,0.9999939563690768,102.42834034014007
8.16,0.9999940475850848,101.99213018636964
8.168,0.9999941377728097,101.55534230221909
8.176,0.9999942269380689,101.11797419903347
8.184000000000001,0.9999943150872894,100.68002341213027
8.192,0.9999944022274945,100.24148750114409
8.2,0.9999944883662921,99.80236405037404
8.208,0.9999945735118606,99.36265066913434
8.216000000000001,0.9999946576729352,98.92234499210755
8.224,0.9999947408587936,98.48144467970025
8.232,0.9999948230792448,98.03994741840124
8.24,0.9999949043446111,97.59785092114294
8.248000000000001,0.9999949846657179,97.15515292766514
8.256,0.9999950640538756,96.71185120488136
8.264,0.9999951425208689,96.26794354724714
8.272,0.9999952200789388,95.82342777713185
8.280000000000001,0.9999952967407705,95.37830174519252
8.288,0.9999953725194771,94.93256333074979
8.296,0.9999954474285838,94.48621044216647
8.304,0.9999955214820163,94.03924101722835
8.312,0.9999955946940816,93.59165302352797
8.32,0.9999956670794543,93.14344445884909
8.328,0.9999957386531612,92.69461335155528
8.336,0.9999958094305657,92.24515776097863
8.344,0.9999958794273522,91.7950757778126
8.352,0.9999959486595111,91.3443655245048
8.36,0.9999960171433208,90.89302515565372
8.368,0.9999960848953338,90.4410528584057
8.376,0.9999961519323606,89.98844685285503
8.384,0.9999962182714534,89.53520539244482
8.392,0.9999962839298883,89.08132676437046
8.4,0.9999963489251531,88.62680928998383
8.408,0.9999964132749265,88.17165132520026
8.416,0.9999964769970655,87.7158512609055
8.424,0.9999965401095875,87.25940752336578
8.432,0.9999966026306539,86.80231857463765
8.44,0.9999966645785544,86.34458291298067
8.448,0.9999967259716908,85.88619907326954
8.456,0.9999967868285585,85.4271656274094
8.464,0.9999968471677343,84.96748118475008
8.472,0.9999969070078557,84.50714439250325
8.48,0.999996966367607,84.04615393615869
8.488,0.999997025265702,83.58450853990303
8.496,0.9999970837208693,83.12220696703746
8.504,0.9999971417518327,82.65924802039777
8.512,0.999997199377298,82.1956305427733
8.52,0.9999972566159355,81.73135341732774
8.528,0.9999973134863638,81.26641556801884
8.536,0.9999973700071332,80.80081596001975
8.544,0.999997426196711,80.33455360013906
8.552,0.9999974820734635,79.86762753724217
8.56,0.9999975376556425,79.40003686267126
8.568,0.9999975929613663,78.9317807106664
8.576,0.9999976480086065,78.46285825878478
8.584,0.9999977028151704,77.99326872832121
8.592,0.9999977573986878,77.52301138472633
8.6,0.999997811776592,77.05208553802572
8.608,0.9999978659661067,76.58049054323678
8.616,0.9999979199842307,76.10822580078602
8.624,0.9999979738477222,75.63529075692396
8.632,0.9999980275730829,75.16168490414036
8.64,0.9999980811765445,74.68740778157633
8.648,0.9999981346740525,74.21245897543697
8.656,0.9999981880812531,73.73683811940066
8.664,0.9999982414134778,73.2605448950281
8.672,0.9999982946857279,72.7835790321681
8.68,0.9999983479126636,72.30594030936307
8.688,0.9999984011085862,71.82762855425042
8.696,0.9999984542874272,71.34864364396371
8.704,0.9999985074627327,70.86898550552942
8.712,0.999998560647652,70.38865411626317
8.72,0.9999986138549221,69.90764950416116
8.728,0.9999986670968567,69.42597174829072
8.736,0.9999987203853322,68.94362097917615
8.744,0.9999987737317759,68.46059737918286
8.752,0.9999988271471532,67.97690118289678
8.76,0.9999988806419554,67.4925326775018
8.768,0.9999989342261881,67.00749220315191
8.776,0.9999989879093613,66.52178015334138
8.784,0.9999990417004742,66.03539697526904
8.792,0.9999990956080078,65.54834317020038
8.8,0.9999991496399125,65.06061929382345
8.808,0.9999992038035983,64.57222595660224
8.815999999999999,0.999999258105924,64.0831638241236
8.824,0.9999993125531875,63.593433617440624
8.832,0.9999993671511163,63.10303611341094
8.84,0.9999994219048584,62.6119721450293
8.847999999999999,0.9999994768189734,62.12024260175507
8.856,0.9999995318974231,61.62784842983456
8.864,0.9999995871435641,61.13479063261771
8.872,0.9999996425601394,60.64107027086857
8.879999999999999,0.9999996981492709,60.146688463069765
8.888,0.9999997539124521,59.65164638572116
8.896,0.9999998098505415,59.15594527363233
8.904,0.9999998659637546,58.6595864202078
8.911999999999999,0.9999999222516602,58.16257117772596
8.92,0.9999999787131725,57.664900957611096
8.928,1.0,57.16657723069877
8.936,1.0,56.6676015274932
8.943999999999999,0.9999999999999999,56.16797543841739
8.952,0.9999999999999999,55.667700614056095
8.96,1.0,55.16677876539091
8.968,0.9999999999999999,54.665211664027105
8.975999999999999,1.0,54.163001142412156
8.984,1.0,53.66014909404658
8.992,1.0,53.15665747368607
9.0,1.0,52.65252829753478
9.008,1.0,52.14776364342954
9.016,1.0,51.6423656510156
9.024000000000001,0.9999999999999999,51.13633652191312
9.032,1.0,50.62967851987396
9.04,1.0,50.122393970928755
9.048,0.9999999999999999,49.614485263524855
9.056000000000001,0.9999999999999999,49.10595484865435
9.064,0.9999999999999999,48.59680523997152
9.072,0.9999999999999999,48.08703901390026
9.08,0.9999999999999999,47.576658809731185
9.088000000000001,0.9999999999999999,47.06566732970869
9.096,1.0,46.55406733910637
9.104,1.0,46.04186166629187
9.112,0.9999999999999999,45.52905320278107
9.120000000000001,0.9999999999999999,45.01564490328105
9.128,1.0,44.50163978572114
9.136,0.9999999999999999,43.98704093127286
9.144,1.0,43.4718514843582
9.152000000000001,0.9999999999999999,42.9560746526464
9.16,1.0,42.43971370703834
9.168,1.0,41.922771981638654
9.176,1.0,41.40525287371634
9.184000000000001,1.0,40.88715984365286
9.192,1.0,40.36849641487733
9.2,1.0,39.849266173789175
9.208,1.0,39.32947276966851
9.216000000000001,1.0000000000000002,38.80911991457355
9.224,1.0,38.28821138322477
9.232,1.0,37.76675101287589
9.24,1.0,37.2447427031722
9.248000000000001,1.0,36.72219041599546
9.256,1.0,36.19909817529519
9.264,1.0,35.67547006690623
9.272,0.9999999999999999,35.15131023835348
9.280000000000001,1.0,34.626622898642594
9.288,1.0,34.10141231803681
9.296,0.9999999999999999,33.57568282781992
9.304,1.0,33.04943882004561
9.312000000000001,1.0,32.522684747273054
9.32,1.0,31.995425122287966
9.328,0.9999999999999999,31.467664517809524
9.336,1.0,30.939407566183768
9.344,1.0,30.41065895906287
9.352,1.0,29.881423447068858
9.36,1.0,29.351705839445398
9.368,0.9999999999999999,28.82151100369267
9.376,1.0,28.29084386519052
9.384,1.0,27.759709406804994
9.392,0.9999999999999999,27.22811266848265
9.4,1.0,26.696058746828566
9.408,1.0,26.163552794671975
9.416,0.9999999999999999,25.63060002061566
9.424,0.9999999999999999,25.097205688572995
9.432,1.0,24.56337511728868
9.44,1.0,24.02911367984737
9.448,0.9999999999999999,23.494426803165965
9.456,1.0,22.95931996747369
9.464,0.9999999999999999,22.423798705776218
9.472,1.0,21.887868603307528
9.48,1.0,21.351535296965842
9.488,1.0,20.81480447473771
9.496,0.9999999999999999,20.277681875105923
9.504,1.0,19.74017328644599
9.512,1.0,19.2022845464066
9.52,1.0,18.664021541278718
9.528,1.0,18.125390205348907
9.536,0.9999999999999999,17.58639652024154
9.544,1.0,17.04704651424538
9.552,0.9999999999999999,16.50734626162926
9.56,1.0,15.967301881942582
9.568,1.0,15.426919539304924
9.576,1.0,14.886205441680842
9.584,1.0,14.34516584014412
9.592,1.0,13.803807028127412
9.6,1.0000000000000002,13.262135340661692
9.608,1.0,12.72015715360156
9.616,1.0,12.177878882840373
9.624,0.9999999999999999,11.635306983511889
9.632,0.9999999999999999,11.092447949181993
9.64,1.0,10.549308311027241
9.648,0.9999999999999999,10.005894637004003
9.656,1.0,9.462213531004753
9.664,1.0,8.918271632005347
9.672,1.0,8.37407561319994
9.68,0.9999999999999999,7.829632181127365
9.688,1.0000000000000002,7.284948074785425
9.696,1.0,6.740030064737309
9.704,0.9999999999999999,6.194884952206313
9.712,0.9999999999999999,5.6495195681630594
9.72,0.9999999999999999,5.1039407724017565
9.728,0.9999999999999999,4.558155452609273
9.736,1.0,4.012170523423786
9.744,1.0,3.465992925486883
9.752,0.9999999999999999,2.9196296244855824
9.76,0.9999999999999999,2.373087610188594
9.768,1.0,1.826373895472893
9.776,1.0,1.2794955153450358
9.784,0.9999999999999999,0.7324595259535654
9.792,1.0,0.18527300359660426
9.8,0.9999999999999999,-0.3620569562788866
9.808,1.0,-0.909523240081999
9.816,0.9999999999999999,-1.4571187170905473
9.824,1.0,-2.00483624046725
9.832,1.0,-2.5526686482830585
9.84,1.0,-3.100608764543448
9.847999999999999,1.0,-3.648649400221033
9.856,0.9999999999999999,-4.196783354291255
9.864,1.0,-4.745003414772072
9.872,1.0,-5.29330235976776
