freq,mag,phase
6.0,0.9999927420412288,70.34328455144285
6.008,0.999993004944119,70.1681624374177
6.016,0.9999932566368787,69.99294349932805
6.024,0.9999934973204175,69.8176277851746
6.032,0.9999937271938918,69.6422153439896
6.04,0.999993946454708,69.46670622583981
6.048,0.9999941552985266,69.29110048182929
6.056,0.9999943539192695,69.11539816410234
6.064,0.9999945425091215,68.93959932584644
6.072,0.9999947212585373,68.76370402129503
6.08,0.9999948903562449,68.58771230573035
6.088,0.9999950499892515,68.41162423548633
6.096,0.9999952003428477,68.23543986795141
6.104,0.999995341600612,68.05915926157124
6.112,0.9999954739444163,67.8827824758516
6.12,0.9999955975544313,67.70630957136105
6.128,0.9999957126091301,67.52974060973374
6.136,0.9999958192852941,67.35307565367216
6.144,0.9999959177580177,67.1763147669498
6.152,0.9999960082007143,66.99945801441396
6.16,0.999996090785119,66.82250546198824
6.168,0.9999961656812971,66.64545717667552
6.176,0.9999962330576461,66.46831322656024
6.184,0.9999962930809029,66.29107368081134
6.192,0.9999963459161483,66.11373860968472
6.2,0.9999963917268122,65.93630808452588
6.208,0.9999964306746786,65.75878217777252
6.216,0.9999964629198917,65.58116096295704
6.224,0.9999964886209609,65.40344451470916
6.232,0.9999965079347659,65.22563290875843
6.24,0.9999965210165622,65.04772622193668
6.248,0.999996528019987,64.86972453218061
6.256,0.9999965290970635,64.69162791853414
6.264,0.999996524398208,64.51343646115093
6.272,0.9999965140722343,64.33515024129686
6.28,0.9999964982663596,64.15676934135234
6.288,0.99999647712621,63.97829384481476
6.296,0.9999964507958263,63.799723836300835
6.304,0.9999964194176694,63.621059401549
6.312,0.9999963831326262,63.44230062742168
6.32,0.9999963420800149,63.26344760190767
6.328,0.999996296397592,63.08450041412436
6.336,0.999996246221556,62.905459154320056
6.344,0.9999961916865548,62.726323913876186
6.352,0.9999961329256914,62.547094785309575
6.36,0.999996070070529,62.36777186227459
6.368,0.9999960032510973,62.18835523956534
6.376,0.9999959325958987,62.00884501311793
6.384,0.999995858231914,61.82924128001243
6.392,0.9999957802846082,61.64954413847518
6.4,0.9999956988779367,61.469753687880704
6.408,0.9999956141343517,61.289870028753946
6.416,0.9999955261748071,61.10989326277218
6.424,0.9999954351187662,60.92982349276714
6.432,0.9999953410842066,60.74966082272697
6.44,0.9999952441876271,60.56940535779823
6.448,0.9999951445440528,60.3890572042878
6.456,0.999995042267043,60.208616469664896
6.464,0.999994937468696,60.02808326256293
6.472,0.999994830259656,59.847457692781376
6.48,0.9999947207491191,59.66673987128766
6.4879999999999995,0.9999946090448403,59.48592991021903
6.496,0.9999944952531387,59.305027922884214
6.504,0.9999943794789046,59.12403402376551
6.5120000000000005,0.9999942618256065,58.94294832852012
6.52,0.9999941423952962,58.76177095398235
6.5280000000000005,0.9999940212886161,58.58050201816488
6.536,0.9999938986048057,58.39914164026085
6.5440000000000005,0.9999937744417081,58.217689940645165
6.552,0.9999936488957755,58.03614704087642
6.5600000000000005,0.9999935220620776,57.85451306369826
6.568,0.999993394034307,57.67278813304122
6.5760000000000005,0.9999932649047855,57.49097237402397
6.584,0.999993134764472,57.30906591295517
6.592,0.9999930037029684,57.12706887733465
6.6,0.9999928718085259,56.94498139585516
6.608,0.9999927391680526,56.762803598403615
6.616,0.9999926058671198,56.58053561606267
6.624,0.9999924719899688,56.39817758111195
6.632,0.9999923376195178,56.215729627029575
6.64,0.9999922028373684,56.03319188849334
6.648,0.9999920677238131,55.850564501382145
6.656,0.9999919323578412,55.6678476027772
6.664,0.9999917968171469,55.48504133096329
6.672,0.9999916611781353,55.30214582543002
6.68,0.9999915255159291,55.119161226873
6.688,0.9999913899043772,54.93608767719493
6.696,0.9999912544160602,54.75292531950686
6.704,0.9999911191222972,54.56967429812922
6.712,0.9999909840931539,54.386334758592916
6.72,0.9999908493974493,54.2029068476403
6.728,0.9999907151027626,54.019390713226294
6.736,0.9999905812754404,53.835786504519334
6.744,0.9999904479806037,53.65209437190227
6.752,0.999990315282155,53.4683144669734
6.76,0.9999901832427863,53.28444694254722
6.768,0.999990051923985,53.10049195265541
6.776,0.999989921386042,52.91644965254759
6.784,0.9999897916880588,52.73232019869218
6.792,0.9999896628879543,52.54810374877705
6.8,0.9999895350424726,52.363800461710426
6.808,0.9999894082071898,52.17941049762145
6.816,0.9999892824365226,51.99493401786092
6.824,0.9999891577837335,51.810371185001934
6.832,0.9999890343009392,51.62572216284045
6.84,0.9999889120391194,51.440987116395895
6.848,0.9999887910481219,51.256166211911726
6.856,0.9999886713766707,51.071259616855905
6.864,0.9999885530723748,50.8862674999214
6.872,0.9999884361817335,50.70119003102661
6.88,0.9999883207501453,50.51602738131578
6.888,0.999988206821915,50.330779723159395
6.896,0.9999880944402615,50.145447230154524
6.904,0.9999879836473244,49.9600300771251
6.912,0.9999878744841728,49.774528440122225
6.92,0.9999877669908114,49.58894249642441
6.928,0.99998766120619,49.403272424537775
6.936,0.9999875571682085,49.21751840419623
6.944,0.9999874549137274,49.0316806163616
6.952,0.9999873544785726,48.84575924322377
6.96,0.9999872558975456,48.659754468200695
6.968,0.9999871592044293,48.4736664759385
6.976,0.9999870644319961,48.28749545231145
6.984,0.999986971612016,48.10124158442187
6.992,0.9999868807752645,47.91490506060018
7.0,0.9999867919515291,47.72848607040469
7.008,0.9999867051696177,47.54198480462153
7.016,0.9999866204573673,47.355401455264435
7.024,0.9999865378416498,47.16873621557453
7.032,0.9999864573483813,46.9819892800201
7.04,0.9999863790025293,46.79516084429631
7.048,0.9999863028281204,46.60825110532487
7.056,0.9999862288482481,46.42126026125366
7.064,0.9999861570850802,46.2341885114564
7.072,0.9999860875598685,46.047036056532136
7.08,0.9999860202929539,45.85980309830485
7.088,0.999985955303776,45.67248983982291
7.096,0.9999858926108807,45.485096485358504
7.104,0.9999858322319269,45.297623240407184
7.112,0.9999857741836962,45.11007031168707
7.12,0.9999857184820994,44.92243790713835
7.128,0.9999856651421852,44.734726235922516
7.136,0.9999856141781475,44.546935508421676
7.144,0.9999855656033327,44.35906593623771
7.152,0.9999855194302492,44.171117732191576
7.16,0.9999854756705746,43.98309111032239
7.168,0.9999854343351632,43.79498628588657
7.176,0.9999853954340536,43.60680347535694
7.184,0.9999853589764783,43.418542896421705
7.192,0.9999853249708693,43.23020476798356
7.2,0.9999852934248687,43.041789310158556
7.208,0.999985264345334,42.85329674427512
7.216,0.9999852377383478,42.66472729287287
7.224,0.999985213609225,42.47608117970148
7.232,0.999985191962521,42.28735862971955
7.24,0.9999851728020397,42.09855986909332
7.248,0.9999851561308412,41.90968512519538
7.256,0.9999851419512498,41.720734626603466
7.264,0.9999851302648624,41.53170860309903
7.272,0.9999851210725559,41.342607285665856
7.28,0.9999851143744956,41.15343090648872
7.288,0.9999851101701419,40.964179698951824
7.296,0.9999851084582615,40.77485389763735
7.304,0.9999851092369308,40.58545373832392
7.312,0.9999851125035479,40.39597945798499
7.32,0.9999851182548383,40.20643129478723
7.328,0.999985126486863,40.016809488088924
7.336,0.9999851371950278,39.82711427843814
7.344,0.9999851503740905,39.63734590757112
7.352,0.9999851660181676,39.447504618410456
7.36,0.9999851841207446,39.25759065506322
7.368,0.9999852046746819,39.067604262819145
7.376,0.9999852276722243,38.877545688148764
7.384,0.9999852531050079,38.687415178701364
7.392,0.9999852809640685,38.49721298330309
7.4,0.99998531123985,38.3069393519549
7.4079999999999995,0.9999853439222104,38.11659453583048
7.416,0.9999853790004326,37.92617878727412
7.4239999999999995,0.9999854164632298,37.735692359798705
7.432,0.9999854562987553,37.54513550808328
7.4399999999999995,0.9999854984946089,37.354508487971145
7.448,0.9999855430378457,37.16381155646725
7.4559999999999995,0.999985589914984,36.973044971736186
7.464,0.9999856391120123,36.782208993099566
7.4719999999999995,0.9999856906143991,36.59130388103395
7.48,0.9999857444070982,36.40032989716803
7.4879999999999995,0.999985800474558,36.20928730428055
7.496,0.9999858588007304,36.01817636629747
7.504,0.9999859193690765,35.82699734828968
7.5120000000000005,0.9999859821625752,35.63575051647015
7.52,0.999986047163732,35.44443613819156
7.5280000000000005,0.9999861143545857,35.25305448194333
7.536,0.9999861837167164,35.06160581734924
7.5440000000000005,0.999986255231254,34.87009041516431
7.552,0.9999863288788842,34.6785085472724
7.5600000000000005,0.999986404639859,34.48686048668291
7.568,0.999986482494002,34.295146507528365
7.5760000000000005,0.9999865624207172,34.10336688506111
7.584,0.9999866443989969,33.91152189565064
7.5920000000000005,0.9999867284074285,33.71961181678032
7.6,0.9999868144242038,33.52763692704468
7.6080000000000005,0.9999869024271244,33.33559750614591
7.616,0.9999869923936117,33.14349383489115
7.6240000000000006,0.9999870843007131,32.95132619518899
7.632,0.9999871781251101,32.759094870046525
7.640000000000001,0.9999872738431251,32.56680014356584
7.648,0.9999873714307314,32.37444230094101
7.656000000000001,0.9999874708635573,32.18202162845448
7.664,0.9999875721168969,31.989538413473927
7.672,0.9999876751657151,31.79699294444867
7.68,0.9999877799846572,31.604385510906365
7.688,0.9999878865480542,31.411716403449375
7.696,0.9999879948299332,31.218985913751382
7.704,0.9999881048040213,31.026194334553608
7.712,0.9999882164437569,30.833341959661432
7.72,0.9999883297222937,30.640429083940525
7.728,0.9999884446125096,30.447456003313285
7.736,0.9999885610870154,30.25442301475504
7.744,0.9999886791181589,30.06133041629029
7.752,0.9999887986780354,29.868178506988873
7.76,0.9999889197384935,29.674967586962094
7.768,0.9999890422711418,29.48169795735885
7.776,0.9999891662473586,29.288369920361692
7.784,0.9999892916382958,29.0949837791828
7.792,0.9999894184148885,28.901539838060007
7.8,0.999989546547862,28.70803840225272
7.808,0.9999896760077378,28.514479778037806
7.816,0.9999898067648412,28.320864272705474
7.824,0.9999899387893092,28.127192194555068
7.832,0.9999900720510969,27.93346385289087
7.84,0.9999902065199842,27.739679558017833
7.848,0.9999903421655832,27.545839621237278
7.856,0.9999904789573464,27.351944354842512
7.864,0.9999906168645709,27.157994072114533
7.872,0.9999907558564077,26.963989087317543
7.88,0.999990895901868,26.76992971569452
7.888,0.9999910369698299,26.575816273462696
7.896,0.9999911790290447,26.38164907780908
7.904,0.999991322048145,26.187428446885786
7.912,0.9999914659956501,25.993154699805515
7.92,0.9999916108399743,25.798828156636834
7.928,0.9999917565494316,25.604449138399527
7.936,0.9999919030922446,25.410017967059858
7.944,0.9999920504365495,25.21553496552576
7.952,0.9999921985504032,25.021000457642096
7.96,0.9999923474017903,24.826414768185764
7.968,0.9999924969586292,24.631778222860838
7.976,0.9999926471887788,24.437091148293653
7.984,0.9999927980600452,24.242353872027806
7.992,0.9999929495401868,24.047566722519225
8.0,0.9999931015969235,23.852730029131067
8.008,0.9999932541979397,23.65784412212873
8.016,0.9999934073108937,23.462909332674595
8.024000000000001,0.9999935609034215,23.2679259928231
8.032,0.9999937149431449,23.07289443551544
8.04,0.9999938693976769,22.877814994574265
8.048,0.9999940242346274,22.682688004698495
8.056000000000001,0.9999941794216108,22.48751380145816
8.064,0.9999943349262506,22.292292721288934
8.072,0.9999944907161864,22.097025101486725
8.08,0.9999946467590797,21.90171128020232
8.088000000000001,0.9999948030226198,21.706351596436093
8.096,0.9999949594745297,21.5109463900324
8.104,0.9999951160825724,21.315496001674006
8.112,0.9999952728145557,21.120000772876633
8.120000000000001,0.9999954296383401,20.924461045983442
8.128,0.9999955865218418,20.72887716415938
8.136,0.9999957434330418,20.533249471385414
8.144,0.9999959003399874,20.337578312452962
8.152000000000001,0.9999960572108025,20.14186403295822
8.16,0.9999962140136894,19.946106979296392
8.168,0.9999963707169367,19.75030749865575
8.176,0.9999965272889234,19.554465939011976
8.184000000000001,0.9999966836981254,19.358582649122326
8.192,0.9999968399131206,19.162657978519707
8.2,0.9999969959025942,18.966692277506677
8.208,0.9999971516353436,18.77068589714954
8.216000000000001,0.9999973070802853,18.57463918927249
8.224,0.9999974622064579,18.378552506451506
8.232,0.999997616983029,18.182426202008173
8.24,0.9999977713792999,17.986260630003763
8.248000000000001,0.9999979253647104,17.790056145233148
8.256,0.9999980789088445,17.593813103218597
8.264,0.9999982319814347,17.397531860203514
8.272,0.9999983845523674,17.201212773146317
8.280000000000001,0.9999985365916882,17.004856199714286
8.288,0.9999986880696057,16.808462498277205
8.296,0.999998838956497,16.612032027900984
8.304,0.9999989892229132,16.41556514834143
8.312,0.9999991388395826,16.219062220037973
8.32,0.9999992877774168,16.022523604107057
8.328,0.9999994360075138,15.825949662335969
8.336,0.9999995835011646,15.629340757176122
8.344,0.9999997302298559,15.432697251736883
8.352,0.9999998761652759,15.23601950977875
8.36,0.9999999999999999,15.039307895707159
8.368,1.0,14.84256277456555
8.376,0.9999999999999999,14.64578451202915
8.384,0.9999999999999998,14.448973474398002
8.392,1.0,14.252130028590667
8.4,0.9999999999999999,14.05525454213721
8.408,0.9999999999999998,13.858347383172823
8.416,1.0,13.661408920430798
8.424,0.9999999999999999,13.464439523236065
8.432,0.9999999999999999,13.267439561498117
8.44,1.0,13.070409405704517
8.448,1.0,12.873349426913732
8.456,1.0,12.67625999674864
8.464,1.0,12.479141487389267
8.472,0.9999999999999999,12.28199427156627
8.48,0.9999999999999999,12.08481872255361
8.488,1.0,11.88761521416201
8.496,1.0,11.690384120731547
8.504,1.0,11.49312581712509
8.512,1.0,11.295840678720838
8.52,0.9999999999999998,11.098529081405674
8.528,1.0,10.90119140156774
8.536,0.9999999999999999,10.70382801608966
8.544,1.0,10.506439302341127
8.552,1.0,10.309025638172049
8.56,1.0,10.111587401905101
8.568,1.0,9.914124972328853
8.576,0.9999999999999999,9.716638728690233
8.584,1.0,9.519129050687658
8.592,0.9999999999999999,9.321596318463428
8.6,1.0,9.124040912596833
8.608,0.9999999999999999,8.926463214096483
8.616,1.0,8.728863604393394
8.624,0.9999999999999999,8.531242465333317
8.632,1.0,8.333600179169697
8.64,0.9999999999999999,8.135937128556023
8.648,1.0,7.93825369653877
8.656,1.0,7.740550266549662
8.664,1.0,7.542827222398602
8.672,1.0,7.345084948265906
8.68,1.0,7.147323828695188
8.688,1.0,6.949544248585563
8.696,0.9999999999999999,6.751746593184519
8.704,1.0,6.5539312480800405
8.712,1.0,6.356098599193494
8.72,1.0,6.158249032771717
8.728,1.0,5.960382935379841
8.736,0.9999999999999998,5.762500693893381
8.744,0.9999999999999999,5.564602695491016
8.752,1.0,5.366689327646662
8.76,1.0,5.168760978122213
8.768,0.9999999999999999,4.97081803495959
8.776,1.0,4.772860886473462
8.784,1.0,4.574889921243263
8.792,0.9999999999999999,4.376905528105887
8.8,1.0,4.178908096147692
8.808,1.0,3.980898014697161
8.815999999999999,0.9999999999999999,3.782875673316928
8.824,1.0,3.5848414617962017
8.832,1.0000000000000002,3.386795770143161
8.84,1.0,3.188738988577148
8.847999999999999,1.0,2.9906715075208545
8.856,0.9999999999999999,2.7925937175926805
8.864,0.9999999999999998,2.594506009599075
8.872,1.0,2.396408774526698
8.879999999999999,0.9999999999999999,2.1983024035345773
8.888,0.9999999999999999,2.000187287946427
8.896,1.0,1.8020638192429517
8.904,0.9999999999999999,1.6039323890539885
8.911999999999999,0.9999999999999999,1.4057933891506211
8.92,1.0,1.2076472114374757
8.928,0.9999999999999998,1.009494247945004
8.936,1.0,0.8113348908215894
8.943999999999999,0.9999999999999999,0.6131695323256412
8.952,0.9999999999999999,0.41499856481786634
8.96,0.9999999999999999,0.21682238075353694
8.968,0.9999999999999998,0.018641372674566767
8.975999999999999,0.9999999999999999,-0.1795440667984066
8.984,0.9999999999999999,-0.37773354497376754
8.992,1.0,-0.5759266690966764
9.0,1.0,-0.7741230463569964
9.008,0.9999999999999999,-0.9723222838972359
9.016,1.0,-1.1705239888202945
9.024000000000001,0.9999999999999999,-1.3687277681972374
9.032,0.9999999999999999,-1.5669332290752283
9.04,1.0,-1.7651399784854687
9.048,0.9999999999999999,-1.9633476234509653
9.056000000000001,1.0,-2.1615557709942963
9.064,1.0,-2.3597640281455514
9.072,0.9999999999999999,-2.5579720019502776
9.08,1.0,-2.75617929947724
9.088000000000001,1.0,-2.9543855278261817
9.096,0.9999999999999999,-3.152590294135776
9.104,1.0,-3.3507932055915504
9.112,0.9999999999999999,-3.5489938694336574
9.120000000000001,1.0,-3.747191892964617
9.128,0.9999999999999999,-3.9453868835572634
9.136,1.0,-4.143578448662654
9.144,0.9999999999999999,-4.341766195817841
9.152000000000001,0.9999999999999999,-4.539949732653587
9.16,0.9999999999999998,-4.738128666902304
9.168,1.0,-4.936302606405951
9.176,1.0,-5.134471159123761
9.184000000000001,1.0,-5.332633933139999
9.192,1.0,-5.5307905366718035
9.2,1.0,-5.728940578077123
9.208,1.0,-5.927083665862395
9.216000000000001,1.0,-6.125219408690256
9.224,1.0,-6.323347415387425
9.232,0.9999999999999999,-6.521467294952529
9.24,0.9999999999999999,-6.719578656563835
9.248000000000001,0.9999999999999999,-6.917681109586862
9.256,0.9999999999999999,-7.115774263582264
9.264,0.9999999999999998,-7.313857728313631
9.272,0.9999999999999999,-7.511931113755158
9.280000000000001,1.0,-7.70999403009926
9.288,1.0,-7.908046087764372
9.296,1.0,-8.106086897402761
9.304,0.9999999999999998,-8.304116069908108
9.312000000000001,0.9999999999999998,-8.502133216423113
9.32,1.0,-8.700137948347237
9.328,1.0,-8.898129877344488
9.336,1.0,-9.096108615350932
9.344,0.9999999999999999,-9.294073774582214
9.352,1.0,-9.492024967541512
9.36,0.9999999999999998,-9.689961807026759
9.368,0.9999999999999999,-9.887883906138596
9.376,0.9999999999999999,-10.085790878287636
9.384,1.0,-10.283682337202345
9.392,1.0,-10.481557896936248
9.4,1.0,-10.679417171875855
9.408,1.0,-10.87725977674779
9.416,0.9999999999999999,-11.075085326626679
9.424,1.0,-11.272893436942299
9.432,0.9999999999999999,-11.470683723487369
9.44,0.9999999999999998,-11.668455802424699
9.448,1.0,-11.866209290294988
9.456,0.9999999999999999,-12.063943804023852
9.464,1.0,-12.26165896092964
9.472,1.0,-12.459354378730476
9.48,1.0,-12.657029675551914
9.488,1.0,-12.854684469934055
9.496,1.0,-13.052318380839141
9.504,1.0,-13.249931027658569
9.512,1.0,-13.44752203022055
9.52,0.9999999999999999,-13.64509100879703
9.528,1.0,-13.842637584111284
9.536,0.9999999999999999,-14.040161377344795
9.544,0.9999999999999999,-14.237662010144938
9.552,1.0,-14.435139104631663
9.56,1.0,-14.632592283405163
9.568,1.0,-14.8300211695526
9.576,1.0,-15.027425386655636
9.584,1.0,-15.224804558797182
9.592,1.0,-15.422158310568834
9.6,0.9999999999999999,-15.619486267077619
9.608,1.0,-15.816788053953363
9.616,1.0,-16.0140632973554
9.624,1.0,-16.211311623979903
9.632,0.9999999999999999,-16.40853266106647
9.64,0.9999999999999998,-16.60572603640555
9.648,0.9999999999999999,-16.80289137834488
9.656,0.9999999999999999,-17.000028315796843
9.664,1.0,-17.197136478244943
9.672,0.9999999999999999,-17.39421549575106
9.68,0.9999999999999999,-17.591264998961858
9.688,1.0,-17.788284619116034
9.696,1.0,-17.985273988050654
9.704,0.9999999999999999,-18.182232738208338
9.712,1.0,-18.37916050264357
9.72,0.9999999999999999,-18.576056915029785
9.728,1.0,-18.77292160966572
9.736,0.9999999999999999,-18.969754221482322
9.744,0.9999998580612499,-19.166554386049093
9.752,0.999999713554535,-19.363321739581036
9.76,0.9999995682700654,-19.5600559189448
9.768,0.9999994222342392,-19.756756561665636
9.776,0.9999992754736008,-19.953423305933516
9.784,0.9999991280148383,-20.15005579060998
9.792,0.999998979884778,-20.3466536552342
9.8,0.9999988311103805,-20.54321654002982
9.808,0.9999986817187368,-20.739744085910903
9.816,0.9999985317370642,-20.936235934488746
9.824,0.9999983811927011,-21.132691728077763
9.832,0.9999982301131038,-21.329111109702197
9.84,0.9999980785258415,-21.525493723102052
