freq,mag,phase
6.0,0.9999847954731222,-103.62785420365758
6.008,0.999982872059917,-104.02833554315494
6.016,0.999981036127203,-104.4286866198119
6.024,0.9999792857580047,-104.82890706096327
6.032,0.9999776190583277,-105.228996503329
6.04,0.9999760341570813,-105.62895459298679
6.048,0.9999745292059997,-106.02878098534455
6.056,0.9999731023795599,-106.42847534511236
6.064,0.9999717518748982,-106.82803734627397
6.072,0.9999704759117234,-107.22746667205794
6.08,0.9999692727322315,-107.62676301490829
6.088,0.9999681406010129,-108.0259260764551
6.096,0.9999670778049634,-108.42495556748412
6.104,0.9999660826531886,-108.82385120790664
6.112,0.999965153476908,-109.22261272672853
6.12,0.9999642886293589,-109.62123986201905
6.128,0.9999634864856972,-110.01973236087952
6.136,0.999962745442893,-110.41808997941128
6.144,0.9999620639196342,-110.81631248268341
6.152,0.9999614403562126,-111.21439964470045
6.16,0.9999608732144278,-111.61235124836915
6.168,0.9999603609774717,-112.01016708546541
6.176,0.9999599021498204,-112.40784695660082
6.184,0.9999594952571268,-112.80539067118858
6.192,0.9999591388461027,-113.20279804740953
6.2,0.9999588314844079,-113.60006891217738
6.208,0.999958571760532,-113.99720310110433
6.216,0.99995835828368,-114.39420045846559
6.224,0.9999581896836526,-114.79106083716425
6.232,0.9999580646107237,-115.18778409869554
6.24,0.9999579817355213,-115.58437011311102
6.248,0.9999579397489071,-115.98081875898227
6.256,0.9999579373618454,-116.37712992336448
6.264,0.9999579733052864,-116.77330350175974
6.272,0.9999580463300344,-117.1693393980801
6.28,0.99995815520662,-117.56523752461032
6.288,0.9999582987251755,-117.96099780197044
6.296,0.999958475695299,-118.35662015907815
6.304,0.9999586849459298,-118.75210453311075
6.312,0.9999589253252107,-119.1474508694672
6.32,0.9999591957003577,-119.5426591217296
6.328,0.9999594949575276,-119.9377292516247
6.336,0.9999598220016783,-120.33266122898512
6.344,0.9999601757564378,-120.72745503171035
6.352,0.9999605551639625,-121.12211064572769
6.36,0.9999609591848053,-121.51662806495276
6.368,0.9999613867977718,-121.91100729124994
6.376,0.9999618369997821,-122.3052483343928
6.384,0.9999623088057334,-122.69935121202415
6.392,0.9999628012483572,-123.0933159496158
6.4,0.999963313378077,-123.48714258042855
6.408,0.9999638442628668,-123.88083114547163
6.416,0.99996439298811,-124.27438169346232
6.424,0.9999649586564519,-124.66779428078516
6.432,0.9999655403876584,-125.061068971451
6.44,0.9999661373184734,-125.45420583705616
6.448,0.9999667486024677,-125.84720495674141
6.456,0.9999673734098987,-126.24006641715047
6.464,0.9999680109275612,-126.63279031238883
6.472,0.9999686603586435,-127.02537674398214
6.48,0.9999693209225754,-127.41782582083472
6.4879999999999995,0.9999699918548867,-127.81013765918772
6.496,0.999970672407056,-128.2023123825775
6.504,0.999971361846363,-128.59435012179327
6.5120000000000005,0.99997205945574,-128.98625101483583
6.52,0.9999727645336243,-129.37801520687447
6.5280000000000005,0.9999734763938077,-129.76964285020563
6.536,0.9999741943652879,-130.16113410421008
6.5440000000000005,0.9999749177921192,-130.55248913531096
6.552,0.9999756460332626,-130.94370811693074
6.5600000000000005,0.9999763784624368,-131.33479122944945
6.568,0.999977114467967,-131.72573866016145
6.5760000000000005,0.9999778534526348,-132.11655060323318
6.584,0.9999785948335305,-132.50722725966028
6.592,0.9999793380419002,-132.8977688372249
6.6,0.9999800825229969,-133.28817555045282
6.608,0.9999808277359289,-133.6784476205707
6.616,0.9999815731535133,-134.068585275463
6.624,0.9999823182621204,-134.4585887496292
6.632,0.999983062561527,-134.84845828414078
6.64,0.9999838055647673,-135.2381941265982
6.648,0.9999845467979793,-135.62779653108768
6.656,0.9999852858002589,-136.01726575813862
6.664,0.9999860221235065,-136.40660207467988
6.672,0.9999867553322807,-136.79580575399717
6.68,0.9999874850036466,-137.18487707568968
6.688,0.999988210727028,-137.5738163256271
6.696,0.9999889321040583,-137.96262379590624
6.704,0.9999896487484305,-138.35129978480822
6.712,0.9999903602857507,-138.73984459675506
6.72,0.9999910663533896,-139.12825854226665
6.728,0.9999917666003328,-139.51654193791757
6.736,0.9999924606870354,-139.904695106294
6.744,0.9999931482852737,-140.2927183759506
6.752,0.9999938290779994,-140.68061208136737
6.76,0.999994502759191,-141.0683765629066
6.768,0.9999951690337104,-141.45601216676974
6.776,0.9999958276171552,-141.84351924495445
6.784,0.9999964782357149,-142.23089815521152
6.792,0.9999971206260246,-142.6181492610019
6.8,0.9999977545350219,-143.00527293145373
6.808,0.9999983797198022,-143.39226954131945
6.816,0.9999989959474762,-143.77913947093285
6.824,0.999999602995026,-144.16588310616626
6.832,1.0,-144.55250083838783
6.84,1.0,-144.93899306441855
6.848,0.9999999999999999,-145.32536018648975
6.856,1.0,-145.71160261220035
6.864,1.0,-146.09772075447424
6.872,0.9999999999999999,-146.48371503151773
6.88,1.0,-146.86958586677693
6.888,1.0,-147.25533368889563
6.896,0.9999999999999999,-147.64095893167251
6.904,1.0,-148.0264620340191
6.912,0.9999999999999999,-148.4118434399174
6.92,0.9999999999999999,-148.79710359837767
6.928,1.0,-149.18224296339642
6.936,1.0,-149.56726199391426
6.944,0.9999999999999999,-149.9521611537739
6.952,1.0,-150.3369409116783
6.96,1.0,-150.7216017411489
6.968,1.0,-151.10614412048372
6.976,1.0,-151.49056853271577
6.984,0.9999999999999999,-151.8748754655714
6.992,0.9999999999999999,-152.25906541142894
7.0,1.0,-152.64313886727706
7.008,1.0,-153.0270963346737
7.016,0.9999999999999999,-153.41093831970448
7.024,1.0,-153.79466533294186
7.032,0.9999999999999999,-154.17827788940383
7.04,1.0,-154.5617765085131
7.048,1.0,-154.9451617140562
7.056,1.0,-155.32843403414248
7.064,1.0,-155.7115940011637
7.072,0.9999999999999999,-156.09464215175322
7.08,1.0,-156.47757902674567
7.088,0.9999999999999999,-156.8604051711364
7.096,0.9999999999999999,-157.24312113404125
7.104,1.0000000000000002,-157.62572746865638
7.112,1.0,-158.0082247322181
7.12,0.9999999999999999,-158.39061348596306
7.128,0.9999999999999999,-158.77289429508795
7.136,0.9999999999999998,-159.15506772871032
7.144,1.0,-159.5371343598284
7.152,0.9999999999999999,-159.91909476528176
7.16,1.0,-160.30094952571176
7.168,1.0,-160.6826992255224
7.176,1.0,-161.06434445284086
7.184,0.9999999999999999,-161.44588579947848
7.192,1.0,-161.82732386089165
7.2,1.0000000000000002,-162.20865923614312
7.208,1.0,-162.58989252786296
7.216,0.9999999999999998,-162.9710243422101
7.224,1.0,-163.35205528883355
7.232,1.0,-163.73298598083417
7.24,0.9999999999999999,-164.11381703472622
7.248,1.0,-164.49454907039913
7.256,0.9999999999999999,-164.87518271107956
7.264,0.9999999999999999,-165.25571858329315
7.272,1.0,-165.63615731682685
7.28,1.0,-166.01649954469124
7.288,0.9999999999999999,-166.39674590308263
7.296,1.0,-166.7768970313458
7.304,0.9999999999999999,-167.15695357193655
7.312,1.0,-167.5369161703843
7.32,1.0,-167.91678547525507
7.328,1.0,-168.29656213811444
7.336,1.0,-168.67624681349056
7.344,1.0000000000000002,-169.05584015883736
7.352,1.0,-169.43534283449804
7.36,1.0,-169.8147555036682
7.368,1.0,-170.19407883235976
7.376,1.0,-170.57331348936432
7.384,1.0,-170.95246014621722
7.392,1.0,-171.33151947716127
7.4,0.9999999999999999,-171.71049215911097
7.4079999999999995,0.9999999999999999,-172.08937887161647
7.416,0.9999999999999999,-172.4681802968282
7.4239999999999995,0.9999999999999998,-172.84689711946064
7.432,0.9999999999999998,-173.22553002675772
7.4399999999999995,1.0,-173.6040797084566
7.448,1.0,-173.98254685675306
7.4559999999999995,0.9999999999999999,-174.36093216626594
7.464,1.0,-174.7392363340027
7.4719999999999995,1.0,-175.11746005932372
7.48,0.9999999999999999,-175.49560404390843
7.4879999999999995,0.9999999999999998,-175.87366899171988
7.496,1.0,-176.251655608971
7.504,0.9999999999999999,-176.62956460408932
7.5120000000000005,0.9999999999999998,-177.00739668768358
7.52,1.0,-177.38515257250873
7.5280000000000005,1.0,-177.7628329734326
7.536,1.0,-178.14043860740136
7.5440000000000005,0.9999999999999998,-178.51797019340623
7.552,0.9999999999999999,-178.89542845244924
7.5600000000000005,1.0000000000000002,-179.27281410751024
7.568,1.0,-179.65012788351277
7.5760000000000005,1.0,179.97262949270865
7.584,0.9999999999999999,179.59545729244232
7.5920000000000005,1.0,179.21835478513196
7.6,0.9999999999999999,178.84132123841033
7.6080000000000005,0.9999999999999998,178.4643559181315
7.616,1.0,178.0874580884043
7.6240000000000006,1.0,177.71062701162415
7.632,0.9999999999999999,177.33386194850672
7.640000000000001,0.9999999999999999,176.95716215811922
7.648,1.0,176.5805268979138
7.656000000000001,0.9999999999999999,176.2039554237589
7.664,0.9999999999999999,175.82744698997212
7.672,1.0,175.4510008493516
7.68,0.9999999999999999,175.0746162532084
7.688,1.0,174.69829245139812
7.696,0.9999999999999999,174.32202869235252
7.704,1.0,173.94582422311134
7.712,1.0,173.5696782893535
7.72,1.0,173.19359013542865
7.728,0.9999999999999999,172.81755900438844
7.736,1.0,172.44158413801767
7.744,1.0000000000000002,172.06566477686536
7.752,0.9999999999999999,171.6898001602757
7.76,0.9999999999999999,171.3139895264189
7.768,1.0,170.93823211232203
7.776,1.0,170.56252715389962
7.784,1.0,170.18687388598426
7.792,0.9999999999999999,169.811271542357
7.8,0.9999999999999999,169.43571935577782
7.808,0.9999997105009526,169.06021655801587
7.816,0.9999993802074366,168.68476237987952
7.824,0.9999990510285967,168.30935605124665
7.832,0.9999987231116261,167.9339968010946
7.84,0.9999983966021865,167.5586838575298
7.848,0.9999980716443759,167.18341644781785
7.856,0.9999977483806988,166.80819379841327
7.864,0.999997426952034,166.4330151349888
7.872,0.9999971074976064,166.05787968246523
7.88,0.9999967901549582,165.68278666504062
7.888,0.9999964750599205,165.3077353062198
7.896,0.9999961623465855,164.93272482884353
7.904,0.9999958521472814,164.55775445511776
7.912,0.9999955445925459,164.1828234066425
7.92,0.9999952398111017,163.80793090444118
7.928,0.9999949379298327,163.43307616898917
7.936,0.9999946390737594,163.05825842024285
7.944,0.9999943433660173,162.68347687766823
7.952,0.9999940509278349,162.30873076026975
7.96,0.9999937618785125,161.93401928661874
7.968,0.9999934763354014,161.55934167488184
7.976,0.9999931944138852,161.18469714284967
7.984,0.9999929162273595,160.8100849079649
7.992,0.9999926418872148,160.4355041873507
8.0,0.9999923715028184,160.06095419783873
8.008,0.9999921051814976,159.68643415599752
8.016,0.9999918430285242,159.31194327816013
8.024000000000001,0.9999915851470977,158.93748078045243
8.032,0.9999913316383324,158.563045878821
8.04,0.9999910826012416,158.1886377890604
8.048,0.9999908381327257,157.81425572684148
8.056000000000001,0.999990598327558,157.43989890773886
8.064,0.9999903632783743,157.06556654725864
8.072,0.9999901330756605,156.69125786086542
8.08,0.9999899078077416,156.31697206401026
8.088000000000001,0.9999896875607732,155.94270837215794
8.096,0.9999894724187303,155.56846600081434
8.104,0.9999892624633995,155.1942441655533
8.112,0.9999890577743709,154.82004208204413
8.120000000000001,0.9999888584290298,154.44585896607876
8.128,0.999988664502551,154.07169403359876
8.136,0.999988476067892,153.697546500722
8.144,0.9999882931957869,153.3234155837699
8.152000000000001,0.999988115954742,152.94930049929425
8.16,0.9999879444110313,152.57520046410409
8.168,0.9999877786286921,152.20111469529203
8.176,0.9999876186695231,151.82704241026133
8.184000000000001,0.9999874645930792,151.45298282675242
8.192,0.999987316456673,151.07893516286956
8.2,0.9999871743153701,150.70489863710694
8.208,0.99998703822199,150.33087246837547
8.216000000000001,0.9999869082271046,149.95685587602927
8.224,0.9999867843790391,149.5828480798918
8.232,0.9999866667238736,149.20884830028191
8.24,0.9999865553054422,148.8348557580405
8.248000000000001,0.9999864501653363,148.4608696745565
8.256,0.9999863513429073,148.08688927179313
8.264,0.9999862588752683,147.71291377231358
8.272,0.999986172797298,147.3389423993073
8.280000000000001,0.9999860931416454,146.96497437661623
8.288,0.9999860199387333,146.59100892876023
8.296,0.9999859532167631,146.21704528096316
8.304,0.999985893001722,145.84308265917858
8.312,0.9999858393173865,145.46912029011594
8.32,0.9999857921853302,145.09515740126568
8.328,0.9999857516249316,144.72119322092553
8.336,0.9999857176533794,144.34722697822556
8.344,0.9999856902856817,143.97325790315435
8.352,0.999985669534675,143.5992852265839
8.36,0.999985655411031,143.22530818029585
8.368,0.9999856479232678,142.85132599700626
8.376,0.999985647077759,142.47733791039155
8.384,0.9999856528787436,142.10334315511346
8.392,0.9999856653283362,141.72934096684483
8.4,0.9999856844265392,141.35533058229439
8.408,0.9999857101712541,140.98131123923253
8.416,0.9999857425582925,140.607282176516
8.424,0.9999857815813885,140.23324263411368
8.432,0.999985827232213,139.859191853131
8.44,0.9999858795003846,139.48512907583586
8.448,0.9999859383734856,139.11105354568284
8.456,0.9999860038370731,138.7369645073391
8.464,0.9999860758746956,138.3628612067085
8.472,0.9999861544679073,137.98874289095733
8.48,0.9999862395962813,137.61460880853866
8.488,0.9999863312374289,137.2404582092177
8.496,0.9999864293670112,136.86629034409614
8.504,0.999986533958758,136.49210446563754
8.512,0.999986644984484,136.1178998276915
8.52,0.9999867624141037,135.74367568551907
8.528,0.999986886215652,135.36943129581684
8.536,0.9999870163552993,134.9951659167423
8.544,0.9999871527973697,134.6208788079377
8.552,0.99998729550436,134.24656923055554
8.56,0.9999874444369584,133.8722364472824
8.568,0.9999875995540628,133.49787972236413
8.576,0.9999877608127992,133.12349832162988
8.584,0.9999879281685432,132.74909151251708
8.592,0.9999881015749386,132.3746585640954
8.6,0.9999882809839172,132.00019874709176
8.608,0.9999884663457205,131.62571133391427
8.616,0.999988657608919,131.25119559867701
8.624,0.9999888547204333,130.87665081722406
8.632,0.9999890576255573,130.5020762671541
8.64,0.9999892662679768,130.1274712278445
8.648,0.999989480589793,129.75283498047594
8.656,0.9999897005315445,129.37816680805614
8.664,0.9999899260322289,129.0034659954448
8.672,0.9999901570293261,128.6287318293769
8.68,0.9999903934588206,128.25396359848787
8.688,0.9999906352552241,127.87916059333692
8.696,0.9999908823516002,127.50432210643174
8.704,0.999991134679586,127.12944743225205
8.712,0.9999913921694171,126.75453586727436
8.72,0.9999916547499509,126.37958670999521
8.728,0.9999919223486908,126.00459926095606
8.736,0.9999921948918112,125.6295728227664
8.744,0.9999924723041812,125.2545067001286
8.752,0.9999927545093888,124.87940019986105
8.76,0.9999930414297676,124.50425263092272
8.768,0.9999933329864197,124.12906330443654
8.776,0.9999936290992429,123.75383153371376
8.784,0.9999939296869552,123.3785566342773
8.792,0.99999423466712,123.00323792388608
8.8,0.9999945439561726,122.62787472255823
8.808,0.9999948574694459,122.25246635259552
8.815999999999999,0.9999951751211962,121.87701213860647
8.824,0.9999954968246294,121.50151140753042
8.832,0.9999958224919282,121.12596348866123
8.84,0.9999961520342774,120.7503677136709
8.847999999999999,0.9999964853618911,120.37472341663296
8.856,0.9999968223840396,119.99902993404642
8.864,0.9999971630090755,119.62328660485925
8.872,0.9999975071444616,119.24749277049199
8.879999999999999,0.9999978546967976,118.87164777486099
8.888,0.9999982055718469,118.49575096440216
8.896,0.9999985596745643,118.11980168809461
8.904,0.9999989169091238,117.74379929748386
8.911999999999999,0.9999992771789447,117.36774314670515
8.92,0.9999996403867202,116.99163259250702
8.928,1.0,116.61546699427478
8.936,0.9999999999999999,116.23924571405375
8.943999999999999,0.9999999999999999,115.86296811657229
8.952,0.9999999999999999,115.48663356926541
8.96,1.0,115.11024144229803
8.968,1.0,114.73379110858812
8.975999999999999,1.0,114.35728194382968
8.984,1.0,113.98071332651608
8.992,1.0,113.60408463796334
9.0,0.9999999999999999,113.2273952623331
9.008,1.0,112.85064458665542
9.016,0.9999999999999999,112.47383200085204
9.024000000000001,1.0,112.0969568977596
9.032,0.9999999999999998,111.72001867315224
9.04,1.0,111.34301672576458
9.048,1.0,110.96595045731463
9.056000000000001,1.0,110.58881927252688
9.064,1.0,110.21162257915489
9.072,0.9999999999999999,109.83435978800395
9.08,1.0,109.45703031295403
9.088000000000001,1.0,109.07963357098252
9.096,0.9999999999999999,108.70216898218688
9.104,0.9999999999999999,108.32463596980698
9.112,1.0,107.9470339602479
9.120000000000001,1.0,107.56936238310267
9.128,1.0000000000000002,107.19162067117458
9.136,0.9999999999999999,106.81380826049941
9.144,1.0,106.43592459036813
9.152000000000001,1.0,106.05796910334934
9.16,0.9999999999999999,105.67994124531151
9.168,0.9999999999999999,105.30184046544503
9.176,0.9999999999999999,104.92366621628459
9.184000000000001,1.0,104.54541795373164
9.192,1.0,104.16709513707629
9.2,0.9999999999999999,103.78869722901916
9.208,1.0,103.41022369569377
9.216000000000001,0.9999999999999999,103.03167400668853
9.224,1.0,102.65304763506855
9.232,1.0,102.27434405739736
9.24,1.0,101.89556275375894
9.248000000000001,0.9999999999999999,101.51670320777959
9.256,0.9999999999999998,101.13776490664954
9.264,1.0,100.75874734114439
9.272,1.0,100.37965000564688
9.280000000000001,0.9999999999999999,100.00047239816865
9.288,1.0,99.62121402037148
9.296,1.0,99.24187437758854
9.304,1.0,98.86245297884601
9.312000000000001,1.0,98.48294933688436
9.32,1.0,98.10336296817961
9.328,0.9999999999999999,97.72369339296414
9.336,1.0,97.343940135248
9.344,0.9999999999999998,96.96410272284032
9.352,1.0,96.58418068736938
9.36,1.0,96.20417356430445
9.368,0.9999999999999999,95.82408089297574
9.376,0.9999999999999999,95.44390221659584
9.384,0.9999999999999999,95.0636370822798
9.392,0.9999999999999999,94.68328504106617
9.4,1.0,94.30284564793706
9.408,1.0,93.92231846183907
9.416,1.0,93.54170304570299
9.424,0.9999999999999999,93.16099896646477
9.432,1.0,92.78020579508498
9.44,1.0,92.39932310656954
9.448,1.0,92.01835047998914
9.456,1.0,91.6372874984997
9.464,1.0,91.25613374936162
9.472,0.9999999999999998,90.87488882396009
9.48,1.0,90.49355231782415
9.488,1.0,90.11212383064681
9.496,1.0,89.73060296630386
9.504,0.9999999999999999,89.34898933287393
9.512,1.0,88.96728254265696
9.52,1.0,88.58548221219417
9.528,1.0,88.20358796228624
9.536,0.9999999999999999,87.82159941801311
9.544,1.0,87.43951620875202
9.552,1.0,87.05733796819695
9.56,1.0,86.67506433437654
9.568,1.0,86.2926949496733
9.576,1.0,85.91022946084136
9.584,1.0,85.52766751902531
9.592,1.0,85.14500877977778
9.6,1.0,84.76225290307814
9.608,0.9999999999999998,84.3793995533498
9.616,1.0,83.99644839947854
9.624,1.0,83.6133991148297
9.632,1.0,83.23025137726628
9.64,1.0,82.84700486916574
9.648,0.9999999999999999,82.46365927743801
9.656,0.9999999999999998,82.0802142935419
9.664,0.9999999999999998,81.6966696135029
9.672,1.0,81.31302493792936
9.68,1.0,80.92927997202992
9.688,1.0,80.54543442562952
9.696,1.0,80.16148801318653
9.704,1.0,79.7774404538084
9.712,0.9999999999999999,79.39329147126857
9.72,1.0,79.00904079402187
9.728,1.0,78.62468815522107
9.736,1.0,78.24023329273197
9.744,1.0,77.85567594914968
9.752,1.0,77.47101587181349
9.76,1.0,77.08625281282266
9.768,0.9999999999999999,76.70138652905108
9.776,0.9999999999999999,76.3164167821628
9.784,1.0,75.93134333862628
9.792,0.9999999999999998,75.54616596972959
9.8,0.9999999999999999,75.16088445159437
9.808,1.0,74.77549856519073
9.816,1.0,74.39000809635077
9.824,1.0,74.00441283578326
9.832,1.0,73.61871257908669
9.84,1.0,73.23290712676373
9.847999999999999,0.9999999999999999,72.84699628423395
9.856,1.0,72.46097986184739
9.864,0.9999999999999999,72.07485767489786
9.872,1.0,71.68862954363567
9.879999999999999,1.0,71.30229529328017
9.888,0.9999999999999999,70.91585475403242
9.896,0.9999999999999999,70.52930776108784
9.904,0.9999999999999999,70.14265415464801
9.911999999999999,1.0,69.75589377993258
9.92,1.0,69.36902648719116
9.928,1.0,68.9820521317151
9.936,1.0,68.5949705738486
9.943999999999999,1.0,68.20778167899974
9.952,0.9999999999999998,67.82048531765166
