freq,mag,phase
6.0,0.9999970873619932,177.66260984515944
6.008,0.999996902676892,177.3131060842514
6.016,0.9999967268393093,176.963557583679
6.024,0.9999965596711469,176.61395862775663
6.032,0.9999964009964297,176.26430349129578
6.04,0.9999962506412868,175.91458643951745
6.048,0.9999961084339315,175.56480172796364
6.056,0.9999959742046428,175.2149436024072
6.064,0.9999958477857457,174.86500629876096
6.072,0.9999957290115944,174.5149840429858
6.08,0.9999956177185501,174.16487105099736
6.088,0.9999955137449656,173.81466152857246
6.096,0.999995416931167,173.4643496712538
6.104,0.9999953271194313,173.11392966425447
6.112,0.9999952441539725,172.76339568236122
6.12,0.999995167880921,172.4127418898372
6.128,0.9999950981483076,172.06196244032387
6.136,0.9999950348060428,171.7110514767421
6.144,0.9999949777059013,171.3600031311931
6.152,0.9999949267015045,171.0088115248582
6.16,0.9999948816483015,170.65747076789833
6.168,0.9999948424035522,170.30597495935325
6.176,0.9999948088263094,169.95431818703997
6.184,0.9999947807774057,169.60249452745094
6.192,0.9999947581194295,169.2504980456521
6.2,0.9999947407167152,168.89832279518018
6.208,0.9999947284353197,168.54596281794025
6.216,0.9999947211430116,168.1934121441028
6.224,0.9999947187092528,167.84066479200084
6.232,0.9999947210051809,167.48771476802682
6.24,0.9999947279035931,167.13455606652943
6.248,0.9999947392789318,166.7811826697108
6.256,0.9999947550072672,166.4275885475235
6.264,0.9999947749662811,166.07376765756752
6.272,0.999994799035255,165.7197139449879
6.28,0.999994827095049,165.36542134237231
6.288,0.9999948590280878,165.01088376964896
6.296,0.9999948947183496,164.65609513398482
6.304,0.9999949340513472,164.30104932968476
6.312,0.999994976914112,163.94574023809014
6.32,0.9999950231951825,163.59016172747926
6.328,0.9999950727845864,163.23430765296726
6.336,0.9999951255738277,162.87817185640736
6.344,0.9999951814558738,162.52174816629278
6.352,0.9999952403251368,162.1650303976591
6.36,0.9999953020774621,161.80801235198783
6.368,0.9999953666101155,161.4506878171107
6.376,0.9999954338217657,161.09305056711506
6.384,0.9999955036124744,160.7350943622505
6.392,0.9999955758836783,160.37681294883598
6.4,0.9999956505381803,160.01820005916912
6.408,0.999995727480132,159.65924941143564
6.416,0.9999958066150233,159.29995470962118
6.424,0.9999958878496661,158.94030964342397
6.432,0.9999959710921865,158.58030788816896
6.44,0.9999960562520036,158.21994310472365
6.448,0.9999961432398277,157.85920893941582
6.456,0.9999962319676372,157.49809902395242
6.464,0.9999963223486722,157.13660697534058
6.472,0.9999964142974214,156.77472639581072
6.48,0.9999965077296074,156.412450872741
6.4879999999999995,0.9999966025621772,156.04977397858445
6.496,0.9999966987132889,155.6866892707977
6.504,0.9999967961022996,155.32319029177242
6.5120000000000005,0.9999968946497565,154.95927056876857
6.52,0.9999969942773804,154.5949236138505
6.5280000000000005,0.9999970949080582,154.23014292382484
6.536,0.9999971964658302,153.86492198018198
6.5440000000000005,0.9999972988758792,153.499254249039
6.552,0.9999974020645186,153.13313318108666
6.5600000000000005,0.9999975059591836,152.76655221153783
6.568,0.999997610488416,152.3995047600802
6.5760000000000005,0.9999977155818586,152.0319842308308
6.584,0.9999978211702423,151.6639840122951
6.592,0.9999979271853752,151.29549747732761
6.6,0.9999980335601328,150.92651798309745
6.608,0.9999981402284479,150.55703887105636
6.616,0.9999982471253006,150.18705346691073
6.624,0.9999983541867079,149.816555080597
6.632,0.9999984613497148,149.44553700626128
6.64,0.9999985685523833,149.07399252224232
6.648,0.9999986757337839,148.70191489105903
6.656,0.9999987828339857,148.32929735940172
6.664,0.9999988897940466,147.95613315812778
6.672,0.9999989965560052,147.5824155022617
6.68,0.9999991030628712,147.20813759099966
6.688,0.9999992092586161,146.83329260771856
6.696,0.9999993150881639,146.45787371998995
6.704,0.999999420497384,146.08187407959875
6.712,0.9999995254330807,145.70528682256696
6.72,0.9999996298429862,145.32810506918278
6.728,0.9999997336757513,144.9503219240345
6.736,0.9999998368809379,144.57193047605028
6.744,0.9999999394090092,144.19292379854312
6.752,1.0,143.813294949262
6.76,0.9999999999999999,143.43303697044811
6.768,0.9999999999999999,143.05214288889798
6.776,1.0,142.67060571603184
6.784,1.0,142.28841844796915
6.792,0.9999999999999999,141.90557406560973
6.8,1.0,141.52206553472217
6.808,1.0,141.13788580603855
6.816,0.9999999999999999,140.7530278153563
6.824,1.0,140.36748448364713
6.832,1.0,139.98124871717312
6.84,0.9999999999999999,139.59431340761026
6.848,0.9999999999999999,139.20667143217958
6.856,1.0,138.8183156537861
6.864,1.0,138.4292389211657
6.872,1.0,138.03943406903997
6.88,1.0,137.64889391827947
6.888,0.9999999999999999,137.25761127607564
6.896,0.9999999999999999,136.86557893612098
6.904,1.0,136.4727896787985
6.912,1.0,136.07923627137987
6.92,0.9999999999999999,135.6849114682331
6.928,0.9999999999999999,135.28980801103953
6.936,1.0,134.89391862902042
6.944,1.0,134.49723603917337
6.952,0.9999999999999999,134.09975294651906
6.96,0.9999999999999999,133.70146204435787
6.968,1.0,133.30235601453708
6.976,1.0,132.90242752772897
6.984,1.0,132.5016692437195
6.992,1.0,132.10007381170828
7.0,0.9999999999999999,131.6976338706199
7.008,1.0,131.2943420494266
7.016,1.0,130.890190967483
7.024,1.0,130.4851732348726
7.032,0.9999999999999999,130.07928145276665
7.04,1.0,129.67250821379542
7.048,1.0,129.26484610243233
7.056,1.0,128.85628769539073
7.064,0.9999999999999999,128.4468255620341
7.072,1.0,128.03645226479958
7.08,1.0,127.62516035963534
7.088,1.0,127.21294239645147
7.096,1.0,126.79979091958539
7.104,1.0,126.3856984682816
7.112,0.9999999999999999,125.97065757718603
7.12,1.0000000000000002,125.5546607768553
7.128,1.0,125.13770059428109
7.136,1.0,124.71976955343041
7.144,1.0,124.30086017580072
7.152,1.0,123.8809649809918
7.16,1.0,123.46007648729346
7.168,1.0,123.03818721228973
7.176,1.0,122.61528967347986
7.184,1.0,122.19137638891647
7.192,0.9999999999999999,121.7664398778608
7.2,1.0,121.34047266145535
7.208,0.9999999999999999,120.913467263415
7.216,1.0,120.48541621073527
7.224,0.9999999999999999,120.05631203441992
7.232,0.9999999999999999,119.62614727022645
7.24,1.0,119.19491445943085
7.248,1.0,118.76260614961143
7.256,1.0,118.32921489545227
7.264,0.9999999999999998,117.8947332595661
7.272,0.9999999999999999,117.45915381333742
7.28,1.0,117.02246913778582
7.288,1.0,116.58467182444974
7.296,0.9999999999999999,116.14575447629123
7.304,1.0,115.70570970862151
7.312,1.0,115.26453015004832
7.32,1.0,114.82220844344421
7.328,0.9999999999999999,114.37873724693742
7.336,1.0,113.93410923492442
7.344,1.0,113.48831709910483
7.352,0.9999999999999999,113.04135354953942
7.36,1.0,112.59321131573058
7.368,1.0,112.1438831477259
7.376,1.0,111.69336181724563
7.384,1.0,111.24164011883335
7.392,0.9999999999999999,110.78871087103052
7.4,1.0,110.33456691757546
7.4079999999999995,1.0,109.87920112862645
7.416,1.0,109.4226064020091
7.4239999999999995,0.9999999999999999,108.96477566448952
7.432,1.0,108.50570187307096
7.4399999999999995,1.0,108.04537801631737
7.448,1.0,107.58379711570058
7.4559999999999995,1.0,107.12095222697496
7.464,0.9999999999999999,106.65683644157605
7.4719999999999995,0.9999999999999999,106.19144288804674
7.48,0.9999999999999999,105.72476473348821
7.4879999999999995,1.0,105.2567951850386
7.496,1.0,104.7875274913765
7.504,0.9999999999999999,104.3169549442528
7.5120000000000005,1.0,103.84507088004756
7.52,1.0,103.37186868135537
7.5280000000000005,1.0,102.89734177859603
7.536,0.9999999999999999,102.42148365165404
7.5440000000000005,1.0,101.9442878315435
7.552,1.0,101.46574790210195
7.5600000000000005,1.0,100.98585750170977
7.568,1.0,100.50461032503881
7.5760000000000005,0.9999999999999999,100.02200012482643
7.584,1.0,99.53802071367902
7.5920000000000005,0.9999999999999999,99.05266596590074
7.6,0.9999999999999999,98.56592981935198
7.6080000000000005,1.0,98.07780627733293
7.616,1.0,97.58828941049656
7.6240000000000006,1.0,97.09737335878708
7.632,0.9999999999999998,96.60505233340729
7.640000000000001,0.9999999999999999,96.11132061881126
7.648,0.9999999999999999,95.61617257472602
7.656000000000001,1.0,95.11960263819786
7.664,1.0,94.62160532566769
7.672,0.9999999999999999,94.12217523507074
7.68,0.9999999066274995,93.62130704796424
7.688,0.9999997865206369,93.1189955316803
7.696,0.999999664788484,92.61523554150497
7.704,0.9999995414572566,92.11002202288284
7.712,0.9999994165536543,91.60335001364695
7.72,0.9999992901048557,91.09521464627362
7.728,0.9999991621385153,90.585611150162
7.736,0.9999990326827599,90.07453485393788
7.744,0.9999989017661861,89.56198118778136
7.752,0.9999987694178559,89.04794568577792
7.76,0.9999986356672917,88.53242398829256
7.768,0.9999985005444751,88.0154118443664
7.776,0.9999983640798407,87.4969051141353
7.784,0.9999982263042714,86.97689977127
7.792,0.999998087249096,86.45539190543695
7.8,0.9999979469460829,85.9323777247798
7.808,0.9999978054274363,85.40785355841997
7.816,0.9999976627257913,84.88181585897686
7.824,0.9999975188742076,84.35426120510581
7.832,0.9999973739061658,83.82518630405386
7.84,0.9999972278555611,83.2945879942322
7.848,0.9999970807566974,82.7624632478046
7.856,0.9999969326442822,82.22880917329105
7.864,0.9999967835534204,81.69362301818552
7.872,0.9999966335196071,81.15690217158705
7.88,0.999996482578723,80.61864416684347
7.888,0.9999963307670252,80.07884668420623
7.896,0.9999961781211433,79.53750755349579
7.904,0.9999960246780699,78.99462475677629
7.912,0.9999958704751544,78.45019643103838
7.92,0.9999957155500949,77.90422087088932
7.928,0.9999955599409315,77.35669653124873
7.936,0.9999954036860369,76.80762203004929
7.944,0.999995246824109,76.25699615094067
7.952,0.9999950893941625,75.7048178459958
7.96,0.9999949314355195,75.15108623841783
7.968,0.9999947729878015,74.59580062524651
7.976,0.9999946140909193,74.0389604800628
7.984,0.9999944547850634,73.48056545568978
7.992,0.9999942951106962,72.92061538688895
8.0,0.9999941351085394,72.35911029304985
8.008,0.9999939748195651,71.7960503808719
8.016,0.9999938142849858,71.23143604703623
8.024000000000001,0.9999936535462423,70.66526788086703
8.032,0.999993492644994,70.09754666697931
8.04,0.9999933316231064,69.52827338791178
8.048,0.9999931705226411,68.95744922674417
8.056000000000001,0.9999930093858426,68.38507556969601
8.064,0.9999928482551264,67.81115400870516
8.072,0.999992687173068,67.23568634398423
8.08,0.9999925261823883,66.6586745865539
8.088000000000001,0.999992365325942,66.0801209607504
8.096,0.9999922046467049,65.50002790670486
8.104,0.9999920441877591,64.91839808279293
8.112,0.9999918839922806,64.33523436805332
8.120000000000001,0.9999917241035242,63.750539864572374
8.128,0.9999915645648105,63.164317899832604
8.136,0.9999914054195117,62.57657202902298
8.144,0.9999912467110348,61.98730603730974
8.152000000000001,0.9999910884828093,61.396523942065144
8.16,0.9999909307782703,60.80422999505099
8.168,0.999990773640844,60.21042868455565
8.176,0.9999906171139314,59.61512473748291
8.184000000000001,0.9999904612408936,59.01832312138947
8.192,0.9999903060650339,58.42002904646876
8.2,0.9999901516295829,57.82024796747906
8.208,0.9999899979776822,57.218985585614334
8.216000000000001,0.9999898451523661,56.6162478503149
8.224,0.9999896931965464,56.01204096101499
8.232,0.9999895421529938,55.4063713688256
8.24,0.9999893920643222,54.79924577815093
8.248000000000001,0.9999892429729698,54.19067114823523
8.256,0.9999890949211816,53.5806546946376
8.264,0.999988947950993,52.96920389063273
8.272,0.9999888021042102,52.35632646853601
8.280000000000001,0.9999886574223926,51.74203042095001
8.288,0.9999885139468354,51.12632400192969
8.296,0.9999883717185502,50.50921572806446
8.304,0.9999882307782466,49.8907143794757
8.312,0.999988091166314,49.27082900072672
8.32,0.9999879529228042,48.649568901641715
8.328,0.9999878160874099,48.026943658035094
8.336,0.9999876806994487,47.40296311234457
8.344,0.9999875467978419,46.77763737417019
8.352,0.9999874144210984,46.15097682071351
8.36,0.9999872836072933,45.52299209711853
8.368,0.9999871543940503,44.89369411670826
8.376,0.9999870268185229,44.263094061119794
8.384,0.999986900917375,43.63120338033114
8.392,0.9999867767267631,42.99803379258238
8.4,0.9999866542823165,42.363597284185495
8.408,0.9999865336191192,41.7279061092249
8.416,0.999986414771692,41.09097278914309
8.424,0.9999862977739719,40.452810112214195
8.432,0.9999861826592975,39.81343113289925
8.44,0.9999860694603865,39.172849171086405
8.448,0.9999859582093212,38.531077811210274
8.456,0.9999858489375284,37.88813090125356
8.464,0.9999857416757638,37.24402255162511
8.472,0.9999856364540921,36.59876713391818
8.48,0.9999855333018726,35.95237927954302
8.488,0.9999854322477392,35.30487387823745
8.496,0.9999853333195866,34.65626607645027
8.504,0.9999852365445522,34.006571275600955
8.512,0.9999851419490007,33.35580513021078
8.52,0.9999850495585071,32.70398354590922
8.528,0.999984959397844,32.05112267731051
8.536,0.999984871490963,31.39723892576498
8.544,0.9999847858609826,30.742348936979973
8.552,0.999984702530173,30.086469598515112
8.56,0.9999846215199423,29.42961803714707
8.568,0.9999845428508225,28.771811616108952
8.576,0.9999844665424579,28.11306793219932
8.584,0.9999843926135901,27.45340481276658
8.592,0.9999843210820487,26.792840312563946
8.6,0.9999842519647374,26.13139271048056
8.608,0.9999841852776247,25.469080506144714
8.616,0.9999841210357323,24.805922416404748
8.624,0.9999840592531241,24.14193737168389
8.632,0.9999839999428994,23.47714451221479
8.64,0.999983943117182,22.811563184150227
8.648,0.9999838887871119,22.145212935556287
8.656,0.9999838369628387,21.478113512284377
8.664,0.9999837876535135,20.810284853728692
8.672,0.9999837408672827,20.141747088466037
8.68,0.9999836966112821,19.472520529784532
8.688,0.999983654891632,18.80262567109839
8.696,0.9999836157134323,18.132083181255833
8.704,0.9999835790807583,17.460913899737278
8.712,0.9999835449966588,16.789138831751067
8.72,0.9999835134631516,16.116779143224417
8.728,0.999983484481223,15.443856155696878
8.736,0.9999834580508263,14.770391341114143
8.744,0.9999834341708814,14.096406316529903
8.752,0.9999834128392747,13.421922838713712
8.76,0.9999833940528606,12.746962798672776
8.768,0.9999833778074628,12.071548216085898
8.776,0.9999833640978759,11.395701233657583
8.784,0.9999833529178707,10.719444111390834
8.792,0.9999833442601956,10.04279922078682
8.8,0.9999833381165824,9.36578903897008
8.808,0.9999833344777511,8.688436142747666
8.815999999999999,0.9999833333334168,8.010763202601195
8.824,0.9999833346722943,7.332792976619332
8.832,0.9999833384821074,6.654548304372822
8.84,0.9999833447495972,5.976052100735482
8.847999999999999,0.9999833534605281,5.29732734965578
8.856,0.9999833645997009,4.618397097883495
8.864,0.9999833781509609,3.939284448654982
8.872,0.9999833940972074,3.260012555340542
8.879999999999999,0.9999834124204093,2.5806046150586246
8.888,0.9999834331016131,1.9010838622616926
8.896,0.9999834561209575,1.221473562297357
8.904,0.9999834814576872,0.5417970049484625
8.911999999999999,0.9999835090901664,-0.13792250204301013
8.92,0.9999835389958928,-0.8176616394632867
8.928,0.9999835711515144,-1.4973970831217018
8.936,0.9999836055328439,-2.1771055103493735
8.943999999999999,0.999983642114876,-2.8567636064968016
8.952,0.9999836808718036,-3.5363480714253344
8.96,0.9999837217770355,-4.215835625988896
8.968,0.9999837648032157,-4.895203018502176
8.975999999999999,0.9999838099222399,-5.574427031190415
8.984,0.9999838571052753,-6.253484486615912
8.992,0.9999839063227804,-6.932352254077599
9.0,0.9999839575445242,-7.611007255980069
9.008,0.9999840107396069,-8.289426474167286
9.016,0.9999840658764814,-8.967586956216234
9.024000000000001,0.9999841229229717,-9.64546582168708
9.032,0.9999841818462978,-10.323040268326288
9.04,0.9999842426130948,-11.000287578218288
9.048,0.9999843051894359,-11.677185123881086
9.056000000000001,0.9999843695408557,-12.353710374302526
9.064,0.9999844356323707,-13.029840900914223
9.072,0.9999845034285044,-13.705554383498695
9.08,0.9999845728933084,-14.38082861602551
9.088000000000001,0.9999846439903877,-15.055641512413699
9.096,0.999984716682922,-15.729971112217301
9.104,0.999984790933692,-16.403795586230373
9.112,0.9999848667051001,-17.077093242007443
9.120000000000001,0.999984943959196,-17.749842529297002
9.128,0.9999850226577013,-18.422022045385322
9.136,0.9999851027620321,-19.093610540347438
9.144,0.9999851842333232,-19.764586922201545
9.152000000000001,0.9999852670324528,-20.43493026196482
9.16,0.9999853511200661,-21.104619798608578
9.168,0.9999854364565999,-21.773634943909855
9.176,0.9999855230023051,-22.441955287196176
9.184000000000001,0.9999856107172724,-23.109560599982057
9.192,0.9999856995614549,-23.77643084049553
9.2,0.9999857894946922,-24.442546158092224
9.208,0.9999858804767334,-25.10788689755441
9.216000000000001,0.9999859724672621,-25.77243360327392
9.224,0.9999860654259164,-26.4361670233177
9.232,0.9999861593123155,-27.099068113374116
9.24,0.9999862540860803,-27.761118040577824
9.248000000000001,0.9999863497068567,-28.422298187212686
9.256,0.9999864461343365,-29.082590154292
9.264,0.9999865433282823,-29.74197576501453
9.272,0.9999866412485465,-30.400437068094917
9.280000000000001,0.9999867398550927,-31.057956340968015
9.288,0.9999868391080201,-31.71451609286742
9.296,0.9999869389675795,-32.370099067776835
9.304,0.9999870393941978,-33.024688247253344
9.312000000000001,0.9999871403484962,-33.67826685312286
9.32,0.9999872417913089,-34.33081835004831
9.328,0.9999873436837047,-34.98232644796949
9.336,0.999987445987004,-35.63277510441483
9.344,0.9999875486627983,-36.2821485266846
9.352,0.9999876516729673,-36.93043117390852
9.36,0.9999877549796988,-37.57760775897371
9.368,0.9999878585455021,-38.2236632503286
9.376,0.9999879623332281,-38.86858287365794
9.384,0.9999880663060837,-39.51235211343537
9.392,0.9999881704276484,-40.15495671434853
9.4,0.9999882746618889,-40.79638268260309
9.408,0.9999883789731755,-41.43661628710162
9.416,0.9999884833262942,-42.07564406050316
9.424,0.9999885876864621,-42.71345280015986
9.432,0.9999886920193414,-43.350029568936876
9.44,0.9999887962910503,-43.985361695911756
9.448,0.9999889004681763,-44.61943677695973
9.456,0.9999890045177895,-45.252242675221744
9.464,0.9999891084074513,-45.8837675214608
9.472,0.9999892121052275,-46.51399971430472
9.48,0.9999893155796984,-47.14292792038043
9.488,0.9999894187999672,-47.77054107433767
9.496,0.9999895217356709,-48.39682837876828
9.504,0.9999896243569892,-49.0217793040182
9.512,0.9999897266346516,-49.64538358789902
9.52,0.9999898285399476,-50.267631235295994
9.528,0.9999899300447311,-50.888512517679494
9.536,0.9999900311214295,-51.50801797251704
9.544,0.9999901317430505,-52.12613840259291
9.552,0.999990231883186,-52.74286487523242
9.56,0.9999903315160198,-53.35818872143811
9.568,0.9999904306163303,-53.97210153493489
9.576,0.9999905291594978,-54.58459517113142
9.584,0.9999906271215063,-55.195661745995
9.592,0.9999907244789488,-55.805293634846976
9.6,0.9999908212090296,-56.41348347107626
9.608,0.9999909172895672,-57.02022414477792
9.616,0.999991012698996,-57.6255088013144
9.624,0.9999911074163705,-58.22933083980638
9.632,0.9999912014213651,-58.83168391155092
9.64,0.9999912946942737,-59.432561918373615
9.648,0.9999913872160148,-60.0319590109131
9.656,0.9999914789681272,-60.629869586843675
9.664,0.9999915699327728,-61.226288289035196
9.672,0.9999916600927345,-61.82121000365556
9.68,0.9999917494314186,-62.414629858215015
9.688,0.9999918379328475,-63.006543219557805
9.696,0.9999919255816652,-63.596945691799775
9.704,0.9999920123631308,-64.18583311421831
9.712,0.9999920982631189,-64.77320155909244
9.72,0.9999921832681145,-65.35904732949959
9.728,0.999992267365213,-65.94336695706721
9.736,0.9999923505421151,-66.52615719968524
9.744,0.9999924327871257,-67.1074150391778
9.752,0.9999925140891466,-67.68713767893998
9.76,0.9999925944376765,-68.26532254153803
9.768,0.9999926738228044,-68.84196726627894
9.776,0.9999927522352063,-69.41706970674745
9.784,0.9999928296661399,-69.99062792831641
