freq,mag,phase
6.0,0.9997585819186948,10.576659624234413
6.006498816,0.9999406161080997,10.382960492667427
6.012997632,1.0001252730951349,10.186624928735702
6.019496448,1.0003025709817102,9.98783382981865
6.025995264,1.0004625728568088,9.786626472635568
6.03249408,1.0005960069107354,9.583383781456023
6.038992896,1.0006952638211537,9.378499921548746
6.045491712,1.0007547110194994,9.172455341832647
6.051990016,1.0007707507956556,8.965850919292976
6.058488832,1.0007427176318249,8.759288075835125
6.064987648,1.000672016263688,8.553365742890838
6.071486464,1.0005626369350875,8.34864832142911
6.07798528,1.0004208957273821,8.145583754660365
6.084484096,1.0002547155510964,7.9445654786287845
6.090982912,1.0000736163636437,7.745972177095054
6.097481728,0.9998877398078795,7.549796039733619
6.103980544,0.999708021274905,7.356147066743787
6.11047936,0.9995444809002125,7.164763420197382
6.116978176,0.9994063772122833,6.975452949990996
6.123476992,0.9993018627567632,6.7877628461115975
6.129975808,0.999236845285479,6.601210062383456
6.136474624,0.9992149452414922,6.415253759187128
6.14297344,0.99923766962674,6.229187435311626
6.149471744,0.9993035467939761,6.04248724123543
6.15597056,0.9994090705771361,5.854595224352971
6.162469376,0.9995479696616476,5.6650080598340375
6.168968192,0.999712518466282,5.473207119266965
6.175467008,0.9998933013981384,5.279026196224075
6.181965824,1.0000801470143728,5.082237820522951
6.18846464,1.000262109631765,4.882888317617856
6.194963456,1.0004289417831178,4.681129919595566
6.201462272,1.0005712753310596,4.477116594473038
6.207961088,1.0006808590086516,4.271372477248514
6.214459904,1.0007513886711596,4.06430607435753
6.22095872,1.0007789451423843,3.8565563152207853
6.227457536,1.0007618090760417,3.64868229756495
6.233956352,1.0007010539890702,3.4413098828774045
6.240455168,1.0005998590703566,3.2349439517381655
6.246953472,1.000464172430102,3.030193682619071
6.253452288,1.0003016453101612,2.8274739439108996
6.259951104,1.0001214804990752,2.627036174108653
6.26644992,0.9999339733429715,2.429083791065781
6.272948736,0.9997497314891527,2.2336528374612405
6.279447552,0.9995794483251843,2.0406434522054497
6.285946368,0.9994325255246809,1.8497365252533524
6.292445184,0.9993176732348438,1.6606279720414898
6.298944,0.999241424989615,1.4727860133474175
6.305442816,0.9992081645174739,1.2856583778461932
6.311941632,0.9992197057912995,1.0986479977502406
6.318440448,0.9992755457002321,0.9111169733065863
6.324939264,0.999372430071916,0.7225237251886778
6.33143808,0.9995049574698721,0.5322619320090717
6.337936384,0.9996654528973951,0.3399632359015743
6.3444352,0.999845023250285,0.14527564732947054
6.350934016,1.0000331949405705,-0.05203341909260355
6.357432832,1.0002193581491345,-0.25193083748733935
6.363931648,1.0003928993183104,-0.4543707959690517
6.370430464,1.0005437400106127,-0.6590377481880515
6.37692928,1.0006636483448004,-0.8656751568611917
6.383428096,1.0007454086936989,-1.0736860984028067
6.389926912,1.0007845682279433,-1.2826141555218058
6.396425728,1.0007786308634792,-1.4918497385027185
6.402924544,1.00072813160736,-1.7007271603625722
6.40942336,1.0006358667044646,-1.9086643004008377
6.415922176,1.0005069581704598,-2.115124535982648
6.422420992,1.0003487313291088,-2.319670288852597
6.428919808,1.0001702110522748,-2.521959517353461
6.435418112,0.9999816236693617,-2.7217513150094295
6.441916928,0.9997935136066757,-2.9190140817248595
6.448415744,0.9996167969656794,-3.1137875204682337
6.45491456,0.9994614036995799,-3.306294132934821
6.461413376,0.9993364736874351,-3.4969618673222738
6.467912192,0.9992488710085549,-3.686166918764852
6.474411008,0.9992037779095307,-3.8744994598039217
6.480909824,0.9992038359368908,-4.062553710303193
6.48740864,0.9992490242603361,-4.2510202142018
6.493907456,0.9993368422080308,-4.440404849893595
6.500406272,0.9994622335037939,-4.631268168978495
6.506905088,0.9996181371846592,-4.82418354234609
6.513403904,0.9997956523770356,-5.019451952034988
6.51990272,0.9999848070092949,-5.217222758627174
6.526401536,1.000174513101163,-5.417676059117414
6.53289984,1.0003541502460604,-5.620754911047664
6.539398656,1.0005136130735808,-5.826166396922804
6.545897472,1.0006434700807536,-6.033671374677976
6.552396288,1.0007366051548143,-6.242711920710198
6.558895104,1.0007875800041672,-6.45283791351611
6.56539392,1.0007933142728647,-6.663376052604709
6.571892736,1.0007536978245168,-6.873724432852534
6.578391552,1.0006708261732293,-7.083291034800323
6.584890368,1.0005494234910202,-7.2915172584296135
6.591389184,1.0003962084438045,-7.497907352652001
6.597888,1.000220106248178,-7.702055350481348
6.604386816,1.0000308663982287,-7.903779524851794
6.610885632,0.9998395875926225,-8.102916350592052
6.617384448,0.9996568751694859,-8.299515269827566
6.623883264,0.9994933118424291,-8.49378692805324
6.630381568,0.9993582973867153,-8.686012174201844
6.636880384,0.9992592863916686,-8.876699177566968
6.6433792,0.9992023706899571,-9.066315941350634
6.649878016,0.9991906121219056,-9.25553815539399
6.656376832,0.9992247355492146,-9.444928845748102
6.662875648,0.9993027484316702,-9.635169978633842
6.669374464,0.9994203881117971,-9.826800603816924
6.67587328,0.9995708527311892,-10.020282015978427
6.682372096,0.9997458443871221,-10.21608818057558
6.688870912,0.9999349930103802,-10.414431259142539
6.695369728,1.0001277760766816,-10.615522359300295
6.701868544,1.0003130939609255,-10.819208193245899
6.70836736,1.0004806065986434,-11.02536302433418
6.714866176,1.0006204214522791,-11.23374383590725
6.721364992,1.0007247989882164,-11.44379581124245
6.727863296,1.0007878233491114,-11.655060584829231
6.734362112,1.0008056556059217,-11.86692034921667
6.740860928,1.0007773114115872,-12.078801601557675
6.747359744,1.0007043910937057,-12.290017263850949
6.75385856,1.0005909992563427,-12.500020197822211
6.760357376,1.0004436855793446,-12.708295837270864
6.766856192,1.000270582256553,-12.914415639520893
6.773355008,1.0000816072709746,-13.11807786380496
6.779853824,0.9998874675943017,-13.319150764467073
6.78635264,0.9996993548552697,-13.517659541957704
6.792851456,0.9995279592048496,-13.713730415900143
6.799350272,0.9993829820207509,-13.907627872478349
6.805849088,0.9992728349952293,-14.099846301092951
6.812347904,0.9992037377948766,-14.290879586283884
6.81884672,0.9991797224352529,-14.481292814479763
6.825345024,0.9992021945618413,-14.671745259225627
6.83184384,0.9992699667431398,-14.862887381400695
6.838342656,0.9993790729497748,-15.055271265708825
6.844841472,0.9995235895063884,-15.249466545745742
6.851340288,0.9996950231766465,-15.445882418296165
6.857839104,0.9998837340003622,-15.644830160599144
6.86433792,1.0000788356935866,-15.846460050500166
6.870836736,1.0002694343451404,-16.050821785440526
6.877335552,1.0004445919786622,-16.25772986503253
6.883834368,1.0005942901226643,-16.466917376658703
6.890333184,1.0007098174223763,-16.67803169890271
6.896832,1.0007849192793283,-16.89046828972515
6.903330816,1.0008150903573387,-17.103670013402013
6.909829632,1.000798547646669,-17.317072106916765
6.916327936,1.0007362560466158,-17.529957062407476
6.922826752,1.000631665090923,-17.74174904181321
6.929325568,1.000490893215515,-17.951913326825874
6.935824384,1.000321543299391,-18.15999562838482
6.9423232,1.0001335126579876,-18.3656902054664
6.948822016,0.9999374111458008,-18.56879524429239
6.955320832,0.9997442900971187,-18.769256269049663
6.961819648,0.9995654449022474,-18.967167304145757
6.968318464,0.9994108180324733,-19.162885171538534
6.97481728,0.9992893828077934,-19.356709935658753
6.981316096,0.9992080723333161,-19.549226569152687
6.987814912,0.9991716209204263,-19.74091435426818
6.994313728,0.9991820380233771,-19.932491825137298
7.000812544,0.9992388485634389,-20.124628018005044
7.00731136,0.9993388620347392,-20.317812591884113
7.013809664,0.9994763844848715,-20.512759508431444
7.02030848,0.9996436685198401,-20.709829354573802
7.026807296,0.9998310253236697,-20.90937983704308
7.033306112,1.000027982357561,-21.111636133278985
7.039804928,1.0002232289571722,-21.31664293717942
7.046303744,1.0004055955017426,-21.52432316139879
7.05280256,1.0005648569163506,-21.734359753645563
7.059301376,1.0006916753338095,-21.946454005632148
7.065800192,1.0007789879981528,-22.16003999032808
7.072299008,1.0008217910542008,-22.37464126253281
7.078797824,1.0008175078193724,-22.589542416948955
7.08529664,1.0007664117068376,-22.804092418701465
7.091795456,1.000671359394366,-23.01773223711429
7.098294272,1.0005377186222153,-23.229830879560083
7.104793088,1.0003729529676595,-23.439956397357737
7.111291392,1.00018660132324,-23.647717469618513
7.117790208,0.9999890804541604,-23.85287421353817
7.124289024,0.9997918031618699,-24.055354561729317
7.13078784,0.9996057325980403,-24.255262428337574
7.137286656,0.9994416984430534,-24.45280422564066
7.143785472,0.9993092475346153,-24.648346710113454
7.150284288,0.9992155540743192,-24.842399731027122
7.156783104,0.9991663350705359,-25.03551599709603
7.16328192,0.9991643421084578,-25.228291909589643
7.169780736,0.9992097010095334,-25.421425665450627
7.176279552,0.9992997091441924,-25.615557287079326
7.182778368,0.9994296246180389,-25.811248865438877
7.189277184,0.999591884811547,-26.008990640530353
7.195776,0.9997773246622186,-26.209224142624315
7.202274816,0.9999753222902359,-26.412101147563618
7.20877312,1.0001745551487073,-26.617772738021728
7.215271936,1.0003637311452,-26.82620083229293
7.221770752,1.0005321918247099,-27.037143097405746
7.228269568,1.0006701538193288,-27.25023188427307
7.234768384,1.0007699091792057,-27.46499224075089
7.2412672,1.0008255517031652,-27.680894927344266
7.247766016,1.0008339177276186,-27.89732708757204
7.254264832,1.0007947029317186,-28.11356128876517
7.260763648,1.0007097861813832,-28.32902951251835
7.267262464,1.0005840908536707,-28.543112681914252
7.27376128,1.0004248301839624,-28.755286890004857
7.280260096,1.0002409103042846,-28.96513305956939
7.286758912,1.0000428446382421,-29.172448674966212
7.293257728,0.999841652883968,-29.377092219194683
7.299756544,0.9996491617010407,-29.579024953974393
7.306254848,0.9994761478877597,-29.778506360041092
7.312753664,0.999332575982093,-29.975864022458545
7.31925248,0.9992265208117713,-30.17152927648711
7.325751296,0.999164304358284,-30.366097004054495
7.332250112,0.9991493111507244,-30.56016064800116
7.338748928,0.9991825886257114,-30.754419664939803
7.345247744,0.9992622865277412,-30.949498667412715
7.35174656,0.9993836818089601,-31.146040301164877
7.358245376,0.9995401858498104,-31.344512973212368
7.364744192,0.9997227476837554,-31.54541642260338
7.371243008,0.9999209267278539,-31.748973537486894
7.377741824,1.0001236651481444,-31.955327060443462
7.38424064,1.0003192541699655,-32.16448850672608
7.390739456,1.0004965549752987,-32.37628132096867
7.397238272,1.0006453712132872,-32.590373419732984
7.403736576,1.0007574881357337,-32.80632951517602
7.410235392,1.00082619724765,-33.02356428974331
7.416734208,1.0008477750890872,-33.24149940915513
7.423233024,1.0008207444120885,-33.45947747390507
7.42973184,1.000746821849282,-33.67676299743909
7.436230656,1.0006299351063561,-33.89283023246638
7.442729472,1.0004770236648697,-34.10711786364424
7.449228288,1.0002962206508368,-34.319158316455336
7.455727104,1.0000982171940926,-34.52866913906472
7.46222592,0.9998941074964796,-34.735439202914435
7.468724736,0.9996954556921943,-34.93952280550245
7.475223552,0.9995138439048359,-35.14103574827244
7.481722368,0.999359312149695,-35.34027017302068
7.488221184,0.9992409106312069,-35.537671832500386
7.494719488,0.9991654254589246,-35.733794646818644
7.501218304,0.999137122778444,-35.92922200045099
7.50771712,0.9991576630304856,-36.12466608806967
7.514215936,0.9992260745216444,-36.32078629994404
7.520714752,0.999338355421432,-36.51820784828468
7.527213568,0.9994880874001221,-36.71748095195554
7.533712384,0.9996670828396036,-36.91907157719992
7.5402112,0.9998648065583652,-37.12327605433916
7.546710016,1.0000701211579524,-37.33036440039643
7.553208832,1.0002714713879186,-37.540292971388496
7.559707648,1.0004572035453294,-37.75293736135354
7.566206464,1.0006169260740263,-37.96803948739243
7.57270528,1.0007413846073097,-38.185101545607786
7.579204096,1.0008234334912411,-38.40370289015504
7.585702912,1.000858554777945,-38.6231341839743
7.592201216,1.0008444541644044,-38.84278074718389
7.598700032,1.0007821645536157,-39.061995112117124
7.605198848,1.0006749403295068,-39.280064871397435
7.611697664,1.0005288513601458,-39.496499338986474
7.61819648,1.0003524013106804,-39.710759690374736
7.624695296,1.0001552044014754,-39.92250162753566
7.631194112,0.9999489087291075,-40.131510725826004
7.637692928,0.9997448152921194,-40.33780077117225
7.644191744,0.9995547638426434,-40.54142196916522
7.65069056,0.9993897745365455,-40.74260512133912
7.657189376,0.9992590171128106,-40.94182143707765
7.663688192,0.9991699808147508,-41.13959369249763
7.670187008,0.9991280515698083,-41.33651085897459
7.676685824,0.9991354114141813,-41.53325040749073
7.68318464,0.9991918328574767,-41.73044578220834
7.689682944,0.9992939867039451,-41.9287832628474
7.69618176,0.9994364556322981,-42.128879440704246
7.702680576,0.9996107082505247,-42.33122491538073
7.709179392,0.9998070256042629,-42.53615857298409
7.715678208,1.0000144705991627,-42.743970662874155
7.722177024,1.0002209148048704,-42.95463631960417
7.72867584,1.0004146890570627,-43.16815400299035
7.735174656,1.0005847075589684,-43.38421957812946
7.741673472,1.0007216211235905,-43.60244523066577
7.748172288,1.0008172433175497,-43.82234020831841
7.754671104,1.0008661089361317,-44.0433255543977
7.76116992,1.0008654502793086,-44.2646874946408
7.767668736,1.000815458361885,-44.48575281463734
7.774167552,1.0007186651965359,-44.705868078588
7.780666368,1.0005806242354331,-44.92447393571276
7.787164672,1.0004090954117022,-45.14096168487631
7.793663488,1.0002139031087969,-45.35502804391742
7.800162304,1.0000058459923487,-45.5663478659932
7.80666112,0.9997971063685455,-45.774891792876126
7.813159936,0.9995993423614048,-45.98070505000776
7.819658752,0.9994238198165701,-46.183971095113954
7.826157568,0.9992808592969948,-46.38509785863659
7.832656384,0.9991783267803752,-46.58459582513768
7.8391552,0.99912220446202,-46.783067537192
7.845654016,0.9991159402012639,-46.98113577875249
7.852152832,0.999159592569487,-47.17948406105409
7.858651648,0.9992509514295773,-47.37886677821589
7.865150464,0.9993848660802181,-47.5798710974308
7.87164928,0.9995536749785231,-47.78298626712999
7.878148096,0.9997479398080493,-47.988654755601395
7.8846464,0.999956320617619,-48.19715851439027
7.891145216,1.0001672643573527,-48.40862756692224
7.897644032,1.0003685613104325,-48.62298897488555
7.904142848,1.0005488256144952,-48.8400274838649
7.910641664,1.0006980126021334,-49.059399693670805
7.91714048,1.0008071924365138,-49.280592494722775
7.923639296,1.0008702515897208,-49.503066457699276
7.930138112,1.0008836783390673,-49.726113072339274
7.936636928,1.0008466014911674,-49.9490568987266
7.943135744,1.0007610903929116,-50.17124826080162
7.94963456,1.0006319093025595,-50.392007616656514
7.956133376,1.0004663148773552,-50.610829454553695
7.962632192,1.000273710670766,-50.827245952693794
7.969131008,1.0000650277848497,-51.040962053502405
7.975629824,0.9998520595831841,-51.25185138495952
7.982128128,0.9996472561550267,-51.45988698287647
7.988626944,0.9994617410591738,-51.665358887625025
7.99512576,0.9993064891833406,-51.86845973498797
8.001624576,0.9991903324257608,-52.06979099069147
8.008123392,0.999119780447748,-52.26988520941262
8.014622208,0.9990991417797748,-52.469382729389565
8.021121024,0.9991295331026644,-52.669014787098696
8.02761984,0.9992092518195627,-52.8694670762497
8.034118656,0.9993340019590059,-53.0713755144954
8.040617472,0.99949630936228,-53.27533835707608
8.047116288,0.9996873698839086,-53.48178141920541
8.053615104,0.9998961764311385,-53.69103531665791
8.06011392,1.0001107369459115,-53.90326337997319
8.066612736,1.0003190333353926,-54.11845882118539
8.07311104,1.0005091300752598,-54.33647312481258
8.079609856,1.0006702867635926,-54.55694650418232
8.086108672,1.000793166680144,-54.77944375235437
8.092607488,1.000870822385169,-55.00339351947246
8.099106304,1.0008987496562276,-55.22811880966643
8.10560512,1.0008752575471564,-55.4529743683154
8.112103936,1.0008018551965774,-55.677184335303245
8.118602752,1.0006824543624753,-55.900175774423204
8.125101568,1.0005236680962846,-56.12135421078091
8.131600384,1.0003348240160141,-56.34016665527626
8.1380992,1.0001263797807758,-56.55632435149611
8.144598016,0.9999102193680304,-56.76960948647351
8.151096832,0.9996984706632506,-56.9800245002918
8.157595648,0.9995035524055478,-57.18769382478785
8.164094464,0.9993362863224419,-57.392935329756966
8.170592768,0.9992064811694636,-57.596164054689346
8.177091584,0.9991212240365855,-57.79800035934255
8.1835904,0.9990858261589258,-57.99903034016905
8.190089216,0.9991021869972353,-58.20000310623023
8.196588032,0.9991695227557408,-58.40160106862394
8.203086848,0.9992838500097927,-58.60448907506645
8.209585664,0.9994388733997825,-58.80929245551366
8.21608448,0.9996257517483064,-59.016527826112856
8.222583296,0.9998339123033448,-59.22655123620933
8.229082112,1.0000515034946578,-59.439565436528575
8.235580928,1.0002662610995314,-59.65559307273324
8.242079744,1.0004654853842538,-59.87454209213647
8.24857856,1.0006384882487933,-60.096137050209144
8.255077376,1.0007751228407755,-60.31990683766982
8.261576192,1.0008674750720432,-60.54530399897669
8.268074496,1.0009103756299547,-60.7717234618971
8.274573312,1.0009012858257402,-60.99845925612531
8.281072128,1.0008407662961851,-61.22476181219258
8.287570944,1.000732107417275,-61.4499783324949
8.29406976,1.0005812313308997,-61.67349869014735
8.300568576,1.0003970356444738,-61.89476797385264
8.307067392,1.000189698766077,-62.11341064029304
8.313566208,0.9999709625161003,-62.3291760860901
8.320065024,0.9997534016885332,-62.54204507187074
8.32656384,0.9995493118407639,-62.75205590223358
8.333062656,0.9993702645857916,-62.95947761231961
8.339561472,0.9992266950044639,-63.16472243800889
8.346060288,0.9991266658386854,-63.36834872401902
8.352559104,0.9990760290483163,-63.571011461096276
8.35905792,0.999077673771683,-63.77339284907451
8.365556224,0.9991314506620744,-63.97618371654808
8.37205504,0.9992347350342956,-64.18014553070434
8.378553856,0.9993814577616328,-64.3858598446117
8.385052672,0.9995630829385076,-64.59393389456464
8.391551488,0.9997697386309242,-64.80471433267762
8.398050304,0.9999893065760803,-65.01850430056415
8.40454912,1.000209623874659,-65.23537276370213
8.411047936,1.0004180007126187,-65.455255339226
8.417546752,1.0006024919941685,-65.67791274136795
8.424045568,1.0007528083493868,-65.90294790121392
8.430544384,1.0008600582680454,-66.129821734936
8.4370432,1.0009184397443847,-66.35787858954511
8.443542016,1.0009244074464105,-66.58648101156675
8.450040832,1.0008774385681845,-66.81485287369519
8.456539648,1.0007804610842306,-67.04229084426383
8.463037952,1.000638654994695,-67.26818612104803
8.469536768,1.0004600751545332,-67.49196716172125
8.476035584,1.0002548386224184,-67.7131672142498
8.4825344,1.0000345932985726,-67.93151199997078
8.489033216,0.9998116465257646,-68.14687838756481
8.495532032,0.9995991057528025,-68.35927223851007
8.502030848,0.9994086280620332,-68.56899484288842
8.508529664,0.999251373829783,-68.77636719005108
8.51502848,0.99913629050931,-68.98189237739412
8.521527296,0.999069972232313,-69.18626843990444
8.528026112,0.9990563254403954,-69.39013025326528
8.534524928,0.9990960224012605,-69.59422138403748
8.541023744,0.9991871039152468,-69.79926887823959
8.54752256,0.9993242170318702,-70.00595531506944
8.554021376,0.9994997320341102,-70.21488368717786
8.56051968,0.9997036131964117,-70.42645434300215
8.567018496,0.9999244941394271,-70.64101205108359
8.573517312,1.000149672436342,-70.85871063337643
8.580016128,1.000366253844978,-71.07951346171853
8.586514944,1.00056198867906,-71.30323340287693
8.59301376,1.0007257739774802,-71.52949108571269
8.599513088,1.000848321273234,-71.75777103703793
