freq,mag,phase
6.0,0.9998664680153847,176.34916517829288
6.003460096,0.9998649786284441,176.11652593084716
6.006920192,0.999871647846001,175.88385720660418
6.0103808,0.9998861780109615,175.65111972244298
6.013840896,0.999907648253076,175.41817206994887
6.017300992,0.9999347219907435,175.18489764421895
6.020761088,0.9999658189071444,174.9512809070689
6.024221696,0.9999992386535197,174.7172338525206
6.027681792,1.000032598421769,174.48273156952334
6.031141888,1.0000640100755718,174.24784450032064
6.034601984,1.0000915593956852,174.01257898497065
6.03806208,1.0001134753181586,173.7770207137851
6.041522688,1.0001287006073838,173.5411832691794
6.044982784,1.0001359017824665,173.3052703293883
6.04844288,1.000135001961989,173.0693450909186
6.051902976,1.0001257317663175,172.83357696660784
6.055363072,1.0001088422541027,172.5979812435513
6.05882368,1.0000853449305087,172.36271724393222
6.062283776,1.0000565549277438,172.1279247852893
6.065743872,1.0000244459075558,171.89356053427335
6.069203968,0.9999907629727882,171.65974758516845
6.072664576,0.9999575165264639,171.42642768122332
6.076124672,0.9999270466746879,171.19362935664844
6.079584768,0.9999009184322114,170.96126830561533
6.083044864,0.9998807184377114,170.72926255536103
6.08650496,0.9998678407710337,170.49756419222814
6.089965568,0.9998631304486153,170.26603184677322
6.093425664,0.9998667284777556,170.03457034527108
6.09688576,0.9998784658366948,169.80303780373984
6.100345856,0.999897629139221,169.57132336478216
6.103806464,0.9999230138209313,169.3393455019683
6.10726656,0.9999533703321818,169.1069877768187
6.110726656,0.9999863830522113,168.87427595735534
6.114186752,1.0000202604296367,168.64109953169398
6.117646848,1.0000530149596107,168.40751182948037
6.121107456,1.0000825908498077,168.17351216816377
6.124567552,1.0001072016391963,167.9391727717624
6.128027648,1.0001252315408145,167.70457788088655
6.131487744,1.0001356089653732,167.46982090780904
6.134948352,1.000137871917098,167.23503399717185
6.138408448,1.00013168264723,167.0003387250429
6.141868544,1.0001174524219583,166.76579939690612
6.14532864,1.0000960454276027,166.53155830764274
6.148788736,1.000068801054099,166.29772363708707
6.152249344,1.000037441376089,166.06436590004438
6.15570944,1.0000036163851629,165.83148521129255
6.159169536,0.9999697107981703,165.59916637951875
6.162629632,0.9999375776842662,165.3673644737247
6.166089728,0.9999091556323106,165.13603390419905
6.169550336,0.9998864129903697,164.905101105118
6.173010432,0.9998705829899398,164.67452321338706
6.176470528,0.9998625883952311,164.44415942242932
6.179930624,0.9998628601131743,164.21387715613716
6.183391232,0.9998718001572723,163.9835946847589
6.186851328,0.9998884879108851,163.75317794434403
6.190311424,0.9999119311222104,163.52251332821973
6.19377152,0.999940878715418,163.29154193290674
6.197231616,0.9999734894863447,163.06015382551985
6.200692224,1.0000075826928918,162.82837556072388
6.20415232,1.0000414038137522,162.5961409976602
6.207612416,1.000072777352082,162.3634728676016
6.211072512,1.0000996843951124,162.13046300437227
6.21453312,1.0001205759098593,161.89716927560988
6.217993216,1.000134092431987,161.66362319650023
6.221453312,1.0001394601930849,161.4300429356022
6.224913408,1.00013648484278,161.19646364272356
6.228373504,1.0001251159321214,160.96305157869213
6.231834112,1.0001061189935512,160.729872711281
6.235294208,1.000080585007782,160.49709132451028
6.238754304,1.0000501871204999,160.26478231091357
6.2422144,1.000016677867776,160.03292618540036
6.245674496,0.9999822131706069,159.80164090607965
6.249135104,0.9999487902897558,159.57087981720204
6.2525952,0.9999184679127076,159.34061015428315
6.256055296,0.9998930248696725,159.11079659695335
6.259515392,0.9998742347701832,158.88133192648743
6.262976,0.9998631006310947,158.6521623178525
6.266436096,0.9998602569843743,158.4231233415984
6.269896192,0.9998660857981346,158.19412157349342
6.273356288,0.9998799018017922,157.96503674265676
6.276816384,0.999901287125794,157.73574236610676
6.280276992,0.9999287506321882,157.5061222406355
6.283737088,0.9999603813232869,157.27617382074533
6.287197184,0.9999946342391212,157.04579964286364
6.29065728,1.00002925282578,156.81497368808238
6.294117888,1.000062107620941,156.5836949738415
6.297577984,1.0000912772030268,156.35204399560072
6.30103808,1.000114780177718,156.12007045728015
6.304498176,1.000131460298826,155.88785679385938
6.307958272,1.000140138531814,155.65552557455163
6.31141888,1.0001401687758444,155.4231680710959
6.314878976,1.0001317768922853,155.1909100252947
6.318339072,1.0001153408271224,154.95891070905202
6.321799168,1.0000919310871046,154.72720814056146
6.325259264,1.000062927723844,154.49596933442928
6.328719872,1.0000299665065506,154.26519284670232
6.332179968,0.9999950822778093,154.03494882056373
6.335640064,0.9999606695183415,153.80524962578653
6.33910016,0.9999285713058641,153.57608094348834
6.342560768,0.9999008350430393,153.34741493383257
6.346020864,0.9998791130126687,153.1191201441258
6.34948096,0.9998648299837063,152.8911337271094
6.352941056,0.9998587438221737,152.66335849161723
6.356401152,0.9998614745179186,152.43567181941387
6.35986176,0.9998725026654856,152.20791815083547
6.363321856,0.9998913255564343,151.98000255200037
6.366781952,0.9999168475325596,151.75181637245998
6.370242048,0.9999475925111275,151.5233148969787
6.373702656,0.9999814806088583,151.2943957100881
6.377162752,1.00001652883294,151.0649898048954
6.380622848,1.0000507654657185,150.83518835946975
6.384082944,1.000081818108099,150.6049588216431
6.38754304,1.0001080665183266,150.3743711538619
6.391003648,1.0001275220061334,150.14352167751082
6.394463744,1.0001393765291404,149.91247389326628
6.39792384,1.0001428830617576,149.68138416484015
6.401383936,1.0001374381053243,149.45036296319034
6.404844544,1.0001238713496676,149.219492698054
6.40830464,1.0001026187855835,148.98895141311618
6.411764736,1.0000751181278333,148.7587984105265
6.415224832,1.0000430489628653,148.5291354964819
6.418684928,1.0000083599437153,148.30001241406575
6.422145536,0.999973034412764,148.07141812382787
6.425605632,0.9999394751608169,147.84335039647462
6.429065728,0.9999095550990462,147.61580614525954
6.432525824,0.9998851138429588,147.38873006118
6.43598592,0.9998678275679153,147.16195216015365
6.439446528,0.9998585256349353,146.93547035177912
6.442906624,0.9998578464308437,146.7090636068815
6.44636672,0.9998659038631204,146.48268590740136
6.449826816,0.9998822154938377,146.25616532416745
6.453287424,0.9999056443700837,146.02942593961671
6.45674752,0.9999349784207013,145.80237465682876
6.460207616,0.9999681877807863,145.57492139758907
6.463667712,1.0000035816960386,145.34703231971056
6.467127808,1.000038781214319,145.1186816034599
6.470588416,1.00007156873684,144.88990586224716
6.474048512,1.0001000506206752,144.66076575850465
6.477508608,1.0001226697651666,144.43128007994335
6.480968704,1.000137464900892,144.20159702428646
6.484429312,1.0001442380824501,143.97179037888162
6.487889408,1.0001421415573368,143.7420174235703
6.491349504,1.0001313747812113,143.51239597973628
6.4948096,1.0001125914764064,143.28303510896913
6.498269696,1.000087022067902,143.05403225555062
6.501730304,1.0000560702702237,142.8254990746389
6.5051904,1.000021706658998,142.59745872255505
6.508650496,0.9999859812711293,142.36997453106005
6.512110592,0.9999510254757971,142.14309887602818
6.515570688,0.9999191826758909,141.91669236445608
6.519031296,0.9998922454003941,141.69076519254332
6.522491392,0.9998718698631011,141.4652401454443
6.525951488,0.9998592880412097,141.24000787821961
6.529411584,0.9998553740356523,141.0149333792575
6.532872192,0.9998602943697326,140.78994017916102
6.536332288,0.9998737698691841,140.56480170576728
6.539792384,0.9998949758376661,140.33951515438608
6.54325248,0.9999226266916313,140.11394355973167
6.546712576,0.9999551197748342,139.88799418032235
6.550173184,0.9999902449564708,139.6615733623257
6.55363328,1.0000261110259465,139.43473914877836
6.557093376,1.0000604103548627,139.2074332859594
6.560553472,1.0000911444174296,138.97973218877064
6.56401408,1.000116310570591,138.75168854552442
6.567474176,1.0001344270274277,138.52338030122988
6.570934272,1.0001444047018189,138.2949189037417
6.574394368,1.0001455750619348,138.06644722605913
6.577854464,1.0001378522369457,137.83804771723885
6.581315072,1.0001216758166698,137.60991008112705
6.584775168,1.0000981845140537,137.38204139955215
6.588235264,1.0000686876816114,137.15465001486132
6.59169536,1.000034888722047,136.9277827663299
6.595155456,0.9999990497401378,136.701453307185
6.598616064,0.9999632103615123,136.47566081068993
6.60207616,0.9999295769233751,136.25040130548223
6.605536256,0.9999003199558297,136.02568979976974
6.608996352,0.9998771029888639,135.80138186573214
6.61245696,0.9998613466393825,135.57740480257544
6.615917056,0.9998541530297665,135.3536728312641
6.619377152,0.9998557176697556,135.13001918130928
6.622837248,0.9998661972306886,134.90629659240204
6.626297344,0.9998848511263305,134.6824687625547
6.629757952,0.9999106801650803,134.45834159775194
6.633218048,0.9999419373546232,134.23390307523866
6.636678144,0.9999767888583377,134.00902115177257
6.64013824,1.0000130126359594,133.78368480372106
6.643598848,1.0000486017692811,133.5578788608114
6.647058944,1.0000812788190192,133.33162932346877
6.65051904,1.0001089700858403,133.10503295357654
6.653979136,1.000130067797361,132.87813970715897
6.657439232,1.000143302899995,132.65103510856068
6.66089984,1.00014783790348,132.42386749844795
6.664359936,1.000143182484174,132.19677342796393
6.667820032,1.0001299641497534,131.9698248027073
6.671280128,1.0001088810948193,131.74317180257904
6.674740736,1.0000809306931793,131.51696162687108
6.678200832,1.0000482025248634,131.2911990366128
6.681660928,1.0000125002422846,131.06598643830915
6.685121024,0.9999759611524051,130.84134227091562
6.68858112,0.9999408528146867,130.6172487950309
6.692041728,0.9999093567527574,130.39369477927897
6.695501824,0.9998835150912945,130.1706242428362
6.69896192,0.9998646337015606,129.9478943894645
6.702422016,0.9998541169817983,129.72543183654147
6.705882112,0.9998523473283167,129.5031296038143
6.70934272,0.9998598290660671,129.28082819861547
6.712802816,0.9998757191171356,129.05841129352424
6.716262912,0.9998992915463766,128.83578421398113
6.719723008,0.9999290933783048,128.61280307513798
6.723183616,0.9999632836625284,128.3894292696024
6.726643712,0.9999996977145913,128.16562023148524
6.730103808,1.0000362243049379,127.94131226409183
6.733563904,1.0000705649502015,127.71656970175356
6.737024,1.0001006336050748,127.49141021443812
6.740484608,1.0001246382135227,127.26595664589253
6.743944704,1.000141081119715,127.04023039526446
6.7474048,1.000148789532468,126.81439080144274
6.750864896,1.0001476111586731,126.58854654607123
6.754325504,1.000137390175406,126.36286012424173
6.7577856,1.0001186271625633,126.13739264495663
6.761245696,1.000092860378658,125.91234741543734
6.764705792,1.0000612019549244,125.68772995269767
6.768165888,1.0000260206708842,125.46364219868977
6.771626496,0.999989040456165,125.24010869731885
6.775086592,0.9999527841551762,125.01718579039338
6.778546688,0.9999193477355028,124.79479046743262
6.782006784,0.9998907986355288,124.57289756439943
6.78546688,0.999869048798633,124.35141568300985
6.788927488,0.9998551245799331,124.13024512353907
6.792387584,0.999850142883655,123.90924352289453
6.79584768,0.9998543171225986,123.68831783549632
6.799307776,0.9998673772723491,123.46732489745682
6.802768384,0.9998885939733185,123.24614005072397
6.80622848,0.9999166748767362,123.02464803075722
6.809688576,0.9999498194108729,122.80277269504367
6.813148672,0.9999860570680492,122.58046356122026
6.816608768,1.0000232250839718,122.35768799854772
6.820069376,1.0000590818658026,122.134422652464
6.823529472,1.0000913322725358,121.91075288233749
6.826989568,1.0001179802799478,121.68669434418935
6.830449664,1.0001374357219994,121.46233853756912
6.833910272,1.0001486935058959,121.23786607725587
6.837370368,1.0001507779954077,121.0133184213971
6.840830464,1.0001436667048937,120.78884229738351
6.84429056,1.0001277740132875,120.56460392235205
6.847750656,1.0001040876722067,120.34068185834838
6.851211264,1.0000740298781905,120.11720752160319
6.85467136,1.0000395010666847,119.89425533819711
6.858131456,1.0000024332182322,119.67187226920895
6.861591552,0.9999652093106025,119.45004301779565
6.865051648,0.9999301515227088,119.22878979519002
6.868512256,0.999899287500244,119.00807188200169
6.871972352,0.999874657737822,118.78779382322784
6.875432448,0.9998575152100455,118.56786208972275
6.878892544,0.9998490676307585,118.34817675968513
6.882353152,0.9998498760191897,118.12859572950676
6.885813248,0.9998600024225055,117.90899952033051
6.889273344,0.9998786206796368,117.68922698241714
6.89273344,0.9999047537119891,117.46918365247474
6.896193536,0.9999365768444226,117.24880383483539
6.899654144,0.9999724906382561,117.02797583367028
6.90311424,1.000009986000264,116.80666924066865
6.906574336,1.000046936055349,116.58491706073201
6.910034432,1.0000811560334062,116.36268315857333
6.91349504,1.0001103451601068,116.14007749674633
6.916955136,1.0001329873015516,115.9171320882068
6.920415232,1.000147414480971,115.6939629437446
6.923875328,1.0001528182680346,115.47068856247587
6.927335424,1.000149062327362,115.24749635172907
6.930796032,1.0001360389970588,115.02443011324188
6.934256128,1.0001147863856288,114.80170978284761
6.937716224,1.0000865443853333,114.57934285082779
6.94117632,1.000052943131004,114.35748707413207
6.944636928,1.0000161088910273,114.13620367108555
6.948097024,0.9999782852861924,113.91547207258361
6.95155712,0.999941698431981,113.69533026361044
6.955017216,0.9999087903618967,113.47576234447469
6.958477312,0.9998812779168317,113.25665732448927
6.96193792,0.999861059481302,113.03792617624323
6.965398016,0.9998493027815477,112.81951086895609
6.968858112,0.9998468162596094,112.60122276848737
6.972318208,0.999853643757017,112.38295785173975
6.975778304,0.999869446453446,112.16459961186538
6.979238912,0.9998931188398367,111.94599998259585
6.982699008,0.9999235611380096,111.72706036805
6.986159104,0.9999586553002564,111.50773418178345
6.9896192,0.9999962602199665,111.28792062922119
6.993079808,1.00003417947166,111.06759021459936
6.996539904,1.0000699965354267,110.84681145875902
7.0,1.0001016277340955,110.62559750691125
7.003460096,1.0001271531499796,110.40403437031112
7.006920192,1.0001448073674968,110.18220436412514
7.0103808,1.0001536725568374,109.96023546398715
7.013840896,1.0001533031250724,109.73827518815749
7.017300992,1.0001434657379444,109.51640934704616
7.020761088,1.0001247552560173,109.29481137069972
7.024221696,1.0000985433989922,109.07358290306746
7.027681792,1.0000662657090742,108.85281061215683
7.031141888,1.0000298991056689,108.63258238019557
7.034601984,0.9999916322726742,108.41294200333822
7.03806208,0.9999539475386887,108.19387917685587
7.041522688,0.9999190157559804,107.97540782022205
7.044982784,0.9998889107002807,107.75744867968865
7.04844288,0.9998656884198966,107.53989460026843
7.051902976,0.9998505994878573,107.32268198258261
7.055363072,0.9998446093277504,107.10565717444636
7.05882368,0.9998481944351263,106.88873193060665
7.062283776,0.9998609797647363,106.6717104480651
7.065743872,0.9998823151170344,106.45450188574488
7.069203968,0.9999108432582042,106.23698081355396
7.072664576,0.9999448741009271,106.01909595600569
7.076124672,0.9999823341208127,105.80071404863294
7.079584768,1.0000208234025982,105.58186712050717
7.083044864,1.0000581432281697,105.36251270227987
7.08650496,1.000091886137107,105.1427035224022
7.089965568,1.0001200797316805,104.9224938745727
7.093425664,1.0001409560912804,104.70198414553575
7.09688576,1.0001532523563266,104.48130930513192
7.100345856,1.0001562213592752,104.2605475500231
7.103806464,1.0001494699216542,104.0398765984567
7.10726656,1.0001338162393238,103.81938133223419
7.110726656,1.000109788488249,103.59927314570159
7.114186752,1.0000791150011281,103.37956515620837
7.117646848,1.000043534513277,103.16036566820387
7.121107456,1.0000052990299622,102.94178268250671
7.124567552,0.9999665549962558,102.72378280331625
7.128027648,0.9999300102046343,102.50635115089273
7.131487744,0.9998975886969894,102.28946060916903
7.134948352,0.9998713833568067,102.07306370439744
7.138408448,0.9998531080150684,101.85700783429652
7.141868544,0.9998436664910223,101.64122691731258
7.14532864,0.9998438387029949,101.42552924597226
7.148788736,0.9998534444130227,101.20981798768311
7.152249344,0.9998721657987424,100.99396580451366
7.15570944,0.999898670798743,100.77784002219596
7.159169536,0.9999313074144818,100.56132800099334
7.162629632,0.9999682043140208,100.34438945824496
7.166089728,1.000007061254254,100.12693840942298
7.169550336,1.0000454902409206,99.9089893662146
7.173010432,1.0000812337112908,99.6905793832267
7.176470528,1.0001119874433586,99.47171008594444
7.179930624,1.0001359691768432,99.25252232325975
7.183391232,1.0001515643736145,99.03309898075858
7.186851328,1.0001580305728786,98.81351784895925
7.190311424,1.000154737492231,98.59399818550096
7.19377152,1.0001419579268231,98.3746409745832
7.197231616,1.0001205185481639,98.15558752100956
7.200692224,1.0000915760514253,97.93690884989884
7.20415232,1.0000572002435006,97.71876629431355
7.207612416,1.0000191114537174,97.50113764302219
7.211072512,0.9999798768304302,97.2841639215318
7.21453312,0.999941844597133,97.06773808626622
7.217993216,0.9999073134140504,96.85188986354862
7.221453312,0.9998783480101863,96.63656912940992
7.224913408,0.9998568340890451,96.42162956173271
7.228373504,0.9998440570573878,96.2070004656077
7.231834112,0.9998406736191513,95.99252042637104
7.235294208,0.9998471226689994,95.7780846212604
7.238754304,0.9998627925946233,95.56351785292756
7.2422144,0.9998869836473179,95.34870860754722
7.245674496,0.9999180059915262,95.13358132466796
7.249135104,0.9999541014666418,94.91799987190824
7.2525952,0.9999930597194614,94.70194456240314
7.256055296,1.0000324675247771,94.48537244563805
7.259515392,1.000069759347258,94.26829608259706
7.262976,1.000102944753695,94.05075849866904
7.266436096,1.0001298416885727,93.83285124150424
7.269896192,1.000148750642133,93.61463639505341
7.273356288,1.0001586092302894,93.39628729860195
7.276816384,1.0001587683545852,93.17789683637199
7.280276992,1.000149212910505,92.95962694118553
7.283737088,1.00013043466942,92.74158482109758
7.287197184,1.000103819596488,92.52391554123547
7.29065728,1.0000706875396237,92.3067274607252
7.294117888,1.0000331389295007,92.09009086371543
7.297577984,0.9999935484357302,91.87406946901501
7.30103808,0.9999543929654645,91.65861125320367
7.304498176,0.9999179097538112,91.44376848746072
7.307958272,0.9998863285813145,91.22945256280566
7.31141888,0.9998617232467993,91.01557507270631
7.314878976,0.9998455337494261,90.80204331489084
7.318339072,0.9998386805336021,90.58872297537711
7.321799168,0.9998417003970019,90.37546428717773
7.325259264,0.9998543372363922,90.16215992151342
7.328719872,0.999876066550959,89.9486321818503
7.332179968,0.9999051505550113,89.73480760016356
7.335640064,0.9999401166759808,89.5205635752117
7.33910016,0.9999787960315061,89.30584061377624
7.342560768,1.0000187951250805,89.09058564361696
7.346020864,1.0000575842920787,88.8748348108165
7.34948096,1.000092818895324,88.65858428616995
7.352941056,1.0001225887247782,88.44192000045865
7.356401152,1.0001446667300262,88.22491827253585
7.35986176,1.0001580813284063,88.00771266615614
7.363321856,1.000161764605634,87.79043667615777
7.366781952,1.000155446823171,87.57322390387272
7.370242048,1.0001396595441314,87.35620479908145
7.373702656,1.0001152433120766,87.13952580802862
7.377162752,1.0000838998837118,86.92326467951386
7.380622848,1.0000471545075544,86.70753630691927
7.384082944,1.0000075827473613,86.49239532756646
7.38754304,0.9999675106467192,86.27789500449227
7.391003648,0.999929326511864,86.06397734472557
7.394463744,0.9998953839380674,85.85062583001208
7.39792384,0.999867795788801,85.63774077644459
7.401383936,0.9998481794538592,85.42525533889754
