freq,mag,phase
6.0,0.9999940338277186,106.09668545411844
6.008,0.9999937882146348,105.97729561681179
6.016,0.9999935047012992,105.8578130881725
6.024,0.9999931841458493,105.73823776293749
6.032,0.9999928274105259,105.61856953658872
6.04,0.9999924353614575,105.4988083053657
6.048,0.9999920088684392,105.37895396627772
6.056,0.9999915488047024,105.25900641711581
6.064,0.9999910560466789,105.1389655564645
6.072,0.9999905314737567,105.01883128371327
6.08,0.9999899759680314,104.89860349906766
6.088,0.9999893904140486,104.77828210356014
6.096,0.9999887756985404,104.65786699906057
6.104,0.9999881327101576,104.53735808828637
6.112,0.9999874623391913,104.41675527481232
6.12,0.9999867654772923,104.29605846307994
6.128,0.9999860430171826,104.1752675584066
6.136,0.9999852958523627,104.054382466994
6.144,0.9999845248768109,103.93340309593651
6.152,0.9999837309846787,103.81232935322886
6.16,0.999982915069982,103.69116114777337
6.168,0.9999820780262852,103.56989838938699
6.176,0.9999812207463824,103.44854098880748
6.184,0.9999803441219727,103.32708885769937
6.192,0.9999794490433331,103.20554190865936
6.2,0.9999785363989857,103.08390005522108
6.208,0.999977607075362,102.96216321185958
6.216,0.9999766619564643,102.84033129399494
6.224,0.9999757019235235,102.71840421799561
6.232,0.9999747278546539,102.59638190118119
6.24,0.9999737406245071,102.4742642618243
6.248,0.9999727411039212,102.3520512191524
6.256,0.9999717301595704,102.22974269334854
6.264,0.9999707086536148,102.10733860555183
6.272,0.9999696774433422,101.98483887785721
6.28,0.9999686373808195,101.8622434333145
6.288,0.9999675893125336,101.73955219592715
6.296,0.9999665340790406,101.61676509064995
6.304,0.9999654725146099,101.49388204338658
6.312,0.9999644054468722,101.37090298098612
6.32,0.9999633336964663,101.2478278312393
6.328,0.9999622580766906,101.12465652287383
6.336,0.9999611793931543,101.00138898554931
6.344,0.9999600984434314,100.87802514985138
6.352,0.9999590160167171,100.75456494728547
6.36,0.99995793289349,100.63100831026962
6.368,0.9999568498451729,100.50735517212695
6.376,0.9999557676338037,100.38360546707734
6.384,0.9999546870117059,100.25975913022877
6.392,0.999953608721165,100.13581609756764
6.4,0.9999525334941121,100.01177630594896
6.408,0.9999514620518116,99.88763969308562
6.416,0.9999503951045522,99.76340619753738
6.424,0.9999493333513517,99.63907575869891
6.432,0.9999482774796572,99.51464831678777
6.44,0.9999472281650656,99.3901238128314
6.448,0.9999461860710397,99.26550218865391
6.456,0.9999451518486386,99.14078338686221
6.464,0.9999441261362555,99.01596735083163
6.472,0.9999431095593618,98.89105402469119
6.48,0.9999421027302617,98.7660433533082
6.4879999999999995,0.9999411062478553,98.64093528227275
6.496,0.9999401206974108,98.51572975788127
6.504,0.9999391466503472,98.3904267271203
6.5120000000000005,0.9999381846640248,98.26502613764924
6.52,0.9999372352815495,98.13952793778336
6.5280000000000005,0.999936299031583,98.01393207647575
6.536,0.9999353764281682,97.88823850329975
6.5440000000000005,0.9999344679705603,97.76244716843026
6.552,0.9999335741430744,97.63655802262554
6.5600000000000005,0.9999326954149401,97.51057101720798
6.568,0.9999318322401696,97.38448610404545
6.5760000000000005,0.9999309850574368,97.25830323553156
6.584,0.9999301542899671,97.13202236456662
6.592,0.9999293403454413,97.00564344453758
6.6,0.9999285436159087,96.8791664292986
6.608,0.9999277644777134,96.75259127315088
6.616,0.9999270032914336,96.6259179308228
6.624,0.9999262604018304,96.49914635744979
6.632,0.9999255361378122,96.37227650855426
6.64,0.9999248308124059,96.2453083400254
6.648,0.999924144722747,96.11824180809919
6.656,0.9999234781500755,95.9910768693381
6.664,0.9999228313597482,95.86381348061124
6.672,0.99992220460126,95.73645159907433
6.68,0.9999215981082789,95.6089911821498
6.688,0.9999210120986918,95.4814321875071
6.696,0.9999204467746621,95.35377457304318
6.704,0.9999199023227003,95.22601829686297
6.712,0.9999193789137428,95.09816331726027
6.72,0.9999188767032449,94.9702095926987
6.728,0.9999183958312835,94.84215708179302
6.736,0.9999179364226717,94.7140057432906
6.744,0.9999174985870815,94.58575553605323
6.752,0.9999170824191805,94.45740641903922
6.76,0.999916687998776,94.32895835128586
6.768,0.9999163153909707,94.20041129189221
6.776,0.9999159646463266,94.07176520000216
6.784,0.9999156358010407,93.94302003478802
6.792,0.9999153288771265,93.81417575543435
6.8,0.9999150438826084,93.68523232112237
6.808,0.9999147808117216,93.55618969101468
6.816,0.9999145396451197,93.42704782424043
6.824,0.9999143203500958,93.29780667988099
6.832,0.9999141228808021,93.16846621695606
6.84,0.9999139471784871,93.0390263944103
6.848,0.999913793171731,92.90948717110035
6.856,0.9999136607766935,92.77984850578254
6.864,0.9999135498973643,92.65011035710089
6.872,0.9999134604258227,92.52027268357584
6.88,0.9999133922424998,92.39033544359334
6.888,0.9999133452164485,92.2602985953946
6.896,0.9999133192056163,92.1301620970663
6.904,0.999913314057124,91.99992590653144
6.912,0.9999133296075482,91.86958998154063
6.92,0.9999133656832077,91.73915427966402
6.928,0.9999134221004523,91.6086187582838
6.936,0.9999134986659577,91.47798337458721
6.944,0.999913595177019,91.3472480855601
6.952,0.9999137114218505,91.21641284798115
6.96,0.9999138471798835,91.08547761841656
6.968,0.9999140022220706,90.9544423532154
6.976,0.9999141763111881,90.82330700850535
6.984,0.9999143692021393,90.69207154018922
6.992,0.9999145806422605,90.56073590394186
7.0,0.9999148103716263,90.42930005520769
7.008,0.9999150581233545,90.29776394919881
7.016,0.9999153236239114,90.16612754089356
7.024,0.9999156065934173,90.03439078503567
7.032,0.9999159067459482,89.90255363613399
7.04,0.9999162237898415,89.77061604846263
7.048,0.9999165574279952,89.63857797606174
7.056,0.999916907358167,89.50643937273873
7.064,0.9999172732732742,89.3742001920699
7.072,0.9999176548616859,89.24186038740284
7.08,0.9999180518075201,89.10941991185895
7.088,0.9999184637909295,88.97687871833678
7.096,0.9999188904883927,88.8442367595155
7.104,0.9999193315729954,88.7114939878591
7.112,0.9999197867147127,88.57865035562092
7.12,0.9999202555806865,88.44570581484855
7.128,0.9999207378354986,88.31266031738919
7.136,0.9999212331414397,88.17951381489556
7.144,0.9999217411587757,88.04626625883189
7.152,0.9999222615460093,87.9129176004807
7.16,0.9999227939601355,87.77946779094945
7.168,0.9999233380568946,87.64591678117813
7.176,0.9999238934910193,87.51226452194665
7.184,0.9999244599164778,87.37851096388299
7.192,0.9999250369867124,87.24465605747132
7.2,0.9999256243548694,87.11069975306073
7.208,0.99992622167403,86.97664200087404
7.216,0.9999268285974305,86.84248275101697
7.224,0.9999274447786801,86.70822195348771
7.232,0.9999280698719726,86.57385955818641
7.24,0.9999287035322915,86.43939551492525
7.248,0.9999293454156141,86.30482977343867
7.256,0.999929995179102,86.1701622833936
7.264,0.9999306524812946,86.03539299440017
7.272,0.9999313169822903,85.90052185602251
7.28,0.9999319883439276,85.76554881778968
7.288,0.9999326662299565,85.63047382920685
7.296,0.9999333503062052,85.49529683976657
7.304,0.9999340402407431,85.36001779896031
7.312,0.999934735704035,85.22463665628996
7.32,0.9999354363690927,85.08915336127956
7.328,0.9999361419116194,84.95356786348718
7.336,0.999936852010149,84.8178801125168
7.344,0.999937566346179,84.68209005803038
7.352,0.9999382846042992,84.54619764975993
7.36,0.9999390064723145,84.41020283751969
7.368,0.9999397316413616,84.27410557121836
7.376,0.9999404598060216,84.13790580087144
7.384,0.9999411906644262,84.00160347661352
7.392,0.9999419239183582,83.8651985487107
7.4,0.9999426592733497,83.72869096757287
7.4079999999999995,0.9999433964387715,83.59208068376628
7.416,0.9999441351279201,83.45536764802578
7.4239999999999995,0.9999448750580977,83.31855181126748
7.432,0.9999456159506895,83.18163312460084
7.4399999999999995,0.999946357531235,83.04461153934137
7.448,0.9999470995294939,82.90748700702282
7.4559999999999995,0.9999478416795088,82.77025947940962
7.464,0.9999485837196624,82.63292890850904
7.4719999999999995,0.9999493253927315,82.49549524658374
7.48,0.9999500664459342,82.35795844616362
7.4879999999999995,0.9999508066309756,82.22031846005834
7.496,0.9999515457040873,82.08257524136913
7.504,0.9999522834260637,81.94472874350105
7.5120000000000005,0.9999530195622949,81.80677892017475
7.52,0.999953753882794,81.66872572543866
7.5280000000000005,0.9999544861622229,81.53056911368043
7.536,0.9999552161799113,81.392309039639
7.5440000000000005,0.9999559437198764,81.25394545841598
7.552,0.9999566685708337,81.11547832548743
7.5600000000000005,0.9999573905262116,80.97690759671505
7.568,0.9999581093841529,80.83823322835785
7.5760000000000005,0.999958824947524,80.69945517708311
7.584,0.9999595370239127,80.56057339997773
7.5920000000000005,0.9999602454256269,80.42158785455914
7.6,0.9999609499696898,80.2824984987864
7.6080000000000005,0.9999616504778306,80.1433052910707
7.616,0.9999623467764766,80.00400819028657
7.6240000000000006,0.9999630386967375,79.86460715578188
7.632,0.9999637260743907,79.72510214738881
7.640000000000001,0.9999644087498634,79.58549312543387
7.648,0.9999650865682115,79.44578005074833
7.656000000000001,0.9999657593790979,79.30596288467817
7.664,0.9999664270367667,79.16604158909425
7.672,0.9999670894000174,79.02601612640197
7.68,0.9999677463321742,78.88588645955112
7.688,0.9999683977010577,78.74565255204548
7.696,0.9999690433789502,78.6053143679523
7.704,0.9999696832425632,78.46487187191163
7.712,0.9999703171730001,78.32432502914556
7.72,0.9999709450557197,78.18367380546734
7.728,0.9999715667804966,78.04291816729035
7.736,0.9999721822413818,77.90205808163698
7.744,0.9999727913366604,77.76109351614728
7.752,0.9999733939688082,77.62002443908762
7.76,0.999973990044449,77.47885081935918
7.768,0.9999745794743083,77.33757262650624
7.776,0.999975162173168,77.19618983072448
7.784,0.9999757380598177,77.05470240286897
7.792,0.999976307057008,76.91311031446232
7.8,0.9999768690914019,76.77141353770236
7.808,0.9999774240935232,76.62961204547001
7.816,0.9999779719977078,76.48770581133685
7.824,0.9999785127420514,76.34569480957263
7.832,0.999979046268359,76.20357901515261
7.84,0.999979572522091,76.06135840376494
7.848,0.9999800914523123,75.9190329518177
7.856,0.9999806030116369,75.77660263644596
7.864,0.9999811071561766,75.63406743551879
7.872,0.9999816038454856,75.49142732764602
7.88,0.9999820930425056,75.3486822921849
7.888,0.9999825747135135,75.2058323092468
7.896,0.999983048828064,75.06287735970368
7.904,0.9999835153589364,74.91981742519435
7.912,0.9999839742820793,74.77665248813103
7.92,0.9999844255765549,74.63338253170522
7.928,0.9999848692244839,74.49000753989405
7.936,0.9999853052109907,74.34652749746608
7.944,0.9999857335241482,74.20294238998731
7.952,0.9999861541549215,74.05925220382692
7.96,0.9999865670971142,73.91545692616292
7.968,0.9999869723473124,73.77155654498796
7.976,0.9999873699048308,73.62755104911456
7.984,0.9999877597716575,73.48344042818076
7.992,0.9999881419523988,73.33922467265539
8.0,0.9999885164542266,73.1949037738433
8.008,0.9999888832868227,73.05047772389057
8.016,0.9999892424623268,72.90594651578958
8.024000000000001,0.9999895939952808,72.76131014338402
8.032,0.9999899379025778,72.61656860137393
8.04,0.9999902742034084,72.47172188532026
8.048,0.9999906029192079,72.32676999164995
8.056000000000001,0.9999909240736051,72.1817129176605
8.064,0.9999912376923695,72.0365506615247
8.072,0.9999915438033614,71.89128322229493
8.08,0.9999918424364793,71.74591059990787
8.088000000000001,0.9999921336236114,71.600432795189
8.096,0.9999924173985839,71.45484980985667
8.104,0.9999926937971126,71.30916164652662
8.112,0.9999929628567533,71.16336830871603
8.120000000000001,0.9999932246168527,71.01746980084786
8.128,0.9999934791185019,70.87146612825488
8.136,0.9999937264044877,70.72535729718354
8.144,0.999993966519245,70.57914331479817
8.152000000000001,0.9999941995088115,70.43282418918487
8.16,0.999994425420781,70.28639992935533
8.168,0.9999946443042573,70.13987054525056
8.176,0.9999948562098113,69.9932360477448
8.184000000000001,0.9999950611894333,69.84649644864913
8.192,0.9999952592964924,69.69965176071528
8.2,0.9999954505856905,69.5527019976389
8.208,0.9999956351130219,69.40564717406349
8.216000000000001,0.9999958129357296,69.2584873055837
8.224,0.9999959841122631,69.1112224087489
8.232,0.9999961487022391,68.96385250106651
8.24,0.9999963067663998,68.81637760100536
8.248000000000001,0.9999964583665728,68.66879772799918
8.256,0.9999966035656325,68.52111290244977
8.264,0.9999967424274603,68.37332314573024
8.272,0.9999968750169068,68.2254284801882
8.280000000000001,0.9999970013997551,68.0774289291491
8.288,0.999997121642682,67.92932451691922
8.296,0.9999972358132219,67.78111526878877
8.304,0.9999973439797315,67.63280121103489
8.312,0.9999974462113536,67.48438237092495
8.32,0.9999975425779826,67.33585877671919
8.328,0.9999976331502305,67.18723045767396
8.336,0.9999977179993919,67.03849744404441
8.344,0.9999977971974126,66.88965976708762
8.352,0.9999978708168549,66.74071745906524
8.36,0.9999979389308674,66.59167055324652
8.368,0.9999980016131522,66.44251908391088
8.376,0.9999980589379348,66.293263086351
8.384,0.9999981109799321,66.1439025968752
8.392,0.9999981578143242,65.9944376528105
8.4,0.9999981995167239,65.844868292505
8.408,0.999998236163148,65.69519455533084
8.416,0.9999982678299894,65.54541648168654
8.424,0.9999982945939886,65.39553411299991
8.432,0.9999983165322064,65.24554749173032
8.44,0.9999983337219975,65.09545666137161
8.448,0.9999983462409843,64.94526166645429
8.456,0.9999983541670301,64.79496255254836
8.464,0.9999983575782142,64.64455936626551
8.472,0.9999983565528081,64.4940521552619
8.48,0.9999983511692492,64.34344096824026
8.488,0.9999983415061185,64.1927258549527
8.496,0.9999983276421163,64.04190686620275
8.504,0.9999983096560396,63.89098405384807
8.512,0.99999828762676,63.73995747080251
8.52,0.9999982616332003,63.588827171038766
8.528,0.9999982317543147,63.437593209590354
8.536,0.9999981980690655,63.28625564255433
8.544,0.9999981606564049,63.13481452709317
8.552,0.9999981195952532,62.983269921437326
8.56,0.9999980749644788,62.83162188488734
8.568,0.9999980268428792,62.67987047781616
8.576,0.9999979753091628,62.5280157616712
8.584,0.9999979204419289,62.37605779897678
8.592,0.9999978623196502,62.22399665333603
8.6,0.9999978010206549,62.07183238943333
8.608,0.9999977366231098,61.919565073036175
8.616,0.9999976692050025,61.767194770997584
8.624,0.9999975988441258,61.61472155125791
8.632,0.9999975256180602,61.46214548284726
8.64,0.9999974496041594,61.30946663588727
8.648,0.9999973708795333,61.15668508159345
8.656,0.999997289521035,61.00380089227691
8.664,0.9999972056052433,60.85081414134673
8.672,0.9999971192084511,60.69772490331171
8.68,0.9999970304066491,60.54453325378255
8.688,0.9999969392755139,60.39123926947365
8.696,0.9999968458903927,60.23784302820529
8.704,0.999996750326292,60.084344608905354
8.712,0.9999966526578642,59.930744091611544
8.72,0.9999965529593946,59.77704155747297
8.728,0.9999964513047908,59.62323708875237
8.736,0.9999963477675692,59.469330768827724
8.744,0.999996242420845,59.31532268219444
8.752,0.9999961353373198,59.161212914466816
8.76,0.9999960265892717,59.00700155238033
8.768,0.9999959162485447,58.85268868379305
8.776,0.9999958043865375,58.69827439768776
8.784,0.9999956910741944,58.54375878417359
8.792,0.9999955763819957,58.38914193448789
8.8,0.9999954603799469,58.234423940997864
8.808,0.9999953431375714,58.07960489720256
8.815999999999999,0.9999952247239006,57.92468489773434
8.824,0.9999951052074646,57.76966403836071
8.832,0.9999949846562852,57.614542415986094
8.84,0.9999948631378667,57.45932012865354
8.847999999999999,0.9999947407191888,57.30399727554619
8.856,0.9999946174666982,57.14857395698903
8.864,0.9999944934463015,56.993050274450745
8.872,0.9999943687233588,56.83742633054508
8.879999999999999,0.9999942433626747,56.68170222903254
8.888,0.9999941174284941,56.5258780748219
8.896,0.9999939909844938,56.36995397397203
8.904,0.9999938640937773,56.21393003369324
8.911999999999999,0.9999937368188684,56.05780636234883
8.92,0.999993609221705,55.90158306945668
8.928,0.9999934813636338,55.745260265690796
8.936,0.9999933533054053,55.58883806288277
8.943999999999999,0.9999932251071675,55.4323165740232
8.952,0.9999930968284619,55.275695913263185
8.96,0.9999929685282186,55.11897619591583
8.968,0.9999928402647502,54.96215753845768
8.975999999999999,0.9999927120957495,54.80524005852999
8.984,0.9999925840782834,54.648223874940165
8.992,0.9999924562687901,54.49110910766332
9.0,0.9999923287230738,54.333895877843425
9.008,0.9999922014963027,54.17658430779468
9.016,0.999992074643004,54.019174521002824
9.024000000000001,0.9999919482170612,53.861666642126615
9.032,0.9999918222717105,53.70406079699892
9.04,0.9999916968595374,53.54635711262798
9.048,0.9999915720324751,53.38855571719875
9.056000000000001,0.9999914478417999,53.23065674007409
9.064,0.9999913243381308,53.07266031179603
9.072,0.9999912015714243,52.91456656408683
9.08,0.9999910795909744,52.756375629850226
9.088000000000001,0.9999909584454095,52.59808764317259
9.096,0.9999908381826906,52.43970273932411
9.104,0.9999907188501082,52.28122105475976
9.112,0.9999906004942832,52.12264272712045
9.120000000000001,0.9999904831611628,51.96396789523416
9.128,0.9999903668960198,51.80519669911702
9.136,0.9999902517434515,51.64632927997412
9.144,0.9999901377473784,51.4873657802007
9.152000000000001,0.999990024951043,51.32830634338313
9.16,0.9999899133970088,51.16915111429991
9.168,0.9999898031271597,51.009900238922405
9.176,0.9999896941826982,50.85055386441598
9.184000000000001,0.9999895866041469,50.69111213914083
9.192,0.9999894804313457,50.53157521265293
9.2,0.9999893757034527,50.37194323570472
9.208,0.9999892724589435,50.21221636024605
9.216000000000001,0.9999891707356117,50.05239473942506
9.224,0.9999890705705674,49.89247852758892
9.232,0.9999889720002386,49.73246788028448
9.24,0.9999888750603709,49.57236295425909
9.248000000000001,0.9999887797860273,49.41216390746147
9.256,0.9999886862115891,49.251870899042196
9.264,0.9999885943707563,49.09148408935447
9.272,0.9999885042965475,48.93100363995473
9.280000000000001,0.9999884160213015,48.77042971360333
9.288,0.9999883295766768,48.60976247426517
9.296,0.9999882449936538,48.4490020871101
9.304,0.9999881623025344,48.28814871851363
9.312000000000001,0.9999880815329435,48.127202536057474
9.32,0.9999880027138309,47.96616370853
9.328,0.9999879258734703,47.80503240592664
9.336,0.9999878510394633,47.64380879945039
9.344,0.999987778238738,47.48249306151243
9.352,0.9999877074975524,47.3210853657321
9.36,0.9999876388414949,47.15958588693778
9.368,0.9999875722954857,46.997994801166804
9.376,0.9999875078837794,46.836312285666104
9.384,0.9999874456299656,46.674538518892255
9.392,0.9999873855569711,46.512673680512
9.4,0.9999873276870618,46.35071795140219
9.408,0.9999872720418448,46.18867151365036
9.416,0.9999872186422692,46.02653455055457
9.424,0.99998716750863,45.86430724662384
9.432,0.9999871186605689,45.70198978757805
9.44,0.9999870721170763,45.53958236034835
9.448,0.9999870278964951,45.377085153076855
9.456,0.9999869860165201,45.21449835511709
9.464,0.9999869464942044,45.05182215703367
9.472,0.9999869093459572,44.889056750602556
9.48,0.9999868745875508,44.72620232881083
9.488,0.9999868422341194,44.56325908585686
9.496,0.9999868123001637,44.400227217149855
9.504,0.9999867847995536,44.23710691931019
9.512,0.9999867597455288,44.07389839016879
9.52,0.9999867371507053,43.91060182876741
9.528,0.9999867170270744,43.74721743535802
9.536,0.9999866993860077,43.58374541140287
9.544,0.9999866842382594,43.42018595957397
9.552,0.9999866715939693,43.25653928375311
9.56,0.9999866614626653,43.09280558903115
9.568,0.9999866538532683,42.92898508170798
9.576,0.999986648774093,42.7650779692919
9.584,0.9999866462328514,42.60108446049943
9.592,0.999986646236658,42.437004765254606
9.6,0.9999866487920307,42.272839094688734
9.608,0.9999866539048952,42.10858766113963
9.616,0.9999866615805881,41.94425067815136
9.624,0.9999866718238603,41.77982836047339
