freq,mag,phase
6.0,0.9999955745116139,-122.64533152381352
6.008,0.9999967162175945,-123.03158610918047
6.016,0.9999978238460523,-123.41764523646758
6.024,0.9999988979333965,-123.8035096142959
6.032,0.9999999390112911,-124.18917996111006
6.04,1.0,-124.57465700509253
6.048,0.9999999999999999,-124.95994148407802
6.056,1.0,-125.34503414546809
6.064,1.0000000000000002,-125.72993574614605
6.072,0.9999999999999999,-126.1146470523919
6.08,1.0,-126.49916883979763
6.088,1.0,-126.88350189318265
6.096,1.0,-127.2676470065096
6.104,1.0,-127.65160498280024
6.112,1.0,-128.0353766340515
6.12,1.0,-128.41896278115226
6.128,0.9999999999999999,-128.80236425379977
6.136,1.0,-129.1855818904167
6.144,1.0,-129.56861653806826
6.152,0.9999999999999999,-129.95146905237985
6.16,1.0,-130.33414029745472
6.168,1.0,-130.71663114579204
6.176,0.9999999999999999,-131.0989424782052
6.184,1.0,-131.48107518374044
6.192,0.9999999999999999,-131.86303015959567
6.2,0.9999999999999998,-132.24480831103972
6.208,1.0,-132.626410551332
6.216,0.9999999999999999,-133.0078378016419
6.224,1.0,-133.38909099096944
6.232,0.9999999999999999,-133.77017105606507
6.24,0.9999999999999999,-134.15107894135085
6.248,1.0,-134.5318155988413
6.256,0.9999999999999999,-134.9123819880648
6.264,0.9999999999999998,-135.29277907598527
6.272,1.0,-135.67300783692426
6.28,0.9999999999999998,-136.05306925248308
6.288,1.0,-136.4329643114657
6.296,1.0,-136.81269400980165
6.304,1.0,-137.19225935046936
6.312,1.0,-137.5716613434197
6.32,1.0,-137.9509010055004
6.328,1.0,-138.32997936037995
6.336,1.0,-138.70889743847252
6.344,1.0,-139.08765627686313
6.352,1.0,-139.46625691923262
6.36,1.0,-139.8447004157841
6.368,1.0,-140.2229878231682
6.376,0.9999999999999999,-140.60112020441025
6.384,1.0,-140.9790986288367
6.392,1.0,-141.35692417200238
6.4,1.0,-141.73459791561794
6.408,0.9999999999999999,-142.11212094747785
6.416,0.9999999999999999,-142.48949436138858
6.424,1.0,-142.8667192570971
6.432,1.0,-143.24379674021998
6.44,1.0,-143.62072792217262
6.448,0.9999999999999999,-143.99751392009887
6.456,1.0,-144.37415585680114
6.464,0.9999999999999999,-144.75065486067086
6.472,1.0,-145.1270120656189
6.48,1.0,-145.50322861100716
6.4879999999999995,1.0,-145.87930564157963
6.496,1.0,-146.25524430739463
6.504,1.0,-146.63104576375648
6.5120000000000005,1.0,-147.0067111711487
6.52,1.0,-147.38224169516621
6.5280000000000005,1.0,-147.75763850644947
6.536,1.0000000000000002,-148.1329027806172
6.5440000000000005,1.0,-148.5080356982012
6.552,0.9999999999999999,-148.88303844458005
6.5600000000000005,0.9999999999999999,-149.2579122099144
6.568,1.0000000000000002,-149.6326581890815
6.5760000000000005,0.9999999999999999,-150.00727758161128
6.584,1.0,-150.38177159162134
6.592,0.9999999999999999,-150.75614142775396
6.6,1.0,-151.13038830311194
6.608,1.0,-151.5045134351957
6.616,0.9999999999999999,-151.87851804584056
6.624,1.0,-152.25240336115417
6.632,1.0,-152.62617061145448
6.64,0.9999999999999999,-152.999821031208
6.648,0.9999999999999999,-153.37335585896832
6.656,0.9999999999999999,-153.7467763373152
6.664,1.0,-154.1200837127938
6.672,0.9999999999999999,-154.49327923585412
6.68,1.0,-154.86636416079142
6.688,1.0,-155.23933974568604
6.696,1.0,-155.61220725234443
6.704,1.0,-155.9849679462398
6.712,1.0,-156.35762309645386
6.72,0.9999999999999999,-156.730173975618
6.728,1.0,-157.1026218598556
6.736,1.0,-157.47496802872422
6.744,1.0,-157.84721376515833
6.752,0.9999999999999998,-158.21936035541202
6.76,0.9999999999999999,-158.59140908900255
6.768,0.9999999999999999,-158.96336125865383
6.776,0.9999999999999999,-159.33521816024032
6.784,0.9999999999999998,-159.70698109273127
6.792,1.0,-160.07865135813526
6.8,1.0,-160.45023026144506
6.808,1.0,-160.82171911058276
6.816,1.0,-161.19311921634534
6.824,1.0,-161.5644318923502
6.832,0.9999999999999999,-161.93565845498145
6.84,1.0,-162.30680022333618
6.848,0.9999999999999999,-162.67785851917108
6.856,1.0,-163.04883466684947
6.864,1.0,-163.41972999328846
6.872,0.9999999999999999,-163.7905458279065
6.88,1.0,-164.16128350257117
6.888,1.0,-164.53194435154737
6.896,0.9999999999999999,-164.90252971144545
6.904,1.0,-165.27304092117012
6.912,1.0,-165.64347932186914
6.92,1.0,-166.01384625688272
6.928,0.9999999999999999,-166.38414307169273
6.936,1.0,-166.75437111387257
6.944,1.0,-167.12453173303712
6.952,1.0,-167.49462628079291
6.96,0.9999999999999999,-167.86465611068868
6.968,1.0,-168.23462257816607
6.976,0.9999999999999999,-168.60452704051062
6.984,1.0,-168.97437085680292
6.992,1.0,-169.34415538787025
7.0,0.9999999999999998,-169.71388199623814
7.008,1.0,-170.08355204608245
7.016,1.0,-170.45316690318134
7.024,1.0,-170.82272793486788
7.032,1.0,-171.19223650998262
7.04,1.0,-171.56169399882648
7.048,1.0,-171.93110177311362
7.056,0.999999852135396,-172.30046120592513
7.064,0.999999547261905,-172.66977367166209
7.072,0.9999992445510268,-173.03904054599974
7.08,0.9999989440771737,-173.4082632058409
7.088,0.999998645912802,-173.77744302927061
7.096,0.999998350128437,-174.14658139551005
7.104,0.9999980567926917,-174.51567968487134
7.112,0.9999977659722912,-174.884739278712
7.12,0.9999974777320929,-175.25376155939014
7.128,0.9999971921351072,-175.62274791021932
7.136,0.9999969092425204,-175.99169971542395
7.144,0.9999966291137146,-176.3606183600947
7.152,0.9999963518062893,-176.72950523014413
7.16,0.9999960773760831,-177.09836171226254
7.168,0.9999958058771934,-177.46718919387388
7.176,0.9999955373619971,-177.8359890630919
7.184,0.9999952718811739,-178.20476270867647
7.192,0.999995009483722,-178.57351151999012
7.2,0.9999947502169837,-178.94223688695445
7.208,0.9999944941266614,-179.31094020000708
7.216,0.999994241256841,-179.67962285005856
7.224,0.9999939916500098,179.95171377155074
7.232,0.9999937453470787,179.58306827309323
7.24,0.9999935023873991,179.21443926249677
7.248,0.9999932628087844,178.8458253473874
7.256,0.9999930266475305,178.47722513513153
7.264,0.9999927939384328,178.1086372328782
7.272,0.9999925647148084,177.74006024760138
7.28,0.9999923390085119,177.37149278614186
7.288,0.9999921168499589,177.00293345524915
7.296,0.9999918982681408,176.6343808616234
7.304,0.9999916832906468,176.26583361195685
7.312,0.9999914719436797,175.8972903129756
7.32,0.999991264252078,175.52874957148106
7.328,0.9999910602393328,175.16020999439115
7.336,0.9999908599276036,174.79167018878184
7.344,0.9999906633377419,174.42312876192796
7.352,0.9999904704893048,174.05458432134466
7.36,0.9999902814005754,173.68603547482823
7.368,0.9999900960885801,173.317480830497
7.376,0.9999899145691062,172.94891899683216
7.384,0.9999897368567202,172.58034858271873
7.392,0.9999895629647849,172.211768197486
7.4,0.9999893929054758,171.84317645094828
7.4079999999999995,0.9999892266898008,171.47457195344535
7.416,0.9999890643276158,171.10595331588297
7.4239999999999995,0.9999889058276409,170.7373191497737
7.432,0.9999887511974807,170.3686680672765
7.4399999999999995,0.9999886004436369,169.9999986812379
7.448,0.9999884535715284,169.63130960523154
7.4559999999999995,0.9999883105855055,169.262599453599
7.464,0.9999881714888684,168.89386684148946
7.4719999999999995,0.9999880362838821,168.5251103849004
7.48,0.9999879049717928,168.15632870071715
7.4879999999999995,0.999987777552845,167.78752040675352
7.496,0.9999876540262961,167.41868412179124
7.504,0.9999875343904332,167.04981846562072
7.5120000000000005,0.9999874186425888,166.68092205908022
7.52,0.999987306779156,166.31199352409672
7.5280000000000005,0.9999871987956046,165.94303148372498
7.536,0.9999870946864955,165.57403456218833
7.5440000000000005,0.9999869944454968,165.20500138491795
7.552,0.9999868980653994,164.83593057859332
7.5600000000000005,0.9999868055381302,164.46682077118163
7.568,0.9999867168547694,164.09767059197839
7.5760000000000005,0.9999866320055627,163.72847867164657
7.584,0.999986550979939,163.35924364225735
7.5920000000000005,0.9999864737665226,162.98996413732928
7.6,0.9999864003531475,162.62063879186894
7.6080000000000005,0.9999863307268739,162.25126624241042
7.616,0.999986264874,161.8818451270557
7.6240000000000006,0.9999862027800783,161.5123740855142
7.632,0.999986144429928,161.1428517591434
7.640000000000001,0.9999860898076488,160.7732767909883
7.648,0.999986038896636,160.40364782582213
7.656000000000001,0.9999859916795929,160.03396351018583
7.664,0.9999859481385449,159.66422249242888
7.672,0.999985908254853,159.2944234227489
7.68,0.999985872009226,158.92456495323236
7.688,0.9999858393817354,158.55464573789456
7.696,0.9999858103518269,158.18466443272015
7.704,0.999985784898335,157.81461969570353
7.712,0.9999857629994943,157.44451018688898
7.72,0.9999857446329522,157.07433456841164
7.728,0.9999857297757831,156.70409150453764
7.736,0.9999857184044996,156.33377966170494
7.744,0.9999857104950652,155.96339770856397
7.752,0.9999857060229074,155.5929443160183
7.76,0.9999857049629273,155.22241815726554
7.768,0.9999857072895153,154.85181790783813
7.776,0.9999857129765605,154.48114224564435
7.784,0.9999857219974634,154.11038985100944
7.792,0.9999857343251476,153.7395594067164
7.8,0.999985749932071,153.36864959804765
7.808,0.9999857687902385,152.9976591128259
7.816,0.9999857908712121,152.6265866414556
7.824,0.9999858161461233,152.2554308769646
7.832,0.9999858445856831,151.88419051504536
7.84,0.999985876160194,151.5128642540969
7.848,0.9999859108395616,151.1414507952663
7.856,0.9999859485933035,150.7699488424906
7.864,0.9999859893905626,150.39835710253868
7.872,0.9999860332001153,150.02667428505345
7.88,0.9999860799903846,149.65489910259365
7.888,0.999986129729448,149.28303027067645
7.896,0.9999861823850502,148.91106650781953
7.904,0.9999862379246123,148.5390065355837
7.912,0.9999862963152417,148.16684907861523
7.92,0.9999863575237429,147.79459286468887
7.928,0.999986421516627,147.42223662475024
7.936,0.9999864882601222,147.0497790929591
7.944,0.9999865577201822,146.67721900673217
7.952,0.9999866298624985,146.3045551067863
7.96,0.9999867046525068,145.93178613718177
7.968,0.999986782055399,145.55891084536572
7.976,0.9999868620361314,145.18592798221556
7.984,0.9999869445594342,144.8128363020828
7.992,0.9999870295898214,144.43963456283657
8.0,0.9999871170915986,144.06632152590785
8.008,0.9999872070288731,143.6928959563332
8.016,0.9999872993655627,143.319356622799
8.024000000000001,0.9999873940654043,142.94570229768604
8.032,0.9999874910919623,142.5719317571137
8.04,0.9999875904086379,142.19804378098445
8.048,0.9999876919786779,141.82403715302868
8.056000000000001,0.9999877957651818,141.4499106608498
8.064,0.999987901731112,141.07566309596902
8.072,0.9999880098393,140.70129325387026
8.08,0.9999881200524571,140.3267999340458
8.088000000000001,0.9999882323331803,139.95218194004167
8.096,0.9999883466439613,139.57743807950322
8.104,0.999988462947195,139.2025671642206
8.112,0.9999885812051854,138.82756801017473
8.120000000000001,0.9999887013801558,138.45243943758373
8.128,0.9999888234342545,138.07718027094862
8.136,0.9999889473295647,137.70178933909966
8.144,0.9999890730281078,137.32626547524296
8.152000000000001,0.9999892004918561,136.95060751700717
8.16,0.9999893296827363,136.5748143064903
8.168,0.9999894605626383,136.19888469030624
8.176,0.9999895930934215,135.82281751963205
8.184000000000001,0.999989727236923,135.44661165025548
8.192,0.9999898629549642,135.07026594262211
8.2,0.9999900002093569,134.6937792618826
8.208,0.9999901389619106,134.31715047794086
8.216000000000001,0.9999902791744403,133.94037846550165
8.224,0.9999904208087715,133.56346210411868
8.232,0.9999905638267476,133.18640027824253
8.24,0.9999907081902369,132.80919187726917
8.248000000000001,0.9999908538611377,132.4318357955884
8.256,0.9999910008013856,132.05433093263247
8.264,0.99999114897296,131.6766761929247
8.272,0.9999912983378892,131.29887048612835
8.280000000000001,0.9999914488582577,130.9209127270961
8.288,0.9999916004962116,130.5428018359189
8.296,0.9999917532139639,130.16453673797537
8.304,0.9999919069738024,129.78611636398125
8.312,0.9999920617380929,129.40753965003964
8.32,0.9999922174692872,129.02880553768992
8.328,0.9999923741299271,128.64991297395858
8.336,0.9999925316826511,128.2708609114087
8.344,0.9999926900901993,127.89164830819072
8.352,0.9999928493154187,127.51227412809237
8.36,0.9999930093212689,127.13273734058976
8.368,0.9999931700708278,126.7530369208976
8.376,0.9999933315272959,126.37317185002041
8.384,0.9999934936540013,125.9931411148032
8.392,0.9999936564144055,125.61294370798308
8.4,0.9999938197721093,125.23257862823989
8.408,0.9999939836908545,124.85204488024829
8.416,0.9999941481345327,124.47134147472867
8.424,0.9999943130671872,124.09046742849947
8.432,0.9999944784530185,123.70942176452834
8.44,0.9999946442563897,123.32820351198478
8.448,0.99999481044183,122.94681170629158
8.456,0.9999949769740403,122.56524538917759
8.464,0.9999951438178957,122.18350360872955
8.472,0.9999953109384518,121.80158541944505
8.48,0.999995478300949,121.41948988228464
8.488,0.9999956458708149,121.03721606472496
8.496,0.9999958136136703,120.6547630408112
8.504,0.9999959814953319,120.2721298912104
8.512,0.9999961494818175,119.88931570326412
8.52,0.9999963175393494,119.50631957104194
8.528,0.9999964856343577,119.12314059539452
8.536,0.9999966537334853,118.73977788400714
8.544,0.999996821803591,118.35623055145291
8.552,0.9999969898117529,117.97249771924683
8.56,0.9999971577252726,117.58857851589883
8.568,0.9999973255116785,117.20447207696824
8.576,0.9999974931387293,116.82017754511699
8.584,0.9999976605744177,116.43569407016419
8.592,0.999997827786973,116.05102080913957
8.6,0.9999979947448652,115.66615692633815
8.608,0.9999981614168076,115.28110159337396
8.616,0.9999983277717617,114.89585398923478
8.624,0.9999984937789371,114.51041330033598
8.632,0.9999986594077974,114.12477872057548
8.64,0.9999988246280621,113.73894945138768
8.648,0.9999989894097098,113.35292470179854
8.656,0.9999991537229806,112.96670368847964
8.664,0.9999993175383793,112.58028563580336
8.672,0.9999994808266784,112.19366977589704
8.68,0.9999996435589198,111.80685534869828
8.688,0.9999998057064188,111.41984160200917
8.696,0.9999999672407659,111.0326277915516
8.704,0.9999999999999999,110.64521318102165
8.712,0.9999999999999999,110.25759704214498
8.72,1.0,109.86977865473115
8.728,0.9999999999999999,109.48175730672914
8.736,1.0,109.09353229428166
8.744,1.0,108.7051029217807
8.752,1.0,108.3164685019219
8.76,1.0,107.92762835576005
8.768,0.9999999999999999,107.5385818127634
8.776,0.9999999999999999,107.14932821086929
8.784,1.0,106.75986689653831
8.792,1.0,106.37019722480989
8.8,1.0,105.98031855935649
8.808,0.9999999999999999,105.59023027253906
8.815999999999999,1.0,105.19993174546129
8.824,0.9999999999999999,104.80942236802447
8.832,1.0,104.41870153898255
8.84,0.9999999999999999,104.02776866599636
8.847999999999999,0.9999999999999998,103.6366231656882
8.856,1.0,103.24526446369642
8.864,1.0,102.85369199472996
8.872,1.0,102.46190520262263
8.879999999999999,0.9999999999999999,102.06990354038717
8.888,1.0,101.67768647026946
8.896,0.9999999999999999,101.28525346380292
8.904,1.0,100.89260400186217
8.911999999999999,1.0,100.49973757471673
8.92,0.9999999999999999,100.10665368208493
8.928,1.0,99.71335183318766
8.936,1.0,99.31983154680162
8.943999999999999,1.0,98.92609235131252
8.952,0.9999999999999999,98.53213378476835
8.96,1.0,98.13795539493263
8.968,0.9999999999999999,97.74355673933707
8.975999999999999,1.0,97.348937385334
8.984,1.0,96.95409691014912
8.992,0.9999999999999999,96.55903490093402
9.0,1.0,96.16375095481801
9.008,1.0,95.76824467895997
9.016,0.9999999999999999,95.37251569060018
9.024000000000001,1.0,94.97656361711199
9.032,1.0,94.58038809605299
9.04,1.0,94.18398877521577
9.048,1.0,93.78736531267896
9.056000000000001,1.0,93.39051737685797
9.064,1.0,92.99344464655506
9.072,0.9999999999999998,92.5961468110092
9.08,1.0,92.19862356994604
9.088000000000001,1.0,91.80087463362756
9.096,0.9999999999999999,91.40289972290101
9.104,1.0,91.00469856924772
9.112,0.9999999999999998,90.60627091483178
9.120000000000001,1.0,90.2076165125485
9.128,0.9999999999999999,89.80873512607218
9.136,0.9999999999999999,89.40962652990356
9.144,0.9999999999999999,89.01029050941716
9.152000000000001,0.9999999999999999,88.6107268609085
9.16,1.0,88.21093539164038
9.168,1.0,87.81091591988888
9.176,0.9999999999999999,87.41066827498942
9.184000000000001,0.9999999999999999,87.01019229738226
9.192,0.9999999999999999,86.60948783865733
9.2,0.9999999999999999,86.2085547615987
9.208,1.0,85.80739294022902
9.216000000000001,0.9999999999999999,85.40600225985328
9.224,0.9999999999999999,85.00438261710207
9.232,1.0,84.6025339199743
9.24,1.0,84.20045608787979
9.248000000000001,0.9999999999999999,83.79814905168134
9.256,1.0,83.39561275373612
9.264,0.9999999999999999,82.99284714793649
9.272,0.9999999999999999,82.58985219975065
9.280000000000001,1.0,82.18662788626285
9.288,1.0,81.78317419621273
9.296,0.9999999999999998,81.37949113003404
9.304,1.0,80.9755786998933
9.312000000000001,0.9999999999999999,80.57143692972792
9.32,0.9999999999999999,80.16706585528328
9.328,1.0,79.76246552414939
9.336,1.0,79.35763599579722
9.344,0.9999999999999999,78.95257734161464
9.352,1.0,78.54728964494076
9.36,0.9999999999999999,78.14177300110116
9.368,1.0,77.73602751744092
9.376,1.0,77.33005331335848
9.384,1.0,76.92385052033764
9.392,1.0,76.51741928197994
9.4,0.9999999999999999,76.11075975403547
9.408,1.0,75.70387210443393
9.416,1.0,75.29675651331397
9.424,1.0,74.88941317305311
9.432,1.0,74.48184228829554
9.44,1.0,74.07404407598068
9.448,0.9999999999999999,73.66601876536957
9.456,0.9999999999999999,73.2577665980719
9.464,1.0,72.84928782807113
9.472,0.9999999999999999,72.44058272174989
9.48,0.9999999999999999,72.03165155791355
9.488,0.9999999999999999,71.6224946278143
9.496,1.0,71.21311223517301
9.504,0.9999999999999999,70.80350469620176
9.512,1.0,70.39367233962415
9.52,1.0,69.98361550669627
9.528,1.0,69.57333455122534
9.536,1.0,69.16282983958898
9.544,1.0,68.75210175075229
9.552,1.0,68.34115067628538
9.56,0.9999999999999999,67.92997702037876
9.568,0.9999999999999999,67.51858119985916
9.576,0.9999999999999999,67.10696364420313
9.584,1.0,66.69512479555117
9.592,0.9999999999999999,66.2830651087195
9.6,1.0,65.8707850512124
9.608,0.9999999999999999,65.45828510323211
9.616,0.9999999999999999,65.04556575768946
9.624,1.0,64.63262752021188
9.632,0.9999999999999998,64.21947090915198
9.64,0.9999999999999999,63.806096455593845
9.648,0.9999999999999999,63.39250470335971
9.656,0.9999999999999999,62.978696209014245
9.664,1.0,62.564671541869295
9.672,0.9999999999999999,62.15043128398618
9.68,0.9999999999999999,61.73597603017856
9.688,1.0,61.321306388012594
9.696,1.0,60.90642297780785
9.704,0.9999999999999999,60.491326432635454
9.712,0.9999999999999999,60.076017398316885
9.72,1.0,59.660496533420115
9.728,0.9999999999999999,59.24476450925627
9.736,1.0,58.82882200987373
9.744,1.0,58.41266973205252
9.752,0.9999999999999999,57.99630838529648
9.76,1.0,57.5797386918254
9.768,0.9999999999999999,57.162961386565
9.776,0.9999999999999999,56.74597721713695
9.784,0.9999999999999999,56.32878694384657
9.792,1.0,55.911391339670786
9.8,1.0000000000000002,55.493791190243385
9.808,1.0,55.07598729384096
9.816,0.9999999999999998,54.65798046136578
9.824,0.9999999999999999,54.23977151632952
9.832,0.9999999999999999,53.821361294833814
9.84,1.0000000000000002,53.40275064555168
9.847999999999999,1.0,52.983940429705996
9.856,1.0,52.564931521047946
9.864,1.0,52.14572480583416
9.872,1.0,51.726321182802316
9.879999999999999,1.0,51.306721563145445
9.888,1.0,50.88692687048573
9.896,1.0,50.46693804084674
9.904,1.0,50.04675602262433
9.911999999999999,1.0,49.62638177655635
9.92,1.0,49.20581627569138
9.928,0.9999999999999999,48.785060505356405
9.936,0.9999999999999999,48.3641154631228
9.943999999999999,1.0,47.94298215877111
9.952,0.9999999999999999,47.521661614255116
9.96,0.9999999999999999,47.100154863664464
9.968,1.0,46.6784629531859
9.975999999999999,0.9999999999999999,46.2565869410631
9.984,1.0,45.83452789755573
9.992,0.9999999999999998,45.41228690489735
10.0,1.0,44.9898650572515
10.008,1.0,44.56726346066673
10.016,1.0,44.14448323303067
