freq,mag,phase
6.0,0.9999987149576138,131.43617283019236
6.008,0.9999989557179223,131.36467794676417
6.016,0.9999991898007157,131.29315534145624
6.024,0.9999994172821991,131.2216049698101
6.032,0.9999996382381751,131.15002678735368
6.04,0.9999998527440446,131.0784207496012
6.048,1.0,131.00678681205335
6.056,0.9999999999999999,130.93512493019745
6.064,1.0,130.8634350595073
6.072,1.0,130.7917171554435
6.08,1.0,130.71997117345333
6.088,1.0,130.64819706897097
6.096,0.9999999999999999,130.57639479741752
6.104,1.0,130.50456431420102
6.112,0.9999999999999999,130.4327055747167
6.12,0.9999999999999999,130.36081853434678
6.128,1.0,130.2889031484609
6.136,1.0,130.21695937241583
6.144,1.0,130.1449871615559
6.152,1.0,130.07298647121277
6.16,1.0,130.00095725670573
6.168,0.9999999999999999,129.92889947334166
6.176,1.0,129.85681307641514
6.184,1.0,129.78469802120856
6.192,1.0,129.71255426299211
6.2,0.9999999999999999,129.64038175702404
6.208,1.0,129.56818045855053
6.216,1.0,129.4959503228058
6.224,0.9999999999999999,129.42369130501243
6.232,1.0,129.35140336038103
6.24,1.0,129.2790864441108
6.248,0.9999999999999999,129.20674051138914
6.256,1.0,129.13436551739204
6.264,1.0,129.0619614172841
6.272,1.0,128.98952816621855
6.28,1.0,128.91706571933733
6.288,0.9999999999999999,128.8445740317712
6.296,0.9999999999999999,128.77205305863984
6.304,1.0,128.69950275505195
6.312,0.9999999999999999,128.62692307610524
6.32,0.9999999999999999,128.55431397688653
6.328,1.0,128.48167541247196
6.336,1.0,128.40900733792685
6.344,1.0,128.33630970830603
6.352,1.0,128.26358247865375
6.36,1.0,128.19082560400372
6.368,0.9999999999999999,128.1180390393794
6.376,0.9999999999999999,128.0452227397939
6.384,1.0,127.97237666025016
6.392,0.9999999999999999,127.89950075574095
6.4,1.0,127.82659498124899
6.408,1.0000000000000002,127.7536592917471
6.416,1.0,127.68069364219815
6.424,1.0,127.60769798755524
6.432,1.0,127.53467228276178
6.44,1.0,127.4616164827515
6.448,0.9999999999999999,127.38853054244859
6.456,1.0,127.31541441676778
6.464,0.9999999999999999,127.24226806061438
6.472,0.9999999999999999,127.16909142888451
6.48,1.0,127.09588447646487
6.4879999999999995,1.0,127.0226471582332
6.496,1.0,126.94937942905808
6.504,0.9999999999999999,126.87608124379915
6.5120000000000005,1.0,126.80275255730716
6.52,0.9999999999999999,126.72939332442408
6.5280000000000005,0.9999999999999999,126.65600349998307
6.536,0.9999999999999999,126.58258303880872
6.5440000000000005,1.0,126.50913189571702
6.552,0.9999999999999999,126.43565002551553
6.5600000000000005,1.0,126.36213738300331
6.568,1.0,126.28859392297129
6.5760000000000005,1.0,126.215019600202
6.584,0.9999999999999999,126.14141436946991
6.592,0.9999999999999999,126.06777818554136
6.6,1.0,125.99411100317485
6.608,1.0,125.9204127771208
6.616,1.0,125.846683462122
6.624,1.0,125.77292301291335
6.632,1.0,125.6991313842222
6.64,1.0,125.62530853076831
6.648,1.0,125.55145440726395
6.656,1.0,125.47756896841402
6.664,1.0,125.4036521689161
6.672,0.9999999999999999,125.32970396346053
6.68,1.0,125.25572430673046
6.688,0.9999999999999999,125.18171315340207
6.696,1.0,125.10767045814445
6.704,1.0,125.0335961756199
6.712,1.0,124.95949026048382
6.72,1.0,124.88535266738488
6.728,1.0,124.81118335096517
6.736,0.9999999999999999,124.73698226586015
6.744,0.9999999999999999,124.66274936669878
6.752,1.0,124.58848460810368
6.76,0.9999999999999999,124.51418794469109
6.768,1.0,124.439859331071
6.776,1.0,124.36549872184733
6.784,1.0,124.29110607161785
6.792,0.9999999999999999,124.2166813349743
6.8,1.0,124.14222446650263
6.808,1.0000000000000002,124.06773542078282
6.816,1.0,123.99321415238921
6.824,0.9999999999999999,123.91866061589045
6.832,1.0,123.84407476584948
6.84,0.9999999833020119,123.76945655682393
6.848,0.9999998678442507,123.69480594336584
6.856,0.9999997516825597,123.62012288002194
6.864,0.9999996348559005,123.54540732133378
6.872,0.9999995174029327,123.4706592218376
6.88,0.9999993993620133,123.3958785360646
6.888,0.9999992807712003,123.32106521854095
6.896,0.9999991616682509,123.24621922378783
6.904,0.9999990420906251,123.17134050632156
6.912,0.9999989220754854,123.09642902065369
6.92,0.9999988016596977,123.02148472129102
6.928,0.9999986808798336,122.94650756273573
6.936,0.9999985597721701,122.87149749948543
6.944,0.999998438372692,122.79645448603328
6.952,0.9999983167170917,122.72137847686793
6.96,0.9999981948407709,122.6462694264738
6.968,0.9999980727788426,122.57112728933097
6.976,0.9999979505661302,122.49595201991545
6.984,0.9999978282371703,122.42074357269898
6.992,0.999997705826213,122.34550190214942
7.0,0.9999975833672231,122.27022696273052
7.008,0.9999974608938821,122.19491870890232
7.016,0.9999973384395868,122.11957709512085
7.024,0.9999972160374542,122.04420207583848
7.032,0.9999970937203192,121.96879360550398
7.04,0.9999969715207374,121.8933516385624
7.048,0.9999968494709861,121.81787612945527
7.056,0.9999967276030648,121.74236703262076
7.064,0.9999966059486969,121.66682430249352
7.072,0.999996484539331,121.5912478935049
7.08,0.999996363406141,121.51563776008305
7.088,0.9999962425800284,121.43999385665286
7.096,0.999996122091623,121.36431613763608
7.104,0.9999960019712835,121.28860455745145
7.112,0.9999958822490994,121.21285907051472
7.12,0.9999957629548918,121.1370796312386
7.128,0.999995644118215,121.061266194033
7.136,0.999995525768356,120.985418713305
7.144,0.9999954079343386,120.90953714345888
7.152,0.9999952906449211,120.83362143889633
7.16,0.9999951739286005,120.75767155401628
7.168,0.9999950578136114,120.68168744321515
7.176,0.9999949423279286,120.60566906088678
7.184,0.9999948274992673,120.52961636142258
7.192,0.9999947133550848,120.4535292992115
7.2,0.9999945999225818,120.37740782864013
7.208,0.9999944872287028,120.30125190409278
7.216,0.9999943753001377,120.22506147995139
7.224,0.999994264163323,120.14883651059586
7.232,0.9999941538444436,120.07257695040367
7.24,0.9999940443694321,119.99628275375039
7.248,0.9999939357639717,119.91995387500936
7.256,0.9999938280534968,119.8435902685519
7.264,0.9999937212631941,119.76719188874738
7.272,0.9999936154180036,119.6907586899631
7.28,0.99999351054262,119.61429062656454
7.288,0.9999934066614934,119.53778765291517
7.296,0.9999933037988319,119.46124972337668
7.304,0.9999932019786,119.38467679230887
7.312,0.9999931012245225,119.30806881406971
7.32,0.9999930015600843,119.23142574301548
7.328,0.9999929030085319,119.1547475335006
7.336,0.999992805592874,119.07803413987783
7.344,0.9999927093358829,119.00128551649816
7.352,0.9999926142600964,118.92450161771086
7.36,0.999992520387818,118.84768239786358
7.368,0.9999924277411179,118.77082781130225
7.376,0.9999923363418347,118.69393781237116
7.384,0.9999922462115767,118.61701235541291
7.392,0.9999921573717214,118.54005139476847
7.4,0.9999920698434197,118.46305488477711
7.4079999999999995,0.9999919836475931,118.38602277977647
7.416,0.9999918988049377,118.30895503410258
7.4239999999999995,0.9999918153359242,118.23185160208973
7.432,0.9999917332607992,118.15471243807048
7.4399999999999995,0.9999916525995856,118.0775374963758
7.448,0.9999915733720842,118.00032673133487
7.4559999999999995,0.999991495597875,117.92308009727513
7.464,0.9999914192963177,117.84579754852227
7.4719999999999995,0.9999913444865528,117.76847903940018
7.48,0.9999912711875024,117.69112452423083
7.4879999999999995,0.9999911994178718,117.61373395733446
7.496,0.9999911291961493,117.53630729302925
7.504,0.9999910605406088,117.45884448563152
7.5120000000000005,0.999990993469309,117.38134548945544
7.52,0.9999909280000954,117.30381025881321
7.5280000000000005,0.9999908641506003,117.22623874801488
7.536,0.9999908019382445,117.14863091136822
7.5440000000000005,0.9999907413802385,117.0709867031787
7.552,0.9999906824935809,116.9933060777496
7.5600000000000005,0.9999906252950621,116.91558898938149
7.568,0.9999905698012629,116.83783539237261
7.5760000000000005,0.9999905160285569,116.76004524101846
7.584,0.999990463993109,116.6822184896118
7.5920000000000005,0.9999904137108787,116.60435509244262
7.6,0.9999903651976183,116.52645500379782
7.6080000000000005,0.9999903184688745,116.44851817796128
7.616,0.9999902735399896,116.37054456921366
7.6240000000000006,0.9999902304261002,116.29253413183227
7.632,0.9999901891421392,116.21448682009085
7.640000000000001,0.9999901497028351,116.13640258825954
7.648,0.9999901121227135,116.05828139060463
7.656000000000001,0.9999900764160955,115.98012318138845
7.664,0.9999900425971,115.90192791486908
7.672,0.9999900106796423,115.82369554530027
7.68,0.9999899806774344,115.74542602693128
7.688,0.9999899526039856,115.66711931400651
7.696,0.999989926472602,115.58877536076541
7.704,0.9999899022963861,115.51039412144218
7.712,0.999989880088237,115.43197555026562
7.72,0.9999898598608492,115.35351960145879
7.728,0.9999898416267134,115.27502622923876
7.736,0.9999898253981152,115.19649538781643
7.744,0.9999898111871343,115.11792703139605
7.752,0.9999897990056438,115.03932111417518
7.76,0.9999897888653095,114.96067759034413
7.768,0.9999897807775894,114.88199641408579
7.776,0.999989774753731,114.80327753957522
7.784,0.9999897708047715,114.72452092097934
7.792,0.9999897689415352,114.64572651245653
7.8,0.9999897691746336,114.56689426815623
7.808,0.9999897715144612,114.4880241422186
7.816,0.9999897759711958,114.40911608877403
7.824,0.9999897825547945,114.33017006194271
7.832,0.999989791274993,114.25118601583426
7.84,0.9999898021413015,114.17216390454718
7.848,0.9999898151630034,114.09310368216832
7.856,0.9999898303491515,114.01400530277252
7.864,0.9999898477085641,113.93486872042192
7.872,0.9999898672498231,113.85569388916548
7.88,0.9999898889812684,113.77648076303845
7.888,0.9999899129109956,113.69722929606165
7.896,0.9999899390468501,113.61793944224098
7.904,0.9999899673964229,113.53861115556668
7.912,0.9999899979670458,113.45924439001273
7.92,0.9999900307657863,113.37983909953608
7.928,0.9999900657994403,113.30039523807604
7.936,0.9999901030745271,113.22091275955339
7.944,0.9999901425972826,113.14139161786974
7.952,0.9999901843736523,113.06183176690665
7.96,0.9999902284092822,112.98223316052479
7.968,0.9999902747095134,112.90259575256309
7.976,0.9999903232793707,112.82291949683786
7.984,0.9999903741235552,112.7432043471418
7.992,0.9999904272464337,112.66345025724314
8.0,0.9999904826520284,112.5836571808845
8.008,0.9999905403440055,112.50382507178199
8.016,0.9999906003256639,112.42395388362397
8.024000000000001,0.9999906625999216,112.34404357007011
8.032,0.9999907271693038,112.26409408475018
8.04,0.9999907940359266,112.18410538126278
8.048,0.9999908632014838,112.10407741317414
8.056000000000001,0.9999909346672291,112.02401013401693
8.064,0.9999910084339607,111.94390349728882
8.072,0.999991084502001,111.86375745645113
8.08,0.9999911628711795,111.7835719649275
8.088000000000001,0.9999912435408103,111.7033469761023
8.096,0.9999913265096715,111.62308244331923
8.104,0.9999914117759818,111.5427783198797
8.112,0.9999914993373757,111.46243455904113
8.120000000000001,0.9999915891908782,111.38205111401545
8.128,0.9999916813328753,111.30162793796734
8.136,0.9999917757590875,111.22116498401226
8.144,0.9999918724645358,111.14066220521484
8.152000000000001,0.9999919714435109,111.0601195545869
8.16,0.9999920726895368,110.97953698508555
8.168,0.9999921761953344,110.89891444961101
8.176,0.9999922819527818,110.81825190100476
8.184000000000001,0.9999923899528723,110.73754929204726
8.192,0.999992500185671,110.65680657545589
8.2,0.9999926126402665,110.5760237038825
8.208,0.9999927273047218,110.49520062991124
8.216000000000001,0.9999928441660222,110.41433730605618
8.224,0.9999929632100178,110.33343368475884
8.232,0.9999930844213649,110.25248971838569
8.24,0.9999932077834635,110.17150535922548
8.248000000000001,0.999993333278389,110.0904805594868
8.256,0.9999934608868233,110.00941527129538
8.264,0.9999935905879788,109.92830944669117
8.272,0.9999937223595177,109.84716303762569
8.280000000000001,0.9999938561774706,109.7659759959592
8.288,0.9999939920161435,109.68474827345776
8.296,0.9999941298480257,109.60347982179029
8.304,0.9999942696436888,109.52217059252554
8.312,0.9999944113716785,109.44082053712926
8.32,0.9999945549984037,109.35942960696092
8.328,0.9999947004880159,109.27799775327082
8.336,0.9999948478022821,109.19652492719693
8.344,0.9999949969004505,109.11501107976191
8.352,0.9999951477391088,109.03345616186985
8.36,0.9999953002720317,108.95186012430348
8.368,0.9999954544500224,108.87022291772088
8.376,0.9999956102207418,108.78854449265276
8.384,0.9999957675285299,108.70682479949937
8.392,0.9999959263142152,108.62506378852787
8.4,0.9999960865149123,108.54326140986943
8.408,0.9999962480638099,108.4614176135169
8.416,0.9999964108899447,108.37953234932219
8.424,0.999996574917961,108.29760556699428
8.432,0.999996740067859,108.2156372160971
8.44,0.9999969062547261,108.1336272460479
8.448,0.999997073388454,108.05157560611589
8.456,0.9999972413734389,107.96948224542123
8.464,0.9999974101082646,107.88734711293434
8.472,0.9999975794853682,107.80517015747596
8.48,0.9999977493906855,107.7229513277174
8.488,0.9999979197032787,107.64069057218173
8.496,0.999998090294941,107.55838783924541
8.504,0.9999982610297813,107.476043077141
8.512,0.9999984317637857,107.39365623396031
8.52,0.9999986023443548,107.31122725765911
8.528,0.9999987726098187,107.22875609606244
8.536,0.9999989423889225,107.14624269687151
8.544,0.9999991115002904,107.06368700767176
8.552,0.9999992797518585,106.98108897594275
8.56,0.9999994469402828,106.8984485490693
8.568,0.9999996128503158,106.81576567435513
8.576,0.9999997772541572,106.73304029903794
8.584,0.9999999399107707,106.65027237030755
8.592,1.0,106.56746183532589
8.6,0.9999999999999999,106.48460864125045
8.608,0.9999999999999999,106.40171273526033
8.616,1.0,106.3187740645862
8.624,0.9999999999999999,106.23579257654349
8.632,1.0,106.15276821857034
8.64,1.0,106.06970093826935
8.648,0.9999999999999999,105.98659068345486
8.656,1.0,105.90343740220521
8.664,1.0,105.82024104292103
8.672,0.9999999999999999,105.73700155438952
8.68,0.9999999999999999,105.65371888585622
8.688,1.0,105.5703929871034
8.696,0.9999999999999999,105.48702380853699
8.704,1.0,105.40361130128174
8.712,1.0,105.32015541728582
8.72,1.0,105.2366561094348
8.728,1.0,105.1531133316767
8.736,0.9999999999999999,105.06952703915731
8.744,1.0,104.98589718836779
8.752,1.0,104.90222373730415
8.76,1.0,104.81850664563976
8.768,1.0,104.73474587491071
8.776,0.9999999999999999,104.65094138871547
8.784,0.9999999999999999,104.5670931529277
8.792,0.9999999999999999,104.48320113592386
8.8,1.0,104.39926530882443
8.808,1.0,104.31528564574916
8.815999999999999,1.0,104.23126212408556
8.824,0.9999999999999999,104.14719472477009
8.832,1.0,104.06308343258067
8.84,1.0,103.97892823643915
8.847999999999999,1.0,103.89472912972148
8.856,0.9999999999999999,103.81048611057346
8.864,1.0,103.7261991822285
8.872,0.9999999999999999,103.64186835332386
8.879999999999999,1.0,103.55749363821072
8.888,1.0,103.47307505725293
8.896,0.9999999999999999,103.38861263710824
8.904,0.9999997422568346,103.30410641098528
8.911999999999999,0.9999993603606041,103.21955641886805
8.92,0.9999989467869407,103.13496270769988
8.928,0.999998500658454,103.05032533151717
8.936,0.999998021171728,102.96564435152264
8.943999999999999,0.9999975076113964,102.88091983608759
8.952,0.9999969593650415,102.796151860672
8.96,0.9999963759388113,102.71134050765126
8.968,0.9999957569735896,102.62648586603815
8.975999999999999,0.9999951022615314,102.54158803108932
8.984,0.9999944117627229,102.45664710378675
8.992,0.9999936856216932,102.37166319018543
9.0,0.9999929241834512,102.28663640062057
9.008,0.999992128008701,102.20156684876994
9.016,0.9999912978878328,102.11645465057062
9.024000000000001,0.9999904348532803,102.03129992299144
9.032,0.9999895401898039,101.94610278266799
9.04,0.9999886154422598,101.86086334441039
9.048,0.9999876624204224,101.7755817195991
9.056000000000001,0.99998668320045,101.69025801448943
9.064,0.9999856801226302,101.60489232844903
9.072,0.999984655785093,101.51948475215856
9.08,0.9999836130332682,101.43403536580956
9.088000000000001,0.9999825549449546,101.34854423733599
9.096,0.9999814848109744,101.26301142071982
9.104,0.9999804061115188,101.1774369544113
9.112,0.9999793224884114,101.09182085990469
9.120000000000001,0.9999782377136529,101.00616314050862
9.128,0.9999771556547353,100.9204637803473
9.136,0.9999760802373394,100.83472274362327
9.144,0.9999750154061166,100.74893997416739
9.152000000000001,0.9999739650843582,100.66311539529369
9.16,0.9999729331333873,100.57724890996833
9.168,0.9999719233125515,100.49134040129374
9.176,0.9999709392406739,100.40538973329937
9.184000000000001,0.9999699843597919,100.31939675202226
9.192,0.9999690619019367,100.23336128685166
9.2,0.9999681748596123,100.14728315210576
9.208,0.9999673259605205,100.06116214880215
9.216000000000001,0.9999665176469376,99.97499806657933
9.224,0.9999657520600058,99.88879068572396
9.232,0.9999650310290626,99.80253977925813
9.24,0.9999643560659771,99.71624511504076
9.248000000000001,0.9999637283643422,99.62990645784033
9.256,0.9999631488032401,99.54352357133914
9.264,0.999962617955208,99.45709622003407
9.272,0.9999621360979454,99.37062417100488
9.280000000000001,0.9999617032292525,99.28410719552576
9.288,0.9999613190846478,99.19754507050297
9.296,0.9999609831571089,99.11093757972665
9.304,0.9999606947183717,99.02428451493165
9.312000000000001,0.999960452841262,98.93758567666596
9.32,0.9999602564225556,98.85084087497131
9.328,0.9999601042059131,98.76404992988346
9.336,0.999959994804493,98.67721267176334
9.344,0.9999599267228987,98.59032894147275
9.352,0.9999598983781709,98.50339859040906
9.36,0.9999599081196101,98.41642148041588
9.368,0.9999599542472465,98.32939748358544
9.376,0.9999600350288456,98.24232648196998
9.384,0.9999601487153802,98.15520836721734
9.392,0.9999602935549283,98.06804304014673
9.4,0.9999604678050081,97.98083041027797
9.408,0.999960669743381,97.89357039532779
9.416,0.9999608976773792,97.80626292068418
9.424,0.9999611499518307,97.71890791886939
9.432,0.9999614249556743,97.63150532899986
9.44,0.9999617211273555,97.54405509625117
9.448,0.9999620369591105,97.45655717133336
9.456,0.9999623710002428,97.3690115099826
9.464,0.9999627218594906,97.28141807247229
9.472,0.9999630882065967,97.19377682314726
9.48,0.9999634687731673,97.10608772998265
9.488,0.9999638623529225,97.01835076416945
9.496,0.9999642678014175,96.93056589972697
9.504,0.9999646840353178,96.84273311314298
9.512,0.9999651100313015,96.75485238304093
9.52,0.9999655448246512,96.66692368987411
9.528,0.9999659875076019,96.57894701564554
9.536,0.9999664372274897,96.49092234365321
9.544,0.999966893184755,96.40284965825856
9.552,0.9999673546308341,96.3147289446781
9.56,0.9999678208659827,96.22656018879553
9.568,0.9999682912370541,96.13834337699433
9.576,0.9999687651352623,96.05007849600814
9.584,0.9999692419939523,95.96176553278865
9.592,0.9999697212863911,95.87340447438878
9.6,0.9999702025236011,95.78499530786063
9.608,0.9999706852522423,95.69653802016619
9.616,0.9999711690525551,95.60803259810045
9.624,0.9999716535363727,95.5194790282249
9.632,0.9999721383452047,95.43087729681133
9.64,0.9999726231483992,95.34222738979406
9.648,0.9999731076413851,95.25352929273042
9.656,0.9999735915439949,95.16478299076806
9.664,0.9999740745988681,95.07598846861896
9.672,0.999974556569938,94.98714571053867
9.68,0.9999750372409967,94.89825470031091
9.688,0.9999755164143382,94.80931542123628
9.696,0.9999759939094803,94.72032785612508
9.704,0.9999764695619571,94.6312919872933
9.712,0.9999769432221843,94.54220779656187
9.72,0.9999774147543957,94.45307526525802
9.728,0.9999778840356401,94.36389437421941
9.736,0.999978350954845,94.27466510379955
9.744,0.9999788154119383,94.18538743387545
9.752,0.9999792773170272,94.09606134385602
9.76,0.9999797365896307,94.00668681269212
9.768,0.9999801931579628,93.91726381888715
9.776,0.9999806469582638,93.82779234050871
9.784,0.9999810979341764,93.73827235520056
9.792,0.999981546036166,93.6487038401954
9.8,0.9999819912209781,93.55908677232753
9.808,0.9999824334511367,93.46942112804628
9.816,0.9999828726944754,93.37970688342908
