freq,mag,phase
6.0,0.9996698531860485,109.79696822893582
6.002286592,0.9998467620742052,109.64007250253391
6.004572672,1.000034758422639,109.48054891174598
6.006859264,1.0002208308815899,109.3183501450158
6.009145344,1.000392931005483,109.15356601059187
6.011431936,1.0005403757513283,108.98650718849228
6.013718016,1.0006536871083693,108.81756192906442
6.016004608,1.0007258387705222,108.64730566728356
6.018290688,1.0007523251382184,108.47637307561651
6.02057728,1.0007313432378613,108.30540814542724
6.022863872,1.0006642187258978,108.13510905421003
6.025149952,1.000555213096317,107.96609998290957
6.027436544,1.000411000434081,107.79897077815943
6.029722624,1.000241012096646,107.6341136602303
6.032009216,1.000055591146532,107.4718688011091
6.034295296,0.9998666081573133,107.31237107113073
6.036581888,0.99968597620982,107.15557802750483
6.03886848,0.9995251333042716,107.00128109983062
6.04115456,0.9993941581295672,106.84914225391275
6.043441152,0.9993014135548813,106.69865470292365
6.045727232,0.9992527842791968,106.54920323140432
6.048013824,0.9992513182350531,106.40014544733761
6.050299904,0.9992971900567316,106.25080167187731
6.052586496,0.999387392644766,106.10050099110353
6.054872576,0.9995163670120506,105.94863096710921
6.057159168,0.999675955844535,105.79469142438876
6.05944576,0.9998560343539195,105.6382996189176
6.06173184,1.0000452608595682,105.47925942010028
6.064018432,1.0002316884551352,105.31751599312165
6.066304512,1.0004035005110532,105.15318711570855
6.068591104,1.0005500035548225,104.9865999169359
6.070877184,1.0006617336632624,104.81815306399233
6.073163776,1.0007319049974501,104.64841031431581
6.075450368,1.0007557789913626,104.47800043698396
6.077736448,1.000732126817418,104.30762045097997
6.08002304,1.000662148834727,104.13795133863391
6.08230912,1.0005504671053431,103.96960508266928
6.084595712,1.0004040631740032,103.80314743752717
6.086881792,1.0002319611509607,103.63903614538906
6.089168384,1.0000451942851103,103.47753389039768
6.091454464,0.999855411318697,103.31878975816778
6.093741056,0.9996747478247183,103.16277043565815
6.096027648,0.9995145014990353,103.00922389594838
6.098313728,0.9993848851039054,102.85783379175123
6.10060032,0.9992939586162624,102.70806772080087
6.1028864,0.9992477297678001,102.55931484874772
6.105172992,0.9992489085610509,102.41090563587197
6.107459072,0.999297486169164,102.2621786130032
6.109745664,0.9993904947797023,102.1124474800494
6.112032256,0.9995221304386533,101.96109641037562
6.114318336,0.9996837529449631,101.80764852784696
6.116604928,0.9998656237640279,101.65173053116972
6.118891008,1.0000558641857415,101.49312704132231
6.1211776,1.0002427278144699,101.331812920072
6.12346368,1.0004143439112565,101.16794479961794
6.125750272,1.0005596989986807,101.00176996115664
6.128036352,1.0006698908349547,100.8337916818415
6.130322944,1.000737803538198,100.66452699866171
6.132609536,1.000759318544931,100.49464117362513
6.134895616,1.0007327612158599,100.32482746934325
6.137182208,1.0006601123274537,100.15571560335982
6.139468288,1.0005456508663446,99.98799907777781
6.14175488,1.0003967446157005,99.8222233325581
6.14404096,1.0002227409087499,99.658808266586
6.146327552,1.0000345408462803,99.49801608840805
6.148614144,0.9998440952088726,99.34001453181212
6.150900224,0.9996634133676014,99.18473101719322
6.153186816,0.9995038316800203,99.03191558351213
6.155472896,0.9993755556709351,98.88124472110563
6.157759488,0.9992866566733907,98.73216501567109
6.160045568,0.9992427419307656,98.58406752922892
6.16233216,0.9992467338572762,98.43628977312859
6.16461824,0.9992981853002262,98.28814825050185
6.166904832,0.9993939821263403,98.13895036468382
6.169191424,0.9995281541829873,97.98811067909135
6.171477504,0.9996921018778131,97.83510205175655
6.173764096,0.9998756117102844,97.67960849583262
6.176050176,1.0000669546391439,97.5214303317992
6.178336768,1.0002541352926622,97.36051533384737
6.180622848,1.0004252879996685,97.19701770923015
6.18290944,1.0005696978388476,97.03126648021681
6.18519552,1.000678156272103,96.86370058935812
6.187482112,1.0007438784357054,96.69489372921504
6.189768704,1.0007626723077276,96.5254799582309
6.192054784,1.0007332919179508,96.35619284396259
6.194341376,1.000657705012291,96.18764380320347
6.196627456,1.000540563489666,96.02054089906531
6.198914048,1.0003892527358862,95.85539675232323
6.201200128,1.0002132328403956,95.69263827324926
6.20348672,1.0000236186452067,95.5325575615105
6.205773312,0.9998324601912385,95.37525355549062
6.208059392,0.9996518326619953,95.22066906364955
6.210345984,0.9994928946967343,95.06857600544163
6.212632064,0.9993661026806947,94.9185712889548
6.214918656,0.9992792243125639,94.77016413308384
6.217204736,0.9992377873864595,94.6226978481079
6.219491328,0.9992445130571704,94.47552024189459
6.221777408,0.9992989744260484,94.32790571592021
6.224064,0.9993976251365756,94.17920309352368
6.226350592,0.9995344177822453,94.02881425397904
6.228636672,0.9997006874076969,93.87625354701449
6.230923264,0.9998858420599164,93.72114303763513
6.233209344,1.0000782437181202,93.56332791831083
6.235495936,1.0002657215340034,93.40278710896511
6.237782016,1.0004364552664706,93.23965332955505
6.240068608,1.0005797012199436,93.07426548344252
6.2423552,1.0006864363846397,92.90708236385605
6.24464128,1.0007498127903671,92.73869715916324
6.246927872,1.0007659530716264,92.56976079108297
6.249213952,1.000733644091003,92.4009157978607
6.251500544,1.000655092457197,92.23294304971236
6.253786624,1.0005351875867086,92.06640745257221
6.256073216,1.0003812540274755,91.901854368746
6.258359296,1.0002033288590604,91.7397569508725
6.260645888,1.0000124221916151,91.5803273946715
6.26293248,0.9998205482043113,91.42370944259706
6.26521856,0.9996399029630952,91.26980849277399
6.267505152,0.9994818821662436,91.11839051427815
6.269791232,0.9993566258231085,90.96904669894347
6.272077824,0.9992717652394276,90.82127282372836
6.274363904,0.9992329062994636,90.67440324993422
6.276650496,0.9992424360041826,90.5277583831185
6.278937088,0.9992999456410828,90.38067382209367
6.281223168,0.9994016274027534,90.2324374432555
6.28350976,0.9995410068298272,90.08247224951121
6.28579584,0.9997094521227563,89.93028551765421
6.288082432,0.9998963306333468,89.7755509223363
6.290368512,1.0000898112787404,89.61806701757331
6.292655104,1.0002774783866883,89.45783679800647
6.294941184,1.000447779629864,89.2950313780287
6.297227776,1.0005898080636533,89.12997416538101
6.299514368,1.0006946895610858,88.96314799999342
6.301800448,1.0007556778715365,88.79514264659548
6.30408704,1.000769090176237,88.62662729010484
6.30637312,1.0007338391352958,88.45828571439701
6.308659712,1.0006522859265015,88.29077524728535
6.310945792,1.0005295030016532,88.1247811170789
6.313232384,1.0003731467379504,87.960833025418
6.315518464,1.0001931850235362,87.79933235726403
6.317805056,1.0000008005989327,87.64055209356567
6.320091648,0.9998083513730498,87.48457873523404
6.322377728,0.9996277248963314,87.33133922474201
6.32466432,0.9994707144039541,87.18055424156437
6.3269504,0.9993469455290307,87.03183811011363
6.329236992,0.999264247065325,86.88464455881572
6.331523072,0.9992280684767366,86.738345036492
6.333809664,0.9992405998350439,86.59222809722266
6.336096256,0.999301033070716,86.44560321860683
6.338382336,0.999405668359487,86.29780678435645
6.340668928,0.999547819339701,86.14822636413221
6.342955008,0.999718575172241,85.99640119149176
6.3452416,0.9999070891821292,85.84195594979836
6.34752768,1.000101565405986,85.68478977579089
6.349814272,1.0002895803052387,85.5248360999464
6.352100352,1.0004593108644948,85.36232864755665
6.354386944,1.0006000930480003,85.19757278125422
6.356673536,1.00070309724128,85.03107856554152
6.358959616,1.000761683740467,84.8634147922665
6.361246208,1.0007721520515687,84.69529127849682
6.363532288,1.0007338655439832,84.52735682375025
6.36581888,1.0006492370477549,84.36032330502084
6.36810496,1.0005234856573868,84.19486093011189
6.370391552,1.000364730986437,84.03145802419525
6.372678144,1.0001827558149166,83.87053397051919
6.374964224,0.9999891006717497,83.7123709105065
6.377250816,0.9997959956960252,83.557005831585
6.379536896,0.9996156263579772,83.40438651798667
6.381823488,0.9994593880250934,83.25421923634389
6.384109568,0.9993372394070537,83.10610093863475
6.38639616,0.9992568758655539,82.95946632528558
6.38868224,0.9992233551088182,82.81368995438928
6.390968832,0.9992388045575394,82.66805938122712
6.393255424,0.9993023980971074,82.52187034439108
6.395541504,0.9994100678975764,82.37447052937597
6.397828096,0.9995549604319446,82.22523862108402
6.400114176,0.9997279680008383,82.07370861169638
6.402400768,0.9999181492592115,81.91957937361963
6.404686848,1.000113584381524,81.76264610699079
6.40697344,1.0003018353677149,81.60296285774848
6.409260032,1.0004710749492902,81.44068608544708
6.411546112,1.0006105111582857,81.27619872024621
6.413832704,1.0007114569777025,81.10998433277335
6.416118784,1.0007675345118907,80.94265340304965
6.418405376,1.0007750977521441,80.77484764603071
6.420691456,1.0007336848307589,80.60733345366678
6.422978048,1.0006460003966964,80.44075333227458
6.425264128,1.0005173541943828,80.2757667653786
6.42755072,1.0003560410860748,80.11288752857962
6.429837312,1.0001720315281983,79.9525114628801
6.432123392,0.9999770492464392,79.79490338317775
6.434409984,0.9997833916498479,79.64014200456147
6.436696064,0.9996031638253243,79.48810865572443
6.438982656,0.9994479976512168,79.3385309014014
6.441268736,0.9993274857721436,79.19097036217993
6.443555328,0.9992493568988808,79.04486950381316
6.44584192,0.9992186021823096,78.89958192995309
6.448128,0.9992372132565848,78.75439870523077
6.450414592,0.9993039511609704,78.60861596309628
6.452700672,0.9994146545920831,78.46154866073593
6.454987264,0.999562406838095,78.31263359068979
6.457273344,0.9997376699547087,78.1613838911725
6.459559936,0.9999295477288429,78.00746971232057
6.461846016,1.0001259053392153,77.85078944645232
6.464132608,1.0003143462712207,77.69130987026698
6.4664192,1.0004828386587516,77.52924671240059
6.46870528,1.0006209896200287,77.36498802203403
6.470991872,1.0007198944478612,77.19902911293201
6.473277952,1.0007733298404047,77.03195835721301
6.475564544,1.0007779745911356,76.86451893077194
6.477850624,1.000733427593056,76.69734498050964
6.480137216,1.0006425693628909,76.53116291705663
6.482423296,1.0005109522275766,76.36662920584713
6.484709888,1.000347066553668,76.20423257565687
6.48699648,1.0001611018620684,76.04439422414913
6.48928256,0.9999648226272698,75.88731994839988
6.491569152,0.9997704753957523,75.73313491632604
6.493855232,0.999590605409423,75.58165485905317
6.496141824,0.9994364850957079,75.4326259954244
6.498427904,0.999317751591231,75.28559086931784
6.500714496,0.9992420685178317,75.13996947089525
6.503001088,0.9992140740820554,74.99514295342911
6.505287168,0.9992359081349171,74.85036761057712
6.50757376,0.9993058230184337,74.70494069907757
6.50985984,0.9994196176908733,74.55820655652056
6.512146432,0.9995700484317956,74.40955990620228
6.514432512,0.9997476370759208,74.25854203990542
6.516719104,0.9999412137095781,74.10484829980777
6.519005184,1.0001384319414068,73.94831592075357
6.521291776,1.0003269978086184,73.78901653359105
6.523578368,1.000494872545197,73.62714437617919
6.525864448,1.0006314334875237,73.46307376051612
6.52815104,1.0007282766253507,73.29732822097154
6.53043712,1.0007791529922396,73.13051592318564
6.532723712,1.000780676034987,72.96334624667999
6.535009792,1.0007329236127505,72.79652756067458
6.537296384,1.0006387891610016,72.63071777388052
6.539582976,1.0005043426833156,72.46658877858313
6.541869056,1.0003378465627644,72.30464652646602
6.544155648,1.000149914422077,72.14529050341918
6.546441728,0.9999522607664467,71.98875388018028
6.54872832,0.9997574879860025,71.83508299632913
6.5510144,0.9995779349756543,71.68412741991565
6.553300992,0.9994248646067401,71.53561106779374
6.555587072,0.9993079388254826,71.38906447870087
6.557873664,0.999234723396653,71.24391400900844
6.560160256,0.9992097440510245,71.09950471169434
6.562446336,0.9992346000617578,70.95508215261873
6.564732928,0.9993078233870729,70.81000447035773
6.567019008,0.999424692897962,70.66353978080187
6.5693056,0.9995779971708003,70.51511285608026
6.57159168,0.9997578638606276,70.36429499541296
6.573878272,0.9999530861018805,70.21075720101643
6.576164864,1.000151271076873,70.05439222694108
6.578450944,1.0003398208082515,69.89521113873415
6.580737536,1.0005070376148306,69.7334721844335
6.583023616,1.000642119067846,69.56955477280705
6.585310208,1.0007366832717055,69.40398438531138
6.587596288,1.000784769510174,69.23738978999832
6.58988288,1.0007832124675988,69.07048300801215
6.59216896,1.00073225869885,68.90394809077586
6.594455552,1.0006348402438598,68.73849576929716
6.596742144,1.0004973532874726,68.57475167252473
6.599028224,1.0003282640032671,68.41323274603138
6.601314816,1.0001383387113072,68.25435717390262
6.603600896,0.9999394262372382,68.09828482813111
6.605887488,0.9997442315206881,67.94510436955747
6.608173568,0.9995650628457727,67.7946413777654
6.61046016,0.9994130833264915,67.64659727559103
6.612746752,0.9992980911992795,67.50051082333287
6.615032832,0.9992273709620354,67.35579525545802
6.617319424,0.9992053490941334,67.21175164041635
6.619605504,0.9992334978019406,67.06768843089151
6.621892096,0.9993100227870868,66.92289160896883
6.624178176,0.9994300410683644,66.77666031791999
6.626464768,0.9995862389098343,66.62843280051904
6.628750848,0.9997683921756101,66.47775842380149
6.63103744,0.9999652425659263,66.32434486812241
6.633324032,1.0001642455844215,66.16806823662158
6.635610112,1.0003528748231636,66.00900017776299
6.637896704,1.0005191760707413,65.84735547556461
6.640182784,1.0006527880529712,65.68355691747826
6.642469376,1.0007451104342664,65.51812587451911
6.644755456,1.0007903507301705,65.3517213741594
6.647042048,1.0007856959233,65.18501093526322
6.649328128,1.0007313829397417,65.01874503255456
6.65161472,1.0006307193930626,64.8536103718989
6.653901312,1.0004901552176677,64.69023424283266
6.656187392,1.0003185704903301,64.52911633658852
6.658473984,1.0001266058297567,64.37063593353936
6.660760064,0.9999264772566148,64.2150318823057
6.663046656,0.9997308336712559,64.0623002960926
6.665332736,0.9995519907858953,63.91229861334482
6.667619328,0.9994013184454722,63.76469619187173
6.66990592,0.99928824640862,63.6190467628755
6.672192,0.9992201404101199,63.474696655156166
6.674478592,0.9992011923395676,63.3310063365422
6.676764672,0.9992325832700965,63.18724596672093
6.679051264,0.9993124388258001,63.04268368200445
6.681337344,0.999435794813299,62.89664021837824
6.683623936,0.9995946506928587,62.74856941000443
6.685910016,0.9997791635666147,62.598024852592054
6.688196608,0.9999775915612629,62.44469190423925
6.6904832,1.000177455261021,62.288491076506
6.69276928,1.0003661109170197,62.12947232002459
6.695055872,1.0005316168617533,61.967892069827705
6.697341952,1.0006634602917566,61.80417338194693
6.699628544,1.0007535164241355,61.63885062121186
6.701914624,1.0007958834860597,61.472571155885824
6.704201216,1.0007880270504568,61.306052554874356
6.706487808,1.00073030443623,61.140012914328075
6.708773888,1.0006264389981185,60.97514581336097
6.71106048,1.0004827245544212,60.812093837891716
6.71334656,1.0003085541924737,60.65134991748126
6.715633152,1.0001145682527235,60.49325726275732
6.717919232,0.9999132871352694,60.33806089068817
6.720205824,0.9997172261706107,60.18576326411869
6.722491904,0.9995388907573227,60.03618472453751
6.724778496,0.999389431567998,59.88899786799344
6.727065088,0.9992783804729329,59.74372814941603
6.729351168,0.999212916157012,59.599732722490074
6.73163776,0.9991969944537092,59.4563606285904
6.73392384,0.9992317734267288,59.31283598339774
6.736210432,0.9993150466175715,59.16848670716431
6.738496512,0.9994415184352513,59.02260112785567
6.740783104,0.9996033361002503,58.87464753779051
6.743069696,0.9997901346016088,58.72415919410408
6.745355776,0.999990126956518,58.57089092231547
6.747642368,1.0001908232682897,58.41470031444491
6.749928448,1.0003793121316982,58.25572612846998
6.75221504,1.000543915686382,58.09415124563565
6.75450112,1.0006741773891898,57.930473202427955
6.756787712,1.000761766028325,57.76522978451942
6.759073792,1.000801308445875,57.59905179991888
6.761360384,1.000790188517065,57.43268770066876
6.763646976,1.0007290132758346,57.26684200336513
6.765933056,1.000621750727592,57.10222371317107
6.768219648,1.0004750694367752,56.939463723226076
6.770505728,1.0002981995246676,56.779025439893324
6.77279232,1.0001023932856548,56.62131965326667
6.7750784,0.9998998413542445,56.46650436565157
6.777364992,0.9997034052417095,56.31459965129222
6.779651584,0.9995256128804055,56.16541077223915
6.781937664,0.999377560986126,56.01859435547195
6.784224256,0.9992686493384546,55.87365780045157
6.786510336,0.999205844080696,55.72999818745487
6.788796928,0.9991931123980711,55.5868650615073
6.791083008,0.9992312965824468,55.44357641714597
6.7933696,0.999317970939338,55.29939527854118
6.79565568,0.9994477436652157,55.15364743461751
6.797942272,0.9996123285100954,55.00576032169673
6.800228864,0.9998014656871489,54.85530298459721
6.802514944,1.000003020496468,54.70202719161221
6.804801536,1.0002044178503295,54.54582929909684
6.807087616,1.0003929189925964,54.38681251776678
6.809374208,1.0005564665295212,54.225255873396776
6.811660288,1.00068496074451,54.06156803508756
6.81394688,1.000770178463809,53.89635015761529
6.81623296,1.0008066572671652,53.73023781952138
6.818519552,1.0007921367522512,53.56399481097724
6.820806144,1.000727592428657,53.39832777999409
6.823092224,1.0006169413185528,53.23391870948546
6.825378816,1.0004672055423716,53.07140448438878
6.827664896,1.0002877951871092,52.91127089809668
6.829951488,1.0000900103145922,52.75387820053882
6.832237568,0.9998863064622892,52.59942435706519
6.83452416,0.9996896380164477,52.44786303221861
6.836810752,0.9995122940182533,52.29902196020455
6.839096832,0.9993656544501028,52.15255524645064
6.841383424,0.9992588685519238,52.00794216788437
6.843669504,0.9991988145270551,51.86452972344826
6.845956096,0.9991893116547836,51.7216509412229
6.848242176,0.9992309851745047,51.57853381245062
6.850528768,0.999321136082727,51.434480285070286
6.852814848,0.9994541647412996,51.288805462037345
6.85510144,0.9996216104013183,51.14094721250346
6.857388032,0.9998129430577962,50.99049310322525
6.859674112,1.0000161278793112,50.837179938663134
6.861960704,1.0002182381689877,50.6809224649266
6.864246784,1.0004065775353683,50.52184932701033
6.866533376,1.000569180223293,50.36022697840363
6.868819456,1.0006958048282308,50.19652235444808
6.871106048,1.0007784650006386,50.0313163011828
6.87339264,1.0008120142914108,49.86523707471338
6.87567872,1.0007941011862145,49.699059917455706
6.877965312,1.0007260335647776,49.53350717643473
6.880251392,1.0006119515577816,49.369286898016405
6.882537984,1.0004591300344527,49.2069974579234
6.884824064,1.000277123505903,49.047131431380635
6.887110656,1.0000774532513927,48.890037561324874
6.889396736,0.9998725926138946,48.7358872413591
6.891683328,0.9996755490653834,48.58463772061512
6.89396992,0.9994989273141351,48.43613699733269
6.896256,0.999353744912966,48.28996973118139
6.898542592,0.999249141789861,48.145621334530944
6.900828672,0.9991918902771699,48.00247318458123
6.903115264,0.9991856685543153,47.8597668337533
6.905401344,0.9992307363673322,47.7167868861261
6.907687936,0.9993244082363905,47.572828593082825
6.909974528,0.9994607488797309,47.427184670542665
6.912260608,0.9996310442815654,47.27933065617774
6.9145472,0.9998247433121221,47.12880706004617
6.91683328,1.0000294025521992,46.975425664693496
6.919119872,1.000232211102875,46.819085868450635
6.921405952,1.0004202888993623,46.65990380279814
6.923692544,1.0005818084694573,46.498200273386736
6.925978624,1.0007066275500618,46.33442542078047
6.928265216,1.0007867191257045,46.169166603203166
6.930551808,1.0008171296780524,46.00310090387736
6.932837888,1.0007958605129428,45.83696422557518
6.93512448,1.0007242639190999,45.671510426872416
6.93741056,1.0006067727841381,45.50742778564218
