freq,mag,phase
6.0,0.9999918578812069,-135.74690656805444
6.008,0.9999918626786047,-136.17540790014667
6.016,0.9999918757405488,-136.60360570058432
6.024,0.9999918968354953,-137.0315009671865
6.032,0.9999919257349228,-137.4590947175678
6.04,0.9999919622133248,-137.8863879889355
6.048,0.9999920060481945,-138.3133818378874
6.056,0.9999920570200153,-138.74007734021006
6.064,0.9999921149122469,-139.16647559067795
6.072,0.9999921795113145,-139.59257770285245
6.08,0.999992250606593,-140.01838480888236
6.088,0.999992327990396,-140.44389805930413
6.096,0.9999924114579617,-140.8691186228436
6.104,0.9999925008074371,-141.29404768621762
6.112,0.9999925958398664,-141.71868645393695
6.12,0.9999926963591745,-142.1430361481095
6.128,0.9999928021721524,-142.56709800824453
6.136,0.9999929130884426,-142.99087329105723
6.144,0.9999930289205221,-143.41436327027475
6.152,0.9999931494836898,-143.83756923644225
6.16,0.999993274596046,-144.2604924967302
6.168,0.999993404078481,-144.68313437474234
6.176,0.9999935377546549,-145.10549621032467
6.184,0.999993675450982,-145.5275793593748
6.192,0.9999938169966135,-145.94938519365303
6.2,0.9999939622234243,-146.3709151005931
6.208,0.9999941109659874,-146.79217048311506
6.216,0.999994263061564,-147.2131527594384
6.224,0.9999944183500826,-147.6338633628959
6.232,0.9999945766741208,-148.05430374174907
6.24,0.9999947378788865,-148.47447535900392
6.248,0.9999949018122033,-148.8943796922281
6.256,0.9999950683244858,-149.31401823336884
6.264,0.9999952372687274,-149.73339248857172
6.272,0.9999954085004779,-150.1525039780008
6.28,0.999995581877825,-150.5713542356594
6.288,0.9999957572613742,-150.98994480921218
6.296,0.9999959345142334,-151.40827725980785
6.304,0.9999961135019879,-151.82635316190328
6.312,0.9999962940926863,-152.24417410308862
6.32,0.9999964761568181,-152.6617416839132
6.328,0.9999966595672928,-153.07905751771244
6.336,0.9999968441994241,-153.49612323043652
6.344,0.999997029930906,-153.91294046047918
6.352,0.999997216641795,-154.32951085850797
6.36,0.9999974042144895,-154.74583608729597
6.368,0.99999759253371,-155.16191782155386
6.376,0.9999977814864768,-155.57775774776366
6.384,0.9999979709620939,-155.99335756401317
6.392,0.9999981608521237,-156.40871897983183
6.4,0.999998351050371,-156.82384371602743
6.408,0.9999985414528593,-157.23873350452396
6.416,0.9999987319578109,-157.6533900882007
6.424,0.999998922465629,-158.06781522073217
6.432,0.9999991128788736,-158.48201066642955
6.44,0.9999993031022422,-158.8959782000827
6.448,0.9999994930425506,-159.30971960680392
6.456,0.9999996826087088,-159.72323668187218
6.464,0.9999998717117045,-160.13653123057887
6.472,1.0,-160.5496050680746
6.48,0.9999999999999999,-160.96246001921702
6.4879999999999995,0.9999999999999999,-161.37509791841967
6.496,1.0,-161.78752060950245
6.504,1.0,-162.1997299455422
6.5120000000000005,1.0,-162.6117277887257
6.52,1.0,-163.02351601020237
6.5280000000000005,1.0,-163.43509648993955
6.536,1.0,-163.8464711165774
6.5440000000000005,0.9999999999999999,-164.25764178728613
6.552,0.9999999999999999,-164.66861040762353
6.5600000000000005,0.9999999999999999,-165.07937889139424
6.568,1.0,-165.48994916050916
6.5760000000000005,0.9999999999999999,-165.90032314484736
6.584,1.0,-166.31050278211748
6.592,1.0,-166.72049001772174
6.6,1.0,-167.13028680461966
6.608,1.0,-167.5398951031939
6.616,0.9999999999999999,-167.94931688111674
6.624,0.9999999999999998,-168.35855411321745
6.632,1.0,-168.76760878135116
6.64,1.0,-169.17648287426834
6.648,1.0,-169.5851783874858
6.656,1.0,-169.99369732315833
6.664,1.0,-170.40204168995152
6.672,1.0,-170.81021350291576
6.68,1.0,-171.21821478336105
6.688,1.0,-171.626047558733
6.696,1.0,-172.03371386248975
6.704,1.0000000000000002,-172.4412157339799
6.712,1.0,-172.84855521832154
6.72,1.0,-173.25573436628224
6.728,1.0,-173.66275523415987
6.736,1.0,-174.06961988366476
6.744,1.0,-174.47633038180243
6.752,0.9999999999999999,-174.88288880075754
6.76,1.0,-175.2892972177789
6.768,0.9999999999999999,-175.69555771506498
6.776,1.0,-176.10167237965095
6.784,1.0,-176.50764330329625
6.792,0.9999999999999999,-176.91347258237323
6.8,0.9999999999999999,-177.3191623177567
6.808,1.0,-177.72471461471451
6.816,1.0,-178.1301315827987
6.824,1.0,-178.5354153357381
6.832,1.0,-178.9405679913311
6.84,1.0,-179.3455916713401
6.848,1.0,-179.7504885013862
6.856,1.0,179.844739389155
6.864,1.0,179.44008986725666
6.872,1.0,179.03556079634322
6.88,1.0,178.63115003639223
6.888,0.9999999999999999,178.22685544403495
6.896,1.0,177.82267487265656
6.904,0.9999999999999999,177.41860617249532
6.912,1.0,177.01464719074085
6.92,0.9999999999999999,176.610795771632
6.928,1.0,176.20704975655352
6.936,0.9999999999999999,175.80340698413207
6.944,0.9999999999999999,175.39986529033172
6.952,1.0,174.99642250854836
6.96,1.0,174.5930764697035
6.968,0.9999999999999999,174.18982500233741
6.976,1.0,173.78666593270142
6.984,1.0000000000000002,173.38359708484958
6.992,1.0,172.9806162807296
7.0,1.0,172.57772134027297
7.008,1.0,172.17491008148474
7.016,1.0,171.77218032053221
7.024,1.0,171.36952987183315
7.032,1.0,170.96695654814346
7.04,0.9999999999999999,170.56445816064402
7.048,1.0,170.16203251902692
7.056,1.0,169.7596774315813
7.064,1.0,169.35739070527816
7.072,1.0,168.95517014585496
7.08,1.0,168.55301355789933
7.088,0.9999999999999999,168.1509187449326
7.096,1.0,167.74888350949212
7.104,1.0,167.34690565321367
7.112,1.0,166.94498297691297
7.12,1.0,166.54311328066657
7.128,1.0,166.1412943638926
7.136,1.0,165.7395240254306
7.144,1.0,165.3378000636209
7.152,1.0000000000000002,164.93612027638386
7.16,1.0,164.5344824612981
7.168,1.0,164.13288441567852
7.176,0.9999999999999999,163.73132393665406
7.184,0.9999999999999999,163.32979882124457
7.192,0.9999999999999998,162.92830686643728
7.2,0.9999999999999998,162.52684586926344
7.208,1.0,162.12541362687364
7.216,1.0,161.72400793661328
7.224,1.0,161.32262659609765
7.232,1.0,160.9212674032862
7.24,1.0000000000000002,160.51992815655692
7.248,0.9999999999999999,160.11860665477988
7.256,1.0,159.71730069739078
7.264,1.0,159.316008084464
7.272,1.0,158.9147266167851
7.28,1.0,158.51345409592344
7.288,0.9999999999999999,158.11218832430396
7.296,1.0,157.71092710527904
7.304,1.0,157.3096682431999
7.312,1.0,156.9084095434876
7.32,0.9999999999999999,156.50714881270397
7.328,1.0,156.10588385862206
7.336,1.0,155.7046124902965
7.344,1.0,155.3033325181335
7.352,1.0,154.90204175396048
7.36,1.0,154.50073801109585
7.368,0.9999999999999998,154.09941910441808
7.376,1.0,153.69808285043496
7.384,1.0,153.29672706735238
7.392,1.0,152.89534957514306
7.4,0.9999999999999998,152.49394819561493
7.4079999999999995,0.9999999999999999,152.09252075247971
7.416,1.0,151.69106507142058
7.4239999999999995,0.9999999999999999,151.28957898016074
7.432,1.0,150.88806030853075
7.4399999999999995,1.0,150.48650688853664
7.448,1.0,150.08491655442683
7.4559999999999995,0.9999999999999999,149.6832871427606
7.464,1.0,149.28161649247411
7.4719999999999995,1.0,148.8799024449489
7.48,0.9999999999999999,148.4781428440778
7.4879999999999995,1.0,148.0763355363332
7.496,1.0,147.6744783708328
7.504,0.9999999999999999,147.27256919940754
7.5120000000000005,0.9999999999999999,146.87060587666755
7.52,0.9999999999999998,146.4685862600697
7.5280000000000005,0.9999999999999999,146.06650820998365
7.536,0.9999999999999999,145.66436958975922
7.5440000000000005,0.9999999999999999,145.26216826579235
7.552,0.9999999999999999,144.85990210759255
7.5600000000000005,0.9999999999999999,144.45756898784876
7.568,0.9999999999999999,144.05516678249677
7.5760000000000005,1.0,143.65269337078524
7.584,1.0000000000000002,143.25014663534287
7.5920000000000005,0.9999999999999999,142.84752446224476
7.6,1.0,142.44482474107954
7.6080000000000005,1.0,142.0420453650157
7.616,1.0,141.63918423086886
7.6240000000000006,1.0000000000000002,141.23623923916838
7.632,1.0,140.83320829422462
7.640000000000001,0.9999999999999999,140.43008930419555
7.648,0.9999999999999999,140.0268801811545
7.656000000000001,1.0000000000000002,139.62357884115667
7.664,1.0,139.22018320430718
7.672,0.9999999999999999,138.81669119482783
7.68,1.0,138.4131007411251
7.688,0.9999999999999999,138.00940977585762
7.696,1.0,137.6056162360041
7.704,1.0,137.20171806293095
7.712,0.9999999999999999,136.79771320246078
7.72,1.0,136.39359960494025
7.728,0.9999999999999999,135.98937522530866
7.736,1.0,135.58503802316648
7.744,1.0,135.1805859628439
7.752,1.0,134.77601701346998
7.76,1.0,134.37132914904143
7.768,0.9999999999999998,133.9665203484921
7.776,0.9999999999999999,133.56158859576252
7.784,0.9999999999999998,133.15653187986916
7.792,1.0,132.75134819497478
7.8,0.9999999999999999,132.34603554045822
7.808,1.0,131.94059192098493
7.816,0.9999999999999998,131.53501534657727
7.824,0.9999999999999999,131.1293038326856
7.832,1.0,130.72345540025896
7.84,1.0,130.3174680758167
7.848,1.0,129.91133989151967
7.856,1.0,129.50506888524225
7.864,1.0,129.09865310064427
7.872,1.0,128.6920905872434
7.88,0.9999999999999999,128.28537940048753
7.888,0.9999999999999998,127.87851760182791
7.896,1.0,127.4715032587922
7.904,1.0000000000000002,127.06433444505774
7.912,1.0,126.65700924052557
7.92,1.0,126.24952573139419
7.928,0.9999999999999999,125.84188201023403
7.936,1.0,125.43407617606212
7.944,0.9999999999999999,125.02610633441685
7.952,0.9999998785818109,124.61797059743348
7.96,0.9999997527642789,124.20966708391951
7.968,0.9999996271212669,123.8011939194307
7.976,0.9999995016745659,123.39254923634726
7.984,0.9999993764456997,122.98373117395045
7.992,0.9999992514559211,122.57473787849939
8.0,0.9999991267262085,122.16556750330844
8.008,0.9999990022772642,121.75621820882465
8.016,0.9999988781295119,121.34668816270556
8.024000000000001,0.999998754303093,120.93697553989787
8.032,0.9999986308178663,120.52707852271577
8.04,0.9999985076934029,120.1169953009198
8.048,0.9999983849489859,119.7067240717963
8.056000000000001,0.9999982626036078,119.29626304023726
8.064,0.9999981406759674,118.88561041882028
8.072,0.9999980191844695,118.47476442788864
8.08,0.9999978981472213,118.0637232956324
8.088000000000001,0.9999977775820315,117.65248525816963
8.096,0.9999976575064078,117.24104855962769
8.104,0.9999975379375552,116.82941145222507
8.112,0.9999974188923755,116.41757219635363
8.120000000000001,0.9999973003874638,116.00552906066156
8.128,0.9999971824391083,115.59328032213607
8.136,0.9999970650632886,115.18082426618656
8.144,0.9999969482756741,114.76815918672872
8.152000000000001,0.9999968320916225,114.35528338626857
8.16,0.9999967165261798,113.9421951759869
8.168,0.999996601594077,113.52889287582401
8.176,0.9999964873097306,113.11537481456497
8.184000000000001,0.9999963736872416,112.70163932992563
8.192,0.9999962607403939,112.28768476863814
8.2,0.9999961484826536,111.87350948653744
8.208,0.9999960369271687,111.459111848648
8.216000000000001,0.9999959260867665,111.04449022927123
8.224,0.9999958159739563,110.62964301207265
8.232,0.999995706600926,110.21456859016969
8.24,0.9999955979795424,109.79926536622011
8.248000000000001,0.9999954901213509,109.38373175251071
8.256,0.9999953830375756,108.96796617104616
8.264,0.9999952767391176,108.55196705363822
8.272,0.9999951712365566,108.13573284199549
8.280000000000001,0.9999950665401488,107.71926198781382
8.288,0.9999949626598288,107.30255295286642
8.296,0.9999948596052077,106.88560420909455
8.304,0.9999947573855748,106.46841423869878
8.312,0.9999946560098959,106.05098153423083
8.32,0.9999945554868155,105.63330459868466
8.328,0.9999944558246555,105.2153819455895
8.336,0.9999943570314164,104.79721209910157
8.344,0.9999942591147772,104.37879359409766
8.352,0.999994162082096,103.9601249762677
8.36,0.9999940659404108,103.54120480220891
8.368,0.9999939706964392,103.12203163951894
8.376,0.999993876356581,102.70260406689083
8.384,0.9999937829269159,102.2829206742067
8.392,0.9999936904132073,101.8629800626333
8.4,0.9999935988209014,101.44278084471638
8.408,0.9999935081551289,101.02232164447688
8.416,0.9999934184207048,100.60160109750576
8.424,0.9999933296221315,100.18061785106089
8.432,0.999993241763598,99.75937056416244
8.44,0.9999931548489824,99.3378579076902
8.448,0.999993068881852,98.91607856447978
8.456,0.9999929838654655,98.49403122942017
8.464,0.999992899802774,98.07171460955054
8.472,0.9999928166964227,97.64912742415852
8.48,0.999992734548752,97.22626840487723
8.488,0.9999926533617998,96.80313629578407
8.496,0.9999925731373015,96.37972985349833
8.504,0.9999924938766942,95.95604784728033
8.512,0.9999924155811162,95.53208905912948
8.52,0.9999923382514098,95.10785228388382
8.528,0.9999922618881233,94.68333632931848
8.536,0.9999921864915128,94.25854001624559
8.544,0.9999921120615438,93.83346217861309
8.552,0.9999920385978937,93.40810166360502
8.56,0.9999919660999539,92.98245733174052
8.568,0.9999918945668322,92.55652805697454
8.576,0.9999918239973536,92.13031272679709
8.584,0.9999917543900653,91.70381024233423
8.592,0.9999916857432365,91.27701951844743
8.6,0.9999916180548619,90.84993948383487
8.608,0.9999915513226642,90.42256908113104
8.616,0.999991485544097,89.99490726700809
8.624,0.999991420716346,89.56695301227563
8.632,0.9999913568363334,89.13870530198217
8.64,0.99999129390072,88.7101631355151
8.648,0.9999912319059067,88.28132552670209
8.656,0.9999911708480387,87.85219150391111
8.664,0.9999911107230091,87.42276011015203
8.672,0.9999910515264593,86.9930304031764
8.68,0.9999909932537848,86.56300145557914
8.688,0.9999909359001357,86.13267235489826
8.696,0.9999908794604218,85.7020422037164
8.704,0.9999908239293147,85.27111011976052
8.712,0.9999907693012513,84.83987523600314
8.72,0.9999907155704368,84.40833670076204
8.728,0.9999906627308487,83.9764936778012
8.736,0.9999906107762387,83.54434534643026
8.744,0.9999905597001384,83.11189090160522
8.752,0.9999905094958595,82.67912955402753
8.76,0.9999904601565014,82.24606053024452
8.768,0.9999904116749508,81.81268307274821
8.776,0.9999903640438879,81.37899644007523
8.784,0.9999903172557888,80.94499990690511
8.792,0.9999902713029302,80.51069276415997
8.8,0.9999902261773914,80.07607431910222
8.808,0.9999901818710604,79.64114389543361
8.815999999999999,0.9999901383756354,79.20590083339262
8.824,0.9999900956826311,78.7703444898523
8.832,0.9999900537833801,78.33447423841794
8.84,0.999990012669039,77.8982894695238
8.847999999999999,0.9999899723305905,77.46178959052962
8.856,0.9999899327588494,77.02497402581702
8.864,0.9999898939444649,76.5878422168855
8.872,0.9999898558779261,76.15039362244784
8.879999999999999,0.9999898185495655,75.7126277185247
8.888,0.9999897819495627,75.27454399853943
8.896,0.99998974606795,74.83614197341232
8.904,0.9999897108946153,74.3974211716539
8.911999999999999,0.9999896764193076,73.95838113945777
8.92,0.9999896426316399,73.51902144079334
8.928,0.9999896095210956,73.07934165749776
8.936,0.9999895770770307,72.63934138936729
8.943999999999999,0.9999895452886793,72.19902025424757
8.952,0.9999895141451591,71.75837788812407
8.96,0.999989483635474,71.31741394521168
8.968,0.9999894537485198,70.87612809804328
8.975999999999999,0.9999894244730879,70.43452003755758
8.984,0.9999893957978722,69.99258947318668
8.992,0.9999893677114694,69.55033613294295
9.0,0.9999893402023886,69.10775976350463
9.008,0.9999893132590524,68.66486013030068
9.016,0.9999892868698033,68.22163701759531
9.024000000000001,0.9999892610229072,67.77809022857159
9.032,0.9999892357065598,67.33421958541375
9.04,0.9999892109088907,66.89002492938884
9.048,0.9999891866179663,66.44550612092763
9.056000000000001,0.999989162821798,66.00066303970466
9.064,0.9999891395083441,65.55549558471706
9.072,0.9999891166655168,65.11000367436229
9.08,0.9999890942811848,64.6641872465152
9.088000000000001,0.9999890723431807,64.21804625860436
9.096,0.9999890508393035,63.77158068768656
9.104,0.9999890297573256,63.324790530520616
9.112,0.9999890090849961,62.87767580364014
9.120000000000001,0.9999889888100462,62.430236543425494
9.128,0.9999889689201946,61.98247280617395
9.136,0.9999889494031516,61.534384668168876
9.144,0.9999889302466255,61.08597222574803
9.152000000000001,0.9999889114383254,60.63723559537059
9.16,0.9999888929659676,60.1881749136827
9.168,0.9999888748172804,59.738790337581555
9.176,0.9999888569800095,59.289082044278715
9.184000000000001,0.999988839441921,58.83905023136212
9.192,0.9999888221908083,58.38869511685624
9.2,0.9999888052144967,57.938016939280914
9.208,0.999988788500848,57.48701595770932
9.216000000000001,0.9999887720377646,57.03569245182423
9.224,0.9999887558131966,56.584046721972776
9.232,0.9999887398151447,56.1320790892194
9.24,0.9999887240316658,55.67978989539797
9.248000000000001,0.9999887084508776,55.22717950316222
9.256,0.9999886930609655,54.77424829603435
9.264,0.9999886778501834,54.320996678451884
9.272,0.9999886628068629,53.86742507581357
9.280000000000001,0.9999886479194149,53.41353393452342
9.288,0.9999886331763365,52.95932372203284
9.296,0.9999886185662147,52.50479492688103
9.304,0.9999886040777308,52.04994805873411
9.312000000000001,0.9999885896996673,51.59478364842252
9.32,0.9999885754209102,51.13930224797624
9.328,0.9999885612304549,50.683504430658225
9.336,0.9999885471174101,50.22739079099649
9.344,0.9999885330710041,49.77096194481448
9.352,0.9999885190805876,49.31421852925845
9.36,0.9999885051356389,48.85716120282468
9.368,0.9999884912257693,48.399790645383014
9.376,0.9999884773407259,47.94210755820023
9.384,0.999988463470398,47.484112663959614
9.392,0.9999884496048201,47.02580670678046
9.4,0.9999884357341773,46.567190452233866
9.408,0.9999884218488088,46.10826468735793
9.416,0.9999884079392124,45.649030220669616
9.424,0.9999883939960499,45.18948788217589
9.432,0.9999883800101498,44.729638523381354
9.44,0.9999883659725125,44.2694830172952
9.448,0.9999883518743135,43.80902225843466
9.456,0.9999883377069088,43.34825716282759
9.464,0.9999883234618382,42.887188668011575
9.472,0.9999883091308289,42.42581773303225
9.48,0.9999882947058001,41.96414533843791
9.488,0.9999882801788662,41.50217248627333
9.496,0.9999882655423423,41.039900200069944
9.504,0.9999882507887453,40.577329524835136
9.512,0.9999882359108,40.11446152703768
9.52,0.9999882209014412,39.651297294592595
9.528,0.9999882057538182,39.187837936841845
9.536,0.9999881904612979,38.72408458453445
9.544,0.9999881750174676,38.260038389802496
9.552,0.9999881594161405,37.795700526136415
9.56,0.9999881436513567,37.33107218835624
9.568,0.9999881277173871,36.86615459258204
9.576,0.9999881116087372,36.40094897620019
9.584,0.9999880953201501,35.93545659782897
9.592,0.9999880788466086,35.4696787372799
9.6,0.9999880621833389,35.00361669551825
9.608,0.9999880453258139,34.5372717946195
9.616,0.999988028269754,34.070645377724695
9.624,0.9999880110111324,33.60373880899179
9.632,0.9999879935461767,33.13655347354602
9.64,0.9999879758713702,32.669090777426085
9.648,0.9999879579834563,32.20135214752928
9.656,0.9999879398794389,31.73333903155256
9.664,0.9999879215565872,31.265052897932428
9.672,0.9999879030124353,30.79649523578077
9.68,0.9999878842447859,30.3276675548195
9.688,0.9999878652517113,29.858571385311063
9.696,0.9999878460315569,29.389208277987905
9.704,0.9999878265829408,28.91957980397749
9.712,0.9999878069047574,28.449687554726506
9.72,0.9999877869961786,27.979533141920566
9.728,0.9999877668566542,27.509118197402966
9.736,0.9999877464859148,27.038444373089067
9.744,0.9999877258839726,26.5675133408796
9.752,0.9999877050511217,26.096326792569627
9.76,0.9999876839879412,25.624886439756494
9.768,0.9999876626952953,25.153194013743267
9.776,0.9999876411743325,24.68125126544126
9.784,0.9999876194264895,24.209059965268107
9.792,0.9999875974534902,23.736621903044718
9.8,0.9999875752573456,23.263938887887907
9.808,0.9999875528403567,22.79101274810194
9.816,0.9999875302051124,22.317845331065637
9.824,0.9999875073544913,21.844438503118454
9.832,0.999987484291661,21.370794149442187
9.84,0.9999874610200786,20.896914173941457
9.847999999999999,0.9999874375434918,20.422800499120115
9.856,0.999987413865936,19.948455065955812
9.864,0.999987389991737,19.47387983377176
9.872,0.9999873659255082,18.999076780105398
9.879999999999999,0.9999873416721521,18.524047900574306
