freq,mag,phase
6.0,0.9999991642432488,143.81480535303592
6.008,0.9999992021531329,143.7661340415104
6.016,0.999999239119002,143.71746094212904
6.024,0.9999992751499437,143.66878605358272
6.032,0.9999993102550083,143.6201093745593
6.04,0.999999344443208,143.57143090374336
6.048,0.9999993777235172,143.52275063981645
6.056,0.9999994101048734,143.47406858145686
6.064,0.9999994415961756,143.4253847273398
6.072,0.9999994722062865,143.37669907613736
6.08,0.9999995019440306,143.3280116265184
6.088,0.999999530818195,143.2793223771487
6.096,0.9999995588375299,143.23063132669097
6.104,0.9999995860107479,143.18193847380468
6.112,0.9999996123465238,143.13324381714614
6.12,0.9999996378534961,143.08454735536873
6.128,0.9999996625402651,143.03584908712241
6.136,0.9999996864153948,142.98714901105436
6.144,0.9999997094874118,142.93844712580835
6.152,0.9999997317648049,142.88974343002516
6.16,0.999999753256027,142.84103792234242
6.168,0.9999997739694928,142.7923306013947
6.176,0.9999997939135811,142.74362146581342
6.184,0.9999998130966329,142.69491051422688
6.192,0.9999998315269526,142.64619774526025
6.2,0.9999998492128077,142.5974831575357
6.208,0.999999866162429,142.5487667496722
6.216,0.9999998823840106,142.50004852028565
6.224,0.9999998978857089,142.45132846798882
6.232,0.9999999126756454,142.40260659139153
6.24,0.9999999267619029,142.3538828891003
6.248,0.9999999401525291,142.30515735971875
6.256,0.9999999528555341,142.25643000184726
6.264,0.9999999648788923,142.2077008140832
6.272,0.9999999762305408,142.1589697950209
6.28,0.9999999869183809,142.11023694325152
6.288,0.9999999969502772,142.06150225736323
6.296,1.0,142.0127657359411
6.304,1.0,141.96402737756702
6.312,1.0,141.91528718082003
6.32,1.0,141.86654514427593
6.328,0.9999999999999999,141.8178012665075
6.336,1.0,141.76905554608447
6.344,1.0000000000000002,141.7203079815736
6.352,1.0,141.6715585715384
6.36,1.0,141.6228073145395
6.368,1.0,141.5740542091344
6.376,0.9999999999999999,141.52529925387753
6.384,1.0,141.47654244732044
6.392,0.9999999999999998,141.42778378801137
6.4,0.9999999999999999,141.37902327449575
6.408,1.0,141.33026090531587
6.416,1.0,141.281496679011
6.424,1.0,141.23273059411744
6.432,1.0,141.18396264916834
6.44,0.9999999999999999,141.13519284269393
6.448,1.0000000000000002,141.08642117322137
6.456,1.0,141.03764763927487
6.464,1.0,140.98887223937544
6.472,0.9999999999999999,140.9400949720413
6.48,0.9999999999999999,140.89131583578757
6.4879999999999995,1.0,140.84253482912627
6.496,0.9999999999999999,140.79375195056653
6.504,1.0,140.7449671986145
6.5120000000000005,1.0,140.6961805717732
6.52,1.0,140.64739206854279
6.5280000000000005,0.9999999999999999,140.5986016874203
6.536,1.0,140.54980942689986
6.5440000000000005,1.0000000000000002,140.50101528547262
6.552,1.0,140.4522192616267
6.5600000000000005,1.0,140.40342135384728
6.568,0.9999999932646164,140.35462156061647
6.5760000000000005,0.9999999846164784,140.3058198804135
6.584,0.9999999755781648,140.25701631171464
6.592,0.9999999661561884,140.20821085299303
6.6,0.9999999563570265,140.15940350271902
6.608,0.9999999461871224,140.11059425935994
6.616,0.9999999356528843,140.06178312138013
6.624,0.9999999247606861,140.01297008724097
6.632,0.9999999135168672,139.9641551554009
6.64,0.9999999019277329,139.91533832431546
6.648,0.9999998899995531,139.86651959243707
6.656,0.9999998777385646,139.8176989582154
6.664,0.9999998651509692,139.76887642009711
6.672,0.9999998522429342,139.72005197652587
6.68,0.9999998390205934,139.67122562594244
6.688,0.999999825490046,139.62239736678464
6.696,0.9999998116573573,139.57356719748742
6.704,0.9999997975285585,139.52473511648273
6.712,0.9999997831096468,139.47590112219956
6.72,0.9999997684065854,139.42706521306408
6.728,0.9999997534253039,139.37822738749952
6.736,0.9999997381716974,139.3293876439261
6.744,0.9999997226516281,139.28054598076127
6.752,0.9999997068709238,139.23170239641942
6.76,0.9999996908353789,139.18285688931215
6.768,0.9999996745507539,139.13400945784812
6.776,0.9999996580227763,139.08516010043306
6.784,0.9999996412571396,139.03630881546985
6.792,0.999999624259504,138.98745560135845
6.8,0.9999996070354963,138.93860045649592
6.808,0.9999995895907094,138.8897433792765
6.816,0.9999995719307043,138.84088436809145
6.824,0.9999995540610073,138.79202342132922
6.832,0.9999995359871119,138.74316053737536
6.84,0.9999995177144789,138.6942957146125
6.848,0.9999994992485358,138.64542895142054
6.856,0.9999994805946771,138.59656024617632
6.864,0.9999994617582635,138.547689597254
6.872,0.9999994427446242,138.4988170030248
6.88,0.999999423559055,138.44994246185703
6.888,0.9999994042068183,138.40106597211624
6.896,0.9999993846931445,138.3521875321651
6.904,0.9999993650232307,138.3033071403634
6.912,0.9999993452022423,138.25442479506813
6.92,0.999999325235311,138.20554049463345
6.928,0.9999993051275368,138.15665423741066
6.936,0.9999992848839869,138.1077660217482
6.944,0.9999992645096961,138.0588758459918
6.952,0.999999244009667,138.0099837084842
6.96,0.9999992233888697,137.96108960756547
6.968,0.9999992026522424,137.91219354157278
6.976,0.9999991818046909,137.8632955088405
6.984,0.9999991608510894,137.81439550770023
6.992,0.999999139796279,137.7654935364807
7.0,0.9999991186450697,137.7165895935079
7.008,0.9999990974022394,137.667683677105
7.016,0.9999990760725347,137.61877578559242
7.024,0.9999990546606684,137.5698659172877
7.032,0.9999990331713243,137.5209540705056
7.04,0.9999990116091526,137.47204024355827
7.048,0.9999989899787727,137.4231244347549
7.056,0.9999989682847722,137.37420664240193
7.064,0.9999989465317074,137.3252868648031
7.072,0.9999989247241028,137.2763651002594
7.08,0.9999989028664522,137.22744134706892
7.088,0.9999988809632174,137.17851560352716
7.096,0.99999885901883,137.12958786792677
7.104,0.999998837037689,137.08065813855768
7.112,0.9999988150241634,137.0317264137071
7.12,0.999998792982591,136.98279269165945
7.128,0.9999987709172784,136.9338569706964
7.136,0.9999987488325013,136.884919249097
7.144,0.9999987267325048,136.8359795251375
7.152,0.9999987046215034,136.78703779709144
7.16,0.9999986825036807,136.73809406322954
7.168,0.9999986603831892,136.68914832182003
7.176,0.9999986382641518,136.64020057112825
7.184,0.9999986161506602,136.59125080941686
7.192,0.9999985940467762,136.5422990349459
7.2,0.9999985719565304,136.49334524597262
7.208,0.9999985498839247,136.4443894407517
7.216,0.9999985278329289,136.39543161753502
7.224,0.9999985058074842,136.34647177457182
7.232,0.999998483811501,136.2975099101087
7.24,0.9999984618488602,136.24854602238952
7.248,0.9999984399234122,136.19958010965553
7.256,0.9999984180389778,136.1506121701453
7.264,0.9999983961993484,136.10164220209475
7.272,0.9999983744082854,136.0526702037371
7.28,0.9999983526695206,136.00369617330304
7.288,0.9999983309867562,135.95472010902054
7.296,0.9999983093636653,135.90574200911487
7.304,0.9999982878038914,135.85676187180883
7.312,0.9999982663110486,135.80777969532247
7.32,0.9999982448887221,135.75879547787324
7.328,0.9999982235404675,135.709809217676
7.336,0.9999982022698117,135.66082091294305
7.344,0.9999981810802525,135.61183056188395
7.352,0.9999981599752588,135.5628381627058
7.36,0.999998138958271,135.51384371361303
7.368,0.9999981180327001,135.46484721280754
7.376,0.9999980972019291,135.41584865848856
7.384,0.9999980764693123,135.36684804885277
7.392,0.9999980558381748,135.3178453820944
7.4,0.9999980353118143,135.26884065640496
7.4079999999999995,0.9999980148935002,135.21983386997348
7.416,0.9999979945864723,135.17082502098646
7.4239999999999995,0.9999979743939439,135.12181410762778
7.432,0.9999979543190994,135.0728011280788
7.4399999999999995,0.9999979343650957,135.02378608051842
7.448,0.9999979145350609,134.9747689631229
7.4559999999999995,0.9999978948320964,134.92574977406605
7.464,0.9999978752592756,134.8767285115192
7.4719999999999995,0.9999978558196438,134.82770517365105
7.48,0.9999978365162194,134.7786797586279
7.4879999999999995,0.9999978173519932,134.72965226461358
7.496,0.9999977983299282,134.68062268976928
7.504,0.9999977794529613,134.63159103225382
7.5120000000000005,0.9999977607240012,134.5825572902236
7.52,0.9999977421459298,134.53352146183244
7.5280000000000005,0.9999977237216027,134.48448354523174
7.536,0.9999977054538479,134.43544353857047
7.5440000000000005,0.9999976873454675,134.38640143999504
7.552,0.9999976693992353,134.33735724764958
7.5600000000000005,0.999997651617901,134.28831095967573
7.568,0.999997634004186,134.23926257421263
7.5760000000000005,0.9999976165607861,134.1902120893971
7.584,0.9999975992903709,134.1411595033635
7.5920000000000005,0.9999975821955835,134.09210481424378
7.6,0.9999975652790419,134.04304802016756
7.6080000000000005,0.999997548543337,133.99398911926198
7.616,0.9999975319910345,133.94492810965184
7.6240000000000006,0.9999975156246752,133.89586498945962
7.632,0.9999974994467731,133.84679975680535
7.640000000000001,0.9999974834598173,133.7977324098068
7.648,0.9999974676662717,133.74866294657926
7.656000000000001,0.9999974520685749,133.69959136523582
7.664,0.9999974366691409,133.65051766388714
7.672,0.9999974214703572,133.60144184064166
7.68,0.9999974064745886,133.5523638936054
7.688,0.9999973916841733,133.5032838208821
7.696,0.9999973771014262,133.4542016205733
7.704,0.999997362728637,133.40511729077812
7.712,0.9999973485680717,133.35603082959352
7.72,0.9999973346219713,133.30694223511412
7.728,0.9999973208925532,133.2578515054323
7.736,0.9999973073820114,133.20875863863824
7.744,0.999997294092515,133.1596636328198
7.752,0.99999728102621,133.1105664860626
7.76,0.999997268185219,133.0614671964502
7.768,0.9999972555716409,133.0123657620638
7.776,0.999997243187552,132.96326218098244
7.784,0.9999972310350044,132.91415645128302
7.792,0.9999972191160282,132.86504857104018
7.8,0.9999972074326305,132.81593853832646
7.808,0.9999971959867954,132.76682635121225
7.816,0.9999971847804852,132.71771200776575
7.824,0.9999971738156389,132.66859550605304
7.832,0.9999971630941741,132.61947684413815
7.84,0.9999971526179863,132.57035602008287
7.848,0.999997142388949,132.52123303194705
7.856,0.9999971324089141,132.47210787778826
7.864,0.9999971226797116,132.42298055566224
7.872,0.9999971132031508,132.37385106362242
7.88,0.9999971039810194,132.32471939972035
7.888,0.9999970950150845,132.2755855620055
7.896,0.9999970863070916,132.22644954852532
7.904,0.9999970778587668,132.1773113573252
7.912,0.9999970696718151,132.12817098644865
7.92,0.9999970617479208,132.07902843393708
7.928,0.999997054088749,132.02988369782992
7.936,0.9999970466959447,131.98073677616478
7.944,0.9999970395711325,131.9315876669772
7.952,0.9999970327159188,131.88243636830092
7.96,0.9999970261318902,131.83328287816758
7.968,0.9999970198206141,131.78412719460712
7.976,0.9999970137836394,131.73496931564745
7.984,0.999997008022496,131.68580923931475
7.992,0.9999970025386962,131.63664696363324
8.0,0.9999969973337333,131.58748248662533
8.008,0.9999969924090832,131.53831580631163
8.016,0.9999969877662042,131.48914692071094
8.024000000000001,0.9999969834065372,131.4399758278403
8.032,0.9999969793315053,131.39080252571495
8.04,0.9999969755425155,131.34162701234834
8.048,0.9999969720409578,131.2924492857523
8.056000000000001,0.9999969688282061,131.24326934393682
8.064,0.9999969659056172,131.1940871849103
8.072,0.9999969632745336,131.1449028066794
8.08,0.9999969609362809,131.0957162072491
8.088000000000001,0.9999969588921697,131.04652738462283
8.096,0.9999969571434963,130.99733633680225
8.104,0.9999969556915417,130.9481430617876
8.112,0.9999969545375726,130.8989475575774
8.120000000000001,0.9999969536828418,130.84974982216866
8.128,0.9999969531285879,130.80054985355684
8.136,0.9999969528760365,130.75134764973592
8.144,0.9999969529264,130.7021432086983
8.152000000000001,0.9999969532808781,130.652936528435
8.16,0.9999969539406578,130.6037276069355
8.168,0.9999969549069144,130.55451644218795
8.176,0.9999969561808111,130.50530303217897
8.184000000000001,0.9999969577635004,130.45608737489394
8.192,0.9999969596561232,130.40686946831676
8.2,0.9999969618598101,130.35764931043005
8.208,0.999996964375682,130.3084268992151
8.216000000000001,0.999996967204849,130.25920223265197
8.224,0.9999969703484127,130.20997530871938
8.232,0.9999969738074662,130.16074612539495
8.24,0.999996977583093,130.1115146806549
8.248000000000001,0.999996981676369,130.0622809724744
8.256,0.9999969860883634,130.01304499882758
8.264,0.999996990820137,129.9638067576872
8.272,0.9999969958727453,129.9145662470251
8.280000000000001,0.9999970012472368,129.865323464812
8.288,0.9999970069446545,129.81607840901768
8.296,0.9999970129660368,129.7668310776108
8.304,0.9999970193124178,129.71758146855905
8.312,0.9999970259848268,129.66832957982928
8.32,0.9999970329842899,129.61907540938742
8.328,0.9999970403118312,129.56981895519849
8.336,0.9999970479684717,129.52056021522665
8.344,0.9999970559552313,129.47129918743533
8.352,0.9999970642731288,129.42203586978715
8.36,0.9999970729231825,129.37277026024404
8.368,0.999997081906411,129.32350235676714
8.376,0.9999970912238347,129.2742321573171
8.384,0.9999971008764751,129.22495965985377
8.392,0.9999971108653558,129.17568486233654
8.4,0.9999971211915043,129.12640776272423
8.408,0.9999971318559517,129.07712835897516
8.416,0.9999971428597342,129.02784664904718
8.424,0.999997154203893,128.97856263089778
8.432,0.9999971658894763,128.92927630248403
8.44,0.9999971779175391,128.8799876617626
8.448,0.9999971902891446,128.8306967066901
8.456,0.999997203005365,128.78140343522264
8.464,0.999997216067283,128.7321078453163
8.472,0.9999972294759912,128.68280993492704
8.48,0.9999972432325954,128.6335097020106
8.488,0.9999972573382132,128.58420714452276
8.496,0.9999972717939769,128.5349022604193
8.504,0.9999972866010335,128.485595047656
8.512,0.999997301760546,128.43628550418887
8.52,0.9999973172736958,128.386973627974
8.528,0.9999973331416813,128.33765941696763
8.536,0.9999973493657217,128.28834286912644
8.544,0.9999973659470571,128.2390239824073
8.552,0.9999973828869496,128.18970275476758
8.56,0.9999974001866853,128.14037918416497
8.568,0.9999974178475746,128.0910532685578
8.576,0.9999974358709551,128.04172500590494
8.584,0.9999974542581926,127.99239439416587
8.592,0.9999974730106812,127.94306143130066
8.6,0.9999974921298469,127.89372611527041
8.608,0.9999975116171482,127.84438844403681
8.616,0.9999975314740784,127.79504841556258
8.624,0.9999975517021656,127.74570602781131
8.632,0.9999975723029768,127.69636127874776
8.64,0.9999975932781185,127.64701416633771
8.648,0.9999976146292386,127.59766468854816
8.656,0.9999976363580285,127.54831284334733
8.664,0.9999976584662258,127.49895862870483
8.672,0.9999976809556155,127.4496020425917
8.68,0.9999977038280317,127.40024308298045
8.688,0.9999977270853622,127.35088174784514
8.696,0.9999977507295484,127.30151803516154
8.704,0.9999977747625889,127.25215194290715
8.712,0.9999977991865407,127.20278346906132
8.72,0.9999978240035252,127.1534126116053
8.728,0.9999978492157255,127.10403936852236
8.736,0.9999978748253949,127.0546637377979
8.744,0.999997900834855,127.00528571741944
8.752,0.9999979272465018,126.95590530537687
8.76,0.9999979540628072,126.90652249966244
8.768,0.9999979812863229,126.85713729827087
8.776,0.9999980089196836,126.80774969919948
8.784,0.9999980369656101,126.7583597004483
8.792,0.9999980654269128,126.70896730002009
8.8,0.9999980943064961,126.65957249592053
8.808,0.9999981236073621,126.61017528615831
8.815999999999999,0.9999981533326128,126.56077566874528
8.824,0.9999981834854569,126.5113736416964
8.832,0.9999982140692123,126.46196920303004
8.84,0.999998245087311,126.41256235076804
8.847999999999999,0.9999982765433038,126.36315308293567
8.856,0.9999983084408643,126.313741397562
8.864,0.9999983407837959,126.26432729267988
8.872,0.9999983735760335,126.21491076632604
8.879999999999999,0.9999984068216521,126.16549181654126
8.888,0.9999984405248707,126.11607044137045
8.896,0.9999984746900584,126.06664663886285
8.904,0.9999985093217401,126.01722040707212
8.911999999999999,0.9999985444246028,125.96779174405636
8.92,0.9999985800035024,125.91836064787846
8.928,0.9999986160634698,125.86892711660602
8.936,0.9999986526097184,125.81949114831156
8.943999999999999,0.9999986896476507,125.77005274107272
8.952,0.9999987271828666,125.72061189297219
8.96,0.9999987652211701,125.67116860209809
8.968,0.9999988037685783,125.62172286654396
8.975999999999999,0.9999988428313304,125.5722746844089
8.984,0.9999988824158937,125.52282405379766
8.992,0.9999989225289769,125.47337097282094
9.0,0.999998963177536,125.42391543959532
9.008,0.9999990043687859,125.37445745224348
9.016,0.9999990461102102,125.32499700889436
9.024000000000001,0.9999990884095729,125.2755341076832
9.032,0.9999991312749275,125.2260687467517
9.04,0.9999991747146305,125.17660092424822
9.048,0.9999992187373523,125.12713063832774
9.056000000000001,0.9999992633520915,125.0776578871521
9.064,0.9999993085681856,125.02818266889005
9.072,0.9999993543953262,124.97870498171736
9.08,0.9999994008435734,124.92922482381697
9.088000000000001,0.9999994479233694,124.87974219337896
9.096,0.999999495645555,124.8302570886008
9.104,0.9999995440213857,124.78076950768727
9.112,0.9999995930625483,124.73127944885063
9.120000000000001,0.9999996427811776,124.68178691031062
9.128,0.9999996931898759,124.63229189029454
9.136,0.9999997443017316,124.58279438703727
9.144,0.9999997961303384,124.5332943987813
9.152000000000001,0.9999998486898174,124.48379192377666
9.16,0.9999999019948373,124.43428696028106
9.168,0.9999999560606372,124.38477950655971
9.176,1.0,124.33526956088532
9.184000000000001,0.9999999999999999,124.2857571215381
9.192,1.0,124.23624218680551
9.2,1.0,124.1867247549822
9.208,1.0,124.1372048243699
9.216000000000001,1.0,124.08768239327722
9.224,1.0,124.03815746001938
9.232,1.0,123.98863002291793
9.24,0.9999999999999999,123.93910008030046
9.248000000000001,1.0,123.88956763050038
9.256,0.9999999999999999,123.84003267185625
9.264,1.0,123.79049520271157
9.272,1.0000000000000002,123.74095522141411
9.280000000000001,1.0,123.69141272631536
9.288,0.9999999999999999,123.64186771576999
9.296,0.9999999999999999,123.59232018813493
9.304,1.0,123.5427701417686
9.312000000000001,1.0,123.49321757503014
9.32,1.0,123.44366248627827
9.328,1.0,123.39410487387022
9.336,0.9999999999999999,123.34454473616042
9.344,1.0,123.29498207149932
9.352,1.0000000000000002,123.2454168782317
9.36,1.0,123.19584915469518
9.368,1.0,123.14627889921829
9.376,1.0,123.09670611011862
9.384,0.9999999999999999,123.04713078570052
9.392,0.9999999999999999,122.9975529242528
9.4,1.0,122.94797252404614
9.408,0.9999999999999999,122.89838958333023
9.416,1.0,122.84880410033063
9.424,1.0,122.7992160732455
9.432,1.0,122.74962550024183
9.44,1.0,122.70003237945141
9.448,1.0,122.65043670896662
9.456,0.9999999999999999,122.60083848683546
9.464,0.9999999999999999,122.5512377110565
9.472,1.0,122.50163437957329
9.48,1.0,122.45202849026818
9.488,1.0,122.40242004095575
9.496,1.0,122.35280902937563
9.504,1.0,122.30319545318468
9.512,0.9999999999999999,122.25357930994858
9.52,1.0,122.20396059713259
9.528,0.9999999999999999,122.15433931209179
9.536,1.0,122.1047154520602
9.544,1.0,122.05508901413928
9.552,1.0,122.00545999528543
9.56,1.0,121.95582839229621
9.568,1.0,121.90619420179608
9.576,1.0,121.8565574202202
9.584,0.9999999999999999,121.80691804379772
9.592,1.0,121.75727606853322
9.6,0.9999999999999999,121.70763149018707
9.608,1.0,121.65798430425403
9.616,1.0,121.60833450594042
9.624,1.0,121.55868209013957
9.632,1.0,121.50902705140531
9.64,1.0,121.45936938392376
9.648,1.0,121.40970908148293
9.656,1.0,121.36004613744028
9.664,1.0,121.31038054468809
9.672,0.9999999999999999,121.26071229561636
9.68,0.9999999999999999,121.2110413820734
9.688,1.0,121.16136779532391
9.696,0.9999999999999999,121.11169152600435
9.704,1.0,121.06201256407574
9.712,1.0,121.0123308987738
9.72,0.9999999999999999,120.96264651855614
9.728,1.0,120.91295941104698
9.736,0.9999999999999999,120.86326956297886
9.744,1.0,120.81357696013214
9.752,1.0,120.76388158727143
9.76,1.0,120.71418342808035
9.768,0.9999999999999999,120.66448246509351
9.776,1.0,120.61477867962748
