freq,mag,phase
6.0,0.9999936798156438,33.54912706234581
6.008,0.9999931494063595,33.26925409889578
6.016,0.999992626823958,32.98918732114154
6.024,0.9999921120167466,32.708928035553086
6.032,0.9999916049330445,32.428477556871485
6.04,0.9999911055211829,32.14783720807519
6.048,0.9999906137295064,31.867008320345395
6.056,0.9999901295063763,31.58599223303065
6.064,0.9999896528001719,31.30479029361074
6.072,0.9999891835592922,31.023403857659577
6.08,0.9999887217321576,30.741834288807574
6.088,0.9999882672672127,30.46008295870287
6.096,0.9999878201129268,30.178151246972092
6.104,0.9999873802177968,29.89604054118013
6.112,0.9999869475303488,29.613752236789082
6.12,0.9999865219991407,29.331287737116543
6.128,0.999986103572763,29.048648453292994
6.136,0.9999856921998413,28.76583580421844
6.144,0.9999852878290385,28.482851216518203
6.152,0.9999848904090562,28.199696124498015
6.16,0.9999844998886374,27.91637197009817
6.168,0.9999841162165676,27.632880202847073
6.176,0.999983739341678,27.349222279813812
6.184,0.9999833692128457,27.06539966556013
6.192,0.9999830057789976,26.78141383209144
6.2,0.9999826489891116,26.497266258807166
6.208,0.9999822987922182,26.21295843245026
6.216,0.9999819551374033,25.928491847055966
6.224,0.9999816179738094,25.64386800389982
6.232,0.9999812872506385,25.35908841144478
6.24,0.9999809629171534,25.074154585287758
6.248,0.9999806449226805,24.78906804810522
6.256,0.9999803332166114,24.50383032959814
6.264,0.9999800277484044,24.218442966436125
6.272,0.9999797284675882,23.932907502200766
6.28,0.9999794353237618,23.647225487328384
6.288,0.9999791482665987,23.361398479051854
6.296,0.9999788672458472,23.075428041341713
6.304,0.9999785922113338,22.789315744846665
6.312,0.9999783231129642,22.50306316683316
6.32,0.9999780599007264,22.21667189112442
6.328,0.9999778025246921,21.930143508038565
6.336,0.9999775509350185,21.643479614326157
6.344,0.9999773050819525,21.356681813106942
6.352,0.9999770649158287,21.06975171380596
6.36,0.9999768303870759,20.782690932088805
6.368,0.9999766014462158,20.495501089796363
6.376,0.9999763780438681,20.208183814878716
6.384,0.9999761601307496,19.92074074132837
6.392,0.9999759476576784,19.633173509112943
6.4,0.9999757405755748,19.345483764106895
6.408,0.9999755388354641,19.05767315802289
6.416,0.9999753423884784,18.769743348342264
6.424,0.9999751511858588,18.48169599824492
6.432,0.9999749651789571,18.19353277653856
6.44,0.9999747843192387,17.90525535758734
6.448,0.999974608558283,17.616865421239684
6.456,0.9999744378477877,17.328364652755663
6.464,0.9999742721395695,17.039754742733663
6.472,0.9999741113855661,16.751037387036426
6.48,0.9999739555378385,16.46221428671646
6.4879999999999995,0.9999738045485733,16.173287147940968
6.496,0.9999736583700849,15.88425768191584
6.504,0.9999735169548162,15.59512760480968
6.5120000000000005,0.9999733802553425,15.305898637676371
6.52,0.9999732482243721,15.01657250637805
6.5280000000000005,0.999973120814749,14.7271509415065
6.536,0.9999729979794548,14.437635678305003
6.5440000000000005,0.9999728796716109,14.14802845658863
6.552,0.9999727658444796,13.858331020664957
6.5600000000000005,0.9999726564514668,13.5685451192533
6.568,0.9999725514461245,13.278672505404373
6.5760000000000005,0.9999724507821517,12.988714936418438
6.584,0.9999723544133969,12.69867417376397
6.592,0.9999722622938596,12.408551982994819
6.6,0.9999721743776933,12.118350133667702
6.608,0.9999720906192061,11.828070399258715
6.616,0.9999720109728633,11.537714557079543
6.624,0.9999719353932894,11.2472843881932
6.632,0.9999718638352699,10.956781677329285
6.64,0.9999717962537529,10.666208212798809
6.648,0.9999717326038511,10.375565786408554
6.656,0.9999716728408438,10.084856193375067
6.664,0.999971616920179,9.794081232238154
6.672,0.999971564797474,9.503242704774047
6.68,0.9999715164285186,9.212342415908077
6.688,0.9999714717692769,8.921382173627089
6.696,0.9999714307758872,8.630363788891335
6.704,0.9999713934046667,8.3392890755461
6.712,0.9999713596121105,8.048159850232938
6.72,0.999971329354895,7.756977932300552
6.728,0.9999713025898789,7.465745143715348
6.736,0.9999712792741058,7.174463308971653
6.744,0.9999712593648045,6.883134255001637
6.752,0.9999712428193914,6.591759811084901
6.76,0.9999712295954728,6.300341808757787
6.768,0.999971219650845,6.008882081722415
6.776,0.999971212943498,5.71738246575541
6.784,0.9999712094316144,5.425844798616415
6.792,0.9999712090735742,5.134270919956315
6.8,0.9999712118279527,4.842662671225233
6.808,0.999971217653526,4.551021895580303
6.816,0.9999712265092687,4.25935043779322
6.824,0.9999712383543591,3.967650144157578
6.832,0.9999712531481775,3.675922862396023
6.84,0.9999712708503091,3.38417044156721
6.848,0.9999712914205456,3.092394731972606
6.856,0.9999713148188863,2.8005975850631
6.864,0.9999713410055401,2.5087808533454976
6.872,0.9999713699409252,2.21694639028885
6.88,0.9999714015856725,1.9250960502306769
6.888,0.9999714359006258,1.6332316882830453
6.896,0.9999714728468434,1.341355160238583
6.904,0.9999715123855988,1.0494683224763628
6.912,0.9999715544783838,0.757573031867723
6.92,0.9999715990869072,0.4656711456820182
6.928,0.9999716461730976,0.173764521492313
6.936,0.9999716956991055,-0.11814498291898198
6.944,0.9999717476273013,-0.4100555096545049
6.952,0.9999718019202799,-0.7019652007963395
6.96,0.9999718585408598,-0.9938721985004557
6.968,0.9999719174520854,-1.2857746450911407
6.976,0.9999719786172268,-1.5776706831553866
6.984,0.9999720419997815,-1.8695584556373233
6.992,0.9999721075634764,-2.16143610593253
7.0,0.9999721752722666,-2.4533017779823774
7.008,0.9999722450903387,-2.7451536163682686
7.016,0.9999723169821101,-3.03698976640581
7.024,0.9999723909122314,-3.3288083742389376
7.032,0.9999724668455857,-3.620607586933898
7.04,0.9999725447472904,-3.912385552573161
7.048,0.999972624582698,-4.204140420349225
7.056,0.9999727063173973,-4.495870340658239
7.064,0.9999727899172134,-4.787573465193563
7.072,0.9999728753482086,-5.079247947039115
7.08,0.9999729625766843,-5.3708919407625775
7.088,0.9999730515691797,-5.662503602508469
7.096,0.9999731422924744,-5.954081090090937
7.104,0.9999732347135882,-6.2456225630864735
7.112,0.9999733287997818,-6.537126182926327
7.12,0.9999734245185581,-6.828590112988739
7.128,0.9999735218376611,-7.120012518690969
7.136,0.9999736207250786,-7.4113915675810365
7.144,0.9999737211490409,-7.70272542942921
7.152,0.9999738230780227,-7.994012276319329
7.16,0.999973926480743,-8.285250282739689
7.168,0.9999740313261656,-8.5764376256738
7.176,0.9999741375834991,-8.867572484690758
7.184,0.9999742452221981,-9.158653042035336
7.192,0.9999743542119637,-9.449677482717751
7.2,0.9999744645227424,-9.74064399460315
7.208,0.9999745761247278,-10.03155076850068
7.216,0.9999746889883606,-10.32239599825228
7.224,0.9999748030843294,-10.613177880821054
7.232,0.9999749183835688,-10.90389461637936
7.24,0.9999750348572625,-11.194544408396434
7.248,0.9999751524768419,-11.485125463725655
7.256,0.9999752712139857,-11.775635992691466
7.264,0.9999753910406218,-12.06607420917577
7.272,0.9999755119289259,-12.356438330704055
7.28,0.9999756338513222,-12.646726578530915
7.288,0.9999757567804837,-12.936937177725346
7.296,0.9999758806893317,-13.227068357255385
7.304,0.9999760055510356,-13.517118350072458
7.312,0.9999761313390143,-13.807085393195115
7.32,0.9999762580269337,-14.09696772779246
7.328,0.9999763855887097,-14.386763599266919
7.336,0.9999765139985047,-14.676471257336662
7.344,0.9999766432307312,-14.966088956117433
7.352,0.999976773260048,-15.255614954203883
7.36,0.999976904061362,-15.545047514750408
7.368,0.9999770356098286,-15.834384905551481
7.376,0.9999771678808491,-16.123625399121366
7.384,0.999977300850073,-16.412767272773387
7.392,0.999977434493396,-16.701808808698484
7.4,0.999977568786961,-16.990748294043474
7.4079999999999995,0.9999777037071556,-17.279584020988423
7.416,0.9999778392306145,-17.568314286823824
7.4239999999999995,0.9999779753342168,-17.85693739402659
7.432,0.999978111995087,-18.145451650336337
7.4399999999999995,0.9999782491905945,-18.43385536883
7.448,0.9999783868983515,-18.722146867997008
7.4559999999999995,0.9999785250962147,-19.010324471812606
7.464,0.9999786637622837,-19.2983865098118
7.4719999999999995,0.9999788028749004,-19.58633131716152
7.48,0.9999789424126478,-19.87415723473318
7.4879999999999995,0.999979082354352,-20.1618626091736
7.496,0.9999792226790782,-20.44944579297633
7.504,0.9999793633661319,-20.73690514455122
7.5120000000000005,0.9999795043950588,-21.0242390282944
7.52,0.9999796457456422,-21.311445814656594
7.5280000000000005,0.9999797873979044,-21.598523880211697
7.536,0.9999799293321039,-21.885471607723755
7.5440000000000005,0.9999800715287365,-22.172287386214187
7.552,0.9999802139685333,-22.458969611027367
7.5600000000000005,0.9999803566324603,-22.745516683896476
7.568,0.9999804995017176,-23.03192701300767
7.5760000000000005,0.9999806425577387,-23.318199013064557
7.584,0.9999807857821891,-23.604331105350894
7.5920000000000005,0.9999809291569662,-23.890321717793647
7.6,0.9999810726641977,-24.1761692850243
7.6080000000000005,0.9999812162862409,-24.461872248440404
7.616,0.9999813600056817,-24.747429056265457
7.6240000000000006,0.999981503805334,-25.03283816360898
7.632,0.9999816476682378,-25.318098032524922
7.640000000000001,0.9999817915776599,-25.603207132070246
7.648,0.9999819355170899,-25.888163938361874
7.656000000000001,0.9999820794702431,-26.172966934633706
7.664,0.9999822234210556,-26.457614611292144
7.672,0.9999823673536858,-26.74210546597153
7.68,0.999982511252512,-27.02643800358823
7.688,0.9999826551021324,-27.31061073639438
7.696,0.9999827988873622,-27.59462218403063
7.704,0.9999829425932341,-27.878470873578244
7.712,0.9999830862049962,-28.162155339610315
7.72,0.9999832297081112,-28.44567412424233
7.728,0.9999833730882548,-28.729025777181825
7.736,0.9999835163313154,-29.01220885577735
7.744,0.999983659423391,-29.29522192506665
7.752,0.99998380235079,-29.578063557823974
7.76,0.9999839451000289,-29.860732334606674
7.768,0.9999840876578306,-30.14322684380104
7.776,0.9999842300111239,-30.425545681667252
7.784,0.9999843721470414,-30.70768745238358
7.792,0.9999845140529195,-30.98965076808985
7.8,0.9999846557162954,-31.271434248930003
7.808,0.9999847971249065,-31.55303652309397
7.816,0.999984938266689,-31.834456226858645
7.824,0.9999850791297763,-32.11569200462814
7.832,0.999985219702498,-32.39674250897325
7.84,0.9999853599733782,-32.67760640066999
7.848,0.9999854999311335,-32.95828234873751
7.856,0.9999856395646726,-33.238769030475126
7.864,0.9999857788630941,-33.51906513149843
7.872,0.9999859178156854,-33.79916934577492
7.88,0.9999860564119204,-34.079080375658464
7.888,0.9999861946414593,-34.35879693192315
7.896,0.9999863324941461,-34.638317733796455
7.904,0.9999864699600073,-34.917641508991345
7.912,0.9999866070292507,-35.196766993737675
7.92,0.9999867436922628,-35.475692932813025
7.928,0.9999868799396089,-35.75441807957234
7.936,0.9999870157620302,-36.03294119597707
7.944,0.9999871511504426,-36.31126105262343
7.952,0.9999872860959351,-36.589376428769825
7.96,0.9999874205897686,-36.867286112363544
7.968,0.9999875546233735,-37.14498890006662
7.976,0.9999876881883485,-37.422483597280966
7.984,0.9999878212764595,-37.69976901817258
7.992,0.9999879538796367,-37.97684398569522
8.0,0.9999880859899746,-38.25370733161298
8.008,0.9999882175997291,-38.5303578965223
8.016,0.9999883487013153,-38.80679452987332
8.024000000000001,0.9999884792873084,-39.08301608998993
8.032,0.9999886093504394,-39.359021444089606
8.04,0.999988738883594,-39.63480946830238
8.048,0.9999888678798121,-39.9103790476888
8.056000000000001,0.9999889963322852,-40.185729076257104
8.064,0.9999891242343545,-40.46085845697996
8.072,0.99998925157951,-40.735766101810356
8.08,0.999989378361388,-41.0104509316965
8.088000000000001,0.9999895045737693,-41.28491187659597
8.096,0.9999896302105787,-41.55914787548947
8.104,0.9999897552658823,-41.83315787639364
8.112,0.9999898797338858,-42.106940836373035
8.120000000000001,0.9999900036089331,-42.38049572155126
8.128,0.9999901268855039,-42.65382150712173
8.136,0.9999902495582131,-42.926917177357524
8.144,0.9999903716218083,-43.199781725620504
8.152000000000001,0.9999904930711679,-43.47241415436945
8.16,0.9999906139013006,-43.744813475167895
8.168,0.9999907341073414,-44.01697870869122
8.176,0.9999908536845523,-44.28890888473262
8.184000000000001,0.9999909726283188,-44.56060304220871
8.192,0.9999910909341492,-44.83206022916427
8.2,0.9999912085976724,-45.10327950277661
8.208,0.9999913256146354,-45.374259929358765
8.216000000000001,0.9999914419809036,-45.645000584362165
8.224,0.9999915576924573,-45.91550055237874
8.232,0.9999916727453901,-46.185758927142466
8.24,0.999991787135908,-46.45577481152982
8.248000000000001,0.9999919008603267,-46.72554731755979
8.256,0.9999920139150706,-46.99507556639315
8.264,0.9999921262966711,-47.26435868833145
8.272,0.9999922380017638,-47.533395822814796
8.280000000000001,0.9999923490270873,-47.80218611841907
8.288,0.9999924593694827,-48.07072873285282
8.296,0.9999925690258894,-48.33902283295345
8.304,0.999992677993346,-48.60706759468242
8.312,0.9999927862689861,-48.87486220312005
8.32,0.9999928938500385,-49.142405852459916
8.328,0.9999930007338242,-49.409697746002045
8.336,0.9999931069177557,-49.676737096146304
8.344,0.9999932123993339,-49.94352312438415
8.352,0.9999933171761481,-50.21005506129092
8.36,0.9999934212458721,-50.47633214651648
8.368,0.9999935246062648,-50.74235362877609
8.376,0.9999936272551672,-51.00811876583999
8.384,0.9999937291904997,-51.27362682452318
8.392,0.999993830410263,-51.53887708067364
8.4,0.9999939309125346,-51.803868819161124
8.408,0.9999940306954664,-52.06860133386423
8.416,0.999994129757285,-52.333073927657956
8.424,0.9999942280962881,-52.59728591239974
8.432,0.9999943257108449,-52.86123660891595
8.44,0.9999944225993916,-53.124925346986714
8.448,0.9999945187604323,-53.38835146533143
8.456,0.9999946141925359,-53.65151431159255
8.464,0.9999947088943346,-53.91441324231987
8.472,0.9999948028645231,-54.17704762295341
8.48,0.9999948961018548,-54.43941682780674
8.488,0.9999949886051427,-54.70152024004864
8.496,0.9999950803732564,-54.96335725168551
8.504,0.9999951714051196,-55.224927263542156
8.512,0.9999952616997105,-55.48622968524298
8.52,0.9999953512560588,-55.747263935191974
8.528,0.9999954400732434,-56.00802944055292
8.536,0.9999955281503926,-56.268525637228365
8.544,0.9999956154866807,-56.52875196983897
8.552,0.999995702081328,-56.788707891701534
8.56,0.9999957879335971,-57.04839286480736
8.568,0.9999958730427937,-57.30780635979952
8.576,0.9999959574082627,-57.56694785595026
8.584,0.9999960410293877,-57.82581684113734
8.592,0.9999961239055893,-58.084412811820705
8.6,0.9999962060363241,-58.34273527301786
8.608,0.999996287421081,-58.6007837382797
8.616,0.9999963680593827,-58.85855772966524
8.624,0.9999964479507806,-59.11605677771646
8.632,0.9999965270948564,-59.373280421432185
8.64,0.999996605491218,-59.63022820824236
8.648,0.9999966831395,-59.88689969398096
8.656,0.99999676003936,-60.14329444285961
8.664,0.9999968361904789,-60.399412027439766
8.672,0.9999969115925583,-60.655252028605446
8.68,0.9999969862453191,-60.91081403553484
8.688,0.9999970601484999,-61.16609764567228
8.696,0.9999971333018552,-61.4211024646991
8.704,0.9999972057051549,-61.675828106505016
8.712,0.9999972773581816,-61.93027419315825
8.72,0.9999973482607287,-62.18444035487619
8.728,0.9999974184126005,-62.43832622999496
8.736,0.9999974878136092,-62.691931464939444
8.744,0.999997556463574,-62.94525571419211
8.752,0.9999976243623192,-63.19829864026254
8.76,0.9999976915096729,-63.45105991365563
8.768,0.9999977579054656,-63.703539212840425
8.776,0.9999978235495283,-63.95573622421787
8.784,0.9999978884416907,-64.20765064208902
8.792,0.9999979525817807,-64.45928216862225
8.8,0.999998015969622,-64.71063051382087
8.808,0.9999980786050329,-64.96169539548985
8.815999999999999,0.9999981404878244,-65.2124765392029
8.824,0.999998201617799,-65.46297367826881
8.832,0.9999982619947492,-65.7131865536977
8.84,0.9999983216184561,-65.9631149141671
8.847999999999999,0.9999983804886872,-66.21275851598789
8.856,0.9999984386051957,-66.46211712306977
8.864,0.9999984959677182,-66.71119050688644
8.872,0.9999985525759741,-66.95997844644091
8.879999999999999,0.999998608429663,-67.20848072823051
8.888,0.999998663528464,-67.4566971462115
8.896,0.999998717872034,-67.70462750176337
8.904,0.9999987714600055,-67.95227160365346
8.911999999999999,0.9999988242919864,-68.19962926800102
8.92,0.9999988763675569,-68.44670031824113
8.928,0.999998927686269,-68.69348458508827
8.936,0.9999989782476446,-68.93998190650015
8.943999999999999,0.9999990280511744,-69.18619212764109
8.952,0.9999990770963156,-69.43211510084528
8.96,0.9999991253824912,-69.67775068557962
8.968,0.999999172909087,-69.923098748407
8.975999999999999,0.9999992196754522,-70.16815916294897
8.984,0.9999992656808957,-70.41293180984835
8.992,0.9999993109246861,-70.65741657673175
9.0,0.9999993554060491,-70.90161335817194
9.008,0.9999993991241664,-71.1455220556502
9.016,0.9999994420781739,-71.38914257751841
9.024000000000001,0.9999994842671602,-71.63247483896095
9.032,0.999999525690165,-71.8755187619566
9.04,0.9999995663461778,-72.11827427524057
9.048,0.9999996062341355,-72.36074131426602
9.056000000000001,0.9999996453529211,-72.60291982116554
9.064,0.9999996837013623,-72.84480974471273
9.072,0.9999997212782301,-73.08641104028379
9.08,0.9999997580822355,-73.32772366981862
9.088000000000001,0.9999997941120302,-73.56874760178204
9.096,0.999999829366203,-73.80948281112504
9.104,0.9999998638432792,-74.04992927924592
9.112,0.999999897541718,-74.29008699395133
9.120000000000001,0.9999999304599114,-74.52995594941704
9.128,0.9999999625961823,-74.76953614614895
9.136,0.9999999939487818,-75.00882759094407
9.144,0.9999999999999999,-75.24783029685123
9.152000000000001,1.0,-75.48654428313176
9.16,1.0,-75.72496957522024
9.168,1.0,-75.9631062046853
9.176,0.9999999999999999,-76.20095420919027
9.184000000000001,1.0,-76.43851363245354
9.192,0.9999999999999998,-76.67578452420936
9.2,0.9999999999999999,-76.91276694016854
9.208,1.0,-77.14946094197882
9.216000000000001,0.9999999999999999,-77.38586659718536
9.224,1.0,-77.62198397919143
9.232,0.9999999999999999,-77.85781316721895
9.24,1.0,-78.09335424626902
9.248000000000001,0.9999999999999999,-78.32860730708227
9.256,0.9999999999999999,-78.56357244609953
9.264,1.0,-78.79824976542254
9.272,0.9999999999999999,-79.03263937277436
9.280000000000001,1.0,-79.26674138145982
9.288,0.9999999999999999,-79.50055591032633
9.296,0.9999999999999999,-79.73408308372449
9.304,0.9999999999999999,-79.96732303146871
9.312000000000001,0.9999999999999999,-80.20027588879785
9.32,0.9999999999999999,-80.4329417963359
9.328,0.9999999999999999,-80.6653209000529
9.336,0.9999999999999999,-80.89741335122578
9.344,0.9999999999999999,-81.12921930639877
9.352,0.9999999999999999,-81.36073892734491
9.36,0.9999999999999999,-81.59197238102641
9.368,1.0,-81.82291983955615
9.376,0.9999999999999999,-82.05358148015824
9.384,1.0,-82.28395748512963
9.392,1.0,-82.51404804180078
9.4,0.9999999999999999,-82.74385334249739
9.408,0.9999999999999999,-82.97337358450122
9.416,1.0,-83.2026089700119
9.424,0.9999999999999999,-83.431559706108
9.432,1.0,-83.66022600470892
9.44,1.0,-83.88860808253612
9.448,1.0,-84.1167061610752
9.456,0.9999999999999999,-84.34452046653723
9.464,1.0,-84.57205122982108
9.472,1.0,-84.79929868647491
9.48,1.0,-85.02626307665862
9.488,0.9999999999999999,-85.2529446451056
9.496,0.9999999999999999,-85.47934364108538
9.504,1.0,-85.70546031836544
9.512,0.9999999999999999,-85.93129493517425
9.52,1.0,-86.1568477541632
9.528,0.9999999999999999,-86.38211904236978
9.536,0.9999999999999999,-86.60710907117985
9.544,1.0,-86.83181811629096
9.552,0.9999999999999998,-87.0562464576749
9.56,1.0,-87.28039437954118
9.568,1.0,-87.50426217029985
9.576,1.0,-87.72785012252523
9.584,0.9999999999999999,-87.95115853291898
9.592,0.9999999999999999,-88.17418770227404
9.6,0.9999999999999999,-88.396937935438
9.608,1.0,-88.61940954127716
9.616,0.9999999999999999,-88.84160283264035
