freq,mag,phase
6.0,1.0000397950086863,173.62995451490465
6.024539648,1.000052866938811,172.10281410337768
6.049079808,1.0000640005716195,170.57591096620064
6.073619456,1.0000738633974438,169.0492757313693
6.098159616,1.0000819782447075,167.52291725833427
6.122699264,1.000088076606722,165.99686999230738
6.147239424,1.000092285122014,164.47113210352
6.171779072,1.000094257454957,162.94575380948345
6.196319232,1.0000941671744703,161.4207306803579
6.22085888,1.000091650326723,159.8961340748497
6.245398528,1.000087190158941,158.3719566424441
6.269938688,1.0000806380596836,156.84822072225896
6.294478336,1.0000721063264548,155.324944910502
6.319018496,1.0000620704495928,153.8021591788367
6.343558144,1.0000505631495678,152.27989083327975
6.368098304,1.0000379361956229,150.75814122676493
6.392637952,1.0000246617624815,149.2369141430801
6.417178112,1.0000109478759418,147.716252141059
6.44171776,0.9999971857766918,146.19613446730153
6.46625792,0.9999836867386577,144.67654243515918
6.490797568,0.9999708962220654,143.1575113360077
6.515337216,0.9999591023112943,141.63900669919335
6.539877376,0.9999484992175885,140.1210483969968
6.564417024,0.9999396872923136,138.60362340654882
6.588957184,0.9999325742479951,137.0866971155887
6.613496832,0.9999275388983447,135.570275749308
6.638036992,0.9999244799214853,134.05431051764043
6.66257664,0.999923775719075,132.53882741988585
6.6871168,0.9999252851063057,131.02374143471505
6.711656448,0.9999290812086532,129.5091013376096
6.736196096,0.9999350297030316,127.9948665667637
6.760736256,0.9999428046203261,126.48101267283324
6.785275904,0.9999524910461866,124.96751713915071
6.809816064,0.9999635533791764,123.45436089665343
6.834355712,0.9999758588668595,121.94154778289875
6.858895872,0.9999891679222078,120.42906395713165
6.88343552,1.000003133073971,118.91689478392469
6.90797568,1.0000170663446994,117.40505080609476
6.932515328,1.0000308365291561,115.89351445948287
6.957054976,1.0000443107582824,114.3822911552344
6.981595136,1.000056699416756,112.87139842959141
7.006134784,1.0000679380244868,111.3608338183614
7.030674944,1.0000777368790168,109.85062528755125
7.055214592,1.0000856824890378,108.34077298815997
7.079754752,1.000091712617722,106.8312920990105
7.1042944,1.0000955217826892,105.32221608093208
7.12883456,1.0000971599877662,103.81353037811003
7.153374208,1.0000964861092805,102.30529268557679
7.177913856,1.000093574137666,100.79749369493905
7.202454016,1.000088458360741,99.29017106360928
7.226993664,1.0000812968696478,97.78334642984294
7.251533824,1.0000721294863528,96.27700681103467
7.276073472,1.0000613918239758,94.77119640675657
7.300613632,1.0000492676289139,93.26592070796441
7.32515328,1.0000360448593324,91.76119180335927
7.34969344,1.0000220987002648,90.25698107687498
7.374233088,1.0000078804135695,88.75334569460922
7.398773248,0.9999936467891635,87.25023740719668
7.423312896,0.9999797835202775,85.74767260563664
7.447852544,0.9999666469307853,84.24563880558277
7.472392704,0.9999546509469706,82.74414155791162
7.496932352,0.9999440789572621,81.24314918466192
7.521472512,0.9999351574560401,79.74263583083376
7.54601216,0.9999282010627909,78.24258903192266
7.57055232,0.9999233487084179,76.74300856858962
7.595091968,0.9999207075472408,75.24382881490016
7.619632128,0.9999205130499891,73.7450395179763
7.644171776,0.9999224840442262,72.24665674209078
7.668711424,0.9999268063207403,70.74859025962668
7.693251584,0.9999334108270612,69.25084170407867
7.717791232,0.9999419232246889,67.75340845568091
7.742331392,0.9999522640529016,66.25623909597675
7.76687104,0.9999640454359219,64.75932285310853
7.7914112,0.9999771077032396,63.262638785403915
7.815950848,0.9999910013679075,61.76619388221829
7.840491008,1.0000054400068505,60.26992818849135
7.865030656,1.0000199746885854,58.77390006412522
7.889570304,1.0000342860077016,57.2780642480354
7.914110464,1.000047898807191,55.78240879345316
7.938650112,1.0000606405745225,54.286970002544656
7.963190272,1.0000720159889884,52.79171005661183
7.98772992,1.0000817170641298,51.29667142078373
8.01227008,1.000089564791726,49.80186404122202
8.036809728,1.0000952779018781,48.30730222215056
8.061349888,1.0000987472870317,46.81298720263285
8.085889536,1.000099937657429,45.318916555622785
8.110429696,1.0000987056669948,43.82514320705707
8.134969344,1.0000950128477055,42.33166978068049
8.159508992,1.0000891785274746,40.83850680472237
8.184049152,1.0000811817347897,39.345677101136204
8.2085888,1.000071200870477,37.85318886933507
8.23312896,1.000059643945027,36.36105513732356
8.257668608,1.0000466171183877,34.86927127083188
8.282208768,1.0000326569874234,33.377873436672154
8.306748416,1.0000180232393765,31.886827592834713
8.331288576,1.0000031344201343,30.396169798826584
8.355828224,0.9999882299193231,28.90584767613417
8.380367872,0.9999739350469334,27.41587870606059
8.404908032,0.9999604525701813,25.926276537102
8.42944768,0.9999482057310928,24.43696287035442
8.45398784,0.9999375614185634,22.947993229779858
8.478527488,0.9999287026915438,21.45928286324189
8.503067648,0.99992196907895,19.970829727367498
8.527607296,0.9999174618212006,18.48261517588948
8.552147456,0.9999153652773058,16.994585443130443
8.576687104,0.9999156964522369,15.506737860219406
8.601227264,0.9999184913039814,14.019033676015976
8.6257664,0.999923621366514,12.531456500031991
8.65030656,0.9999310802289396,11.04396765047057
8.67484672,0.999940489439445,9.556528466171166
8.69938688,0.9999517156714209,8.069128277446971
8.723926016,0.9999645446507154,6.581717376513782
8.748466176,0.9999785537693887,5.094338452528769
8.773006336,0.999993272019328,3.606919401956484
8.797546496,1.0000084956427873,2.119458312032291
8.822085632,1.0000238154906094,0.6319656589811282
8.846625792,1.0000387229056753,-0.8556005112004332
8.871165952,1.0000528089275216,-2.3432014864444923
8.895705088,1.0000659056731815,-3.8308446298922987
8.920245248,1.0000772988264144,-5.318550098950592
8.944785408,1.0000870417462548,-6.806280119663403
8.969325568,1.000094720076627,-8.294046118965246
8.993864704,1.0001000812872212,-9.781822026104898
9.018404864,1.0001031585910194,-11.269586229033969
9.042945024,1.0001036395009109,-12.757342608456018
9.06748416,1.000101638853474,-14.245061613435654
9.09202432,1.0000971128459857,-15.73272455840649
9.11656448,1.000090260732679,-17.220324340878857
9.14110464,1.0000811890977541,-18.7078337309541
9.165643776,1.0000702465107605,-20.195244649021816
9.190183936,1.0000575130275877,-21.68256887408773
9.214724096,1.0000434585819593,-23.169764835525687
9.239264256,1.0000284930736287,-24.656840523908173
9.263803392,1.0000128347160502,-26.14380084862687
9.288343552,0.9999971168106744,-27.630641668681832
9.312883712,0.9999815490167219,-29.11737415035268
9.337422848,0.9999666632493598,-30.60401513103927
9.361963008,0.9999527450754977,-32.09055665009775
9.386503168,0.999940258363182,-33.57703314290851
9.411043328,0.9999295528638634,-35.06345779719849
9.435582464,0.9999208727177047,-36.54988449399677
9.460122624,0.9999144285804703,-38.03627884949387
9.484662784,0.9999104485632766,-39.52272348037332
9.509202944,0.9999089899233597,-41.009199517666325
9.53374208,0.9999101566409366,-42.49577762119266
9.55828224,0.9999138361966157,-43.982485799522486
9.5828224,0.9999200283867242,-45.4693348702992
9.607361536,0.9999286590323646,-46.95635614649229
9.631901696,0.999939308138514,-48.443580697169544
9.656441856,0.9999516977619525,-49.931029369507456
9.680982016,0.9999657211648448,-51.418740114493744
9.705521152,0.9999808380074765,-52.906712755709
9.730061312,0.9999967823668264,-54.394965533799216
9.754601472,1.000013041672967,-55.88349425693871
9.779140608,1.0000291702847839,-57.37233577375602
9.803680768,1.0000447593393718,-58.86147884686571
9.828220928,1.0000593988333062,-60.350924958294804
9.852761088,1.0000727448726094,-61.840654008001266
9.877300224,1.0000845310257673,-63.33067665185848
9.901840384,1.0000942115614313,-64.82097997477425
9.926380544,1.0001016916634127,-66.31152826372545
9.950920704,1.0001066186131278,-67.80233221303416
9.97545984,1.0001089817575421,-69.29334558998191
10.0,1.0001086716202632,-70.78456451140016
10.02454016,1.0001056490599147,-72.27598006112765
10.049079296,1.0001000897905685,-73.76754589608304
10.073619456,1.0000920485452858,-75.25925693338259
10.098159616,1.0000816722587094,-76.75109025615387
10.122699776,1.000069420557715,-78.24303212531775
10.147238912,1.0000553954745985,-79.73508235447143
10.171779072,1.0000400458383483,-81.2272085252836
10.196319232,1.0000237551360749,-82.71941343316111
10.220859392,1.0000070519251139,-84.2116958626935
10.245398528,0.9999901226849529,-85.70404976219069
10.269938688,0.9999736228814324,-87.19648549004962
10.294478848,0.9999580027110724,-88.68901448283417
10.319017984,0.9999435142010932,-90.18166435599147
10.343558144,0.9999305714345628,-91.67440767163221
10.368098304,0.9999196997608117,-93.16729862720126
10.392638464,0.9999108884876855,-94.66034715639458
10.4171776,0.9999046380843117,-96.1535891619242
10.44171776,0.9999009381057661,-97.64703220720754
10.46625792,0.9999000183461887,-99.14071178431071
10.490797056,0.9999018118606602,-100.63467271738504
10.515337216,0.9999063324361405,-102.12891940350684
10.539877376,0.999913419118669,-103.62349272696912
10.564417536,0.9999228827300931,-105.1183927243551
10.588956672,0.9999345157938184,-106.61369430065211
10.613496832,0.9999480088637636,-108.10937072052747
10.638036992,0.9999629324649657,-109.60545131847513
10.662577152,0.999979021345764,-111.10196940127959
10.687116288,0.999995635488152,-112.5989124627483
10.711656448,1.0000126360668078,-114.09630043399268
10.736196608,1.0000293070709587,-115.59413112880047
10.760735744,1.0000453171788666,-117.09239268836194
10.785275904,1.0000602283016604,-118.5910899949696
10.809816064,1.0000735699298087,-120.09020780615022
10.834356224,1.0000851237791046,-121.58972861150582
10.85889536,1.0000944503439015,-123.08962682309577
10.88343552,1.0001013255706657,-124.58991372557526
10.90797568,1.000105541350544,-126.09052609563125
10.93251584,1.0001069614467377,-127.5914490277617
10.957054976,1.0001056541137787,-129.0926997450707
10.981595136,1.000101516569722,-130.59418517370497
11.006135296,1.0000947113560088,-132.09592481612628
11.030674432,1.0000854048508052,-133.5978725717568
11.055214592,1.0000737465406353,-135.1000248631338
11.079754752,1.0000601854780937,-136.60235165079519
11.104294912,1.0000450152987002,-138.10482371091894
11.128834048,1.000028516072197,-139.60745098229685
11.153374208,1.0000112182801455,-141.11019317753448
11.177914368,0.9999936522584717,-142.6130631271184
11.202453504,0.999976118586868,-144.11606045635736
11.226993664,0.9999593054810615,-145.61917314428942
11.251533824,0.9999434504039174,-147.12243330586
11.276073984,0.9999290399882073,-148.62582447641353
11.30061312,0.9999165254020514,-150.12937208738632
11.32515328,0.9999062798265714,-151.63310744331795
11.34969344,0.9998984196868591,-153.1370066166053
11.3742336,0.9998932379929676,-154.64113187454387
11.398772736,0.9998910756406632,-156.1454941390509
11.423312896,0.9998916833581175,-157.65012510730358
11.447853056,0.9998953108505844,-159.15503977019293
11.472392192,0.9999017961644266,-160.66027086899894
11.496932352,0.9999110167532415,-162.16584305140458
11.521472512,0.9999226812778904,-163.67176010173958
11.546012672,0.9999365812589976,-165.17807390596622
11.570551808,0.9999522697543461,-166.68477901869164
11.595091968,0.9999693893522765,-168.19188781095374
11.619632128,0.9999875131136987,-169.6994139992354
11.644172288,1.000006206748852,-171.20737139719174
11.668711424,1.0000249125904264,-172.71574243325892
11.693251584,1.0000431962084908,-174.22453275494922
11.717791744,1.0000605460684737,-175.73372985168888
11.74233088,1.000076534244067,-177.24334010877652
11.76687104,1.0000907024460306,-178.7533152101571
11.7914112,1.0001027361459611,179.73636100264
11.81595136,1.0001121626218137,178.22569746216263
11.840490496,1.0001188635596157,176.71473277920603
11.865030656,1.0001227104503236,175.2034918701827
11.889570816,1.0001233769615607,173.69200573763356
11.914109952,1.0001209927555477,172.18033242946075
11.938650112,1.000115559608042,170.66846776093
11.963190272,1.0001072423811865,169.1564645930572
11.987730432,1.0000962006369059,167.64434817575813
12.012269568,1.0000827120985196,166.13213177036502
12.036809728,1.0000672101559274,164.6198549676905
12.061349888,1.000050002669698,163.1075568498605
12.085890048,1.0000314869060334,161.5952504259288
12.110429184,1.0000122817024093,160.08292313502457
12.134969344,0.9999928196103068,158.5706077578761
12.159509504,0.9999736191970243,157.058296075366
12.18404864,0.9999551246756354,155.5459976511728
12.2085888,0.9999379158808924,154.03371075365604
12.23312896,0.9999224856761891,152.52141480647833
12.25766912,0.9999090067121564,151.00910649272348
12.282208256,0.9998980991319769,149.4967734992439
12.306748416,0.9998900485597046,147.98438194625817
12.331288576,0.9998849290654248,146.4719365640963
12.355827712,0.9998829809912183,144.9593939010832
12.380367872,0.9998842188075885,143.44670896203675
12.404908032,0.9998886824155793,141.93391004029942
12.429448192,0.9998962943399351,140.42093648190823
12.453987328,0.9999066808716828,138.9077783304678
12.478527488,0.9999199717282371,137.3944019748796
12.503067648,0.9999353430008908,135.88079459884955
12.527607808,0.9999527840915796,134.3669512989878
12.552146944,0.9999716109149421,132.8528569430589
12.576687104,0.9999914321829693,131.33850700270676
12.601227264,1.0000117287668433,129.82388892944397
12.6257664,1.0000319938402342,128.30902406148027
12.65030656,1.0000516393264047,126.7938876903584
12.67484672,1.0000701968755505,125.27854757480036
12.69938688,1.00008711083353,123.76297581319875
12.723926016,1.000101947158329,122.2472153497577
12.748466176,1.0001143434873048,120.73128588480938
12.773006336,1.000123853666217,119.21521356907348
12.797546496,1.000130345113733,117.69903994371171
12.822085632,1.0001336143724238,116.18280066827344
12.846625792,1.0001334437009546,114.66653989205764
12.871165952,1.0001299510147315,113.1502741801005
12.895705088,1.0001230388814044,111.63404681323385
12.920245248,1.0001130755641117,110.11790415074915
12.944785408,1.0001001018292397,108.60187390973404
12.969325568,1.0000846824146608,107.08599785473002
12.993864704,1.0000670181524913,105.5702883137851
13.018404864,1.0000475639383066,104.05478119647877
13.042945024,1.0000269327393188,102.53949641766991
13.06748416,1.0000055754498542,101.02444154672524
13.09202432,0.9999839977672368,99.50963311268576
13.11656448,0.9999629184650779,97.99507139542023
13.14110464,0.9999427307822478,96.4807836538345
13.165643776,0.9999241216725099,94.96671572672209
13.190183936,0.9999075273949745,93.45288862260415
13.214724096,0.9998933272259707,91.93930217509393
13.239264256,0.9998820702349444,90.4259058781405
13.263803392,0.9998739046686925,88.91270110876434
13.288343552,0.9998691289583913,87.39965099560241
13.312883712,0.9998679176890655,85.88673327870066
13.337422848,0.999870274838823,84.37391386349562
13.361963008,0.999876180241601,82.86117459006671
13.386503168,0.9998854627436973,81.3484792307696
13.411043328,0.9998980567684697,79.83582027193397
13.435582464,0.9999134611508036,78.32316567419537
13.460122624,0.9999312871825514,76.81048567526588
13.484662784,0.9999512206959603,75.29776030100592
13.509202944,0.9999727681026764,73.78501306307189
13.53374208,0.9999952096575184,72.27219907283427
13.55828224,1.0000180466659885,70.75933227752154
13.5828224,1.0000406690391899,69.24641023978853
13.607361536,1.0000625150009905,67.73345954081378
13.631901696,1.0000830135703356,66.22047559772471
13.656441856,1.0001015828906807,64.70748780796472
13.680982016,1.0001176572954755,63.19450974023155
13.705521152,1.0001308697452789,61.68158174809415
13.730061312,1.0001409042192104,60.16874700133476
13.754601472,1.0001474126763783,58.656020376637876
13.779140608,1.0001502754005325,57.1434535687621
13.803680768,1.0001491810614977,55.63106257534172
13.828220928,1.0001444167617675,54.11890528861903
13.852761088,1.0001359113283061,52.60703857433389
13.877300224,1.0001239315541308,51.095478521921315
13.901840384,1.0001087195377498,49.584271728849586
13.926380544,1.0000906670611363,48.07343958855517
13.950920704,1.000070222624405,46.56301461443604
13.97545984,1.0000479529050026,45.05303210460849
14.0,1.0000243882062065,43.54349315029856
