freq,mag,phase
6.0,1.0000004804022975,-120.78344650749837
6.041025536,0.9999940733672726,-122.91391966241461
6.082051072,0.9999881854727748,-125.04442528468883
6.12307712,0.999982299354333,-127.17498035104538
6.164102656,0.9999766076308491,-129.3055029847512
6.205128192,0.999971216721307,-131.43602966628214
6.246153728,0.9999660216312393,-133.56641753559256
6.287179264,0.9999611712702815,-135.6967269795314
6.328205312,0.9999566470170614,-137.82694927623757
6.369230848,0.9999525130927511,-139.95695696798575
6.410256384,0.9999488980671816,-142.08678859049402
6.45128192,0.9999457068721893,-144.21639724043337
6.492307456,0.9999430540267025,-146.34575484920518
6.533333504,0.9999409223827022,-148.47482330913763
6.57435904,0.9999393611670484,-150.60359036960423
6.615384576,0.9999384467408184,-152.73205503213097
6.656410112,0.9999380853066772,-154.86012250768042
6.697435648,0.999938310482118,-156.9878266411481
6.738461696,0.9999391359886496,-159.11510953916175
6.779487232,0.9999406482649413,-161.24195420506481
6.820512768,0.9999426203554178,-163.36833435015305
6.861538304,0.9999453372885962,-165.4942420660724
6.902564352,0.9999486215778995,-167.61964318961307
6.943589888,0.9999523749990263,-169.7444724916997
6.984615424,0.9999565844754625,-171.86875272213314
7.02564096,0.9999613964726921,-173.99243959431206
7.066666496,0.9999665841045197,-176.11553050944747
7.107692544,0.9999722495149793,-178.2380085975217
7.14871808,0.9999781762375143,179.6401645305434
7.189743616,0.999984303394855,177.51904214317588
7.230769152,0.9999908228552422,175.39859168653305
7.271794688,0.9999974026068462,173.27886322959804
7.312820736,1.0000041932093746,171.15987535043809
7.353846272,1.0000110060495528,169.04164462028731
7.394871808,1.0000178906662458,166.92421221320205
7.435897344,1.0000245190331118,164.8075935758385
7.47692288,1.0000312931876443,162.69178612961034
7.517948928,1.000037606709151,160.57682561141328
7.558974464,1.0000437859561415,158.46273206075293
7.6,1.0000495315722888,156.34952038785278
7.641025536,1.0000549679809803,154.23724911675944
7.682051072,1.0000599849050233,152.12587998634675
7.72307712,1.0000644058071722,150.01545903010654
7.764102656,1.0000684579077954,147.90597426376198
7.805128192,1.0000718239819466,145.7975208441851
7.846153728,1.0000745547779268,143.6900398487538
7.887179264,1.000076730689344,141.58358003967143
7.928205312,1.0000781290858984,139.4781373845469
7.969230848,1.0000789532893914,137.37378335800364
8.010256384,1.000078897500803,135.27046550628464
8.05128192,1.0000782634082064,133.16824058290484
8.092307456,1.0000769464016723,131.06713103940325
8.133333504,1.0000747760569433,128.96711956333849
8.17435904,1.0000719551578334,126.86821617426067
8.215384576,1.0000684747253379,124.77046049524607
8.256410112,1.0000643785179346,122.67385365812721
8.297435648,1.0000596275851594,120.57841183256267
8.338461696,1.000054234477941,118.48413058400827
8.379487232,1.0000483693068851,116.3910398886602
8.420512768,1.0000419367409008,114.29912766322768
8.461538304,1.000035202398752,112.20841846978266
8.502564352,1.000028078785295,110.11889695549606
8.543589888,1.000020645710819,108.0305981650404
8.584615424,1.0000128864473463,105.94350428229838
8.625641472,1.0000050744411486,103.8576117976732
8.666667008,0.999997102209094,101.772932386172
8.707692544,0.9999891399637875,99.68948312186504
8.74871808,0.9999812579902612,97.6072666684494
8.789743616,0.9999735304739439,95.52623358514045
8.830769152,0.9999659946022077,93.44642595187828
8.871794688,0.999958782765364,91.36783317444261
8.912820224,0.9999518689580116,89.29043043451362
8.95384576,0.9999454785190105,87.21425102572306
8.994871296,0.9999395179673487,85.1392517592681
9.035897856,0.9999341669162901,83.06543556035615
9.076923392,0.999929417896389,80.99279732893004
9.117948928,0.9999253640504986,78.9213398132772
9.158974464,0.9999219562219003,76.85104248041004
9.2,0.9999194914051541,74.78188158433088
9.241025536,0.9999176597009428,72.71386540503788
9.282051072,0.9999166281819357,70.64694251628774
9.323076608,0.999916542235637,68.58116663849734
9.364102144,0.9999172419615285,66.51647928727766
9.405128704,0.9999188680492955,64.45286368952377
9.44615424,0.9999211809816484,62.390322390427144
9.487179776,0.999924444826868,60.32883049624138
9.528205312,0.9999285310073673,58.268363893968825
9.569230848,0.9999333028971576,56.208939587789416
9.610256384,0.9999388459729268,54.15050278810164
9.65128192,0.9999451246813593,52.093052728410925
9.692307456,0.9999519781082319,50.03656922029571
9.733332992,0.9999594266188299,47.98105038268059
9.774358528,0.99996734539909,45.92645987622697
9.815385088,0.9999757273212182,43.87277738607501
9.856410624,0.9999845095452142,41.81999989364524
9.89743616,0.9999934916276523,39.768110073668915
9.938461696,1.000002774074751,37.7170738443535
9.979487232,1.0000119859161116,35.66688051087523
10.020512768,1.000021406913471,33.6175323642654
10.061538304,1.0000305714265567,31.568993845292145
10.10256384,1.0000395507844357,29.521242129132247
10.143589376,1.0000483903826503,27.474285105986667
10.184614912,1.0000568864930706,25.428076872387113
10.225641472,1.000064883210195,23.38262169424621
10.266667008,1.000072391934269,21.337895730616136
10.307692544,1.0000792888588363,19.293881720097698
10.34871808,1.00008545397393,17.250576743664272
10.389743616,1.0000909276634877,15.207933792309598
10.430769152,1.0000954974050174,13.165987290523306
10.471794688,1.000099393176232,11.124650916069434
10.512820224,1.0001022359690357,9.083995182273492
10.55384576,1.000104196504089,7.043945340183311
10.594871296,1.0001051741039781,5.004481800541942
10.635897856,1.0001050790972603,2.9656091644480767
10.676923392,1.000104045453929,0.9273282010691192
10.717948928,1.0001019759772978,-1.1103957357979033
10.758974464,1.0000988444416374,-3.1475811300341765
10.8,1.0000948980656856,-5.184236173996982
10.841025536,1.0000898734693502,-7.220394014099543
10.882051072,1.000083909100949,-9.256045942875293
10.923076608,1.0000770425490053,-11.29123836864104
10.964102144,1.00006948347091,-13.325961433616655
11.005128704,1.0000611096791572,-15.360243776873759
11.04615424,1.000052124152719,-17.394113262437397
11.087179776,1.0000424242223245,-19.427550904210328
11.128205312,1.0000323072666928,-21.46063355191962
11.169230848,1.000021631989405,-23.493351274990136
11.210256384,1.0000107804183056,-25.525693565378777
11.25128192,0.9999995914600377,-27.55775323029544
11.292307456,0.9999883614612253,-29.589492167133898
11.333332992,0.9999771425096163,-31.620961944245956
11.374358528,0.9999660393302771,-33.6521744277298
11.415385088,0.9999551223308049,-35.683160338212595
11.456410624,0.9999445079185901,-37.71391796069983
11.49743616,0.9999343650282118,-39.744513605452184
11.538461696,0.9999248261077828,-41.7749509040487
11.579487232,0.999915718321509,-43.80525829727384
11.620512768,0.9999075565891015,-45.83544950424823
11.661538304,0.9999001265605177,-47.865595060868245
11.70256384,0.9998936348503843,-49.89565451237172
11.743589376,0.9998881605738317,-51.92571730556346
11.784614912,0.9998836880983405,-53.95577348692014
11.825641472,0.9998803758752811,-55.9858836309819
11.866667008,0.9998781234595497,-58.0160457807939
11.907692544,0.9998771093017661,-60.04630087122024
11.94871808,0.9998773428997324,-62.076693721820824
11.989743616,0.9998788000716494,-64.10723381643639
12.030769152,0.9998814679851038,-66.13795695896086
12.071794688,0.9998853432353526,-68.16887796029893
12.112820224,0.9998904663886966,-70.20005179083708
12.15384576,0.9998967133592084,-72.23149410649974
12.194871296,0.9999041309429078,-74.26323771936758
12.235897856,0.9999126095569679,-76.29529981172536
12.276923392,0.9999220859686082,-78.3277108944867
12.317948928,0.9999324145444896,-80.36050458774439
12.358974464,0.999943564140103,-82.39370941003459
12.4,0.9999555492900548,-84.42733521247078
12.441025536,0.9999681309198944,-86.4614200343598
12.482051072,0.9999811573836612,-88.49598071695891
12.523076608,0.9999946748234163,-90.53106185534313
12.564102144,1.0000084492838643,-92.56663413354518
12.605128704,1.0000222840471937,-94.60277584611921
12.64615424,1.0000361943459477,-96.63947835295541
12.687179776,1.0000499910591523,-98.67674966940717
12.728205312,1.0000634107044342,-100.7146211899417
12.769230848,1.0000765578543132,-102.75313353329621
12.810256384,1.0000890564505922,-104.79227634377708
12.85128192,1.0001008695698594,-106.83205918825176
12.892307456,1.000111966783516,-108.87249404660801
12.933332992,1.0001221253459152,-110.91362015723242
12.974358528,1.000131210368957,-112.95542549593046
13.015385088,1.0001392575115648,-114.99792312580252
13.056410624,1.0001460026837636,-117.04113094002109
13.09743616,1.000151458240774,-119.08506709896959
13.138461696,1.0001555292922792,-121.12970908246358
13.179487232,1.0001581271078812,-123.17508242504138
13.220512768,1.0001591974939636,-125.221200713572
13.261538304,1.0001588661022185,-127.26804309156066
13.30256384,1.0001569085714457,-129.31563924983533
13.343589376,1.0001532768528545,-131.36399562875974
13.384614912,1.0001482676441245,-133.41308631991808
13.425641472,1.0001417059863182,-135.46294570482667
13.466667008,1.000133595183882,-137.5135643104213
13.507692544,1.0001240988232294,-139.56494901460817
13.54871808,1.0001133365948065,-141.61710247643913
13.589743616,1.0001012307483277,-143.67001902635093
13.630769152,1.0000878492134455,-145.72369402669017
13.671794688,1.0000734815000227,-147.77816239178213
13.712820224,1.0000580919368005,-149.83338784916089
13.75384576,1.000041982991251,-151.88940702688447
13.794871296,1.0000251533254099,-153.94621237820186
13.835897856,1.0000078308150782,-156.00378288405912
13.876923392,0.999990115720144,-158.06215780476617
13.917948928,0.9999722648033329,-160.1213273337433
13.958974464,0.999954339750079,-162.1812839911376
14.0,0.9999365352942677,-164.24204238161795
