freq,mag,phase
6.0,0.9999941305969331,-85.61464324571286
6.008,0.9999952355085654,-86.0166724770225
6.016,0.9999962989971088,-86.41861717582307
6.024,0.9999973217378517,-86.82047623381052
6.032,0.9999983044018143,-87.22224855262077
6.04,0.999999247655715,-87.62393304384993
6.048,1.0,-88.02552862907372
6.056,1.0,-88.42703423986602
6.064,0.9999999999999999,-88.82844881781658
6.072,1.0,-89.22977131454789
6.08,1.0,-89.63100069173115
6.088,0.9999999999999999,-90.03213592110153
6.096,1.0,-90.43317598447246
6.104,1.0,-90.83411987374923
6.112,1.0,-91.23496659094162
6.12,1.0,-91.63571514817582
6.128,0.9999999999999999,-92.03636456770552
6.136,0.9999999999999999,-92.43691388192211
6.144,1.0,-92.83736213336415
6.152,1.0,-93.23770837472607
6.16,1.0,-93.63795166886595
6.168,1.0,-94.03809108881255
6.176,1.0,-94.43812571777174
6.184,1.0,-94.83805464913182
6.192,1.0,-95.23787698646821
6.2,0.9999999999999999,-95.63759184354757
6.208,0.9999999999999998,-96.03719834433072
6.216,0.9999999999999999,-96.43669562297531
6.224,1.0,-96.83608282383713
6.232,1.0,-97.23535910147135
6.24,1.0,-97.63452362063235
6.248,1.0,-98.03357555627339
6.256,0.9999999999999999,-98.432514093545
6.264,1.0,-98.83133842779317
6.272,1.0,-99.23004776455642
6.28,1.0,-99.62864131956225
6.288,0.9999999999999999,-100.02711831872303
6.296,0.9999999999999999,-100.42547799813093
6.304,1.0,-100.82371960405243
6.312,0.9999999999999999,-101.22184239292193
6.32,0.9999999999999999,-101.61984563133463
6.328,0.9999999999999999,-102.01772859603892
6.336,0.9999999999999999,-102.41549057392811
6.344,1.0000000000000002,-102.81313086203107
6.352,0.9999999999999999,-103.21064876750285
6.36,0.9999999999999998,-103.608043607614
6.368,1.0,-104.00531470973975
6.376,1.0,-104.40246141134827
6.384,1.0,-104.79948305998833
6.392,1.0,-105.19637901327636
6.4,1.0,-105.59314863888282
6.408,0.9999999999999999,-105.98979131451813
6.416,1.0,-106.3863064279178
6.424,0.9999999999999999,-106.78269337682687
6.432,1.0,-107.17895156898412
6.44,1.0,-107.57508042210534
6.448,1.0,-107.9710793638661
6.456,1.0,-108.36694783188398
6.464,0.9999999999999998,-108.76268527370033
6.472,1.0000000000000002,-109.15829114676117
6.48,1.0,-109.55376491839785
6.4879999999999995,0.9999999999999999,-109.94910606580682
6.496,1.0,-110.34431407602943
6.504,1.0,-110.73938844593025
6.5120000000000005,1.0,-111.134328682176
6.52,1.0,-111.52913430121279
6.5280000000000005,1.0,-111.92380482924402
6.536,0.9999999999999999,-112.3183398022065
6.5440000000000005,1.0,-112.71273876574745
6.552,1.0,-113.1070012751995
6.5600000000000005,1.0,-113.50112689555677
6.568,1.0,-113.89511520144896
6.5760000000000005,0.9999999999999999,-114.28896577711622
6.584,1.0,-114.68267821638251
6.592,1.0,-115.07625212262955
6.6,0.9999999999999999,-115.46968710876915
6.608,1.0,-115.86298279721622
6.616,0.9999999999999999,-116.25613881986033
6.624,1.0,-116.64915481803769
6.632,1.0,-117.04203044250204
6.64,0.9999997715939811,-117.43476535339556
6.648,0.9999993106518797,-117.82735922021912
6.656,0.9999988472446772,-118.21981172180219
6.664,0.9999983816611998,-118.61212254627235
6.672,0.9999979141856098,-119.00429139102444
6.68,0.9999974450974292,-119.3963179626892
6.688,0.9999969746715558,-119.78820197710174
6.696,0.9999965031782859,-120.17994315926926
6.704,0.9999960308833346,-120.57154124333901
6.712,0.9999955580478572,-120.96299597256517
6.72,0.999995084928471,-121.35430709927589
6.728,0.9999946117772764,-121.7454743848398
6.736,0.9999941388418813,-122.13649759963211
6.744,0.9999936663654218,-122.52737652300061
6.752,0.999993194586587,-122.91811094323097
6.76,0.9999927237396412,-123.30870065751213
6.768,0.999992254054449,-123.69914547190105
6.776,0.9999917857564986,-124.08944520128723
6.784,0.9999913190669265,-124.47959966935719
6.792,0.9999908542025431,-124.86960870855809
6.8,0.9999903913758563,-125.25947216006169
6.808,0.9999899307950996,-125.64918987372755
6.816,0.9999894726642544,-126.03876170806623
6.824,0.9999890171830801,-126.42818753020214
6.832,0.999988564547136,-126.8174672158359
6.84,0.9999881149478123,-127.20660064920692
6.848,0.999987668572354,-127.59558772305527
6.856,0.99998722560389,-127.98442833858348
6.864,0.9999867862214586,-128.3731224054182
6.872,0.9999863506000373,-128.76166984157146
6.88,0.9999859189105698,-129.15007057340173
6.888,0.9999854913199933,-129.53832453557484
6.896,0.9999850679912691,-129.92643167102463
6.904,0.9999846490834091,-130.31439193091333
6.912,0.9999842347515056,-130.7022052745919
6.92,0.9999838251467611,-131.08987166955987
6.928,0.9999834204165162,-131.4773910914254
6.936,0.9999830207042802,-131.86476352386484
6.944,0.99998262614976,-132.2519889585821
6.952,0.9999822368888902,-132.63906739526809
6.96,0.9999818530538643,-133.02599884155964
6.968,0.9999814747731625,-133.41278331299876
6.976,0.9999811021715844,-133.79942083299102
6.984,0.9999807353702788,-134.18591143276458
6.992,0.9999803744867736,-134.57225515132833
7.0,0.9999800196350073,-134.95845203543053
7.008,0.9999796709253606,-135.34450213951666
7.016,0.9999793284646865,-135.73040552568784
7.024,0.9999789923563422,-136.1161622636585
7.032,0.9999786627002205,-136.50177243071437
7.04,0.9999783395927805,-136.88723611166992
7.048,0.9999780231270796,-137.27255339882635
7.056,0.9999777133928066,-137.6577243919285
7.064,0.999977410476311,-138.04274919812275
7.072,0.9999771144606369,-138.4276279319139
7.08,0.9999768254255542,-138.8123607151225
7.088,0.9999765434475907,-139.196947676842
7.096,0.9999762686000639,-139.58138895339553
7.104,0.9999760009531149,-139.96568468829298
7.112,0.9999757405737378,-140.34983503218777
7.12,0.9999754875258158,-140.73384014283369
7.128,0.999975241870149,-141.11770018504149
7.136,0.9999750036644914,-141.50141533063555
7.144,0.9999747729635803,-141.88498575841055
7.152,0.9999745498191702,-142.26841165408788
7.16,0.9999743342800651,-142.6516932102722
7.168,0.9999741263921512,-143.03483062640777
7.176,0.9999739261984292,-143.41782410873503
7.184,0.9999737337390469,-143.80067387024673
7.192,0.9999735490513323,-144.1833801306444
7.2,0.9999733721698271,-144.56594311629462
7.208,0.9999732031263163,-144.9483630601853
7.216,0.9999730419498649,-145.3306402018819
7.224,0.9999728886668472,-145.71277478748362
7.232,0.9999727433009817,-146.09476706957986
7.24,0.9999726058733623,-146.47661730720606
7.248,0.9999724764024923,-146.85832576580026
7.256,0.9999723549043155,-147.23989271715902
7.264,0.9999722413922493,-147.62131843939397
7.272,0.9999721358772188,-148.00260321688768
7.28,0.9999720383676864,-148.38374734025004
7.288,0.9999719488696869,-148.76475110627456
7.296,0.9999718673868587,-149.14561481789454
7.304,0.9999717939204762,-149.52633878413943
7.312,0.9999717284694819,-149.90692332009095
7.32,0.9999716710305199,-150.2873687468397
7.328,0.9999716215979666,-150.6676753914412
7.336,0.9999715801639639,-151.04784358687252
7.344,0.9999715467184512,-151.42787367198864
7.352,0.9999715212491961,-151.80776599147882
7.36,0.9999715037418293,-152.1875208958232
7.368,0.9999714941798723,-152.5671387412494
7.376,0.9999714925447734,-152.9466198896889
7.384,0.9999714988159358,-153.32596470873398
7.392,0.9999715129707527,-153.7051735715943
7.4,0.9999715349846352,-154.08424685705336
7.4079999999999995,0.9999715648310465,-154.46318494942594
7.416,0.9999716024815325,-154.84198823851452
7.4239999999999995,0.9999716479057525,-155.2206571195661
7.432,0.9999717010715097,-155.59919199322994
7.4399999999999995,0.9999717619447849,-155.97759326551355
7.448,0.9999718304897643,-156.35586134774098
7.4559999999999995,0.9999719066688727,-156.73399665650905
7.464,0.9999719904428027,-157.1119996136455
7.4719999999999995,0.9999720817705452,-157.48987064616563
7.48,0.9999721806094213,-157.8676101862304
7.4879999999999995,0.999972286915111,-158.24521867110337
7.496,0.9999724006416848,-158.622696543109
7.504,0.9999725217416328,-159.00004424958956
7.5120000000000005,0.9999726501658948,-159.37726224286382
7.52,0.9999727858638903,-159.75435098018423
7.5280000000000005,0.9999729287835485,-160.13131092369537
7.536,0.9999730788713367,-160.50814254039165
7.5440000000000005,0.9999732360722912,-160.88484630207589
7.552,0.9999734003300458,-161.2614226853173
7.5600000000000005,0.9999735715868608,-161.63787217141024
7.568,0.9999737497836514,-162.01419524633198
7.5760000000000005,0.9999739348600185,-162.39039240070227
7.584,0.9999741267542749,-162.76646412974114
7.5920000000000005,0.9999743254034764,-163.14241093322846
7.6,0.9999745307434468,-163.5182333154621
7.6080000000000005,0.9999747427088098,-163.8939317852178
7.616,0.9999749612330147,-164.2695068557075
7.6240000000000006,0.9999751862483646,-164.6449590445392
7.632,0.9999754176860447,-165.02028887367595
7.640000000000001,0.9999756554761494,-165.39549686939557
7.648,0.9999758995477102,-165.77058356225004
7.656000000000001,0.9999761498287223,-166.14554948702562
7.664,0.999976406246172,-166.52039518270206
7.672,0.9999766687260633,-166.89512119241317
7.68,0.9999769371934455,-167.26972806340666
7.688,0.9999772115724382,-167.6442163470043
7.696,0.9999774917862596,-168.01858659856228
7.704,0.9999777777572509,-168.39283937743184
7.712,0.999978069406903,-168.76697524691963
7.72,0.9999783666558834,-169.1409947742486
7.728,0.9999786694240596,-169.5148985305188
7.736,0.9999789776305263,-169.8886870906683
7.744,0.9999792911936312,-170.26236103343442
7.752,0.9999796100309978,-170.63592094131485
7.76,0.9999799340595525,-171.00936740052913
7.768,0.9999802631955489,-171.3827010009801
7.776,0.9999805973545909,-171.75592233621555
7.784,0.9999809364516591,-172.12903200339
7.792,0.9999812804011338,-172.50203060322673
7.8,0.9999816291168195,-172.87491873997953
7.808,0.9999819825119682,-173.24769702139528
7.816,0.9999823404993038,-173.62036605867596
7.824,0.9999827029910445,-173.99292646644128
7.832,0.9999830698989269,-174.36537886269122
7.84,0.9999834411342294,-174.73772386876882
7.848,0.9999838166077933,-175.10996210932296
7.856,0.9999841962300471,-175.48209421227156
7.864,0.9999845799110287,-175.8541208087645
7.872,0.9999849675604074,-176.22604253314714
7.88,0.9999853590875056,-176.5978600229236
7.888,0.9999857544013219,-176.96957391872056
7.896,0.9999861534105506,-177.34118486425066
7.904,0.999986556023606,-177.71269350627665
7.912,0.999986962148642,-178.08410049457527
7.92,0.999987371693573,-178.45540648190146
7.928,0.9999877845660958,-178.82661212395257
7.936,0.9999882006737096,-179.19771807933284
7.944,0.9999886199237369,-179.56872500951806
7.952,0.9999890422233432,-179.9396335788201
7.96,0.9999894674795583,179.68955554564806
7.968,0.999989895599295,179.31884169400735
7.976,0.9999903264893691,178.94822419364752
7.984,0.9999907600565194,178.57770236926189
7.992,0.9999911962074273,178.20727554288175
8.0,0.9999916348487339,177.83694303391093
8.008,0.9999920758870618,177.4667041591601
8.016,0.9999925192290321,177.09655823288065
8.024000000000001,0.9999929647812827,176.72650456679912
8.032,0.999993412450487,176.35654247015077
8.04,0.9999938621433735,175.98667124971328
8.048,0.9999943137667411,175.61689020984028
8.056000000000001,0.9999947672274785,175.24719865249514
8.064,0.9999952224325822,174.87759587728402
8.072,0.9999956792891709,174.50808118148873
8.08,0.9999961377045077,174.13865386010016
8.088000000000001,0.9999965975860119,173.76931320585115
8.096,0.9999970588412783,173.400058509249
8.104,0.9999975213780942,173.03088905860807
8.112,0.9999979851044536,172.66180414008224
8.120000000000001,0.9999984499285763,172.2928030376975
8.128,0.9999989157589209,171.92388503338387
8.136,0.9999993825042021,171.55504940700737
8.144,0.9999998500734059,171.18629543640193
8.152000000000001,1.0,170.81762239740152
8.16,1.0,170.44902956387142
8.168,0.9999999999999999,170.08051620773966
8.176,1.0,169.71208159902852
8.184000000000001,0.9999999999999999,169.3437250058859
8.192,1.0,168.97544569461616
8.2,1.0,168.60724292971108
8.208,0.9999999999999999,168.23911597388073
8.216000000000001,0.9999999999999999,167.87106408808432
8.224,1.0,167.5030865315606
8.232,0.9999999999999999,167.13518256185813
8.24,1.0,166.76735143486576
8.248000000000001,1.0000000000000002,166.39959240484282
8.256,1.0,166.03190472444925
8.264,0.9999999999999999,165.66428764477502
8.272,0.9999999999999999,165.2967404153703
8.280000000000001,1.0,164.92926228427518
8.288,1.0,164.56185249804906
8.296,1.0,164.1945103017998
8.304,1.0,163.82723493921324
8.312,1.0,163.4600256525826
8.32,1.0,163.0928816828368
8.328,1.0,162.72580226957018
8.336,0.9999999999999999,162.35878665107046
8.344,1.0,161.99183406434818
8.352,1.0,161.6249437451645
8.36,0.9999999999999999,161.2581149280602
8.368,1.0,160.89134684638356
8.376,0.9999999999999999,160.5246387323189
8.384,0.9999999999999999,160.15798981691415
8.392,1.0,159.79139933010939
8.4,1.0,159.42486650076407
8.408,1.0,159.05839055668534
8.416,1.0,158.69197072465488
8.424,1.0,158.32560623045728
8.432,1.0,157.95929629890654
8.44,0.9999999999999999,157.59304015387406
8.448,1.0,157.2268370183151
8.456,1.0,156.8606861142966
8.464,1.0,156.49458666302328
8.472,0.9999999999999998,156.12853788486515
8.48,0.9999999999999998,155.76253899938362
8.488,0.9999999999999999,155.3965892253588
8.496,1.0,155.03068778081524
8.504,1.0,154.66483388304908
8.512,0.9999999999999999,154.2990267486535
8.52,1.0,153.93326559354585
8.528,1.0,153.5675496329929
8.536,1.0,153.20187808163743
8.544,1.0,152.8362501535237
8.552,0.9999999999999999,152.4706650621236
8.56,1.0,152.1051220203619
8.568,1.0,151.7396202406424
8.576,0.9999999999999999,151.3741589348729
8.584,1.0,151.008737314491
8.592,1.0,150.643354590489
8.6,1.0,150.2780099734397
8.608,1.0,149.9127026735208
8.616,1.0,149.54743190054074
8.624,1.0,149.1821968639628
8.632,1.0,148.81699677293062
8.64,1.0,148.4518308362926
8.648,0.9999999999999998,148.0866982626268
8.656,0.9999999999999999,147.72159826026527
8.664,1.0,147.35653003731895
8.672,1.0000000000000002,146.99149280170144
8.68,1.0,146.62648576115419
8.688,1.0,146.26150812326995
8.696,0.9999999999999999,145.89655909551757
8.704,1.0,145.53163788526555
8.712,1.0,145.1667436998067
8.72,0.9999999999999999,144.80187574638117
8.728,0.9999999999999999,144.4370332322014
8.736,1.0,144.07221536447486
8.744,0.9999999999999999,143.70742135042852
8.752,0.9999999999999999,143.34265039733205
8.76,1.0,142.97790171252157
8.768,0.9999999999999999,142.61317450342298
8.776,1.0000000000000002,142.24846797757553
8.784,0.9999999999999999,141.88378134265503
8.792,0.9999999999999999,141.51911380649722
8.8,0.9999999999999999,141.15446457712082
8.808,0.9999999999999999,140.78983286275098
8.815999999999999,0.9999999999999999,140.4252178718418
8.824,1.0,140.0606188130998
8.832,1.0000000000000002,139.69603489550676
8.84,1.0,139.3314653283425
8.847999999999999,1.0,138.9669093212075
8.856,1.0,138.60236608404605
8.864,1.0,138.23783482716863
8.872,0.9999999999999999,137.87331476127466
8.879999999999999,1.0,137.50880509747498
8.888,1.0,137.1443050473142
8.896,0.9999999999999999,136.77981382279356
8.904,1.0,136.415330636393
8.911999999999999,0.9999999999999999,136.05085470109347
8.92,1.0,135.68638523039908
8.928,0.9999999999999999,135.3219214383599
8.936,1.0,134.95746253959356
8.943999999999999,1.0,134.59300774930736
8.952,1.0,134.22855628332053
8.96,0.9999999999999999,133.86410735808627
8.968,0.9999999999999999,133.49966019071363
8.975999999999999,0.9999999999999999,133.1352139989893
8.984,1.0,132.7707680013994
8.992,0.9999999999999999,132.40632141715176
9.0,1.0,132.04187346619722
9.008,0.9999999999999999,131.67742336925133
9.016,0.9999999999999999,131.31297034781616
9.024000000000001,1.0,130.94851362420212
9.032,0.9999999999999999,130.58405242154925
9.04,0.9999999999999999,130.21958596384871
9.048,1.0000000000000002,129.85511347596434
9.056000000000001,1.0,129.49063418365432
9.064,1.0,129.1261473135925
9.072,1.0000000000000002,128.76165209338933
9.08,1.0,128.39714775161363
9.088000000000001,0.9999999999999999,128.03263351781396
9.096,1.0,127.66810862253956
9.104,1.0,127.30357229736163
9.112,0.9999999999999999,126.93902377489447
9.120000000000001,1.0,126.57446228881689
9.128,1.0,126.20988707389311
9.136,1.0,125.84529736599367
9.144,0.9999999999999999,125.4806924021166
9.152000000000001,1.0,125.11607142040872
9.16,1.0,124.7514336601861
9.168,1.0,124.38677836195527
9.176,1.0000000000000002,124.02210476743403
9.184000000000001,1.0,123.65741211957241
9.192,0.9999999999999999,123.29269966257361
9.2,1.0,122.92796664191444
9.208,1.0,122.5632123043663
9.216000000000001,0.9999999999999999,122.1984358980162
9.224,1.0,121.83363667228713
9.232,1.0,121.46881387795882
9.24,1.0,121.10396676718845
9.248000000000001,1.0,120.73909459353132
9.256,1.0,120.37419661196166
9.264,1.0,120.00927207889274
9.272,0.9999999999999999,119.64432025219773
9.280000000000001,0.9999999999999999,119.27934039123033
9.288,1.0,118.91433175684533
9.296,1.0,118.54929361141862
9.304,1.0,118.18422521886814
9.312000000000001,1.0,117.81912584467429
9.32,0.9999999999999999,117.45399475590025
9.328,0.9999999999999999,117.08883122121229
9.336,1.0,116.72363451090017
9.344,1.0,116.35840389689791
9.352,1.0,115.99313865280345
9.36,0.9999999999999999,115.6278380538997
9.368,1.0,115.26250137717415
9.376,1.0,114.89712790133973
9.384,0.9999999999999999,114.53171690685461
9.392,1.0,114.16626767594293
9.4,0.9999999999999999,113.80077949261445
9.408,1.0,113.43525164268543
9.416,1.0,113.06968341379803
9.424,1.0,112.70407409544138
9.432,0.9999999999999998,112.33842297897083
9.44,1.0,111.97272935762891
9.448,0.9999999999999999,111.60699252656471
9.456,1.0,111.24121178285469
9.464,0.9999999999999999,110.87538642552214
9.472,1.0,110.50951575555774
9.48,1.0,110.14359907593922
9.488,1.0,109.77763569165182
9.496,0.9999999999999999,109.4116249097078
9.504,1.0,109.04556603916704
9.512,1.0,108.67945839115643
9.52,1.0,108.31330127889045
9.528,0.9999999999999999,107.94709401769047
9.536,1.0,107.58083592500542
9.544,1.0,107.214526320431
9.552,1.0,106.8481645257303
9.56,0.9999999999999999,106.481749864853
9.568,1.0,106.11528166395594
9.576,1.0,105.74875925142231
9.584,1.0,105.38218195788225
9.592,1.0,105.0155491162319
9.6,1.0,104.64886006165395
9.608,0.9999999999999998,104.28211413163683
9.616,1.0,103.91531066599508
9.624,1.0,103.54844900688856
9.632,0.9999999999999999,103.18152849884278
9.64,1.0000000000000002,102.81454848876808
9.648,1.0,102.44750832597998
9.656,1.0,102.08040736221821
9.664,1.0,101.71324495166711
9.672,0.9999999999999999,101.34602045097466
9.68,1.0,100.97873321927278
9.688,1.0,100.61138261819636
9.696,1.0,100.24396801190348
9.704,0.9999999999999999,99.87648876709449
9.712,1.0,99.50894425303214
9.72,1.0,99.14133384156061
9.728,1.0,98.77365690712566
9.736,0.9999999999999998,98.40591282679358
9.744,0.9999999999999999,98.03810098027132
9.752,1.0,97.67022074992545
9.76,0.9999999999999999,97.3022715208021
9.768,0.9999999999999999,96.934252680646
9.776,0.9999999999999999,96.5661636199205
9.784,0.9999999999999999,96.1980037318263
9.792,1.0,95.8297724123216
9.8,0.9999999999999999,95.46146906014079
9.808,1.0,95.09309307681443
9.816,1.0,94.7246438666881
9.824,0.9999999999999999,94.35612083694217
9.832,0.9999999999999998,93.98752339761062
9.84,0.9999999999999999,93.61885096160088
9.847999999999999,1.0,93.25010294471257
9.856,0.9999999999999999,92.8812787656569
9.864,1.0,92.51237784607613
9.872,0.9999999999999999,92.14339961056254
9.879999999999999,1.0,91.7743434866774
9.888,1.0,91.40520890497028
9.896,1.0,91.03599529899837
9.904,0.9999999999999999,90.66670210534532
9.911999999999999,1.0000000000000002,90.29732876364011
9.92,1.0,89.92787471657628
9.928,1.0,89.55833940993105
9.936,1.0,89.18872229258417
9.943999999999999,1.0,88.81902281653652
9.952,1.0,88.44924043692939
9.96,1.0,88.07937461206328
9.968,1.0,87.70942480341674
9.975999999999999,1.0,87.33939047566487
9.984,1.0000000000000002,86.96927109669831
9.992,1.0,86.59906613764208
10.0,0.9999999999999999,86.22877507287417
10.008,0.9999999999999999,85.85839738004391
10.016,0.9999999999999999,85.48793254009081
10.024000000000001,1.0000000000000002,85.1173800372633
10.032,1.0,84.74673935913707
10.04,1.0,84.37600999663334
