freq,mag,phase
6.0,0.9999944864566473,94.64353257071593
6.008,0.9999947677324718,94.50925835130515
6.016,0.9999950420709623,94.37490280892393
6.024,0.9999953095664471,94.24046584979945
6.032,0.9999955703124388,94.10594738041468
6.04,0.9999958244016391,93.97134730750996
6.048,0.9999960719259435,93.8366655380847
6.056,0.9999963129764443,93.70190197939885
6.064,0.9999965476434356,93.5670565389747
6.072,0.9999967760164173,93.43212912459832
6.08,0.9999969981840992,93.29711964432128
6.088,0.9999972142344055,93.1620280064623
6.096,0.9999974242544785,93.02685411960874
6.104,0.9999976283306827,92.89159789261852
6.112,0.9999978265486101,92.7562592346214
6.12,0.9999980189930829,92.62083805502093
6.128,0.9999982057481582,92.48533426349591
6.136,0.999998386897133,92.34974777000214
6.144,0.9999985625225464,92.21407848477402
6.152,0.9999987327061852,92.07832631832625
6.16,0.9999988975290892,91.9424911814555
6.168,0.9999990570715526,91.80657298524197
6.176,0.9999992114131295,91.67057164105125
6.184,0.9999993606326384,91.53448706053585
6.192,0.9999995048081661,91.39831915563691
6.2,0.9999996440170712,91.2620678385859
6.208,0.9999997783359885,91.12573302190633
6.216,0.9999999078408339,90.98931461841538
6.224,1.0,90.85281254122565
6.232,0.9999999999999999,90.71622670374683
6.24,0.9999999999999999,90.57955701968741
6.248,1.0,90.4428034030564
6.256,0.9999999999999998,90.30596576816502
6.264,1.0,90.16904402962841
6.272,1.0,90.03203810236737
6.28,1.0,89.89494790161005
6.288,1.0,89.75777334289374
6.296,0.9999999999999999,89.6205143420665
6.304,1.0,89.48317081528899
6.312,1.0,89.3457426790361
6.32,0.9999999999999999,89.20822985009885
6.328,1.0,89.07063224558593
6.336,1.0000000000000002,88.93294978292565
6.344,1.0,88.79518237986751
6.352,1.0,88.65732995448406
6.36,1.0,88.51939242517268
6.368,1.0,88.38136971065727
6.376,1.0,88.24326172999001
6.384,0.9999999999999999,88.10506840255319
6.392,1.0,87.96678964806097
6.4,0.9999999999999999,87.82842538656111
6.408,1.0,87.68997553843677
6.416,1.0,87.55144002440836
6.424,1.0,87.41281876553518
6.432,1.0,87.27411168321738
6.44,1.0,87.13531869919761
6.448,1.0,86.99643973556289
6.456,0.9999999999999999,86.85747471474642
6.464,0.9999999999999998,86.71842355952933
6.472,1.0,86.57928619304253
6.48,1.0,86.4400625387685
6.4879999999999995,1.0,86.30075252054314
6.496,1.0,86.16135606255747
6.504,0.9999999999999999,86.02187308935964
6.5120000000000005,1.0,85.88230352585657
6.52,0.9999999999999999,85.74264729731591
6.5280000000000005,0.9999999999999999,85.60290432936776
6.536,0.9999999999999999,85.46307454800663
6.5440000000000005,0.9999999999999999,85.32315787959308
6.552,1.0,85.18315425085584
6.5600000000000005,1.0,85.04306358889335
6.568,1.0,84.90288582117586
6.5760000000000005,1.0,84.76262087554707
6.584,0.9999999999999998,84.62226868022618
6.592,0.9999999999999999,84.48182916380956
6.6,1.0,84.34130225527272
6.608,1.0,84.20068788397215
6.616,1.0,84.05998597964715
6.624,0.9999999999999999,83.91919647242176
6.632,1.0,83.77831929280657
6.64,1.0,83.6373543717006
6.648,0.9999999999999999,83.49630164039317
6.656,1.0,83.35516103056587
6.664,1.0,83.21393247429428
6.672,1.0,83.07261590405
6.68,1.0,82.93121125270243
6.688,1.0,82.78971845352075
6.696,1.0,82.64813744017572
6.704,1.0,82.50646814674165
6.712,0.9999999999999999,82.36471050769828
6.72,1.0,82.22286445793262
6.728,0.9999999999999999,82.08092993274093
6.736,1.0,81.9389068678306
6.744,1.0,81.79679519932203
6.752,1.0,81.65459486375056
6.76,1.0,81.51230579806841
6.768,1.0,81.36992793964653
6.776,0.9999999999999999,81.22746122627659
6.784,1.0,81.08490559617285
6.792,1.0,80.94226098797408
6.8,1.0,80.79952734074551
6.808,1.0,80.65670459398076
6.816,0.9999999999999999,80.51379268760374
6.824,1.0,80.3707915619706
6.832,0.9999999999999999,80.22770115787166
6.84,1.0,80.08452141653333
6.848,0.9999999999999999,79.94125227962009
6.856,0.9999999999999999,79.79789368923635
6.864,1.0,79.65444558792849
6.872,0.9999999999999999,79.51090791868674
6.88,0.9999999943277939,79.36728062494714
6.888,0.9999999257799742,79.2235636505935
6.896,0.999999856663981,79.0797569399593
6.904,0.999999787008582,78.93586043782969
6.912,0.9999997168421597,78.79187408944347
6.92,0.9999996461927122,78.64779784049497
6.928,0.9999995750878576,78.50363163713602
6.936,0.9999995035548378,78.35937542597802
6.944,0.9999994316205206,78.21502915409368
6.952,0.999999359311405,78.07059276901923
6.96,0.9999992866536228,77.92606621875622
6.968,0.9999992136729431,77.78144945177347
6.976,0.9999991403947748,77.6367424170092
6.984,0.9999990668441705,77.49194506387283
6.992,0.99999899304583,77.34705734224703
7.0,0.9999989190241027,77.20207920248966
7.008,0.9999988448029915,77.05701059543576
7.016,0.9999987704061573,76.91185147239952
7.024,0.9999986958569189,76.76660178517628
7.032,0.9999986211782603,76.62126148604442
7.04,0.9999985463928311,76.47583052776744
7.048,0.9999984715229507,76.33030886359587
7.056,0.9999983965906118,76.18469644726929
7.064,0.9999983216174829,76.03899323301829
7.072,0.9999982466249122,75.89319917556644
7.08,0.9999981716339305,75.74731423013229
7.088,0.9999980966652536,75.60133835243136
7.096,0.9999980217392879,75.45527149867807
7.104,0.9999979468761295,75.30911362558786
7.112,0.9999978720955716,75.16286469037898
7.12,0.9999977974171049,75.01652465077464
7.128,0.9999977228599215,74.87009346500491
7.136,0.9999976484429178,74.72357109180878
7.144,0.9999975741846983,74.57695749043604
7.152,0.9999975001035775,74.43025262064936
7.16,0.9999974262175836,74.28345644272626
7.168,0.999997352544462,74.1365689174611
7.176,0.9999972791016773,73.98959000616703
7.184,0.9999972059064168,73.84251967067802
7.192,0.9999971329755938,73.69535787335086
7.2,0.9999970603258501,73.54810457706711
7.208,0.9999969879735588,73.40075974523516
7.216,0.9999969159348281,73.2533233417921
7.224,0.9999968442255034,73.10579533120588
7.232,0.9999967728611703,72.95817567847715
7.24,0.9999967018571582,72.81046434914134
7.248,0.9999966312285421,72.66266130927058
7.256,0.9999965609901471,72.5147665254758
7.264,0.9999964911565488,72.36677996490863
7.272,0.9999964217420787,72.2187015952634
7.28,0.9999963527608254,72.07053138477916
7.288,0.9999962842266377,71.92226930224169
7.296,0.9999962161531283,71.7739153169854
7.304,0.9999961485536754,71.62546939889543
7.312,0.9999960814414255,71.47693151840959
7.32,0.9999960148292976,71.32830164652032
7.328,0.9999959487299839,71.17957975477673
7.336,0.9999958831559546,71.03076581528654
7.344,0.9999958181194587,70.88185980071813
7.352,0.9999957536325274,70.73286168430243
7.36,0.9999956897069778,70.58377143983505
7.368,0.9999956263544142,70.4345890416781
7.376,0.9999955635862305,70.28531446476224
7.384,0.9999955014136148,70.13594768458877
7.392,0.9999954398475495,69.98648867723143
7.4,0.9999953788988158,69.83693741933851
7.4079999999999995,0.9999953185779953,69.68729388813475
7.416,0.9999952588954728,69.53755806142333
7.4239999999999995,0.9999951998614393,69.38772991758799
7.432,0.9999951414858935,69.23780943559471
7.4399999999999995,0.999995083778645,69.08779659499403
7.448,0.9999950267493171,68.93769137592274
7.4559999999999995,0.9999949704073482,68.78749375910601
7.464,0.9999949147619954,68.63720372585925
7.4719999999999995,0.9999948598223366,68.48682125809026
7.48,0.999994805597272,68.33634633830091
7.4879999999999995,0.9999947520955278,68.18577894958943
7.496,0.9999946993256577,68.03511907565208
7.504,0.9999946472960464,67.88436670078536
7.5120000000000005,0.99999459601491,67.73352180988772
7.52,0.9999945454903005,67.58258438846178
7.5280000000000005,0.9999944957301068,67.43155442261602
7.536,0.999994446742057,67.28043189906697
7.5440000000000005,0.999994398533721,67.12921680514097
7.552,0.9999943511125131,66.97790912877628
7.5600000000000005,0.9999943044856939,66.82650885852482
7.568,0.9999942586603724,66.6750159835544
7.5760000000000005,0.999994213643508,66.52343049365035
7.584,0.9999941694419139,66.3717523792177
7.5920000000000005,0.9999941260622569,66.21998163128292
7.6,0.9999940835110628,66.0681182414961
7.6080000000000005,0.9999940417947157,65.91616220213253
7.616,0.9999940009194614,65.76411350609503
7.6240000000000006,0.9999939608914091,65.61197214691549
7.632,0.9999939217165346,65.45973811875713
7.640000000000001,0.9999938834006801,65.30741141641612
7.648,0.9999938459495584,65.1549920353237
7.656000000000001,0.9999938093687543,65.002479971548
7.664,0.9999937736637258,64.84987522179601
7.672,0.9999937388398071,64.69717778341537
7.68,0.9999937049022103,64.54438765439639
7.688,0.9999936718560265,64.3915048333739
7.696,0.9999936397062297,64.23852931962914
7.704,0.9999936084576759,64.08546111309164
7.712,0.9999935781151081,63.93230021434116
7.72,0.9999935486831558,63.77904662460947
7.728,0.9999935201663378,63.62570034578234
7.736,0.999993492569064,63.47226138040137
7.744,0.999993465895637,63.3187297316658
7.752,0.9999934401502546,63.1651054034345
7.76,0.9999934153370104,63.01138840022775
7.768,0.999993391459896,62.857578727229054
7.776,0.999993368522804,62.703676390287136
7.784,0.9999933465295278,62.54968139591766
7.792,0.9999933254837642,62.39559375130512
7.8,0.9999933053891154,62.2414134643047
7.808,0.9999932862490897,62.08714054344406
7.816,0.999993268067105,61.93277499792523
7.824,0.9999932508464868,61.77831683762637
7.832,0.9999932345904751,61.62376607310367
7.84,0.9999932193022208,61.46912271559306
7.848,0.9999932049847908,61.31438677701211
7.856,0.9999931916411674,61.15955826996181
7.864,0.999993179274251,61.00463720772837
7.872,0.9999931678868617,60.849623604285014
7.88,0.9999931574817398,60.69451747429372
7.888,0.9999931480615482,60.5393188331071
7.896,0.999993139628873,60.38402769677013
7.904,0.9999931321862262,60.228644082021916
7.912,0.9999931257360458,60.073168006297436
7.92,0.9999931202806974,59.91759948772938
7.928,0.9999931158224765,59.76193854514983
7.936,0.9999931123636091,59.606185198092106
7.944,0.9999931099062523,59.45033946679232
7.952,0.9999931084524982,59.29440137219137
7.96,0.9999931080043714,59.13837093593645
7.968,0.9999931085638338,58.98224818038288
7.976,0.9999931101327832,58.82603312859589
7.984,0.999993112713057,58.6697258043521
7.992,0.9999931163064303,58.51332623214153
8.0,0.9999931209146206,58.35683443716904
8.008,0.9999931265392864,58.200250445356204
8.016,0.9999931331820285,58.04357428334283
8.024000000000001,0.9999931408443935,57.886805978488816
8.032,0.9999931495278717,57.72994555887574
8.04,0.9999931592338994,57.57299305330844
8.048,0.9999931699638621,57.41594849131673
8.056000000000001,0.999993181719092,57.25881190315723
8.064,0.9999931945008712,57.10158331981473
8.072,0.9999932083104321,56.944262773003956
8.08,0.9999932231489589,56.78685029517117
8.088000000000001,0.9999932390175872,56.62934591949584
8.096,0.9999932559174071,56.47174967989226
8.104,0.999993273849462,56.31406161101102
8.112,0.9999932928147508,56.156281748240716
8.120000000000001,0.999993312814228,55.998410127709576
8.128,0.9999933338488053,55.840446786287
8.136,0.9999933559193522,55.68239176158502
8.144,0.999993379026696,55.524245091959976
8.152000000000001,0.9999934031716242,55.366006816514144
8.16,0.9999934283548837,55.20767697509715
8.168,0.9999934545771826,55.04925560830754
8.176,0.99999348183919,54.8907427574943
8.184000000000001,0.9999935101415385,54.73213846475848
8.192,0.9999935394848222,54.57344277295461
8.2,0.9999935698696001,54.414655725692185
8.208,0.9999936012963944,54.255777367337174
8.216000000000001,0.9999936337656934,54.09680774301363
8.224,0.9999936672779501,53.93774689860507
8.232,0.9999937018335844,53.77859488075583
8.24,0.9999937374329825,53.61935173687267
8.248000000000001,0.9999937740764977,53.46001751512626
8.256,0.9999938117644517,53.30059226445254
8.264,0.9999938504971343,53.141076034554075
8.272,0.9999938902748043,52.98146887590157
8.280000000000001,0.9999939310976899,52.82177083973532
8.288,0.9999939729659884,52.661981978066606
8.296,0.9999940158798682,52.50210234367891
8.304,0.9999940598394685,52.34213199012943
8.312,0.9999941048448986,52.182070971750576
8.32,0.9999941508962399,52.02191934365102
8.328,0.9999941979935457,51.86167716171739
8.336,0.9999942461368414,51.70134448261527
8.344,0.9999942953261243,51.54092136379085
8.352,0.9999943455613652,51.38040786347197
8.36,0.9999943968425079,51.219804040669665
8.368,0.9999944491694688,51.059109955179174
8.376,0.9999945025421388,50.89832566758159
8.384,0.999994556960382,50.73745123924477
8.392,0.9999946124240365,50.57648673232486
8.4,0.9999946689329154,50.41543220976741
8.408,0.9999947264868053,50.25428773530869
8.416,0.9999947850854667,50.09305337347682
8.424,0.9999948447286368,49.93172918959313
8.432,0.9999949054160256,49.770315249773205
8.44,0.9999949671473192,49.60881162092823
8.448,0.9999950299221777,49.44721837076601
8.456,0.9999950937402364,49.285535567792344
8.464,0.9999951586011064,49.12376328131196
8.472,0.9999952245043732,48.961901581429856
8.48,0.999995291449597,48.79995053905227
8.488,0.9999953594363138,48.63791022588796
8.496,0.9999954284640339,48.4757807144491
8.504,0.9999954985322429,48.31356207805268
8.512,0.9999955696404016,48.15125439082124
8.52,0.9999956417879449,47.988857727684255
8.528,0.9999957149742827,47.82637216437896
8.536,0.9999957891987995,47.66379777745154
8.544,0.9999958644608542,47.501134644258066
8.552,0.9999959407597798,47.33838284296562
8.56,0.9999960180948836,47.17554245255313
8.568,0.9999960964654466,47.01261355281264
8.576,0.9999961758707239,46.849596224349916
8.584,0.9999962563099429,46.68649054858582
8.592,0.999996337782306,46.52329660775684
8.6,0.9999964202869869,46.36001448491648
8.608,0.9999965038231333,46.1966442639357
8.616,0.9999965883898639,46.03318602950433
8.624,0.9999966739862707,45.86963986713146
8.632,0.9999967606114165,45.706005863146785
8.64,0.9999968482643368,45.54228410470109
8.648,0.9999969369440364,45.37847467976742
8.656,0.9999970266494921,45.21457767714167
8.664,0.9999971173796507,45.05059318644359
8.672,0.9999972091334288,44.88652129811742
8.68,0.999997301909712,44.72236210343292
8.688,0.9999973957073557,44.55811569448587
8.696,0.9999974905251837,44.39378216419914
8.704,0.9999975863619872,44.22936160632308
8.712,0.999997683216526,44.064854115436674
8.72,0.9999977810875266,43.900259786947885
8.728,0.9999978799736823,43.73557871709464
8.736,0.9999979798736524,43.57081100294525
8.744,0.9999980807860609,43.40595674239942
8.752,0.9999981827094987,43.24101603418855
8.76,0.9999982856425195,43.075988977876705
8.768,0.9999983895836418,42.91087567386093
8.776,0.9999984945313471,42.74567622337218
8.784,0.9999986004840792,42.58039072847562
8.792,0.9999987074402448,42.41501929207147
8.8,0.9999988153982109,42.24956201789532
8.808,0.9999989243563063,42.084019010518865
8.815999999999999,0.9999990343128194,41.91839037535039
8.824,0.9999991452659984,41.75267621863513
8.832,0.9999992572140497,41.5868766474561
8.84,0.9999993701551382,41.42099176973427
8.847999999999999,0.9999994840873858,41.255021694229114
8.856,0.9999995990088718,41.08896653053909
8.864,0.9999997149176305,40.922826389102106
8.872,0.9999998318116521,40.756601381195935
8.879999999999999,0.9999999496888807,40.590291618938444
8.888,1.0,40.423897215288164
8.896,0.9999999999999999,40.25741828404458
8.904,1.0,40.090854939848526
8.911999999999999,1.0000000000000002,39.924207298182424
8.92,0.9999999999999999,39.75747547537059
8.928,1.0,39.59065958857968
8.936,0.9999999999999999,39.42375975581883
8.943999999999999,1.0,39.25677609593992
8.952,1.0,39.089708728637795
8.96,0.9999999999999999,38.92255777445064
8.968,0.9999999999999999,38.755323354760016
8.975999999999999,1.0,38.588005591791095
8.984,0.9999999999999999,38.42060460861279
8.992,1.0,38.25312052913802
9.0,1.0,38.085553478123764
9.008,1.0,37.917903581171124
9.016,1.0,37.75017096472544
9.024000000000001,1.0,37.58235575607649
9.032,1.0,37.4144580833584
9.04,1.0,37.24647807554968
9.048,1.0,37.07841586247332
9.056000000000001,0.9999999999999999,36.91027157479676
9.064,1.0,36.7420453440319
9.072,1.0,36.57373730253494
9.08,1.0,36.4053475835064
9.088000000000001,1.0,36.23687632099112
9.096,0.9999999999999999,36.06832364987811
9.104,1.0,35.89968970590026
9.112,1.0,35.7309746256344
9.120000000000001,0.9999999999999999,35.562178546501165
9.128,0.9999999999999999,35.39330160676471
9.136,0.9999999999999999,35.224343945532496
9.144,1.0,35.0553057027551
9.152000000000001,0.9999999999999999,34.88618701922609
9.16,1.0,34.71698803658167
9.168,0.9999999999999999,34.547708897300275
9.176,0.9999999999999999,34.37834974470248
9.184000000000001,0.9999999999999999,34.20891072295063
9.192,1.0,34.0393919770485
9.2,1.0,33.869793652840805
9.208,1.0,33.70011589701292
9.216000000000001,0.9999999999999999,33.53035885709059
9.224,1.0,33.36052268143936
9.232,0.9999999999999999,33.190607519264084
9.24,0.9999999999999999,33.02061352060861
9.248000000000001,1.0,32.8505408363552
9.256,1.0,32.68038961822415
9.264,1.0,32.510160018773014
9.272,1.0,32.33985219139626
9.280000000000001,1.0000000000000002,32.169466290324664
9.288,0.9999999999999999,31.999002470624735
9.296,1.0,31.828460888197988
9.304,1.0,31.657841699780352
9.312000000000001,1.0,31.487145062941636
9.32,1.0,31.316371136084758
9.328,0.9999999999999999,31.14552007844499
9.336,1.0,30.974592050089267
9.344,1.0000000000000002,30.803587211915545
9.352,1.0,30.632505725651882
9.36,0.9999999999999998,30.46134775385581
9.368,1.0,30.290113459913304
9.376,0.9999999999999999,30.1188030080382
9.384,1.0,29.947416563271158
9.392,1.0,29.775954291478904
9.4,1.0,29.60441635935316
9.408,1.0,29.43280293440998
9.416,1.0,29.26111418498851
9.424,1.0,29.08935028025031
9.432,1.0,28.91751139017807
9.44,0.9999999999999999,28.74559768557492
9.448,0.9999999999999999,28.573609338063033
9.456,0.9999999999999998,28.40154652008293
9.464,1.0,28.22940940489206
9.472,1.0,28.05719816656402
9.48,1.0,27.88491297998707
9.488,1.0,27.7125540208634
9.496,1.0,27.540121465707507
9.504,1.0,27.367615491845395
9.512,1.0,27.19503627741303
9.52,0.9999999999999999,27.02238400135541
9.528,1.0,26.84965884342493
9.536,1.0,26.676860984180493
9.544,0.9999999999999999,26.503990604985816
9.552,0.9999999999999999,26.33104788800841
9.56,0.9999999999999999,26.158033016217964
9.568,1.0,25.984946173385175
9.576,1.0,25.811787544080087
9.584,1.0,25.638557313670994
9.592,1.0,25.465255668322598
9.6,0.9999999999999999,25.291882794994883
9.608,1.0,25.118438881441307
9.616,1.0,24.944924116207567
9.624,1.0,24.771338688629708
9.632,0.9999999999999999,24.597682788832923
9.64,1.0,24.42395660772958
9.648,1.0,24.250160337017935
9.656,1.0,24.07629416918017
9.664,1.0,23.902358297481012
9.672,1.0,23.72835291596573
9.68,1.0,23.55427821945876
9.688,1.0,23.38013440356158
9.696,1.0,23.205921664651306
9.704,0.9999999999999999,23.03164019987856
9.712,1.0,22.857290207165953
9.72,1.0,22.682871885205948
9.728,1.0,22.50838543345927
9.736,0.9999999999999999,22.333831052152757
9.744,1.0,22.1592089422777
9.752,1.0,21.984519305587593
9.76,1.0,21.809762344596475
9.768,1.0,21.634938262576668
9.776,1.0,21.460047263557033
9.784,1.0,21.285089552320592
9.792,0.9999999999999999,21.110065334402833
9.8,1.0,20.934974816089245
9.808,1.0,20.759818204413552
9.816,0.9999999999999999,20.58459570715525
9.824,1.0,20.409307532837737
9.832,1.0,20.233953890725807
9.84,1.0000000000000002,20.058534990823762
9.847999999999999,1.0,19.88305104387291
9.856,1.0,19.707502261349358
9.864,1.0,19.53188885546185
9.872,1.0,19.35621103914935
9.879999999999999,1.0,19.1804690260786
9.888,1.0,19.004663030641886
9.896,0.9999999999999999,18.82879326795467
9.904,0.9999999999999999,18.652859953853095
9.911999999999999,1.0,18.47686330489151
9.92,0.9999999999999999,18.300803538340013
9.928,1.0,18.1246808721821
9.936,1.0,17.948495525112012
9.943999999999999,1.0,17.77224771653214
9.952,1.0,17.59593766655053
9.96,1.0,17.419565595978362
9.968,1.0,17.24313172632725
9.975999999999999,1.0,17.066636279806513
9.984,1.0,16.890079479320594
9.992,1.0,16.713461548466437
10.0,1.0,16.536782711530662
10.008,0.9999999999999999,16.36004319348679
10.016,1.0,16.183243219992484
10.024000000000001,0.9999999999999999,16.00638301738688
10.032,1.0,15.829462812687675
10.04,1.0,15.652482833588175
