freq,mag,phase
6.0,0.9999978438690236,36.12365039740962
6.008,0.9999965780267651,35.85718109037632
6.016,0.9999953454124367,35.59052880528175
6.024,0.9999941456502143,35.3236945547536
6.032,0.9999929783647777,35.05667935788331
6.04,0.9999918431813308,34.789484240206676
6.048,0.9999907397256198,34.522110233684074
6.056,0.999989667623953,34.254558376680166
6.064,0.9999886265032202,33.986829713943024
6.072,0.9999876159909127,33.7189252965828
6.08,0.9999866357151415,33.45084618204972
6.088,0.9999856853046595,33.18259343411171
6.096,0.9999847643888784,32.91416812283135
6.104,0.999983872597891,32.64557132454246
6.112,0.9999830095624892,32.3768041218259
6.12,0.9999821749141862,32.10786760348513
6.128,0.9999813682852341,31.838762864521016
6.136,0.9999805893086463,31.56949100610621
6.144,0.9999798376182166,31.300053135558937
6.152,0.9999791128485406,31.030450366316273
6.16,0.9999784146350341,30.760683817906955
6.168,0.9999777426139554,30.49075461592352
6.176,0.9999770964224262,30.220663891993993
6.184,0.99997647569845,29.950412783753112
6.192,0.9999758800809355,29.680002434812803
6.2,0.9999753092097152,29.409433994732396
6.208,0.999974762725568,29.138708618988108
6.216,0.9999742402702382,28.86782746894208
6.224,0.9999737414864585,28.596791711810848
6.232,0.9999732660179698,28.32560252063332
6.24,0.9999728135095424,28.05426107423821
6.248,0.9999723836069977,27.782768557210925
6.256,0.9999719759572294,27.511126159859987
6.264,0.999971590208224,27.239335078182833
6.272,0.9999712260090823,26.967396513831183
6.28,0.9999708830100418,26.695311674075832
6.288,0.9999705608624979,26.423081771770953
6.296,0.9999702592190236,26.150708025317844
6.304,0.9999699777333941,25.878191658628225
6.312,0.9999697160606056,25.6055339010869
6.32,0.9999694738568988,25.33273598751407
6.328,0.9999692507797799,25.05979915812694
6.336,0.9999690464880423,24.78672465850104
6.344,0.9999688606417888,24.513513739530797
6.352,0.9999686929024526,24.240167657389808
6.36,0.9999685429328207,23.96668767349049
6.368,0.9999684103970545,23.693075054443245
6.376,0.9999682949607126,23.41933107201516
6.384,0.9999681962907718,23.14545700308822
6.392,0.9999681140556509,22.871454129616936
6.4,0.9999680479252311,22.597323738585605
6.408,0.9999679975708792,22.323067121965003
6.416,0.9999679626654687,22.048685576668582
6.424,0.9999679428834042,21.774180404508265
6.432,0.999967937900641,21.499552912149678
6.44,0.9999679473947093,21.224804411066934
6.448,0.9999679710447357,20.94993621749698
6.456,0.9999680085314661,20.674949652393394
6.464,0.9999680595372872,20.3998460413798
6.472,0.9999681237462502,20.12462671470278
6.48,0.9999682008440923,19.849293007184304
6.4879999999999995,0.9999682905182594,19.57384625817377
6.496,0.9999683924579287,19.298287811499407
6.504,0.9999685063540316,19.022619015419707
6.5120000000000005,0.999968631899276,18.746841222573604
6.52,0.9999687687881685,18.47095578993117
6.5280000000000005,0.999968916717038,18.19496407874295
6.536,0.9999690753840574,17.91886745448973
6.5440000000000005,0.9999692444892672,17.642667286830985
6.552,0.999969423734597,17.366364949553862
6.5600000000000005,0.9999696128238896,17.089961820520777
6.568,0.9999698114629232,16.813459281617526
6.5760000000000005,0.9999700193594339,16.536858718700035
6.584,0.9999702362231385,16.260161521541743
6.592,0.9999704617657583,15.983369083779522
6.6,0.9999706957010408,15.706482802860059
6.608,0.9999709377447832,15.42950407998537
6.616,0.9999711876148546,15.1524343200581
6.624,0.9999714450312205,14.875274931626375
6.632,0.9999717097159635,14.598027326828309
6.64,0.9999719813933082,14.32069292133614
6.648,0.9999722597896431,14.043273134300007
6.656,0.9999725446335438,13.765769388291329
6.664,0.999972835655796,13.488183109245877
6.672,0.9999731325894188,13.21051572640645
6.68,0.999973435169687,12.932768672265253
6.688,0.9999737431341554,12.654943382505872
6.696,0.9999740562226801,12.377041295945018
6.704,0.9999743741774428,12.099063854473822
6.712,0.999974696742974,11.8210125029989
6.72,0.999975023666175,11.542888689383066
6.728,0.9999753546963416,11.264693864385737
6.736,0.9999756895851878,10.986429481603032
6.744,0.9999760280868674,10.708096997407605
6.752,0.9999763699579984,10.429697870888138
6.76,0.999976714957686,10.151233563788567
6.768,0.9999770628475444,9.872705540447075
6.776,0.9999774133917214,9.594115267734736
6.784,0.9999777663569209,9.315464214993941
6.792,0.9999781215124257,9.036753853976581
6.8,0.999978478630121,8.757985658781918
6.808,0.9999788374845172,8.479161105794256
6.816,0.9999791978527733,8.20028167362039
6.824,0.99997955951472,7.921348843026743
6.832,0.9999799222528812,7.642364096876383
6.84,0.9999802858524997,7.3633289200657455
6.848,0.9999806501015583,7.084244799461159
6.856,0.999981014790803,6.80511322383519
6.864,0.9999813797137662,6.525935683802777
6.872,0.9999817446667899,6.246713671757166
6.88,0.9999821094490483,5.9674486818056725
6.888,0.9999824738625708,5.688142209705268
6.896,0.9999828377122638,5.4087957527980075
6.904,0.9999832008059358,5.12941080994626
6.912,0.9999835629543176,4.849988881467833
6.92,0.9999839239710864,4.5705314690709065
6.928,0.9999842836728885,4.291040075788879
6.936,0.9999846418793611,4.011516205915023
6.944,0.9999849984131554,3.731961364937073
6.952,0.9999853530999587,3.452377059471646
6.96,0.9999857057685166,3.1727647971985897
6.968,0.999986056250657,2.893126086795224
6.976,0.999986404381309,2.6134624378704823
6.984,0.9999867499985282,2.3337753608989527
6.992,0.9999870929435168,2.0540663671548915
7.0,0.9999874330606465,1.7743369686460857
7.008,0.9999877701974798,1.4945886780477513
7.016,0.9999881042047913,1.2148230086362921
7.024,0.9999884349365901,0.9350414742230488
7.032,0.9999887622501408,0.6552455890880339
7.04,0.9999890860059842,0.37543686791358355
7.048,0.9999894060679596,0.0956168257180139
7.056,0.9999897223032242,-0.18421302221072128
7.064,0.9999900345822752,-0.46405116038139654
7.072,0.9999903427789697,-0.7438960731659148
7.08,0.9999906467705443,-1.0237462448656107
7.088,0.9999909464376368,-1.3036001597776423
7.096,0.9999912416643058,-1.5834563022612484
7.104,0.9999915323380477,-1.8633131568040795
7.112,0.9999918183498208,-2.143169208088405
7.12,0.99999209959406,-2.4230229410573325
7.128,0.9999923759686989,-2.702872840980891
7.136,0.9999926473751851,-2.982717393522157
7.144,0.9999929137185021,-3.2625550848032008
7.152,0.9999931749071842,-3.542384401471042
7.16,0.9999934308533357,-3.8222038307634216
7.168,0.9999936814726474,-4.102011860574604
7.176,0.9999939266844136,-4.381806979520918
7.184,0.9999941664115478,-4.661587677006326
7.192,0.9999944005806004,-4.941352443287782
7.2,0.9999946291217718,-5.221099769540511
7.208,0.9999948519689293,-5.500828147923123
7.216,0.9999950690596208,-5.7805360716426
7.224,0.9999952803350887,-6.060222035019121
7.232,0.9999954857402841,-6.339884533550731
7.24,0.999995685223878,-6.619522063977842
7.248,0.9999958787382768,-6.8991331243475855
7.256,0.9999960662396298,-7.178716214077918
7.264,0.9999962476878432,-7.4582698340216105
7.272,0.9999964230465894,-7.737792486529991
7.28,0.9999965922833172,-8.017282675516505
7.288,0.9999967553692591,-8.296738906520062
7.296,0.9999969122794418,-8.576159686768166
7.304,0.9999970629926912,-8.85554352523979
7.312,0.99999720749164,-9.134888932728073
7.32,0.9999973457627338,-9.41419442190273
7.328,0.999997477796234,-9.693458507372231
7.336,0.9999976035862236,-9.97267970574573
7.344,0.9999977231306082,-10.251856535694738
7.352,0.9999978364311193,-10.5309875180145
7.36,0.9999979434933127,-10.810071175685156
7.368,0.9999980443265711,-11.089106033932552
7.376,0.9999981389441002,-11.368090620288816
7.384,0.9999982273629264,-11.647023464652632
7.392,0.9999983096038938,-11.9259030993492
7.4,0.9999983856916579,-12.204728059189904
7.4079999999999995,0.9999984556546795,-12.483496881531643
7.416,0.9999985195252163,-12.762208106336027
7.4239999999999995,0.9999985773393149,-13.040860276227756
7.432,0.9999986291367987,-13.319451936553476
7.4399999999999995,0.9999986749612564,-13.597981635439353
7.448,0.9999987148600277,-13.876447923849309
7.4559999999999995,0.9999987488841893,-14.15484935564188
7.464,0.9999987770885359,-14.433184487627804
7.4719999999999995,0.9999987995315629,-14.711451879626171
7.48,0.9999988162754466,-14.989650094521295
7.4879999999999995,0.9999988273860201,-15.26777769831817
7.496,0.999998832932751,-15.545833260198616
7.504,0.9999988329887153,-15.823815352576007
7.5120000000000005,0.9999988276305694,-16.101722551150665
7.52,0.99999881693852,-16.37955343496388
7.5280000000000005,0.9999988009962932,-16.65730658645256
7.536,0.9999987798911002,-16.93498059150243
7.5440000000000005,0.9999987537136016,-17.212574039501977
7.552,0.9999987225578688,-17.49008552339491
7.5600000000000005,0.9999986865213446,-17.767513639733295
7.568,0.9999986457048005,-18.044856988729233
7.5760000000000005,0.9999986002122909,-18.322114174307227
7.584,0.9999985501511074,-18.599283804155096
7.5920000000000005,0.9999984956317278,-18.876364489775582
7.6,0.9999984367677655,-19.15335484653643
7.6080000000000005,0.999998373675914,-19.430253493721192
7.616,0.9999983064758904,-19.707059054578604
7.6240000000000006,0.9999982352903761,-19.98377015637251
7.632,0.9999981602449539,-20.260385430430528
7.640000000000001,0.9999980814680443,-20.53690351219312
7.648,0.9999979990908376,-20.813323041261494
7.656000000000001,0.9999979132472239,-21.089642661445907
7.664,0.9999978240737206,-21.365861020812755
7.672,0.9999977317093964,-21.641976771732082
7.68,0.9999976362957941,-21.917988570924003
7.688,0.9999975379768486,-22.19389507950517
7.696,0.9999974368988034,-22.469694963034737
7.704,0.9999973332101246,-22.745386891559853
7.712,0.9999972270614113,-23.0209695396609
7.72,0.999997118605302,-23.2964415864963
7.728,0.9999970079963829,-23.571801715846895
7.736,0.9999968953910865,-23.847048616160066
7.744,0.9999967809475929,-24.122180980593374
7.752,0.9999966648257271,-24.39719750705789
7.76,0.999996547186851,-24.672096898261138
7.768,0.9999964281937559,-24.946877861749762
7.776,0.9999963080105503,-25.221539109951653
7.784,0.9999961868025461,-25.49607936021794
7.792,0.999996064736141,-25.77049733486451
7.8,0.9999959419786996,-26.04479176121315
7.808,0.9999958186984312,-26.318961371632508
7.816,0.999995695064265,-26.593004903578564
7.824,0.9999955712457228,-26.86692109963486
7.832,0.9999954474127909,-27.140708707552363
7.84,0.9999953237357865,-27.414366480289026
7.848,0.9999952003852255,-27.687893176049077
7.856,0.9999950775316853,-27.96128755832192
7.864,0.9999949553456678,-28.234548395920783
7.872,0.9999948339974583,-28.50767446302105
7.88,0.9999947136569842,-28.78066453919838
7.888,0.9999945944936717,-29.05351740946632
7.896,0.9999944766762998,-29.326231864313925
7.904,0.9999943603728552,-29.59880669974286
7.912,0.9999942457503824,-29.87124071730438
7.92,0.9999941329748361,-30.14353272413594
7.928,0.9999940222109301,-30.415681532997606
7.936,0.999993913621987,-30.687685962308183
7.944,0.9999938073697853,-30.959544836181074
7.952,0.9999937036144079,-31.231256984459904
7.96,0.9999936025140894,-31.502821242753875
7.968,0.9999935042250621,-31.774236452472913
7.976,0.9999934089014038,-32.04550146086249
7.984,0.9999933166948848,-32.31661512103834
7.992,0.9999932277548151,-32.587576292020835
8.0,0.999993142227893,-32.85838383876906
8.008,0.999993060258053,-33.12903663221484
8.016,0.9999929819863163,-33.39953354929653
8.024000000000001,0.9999929075506421,-33.669873472992165
8.032,0.9999928370857777,-33.94005529235291
8.04,0.9999927707231162,-34.21007790253617
8.048,0.9999927085905492,-34.47994020483817
8.056000000000001,0.9999926508123259,-34.74964110672643
8.064,0.9999925975089136,-35.019179521872175
8.072,0.9999925487968603,-35.288554370182496
8.08,0.9999925047886592,-35.55776457783203
8.088000000000001,0.999992465592619,-35.82680907729448
8.096,0.9999924313127345,-36.095686807373994
8.104,0.9999924020485622,-36.364396713236374
8.112,0.9999923778950991,-36.63293774643983
8.120000000000001,0.9999923589426658,-36.901308864965344
8.128,0.9999923452767938,-37.16950903324713
8.136,0.9999923369781152,-37.437537222202735
8.144,0.9999923341222617,-37.705392409262714
8.152000000000001,0.999992336779763,-37.97307357839983
8.16,0.9999923450159534,-38.24057972015849
8.168,0.9999923588908826,-38.50790983168356
8.176,0.9999923784592333,-38.775062916748816
8.184000000000001,0.9999924037702423,-39.04203798578504
8.192,0.9999924348676285,-39.308834055908
8.2,0.9999924717895269,-39.57545015094602
8.208,0.999992514568429,-39.84188530146708
8.216000000000001,0.9999925632311294,-40.108138544805435
8.224,0.9999926177986774,-40.374208925088176
8.232,0.9999926782863385,-40.640095493261235
8.24,0.9999927447035588,-40.90579730711502
8.248000000000001,0.9999928170539378,-41.17131343130927
8.256,0.9999928953352109,-41.4366429373981
8.264,0.9999929795392338,-41.70178490385413
8.272,0.9999930696519777,-41.96673841609247
8.280000000000001,0.9999931656535309,-42.23150256649365
8.288,0.9999932675181064,-42.496076454426735
8.296,0.9999933752140591,-42.76045918627164
8.304,0.9999934887039076,-43.024649875440886
8.312,0.9999936079443658,-43.28864764240059
8.32,0.99999373288638,-43.55245161469155
8.328,0.9999938634751747,-43.816060926948936
8.336,0.9999939996503033,-44.0794747209222
8.344,0.9999941413457095,-44.34269214549354
8.352,0.9999942884897932,-44.60571235669667
8.36,0.9999944410054843,-44.86853451773391
8.368,0.999994598810323,-45.1311577989938
8.376,0.999994761816548,-45.39358137806682
8.384,0.9999949299311909,-45.65580443976155
8.392,0.9999951030561761,-45.9178261761192
8.4,0.9999952810884299,-46.17964578642827
8.408,0.9999954639199923,-46.4412624772376
8.416,0.999995651438138,-46.70267546236972
8.424,0.9999958435255014,-46.96388396293236
8.432,0.9999960400602091,-47.22488720733015
8.44,0.9999962409160157,-47.485684431274876
8.448,0.9999964459624461,-47.746274877795464
8.456,0.9999966550649432,-48.00665779724668
8.464,0.9999968680850204,-48.26683244731759
8.472,0.999997084880416,-48.52679809303861
8.48,0.9999973053052579,-48.786554006788386
8.488,0.9999975292102241,-49.04609946829921
8.496,0.9999977564427143,-49.305433764662325
8.504,0.9999979868470212,-49.564556190331494
8.512,0.999998220264504,-49.82346604712684
8.52,0.9999984565337696,-50.082162644236725
8.528,0.9999986954908499,-50.340645298219826
8.536,0.9999989369693862,-50.59891333300542
8.544,0.9999991808008148,-50.85696607989377
8.552,0.9999994268145506,-51.11480287755471
8.56,0.9999996748381772,-51.37242307202636
8.568,0.9999999246976348,-51.62982601671205
8.576,1.0,-51.88701107237739
8.584,0.9999999999999999,-52.143977607145565
8.592,0.9999999999999999,-52.40072499649264
8.6,1.0,-52.65725262324125
8.608,1.0,-52.91355987755441
8.616,1.0,-53.16964615692749
8.624,1.0,-53.42551086618038
8.632,0.9999999999999999,-53.68115341744796
8.64,0.9999999999999998,-53.93657323017074
8.648,0.9999999999999999,-54.19176973108363
8.656,1.0,-54.44674235420528
8.664,1.0,-54.70149054082525
8.672,0.9999999999999999,-54.95601373949171
8.68,1.0,-55.21031140599749
8.688,0.9999999999999999,-55.46438300336614
8.696,1.0,-55.71822800183663
8.704,1.0,-55.97184587884809
8.712,1.0,-56.2252361190231
8.72,1.0,-56.47839821415121
8.728,0.9999999999999999,-56.731331663170906
8.736,1.0,-56.98403597215189
8.744,1.0,-57.236510654275875
8.752,0.9999999999999999,-57.488755229817706
8.76,0.9999999999999999,-57.74076922612489
8.768,1.0000000000000002,-57.992552177597716
8.776,1.0,-58.244103625667805
8.784,1.0,-58.49542311877698
8.792,1.0,-58.74651021235493
8.8,1.0,-58.997364468797095
8.808,1.0,-59.24798545744143
8.815999999999999,1.0,-59.49837275454534
8.824,1.0,-59.74852594326179
8.832,0.9999999999999999,-59.99844461361492
8.84,1.0,-60.24812836247576
8.847999999999999,0.9999999999999998,-60.497576793537206
8.856,0.9999999999999999,-60.74678951728871
8.864,1.0,-60.99576615099057
8.872,0.9999999999999998,-61.24450631864802
8.879999999999999,1.0,-61.49300965098507
8.888,1.0,-61.74127578541796
8.896,1.0,-61.989304366028115
8.904,1.0,-62.23709504353521
8.911999999999999,1.0,-62.48464747527005
8.92,1.0,-62.73196132514676
8.928,1.0,-62.97903626363505
8.936,1.0,-63.22587196773229
8.943999999999999,1.0000000000000002,-63.47246812093554
8.952,1.0,-63.71882441321302
8.96,0.9999999999999999,-63.96494054097567
8.968,1.0,-64.2108162070485
8.975999999999999,0.9999999999999999,-64.456451120642
8.984,0.9999999999999999,-64.70184499732314
8.992,1.0,-64.94699755898628
9.0,0.9999999999999999,-65.19190853382415
9.008,1.0,-65.43657765629875
9.016,0.9999999999999999,-65.68100466711202
9.024000000000001,0.9999999999999999,-65.92518931317632
9.032,1.0,-66.16913134758522
9.04,1.0,-66.41283052958399
9.048,1.0,-66.6562866245401
9.056000000000001,0.9999999999999999,-66.89949940391355
9.064,0.9999999999999999,-67.14246864522727
9.072,0.9999999999999999,-67.38519413203775
9.08,0.9999999999999999,-67.62767565390523
9.088000000000001,0.9999999999999999,-67.86991300636396
9.096,1.0,-68.11190599089264
9.104,1.0,-68.35365441488487
9.112,0.9999999999999999,-68.59515809161944
9.120000000000001,1.0,-68.83641684023046
9.128,0.9999999999999999,-69.07743048567797
9.136,1.0,-69.31819885871835
9.144,0.9999999999999999,-69.55872179587467
9.152000000000001,0.9999999999999999,-69.79899913940693
9.16,0.9999999999999998,-70.03903073728273
9.168,1.0000000000000002,-70.27881644314779
9.176,1.0,-70.51835611629635
9.184000000000001,0.9999999999999999,-70.7576496216417
9.192,0.9999999999999999,-70.99669682968683
9.2,1.0,-71.23549761649515
9.208,1.0,-71.47405186366107
9.216000000000001,0.9999999999999999,-71.71235945828069
9.224,0.9999999999999998,-71.95042029292254
9.232,1.0,-72.18823426559861
9.24,0.9999999999999999,-72.42580127973503
9.248000000000001,0.9999999999999999,-72.66312124414289
9.256,1.0,-72.90019407298931
9.264,0.9999999999999999,-73.13701968576856
9.272,1.0,-73.37359800727297
9.280000000000001,0.9999999999999998,-73.60992896756396
9.288,1.0,-73.84601250194329
9.296,1.0,-74.08184855092436
9.304,0.9999999999999998,-74.3174370602034
9.312000000000001,0.9999999999999999,-74.55277798063065
9.32,1.0,-74.7878712681818
9.328,1.0,-75.0227168839295
9.336,0.9999999999999999,-75.25731479401486
9.344,1.0,-75.49166496961855
9.352,1.0,-75.72576738693296
9.36,0.9999999999999999,-75.95962202713328
9.368,0.9999999999999999,-76.19322887634958
9.376,0.9999999999999999,-76.42658792563816
9.384,1.0,-76.65969917095366
9.392,1.0,-76.89256261312055
9.4,0.9999999999999999,-77.12517825780523
9.408,0.9999999999999999,-77.35754611548772
9.416,1.0,-77.58966620143393
9.424,0.9999999999999999,-77.82153853566717
9.432,1.0,-78.05316314294078
9.44,0.9999999999999999,-78.28454005270966
9.448,1.0,-78.5156692991029
9.456,0.9999999999999999,-78.74655092089552
9.464,0.9999999999999999,-78.97718496148113
9.472,1.0,-79.20757146884372
9.48,1.0,-79.43771049553051
9.488,0.9999999999999999,-79.66760209862379
9.496,1.0,-79.89724633971379
9.504,1.0,-80.12664328487071
9.512,1.0,-80.3557930046176
9.52,1.0,-80.58469557390251
9.528,1.0,-80.81335107207143
9.536,1.0,-81.04175958284061
9.544,1.0,-81.26992119426949
9.552,1.0,-81.49783599873308
9.56,0.9999999999999999,-81.72550409289512
9.568,0.9999999999999999,-81.95292557768043
9.576,1.0,-82.18010055824816
9.584,1.0,-82.40702914396424
9.592,0.9999999999999999,-82.6337114483748
9.6,1.0,-82.86014758917861
9.608,0.9999999999999999,-83.08633768820054
9.616,1.0,-83.31228187136425
9.624,0.9999999999999999,-83.53798026866556
9.632,0.9999999999999999,-83.76343301414535
9.64,1.0,-83.98864024586302
9.648,0.9999999999999999,-84.21360210586938
9.656,0.9999999999999999,-84.43831874018036
9.664,1.0,-84.66279029874973
9.672,0.9999999999999999,-84.88701693544317
9.68,0.9999999999999999,-85.11099880801102
9.688,1.0,-85.33473607806229
9.696,1.0,-85.5582289110377
9.704,1.0,-85.78147747618367
9.712,1.0,-86.00448194652549
9.72,1.0,-86.2272424988414
9.728,0.9999999999999999,-86.44975931363592
9.736,1.0,-86.67203257511393
9.744,1.0,-86.8940624711541
9.752,0.9999999999999999,-87.11584919328324
9.76,1.0,-87.33739293664968
9.768,0.999999948855793,-87.5586938999977
