freq,mag,phase
6.0,0.9999908131522165,55.62697292975693
6.008,0.9999911065696296,55.45672830330128
6.016,0.9999913911989842,55.28646882151918
6.024,0.9999916671769807,55.11619449272063
6.032,0.9999919346390984,54.94590532519398
6.04,0.9999921937196015,54.77560132720644
6.048,0.9999924445515431,54.60528250700467
6.056,0.999992687266772,54.434948872815234
6.064,0.9999929219959364,54.264600432845164
6.072,0.9999931488684897,54.09423719528253
6.08,0.9999933680126956,53.92385916829691
6.088,0.9999935795556338,53.753466360039894
6.096,0.9999937836232051,53.58305877864573
6.104,0.9999939803401361,53.412636432231714
6.112,0.9999941698299849,53.24219932889878
6.12,0.9999943522151461,53.07174747673199
6.128,0.9999945276168569,52.90128088380113
6.136,0.9999946961552014,52.73079955816113
6.144,0.9999948579491165,52.560303507852616
6.152,0.9999950131163969,52.3897927409025
6.16,0.9999951617737008,52.21926726532435
6.168,0.9999953040365546,52.048727089119076
6.176,0.9999954400193584,51.87817222027531
6.184,0.9999955698353925,51.70760266677
6.192,0.999995693596821,51.53701843656883
6.2,0.9999958114146978,51.36641953762688
6.208,0.9999959233989731,51.19580597788899
6.216,0.9999960296584965,51.02517776529034
6.224,0.9999961303010249,50.85453490775695
6.232,0.9999962254332255,50.68387741320614
6.24,0.999996315160683,50.51320528954715
6.248,0.9999963995879043,50.3425185446815
6.256,0.9999964788183234,50.171817186503596
6.264,0.9999965529543079,50.00110122290119
6.272,0.9999966220971634,49.83037066175588
6.28,0.9999966863471398,49.659625510943606
6.288,0.9999967458034352,49.48886577833517
6.296,0.9999968005642038,49.31809147179675
6.304,0.9999968507265591,49.147302599190276
6.312,0.9999968963865796,48.976499168374076
6.32,0.9999969376393162,48.805681187203305
6.328,0.9999969745787946,48.634848663530434
6.336,0.9999970072980232,48.46400160520566
6.344,0.9999970358889974,48.29314002007759
6.352,0.9999970604427054,48.12226391599356
6.36,0.9999970810491343,47.95137330080013
6.368,0.9999970977972733,47.78046818234368
6.376,0.9999971107751217,47.609548568470785
6.384,0.999997120069693,47.438614467028756
6.392,0.9999971257670212,47.26766588586606
6.4,0.9999971279521649,47.096702832832875
6.408,0.9999971267092139,46.92572531578152
6.416,0.999997122121295,46.75473334256694
6.424,0.999997114270576,46.58372692104718
6.432,0.9999971032382726,46.41270605908387
6.44,0.9999970891046529,46.24167076454265
6.448,0.9999970719490433,46.07062104529371
6.456,0.9999970518498341,45.899556909212244
6.464,0.9999970288844847,45.72847836417881
6.472,0.9999970031295292,45.55738541808002
6.48,0.9999969746605817,45.386278078808736
6.4879999999999995,0.9999969435523413,45.21515635426475
6.496,0.9999969098785995,45.044020252355075
6.504,0.9999968737122438,44.872869780994655
6.5120000000000005,0.9999968351252629,44.701704948106425
6.52,0.9999967941887539,44.53052576162225
6.5280000000000005,0.9999967509729262,44.359332229482895
6.536,0.9999967055471084,44.18812435963893
6.5440000000000005,0.9999966579797523,44.01690216005076
6.552,0.9999966083384392,43.84566563868952
6.5600000000000005,0.9999965566898851,43.67441480353703
6.568,0.999996503099946,43.50314966258673
6.5760000000000005,0.9999964476336244,43.331870223843694
6.584,0.9999963903550734,43.1605764953255
6.592,0.9999963313276025,42.989268485062226
6.6,0.9999962706136836,42.81794620109725
6.608,0.9999962082749563,42.646609651487516
6.616,0.9999961443722324,42.475258844304015
6.624,0.9999960789655026,42.30389378763222
6.632,0.9999960121139415,42.13251448957251
6.64,0.9999959438759126,41.9611209582406
6.648,0.9999958743089749,41.789713201768
6.656,0.9999958034698857,41.61829122830243
6.664,0.99999573141461,41.44685504600825
6.672,0.9999956581983221,41.27540466306685
6.68,0.9999955838754135,41.103940087677145
6.688,0.9999955084994974,40.93246132805592
6.696,0.9999954321234137,40.76096839243835
6.704,0.9999953547992352,40.58946128907831
6.712,0.9999952765782725,40.417940026248864
6.72,0.9999951975110798,40.24640461224268
6.728,0.9999951176474601,40.07485505537238
6.736,0.9999950370364693,39.90329136397105
6.744,0.9999949557264249,39.73171354639256
6.752,0.9999948737649071,39.560121611012065
6.76,0.9999947911987679,39.3885155662263
6.768,0.9999947080741336,39.21689542045413
6.776,0.9999946244364123,39.04526118213678
6.784,0.9999945403302981,38.87361285973837
6.792,0.999994455799776,38.701950461746314
6.8,0.9999943708881287,38.53027399667164
6.808,0.9999942856379409,38.35858347304941
6.816,0.9999942000911048,38.18687889943918
6.824,0.9999941142888252,38.01516028442532
6.832,0.9999940282716251,37.843427636617434
6.84,0.9999939420793509,37.67168096465076
6.848,0.9999938557511778,37.499920277186554
6.856,0.999993769325615,37.32814558291241
6.864,0.9999936828405105,37.15635689054282
6.872,0.9999935963330574,36.984554208819304
6.88,0.9999935098397976,36.81273754651104
6.888,0.9999934233966296,36.640906912415055
6.896,0.9999933370388094,36.46906231535669
6.904,0.999993250800961,36.297203764190044
6.912,0.9999931647170781,36.12533126779816
6.92,0.9999930788205297,35.953444835093535
6.928,0.9999929931440663,35.78154447501848
6.936,0.9999929077198244,35.60963019654545
6.944,0.9999928225793322,35.437702008677405
6.952,0.9999927377535138,35.265759920448254
6.96,0.9999926532726956,35.0938039409231
6.968,0.9999925691666104,34.92183407919866
6.976,0.9999924854644032,34.749850344403676
6.984,0.9999924021946357,34.57785274569912
6.992,0.9999923193852923,34.405841292278744
7.0,0.999992237063784,34.23381599336927
7.008,0.999992155256955,34.061776858230814
7.016,0.9999920739910861,33.88972389615727
7.024,0.9999919932919009,33.717657116476545
7.032,0.9999919131845706,33.54557652855098
7.04,0.9999918336937195,33.37348214177772
7.048,0.9999917548434284,33.20137396558899
7.056,0.9999916766572416,33.02925200945246
7.064,0.9999915991581712,32.85711628287162
7.072,0.9999915223687008,32.684966795386
7.08,0.9999914463107928,32.51280355657167
7.088,0.9999913710058921,32.34062657604141
7.096,0.99999129647493,32.168435863445126
7.104,0.9999912227383319,31.99623142847019
7.112,0.9999911498160196,31.824013280841726
7.12,0.9999910777274171,31.651781430322927
7.128,0.9999910064914562,31.47953588671539
7.136,0.9999909361265809,31.307276659859454
7.144,0.9999908666507514,31.13500375963448
7.152,0.999990798081451,30.962717195959197
7.16,0.999990730435689,30.79041697879201
7.168,0.9999906637300061,30.618103118131287
7.176,0.9999905979804792,30.4457756240157
7.184,0.9999905332027272,30.273434506524488
7.192,0.9999904694119149,30.10107977577783
7.2,0.9999904066227574,29.92871144193705
7.208,0.9999903448495246,29.756329515205053
7.216,0.9999902841060488,29.583934005826453
7.224,0.9999902244057257,29.411524924088038
7.232,0.9999901657615209,29.239102280318956
7.24,0.9999901081859748,29.066666084890997
7.248,0.9999900516912065,28.89421634821902
7.256,0.9999899962889197,28.72175308076105
7.264,0.9999899419904055,28.549276293018725
7.272,0.9999898888065493,28.37678599553746
7.28,0.999989836747833,28.204282198906814
7.288,0.9999897858243418,28.031764913760753
7.296,0.9999897360457675,27.859234150777876
7.304,0.9999896874214131,27.686689920681744
7.312,0.9999896399601985,27.514132234241124
7.32,0.9999895936706636,27.34156110227029
7.328,0.9999895485609732,27.168976535629266
7.336,0.9999895046389227,26.9963785452241
7.344,0.9999894619119409,26.82376714200711
7.352,0.9999894203870958,26.651142336977205
7.36,0.9999893800710978,26.478504141180085
7.368,0.999989340970306,26.305852565708488
7.376,0.9999893030907303,26.133187621702543
7.384,0.9999892664380376,25.960509320349924
7.392,0.9999892310175559,25.787817672886113
7.4,0.9999891968342779,25.615112690594724
7.4079999999999995,0.9999891638928656,25.44239438480769
7.416,0.9999891321976561,25.26966276690544
7.4239999999999995,0.9999891017526632,25.096917848317375
7.432,0.999989072561584,24.924159640521776
7.4399999999999995,0.9999890446278028,24.75138815504638
7.448,0.9999890179543941,24.578603403468332
7.4559999999999995,0.9999889925441282,24.40580539741465
7.464,0.9999889683994753,24.23299414856225
7.4719999999999995,0.9999889455226086,24.0601696686384
7.48,0.9999889239154097,23.887331969420664
7.4879999999999995,0.9999889035794729,23.714481062737487
7.496,0.9999888845161076,23.541616960468026
7.504,0.9999888667263448,23.36873967454274
7.5120000000000005,0.9999888502109393,23.195849216943273
7.52,0.9999888349703753,23.022945599702997
7.5280000000000005,0.9999888210048691,22.8500288349069
7.536,0.999988808314374,22.67709893469213
7.5440000000000005,0.9999887968985846,22.50415591124786
7.552,0.9999887867569399,22.331199776815836
7.5600000000000005,0.9999887778886282,22.158230543690284
7.568,0.99998877029259,21.985248224218385
7.5760000000000005,0.9999887639675241,21.812252830800162
7.584,0.9999887589118881,21.63924437588908
7.5920000000000005,0.999988755123906,21.466222871991803
7.6,0.99998875260157,21.293188331668777
7.6080000000000005,0.9999887513426442,21.120140767534114
7.616,0.9999887513446699,20.947080192256053
7.6240000000000006,0.9999887526049687,20.77400661855687
7.632,0.9999887551206449,20.60092005921337
7.640000000000001,0.9999887588885925,20.427820527056735
7.648,0.9999887639054961,20.254708034973053
7.656000000000001,0.9999887701678357,20.081582595903143
7.664,0.9999887776718911,19.908444222843116
7.672,0.9999887864137444,19.73529292884413
7.68,0.9999887963892846,19.562128727012933
7.688,0.9999888075942107,19.388951630511816
7.696,0.9999888200240358,19.21576165255885
7.704,0.9999888336740909,19.042558806428037
7.712,0.9999888485395276,18.869343105449502
7.72,0.9999888646153223,18.696114563009605
7.728,0.9999888818962805,18.522873192551135
7.736,0.9999889003770388,18.349619007573466
7.744,0.9999889200520696,18.17635202163269
7.752,0.9999889409156844,18.003072248341784
7.76,0.9999889629620367,17.82977970137078
7.768,0.999988986185126,17.656474394446843
7.776,0.9999890105788017,17.4831563413545
7.784,0.9999890361367657,17.309825555935742
7.792,0.9999890628525754,17.136482052090155
7.8,0.9999890907196487,16.963125843775078
7.808,0.999989119731266,16.78975694500572
7.816,0.9999891498805741,16.616375369855334
7.824,0.999989181160589,16.442981132455287
7.832,0.9999892135641999,16.269574246995262
7.84,0.9999892470841719,16.096154727723295
7.848,0.99998928171315,15.922722588945996
7.856,0.9999893174436609,15.749277845028601
7.864,0.9999893542681181,15.575820510395113
7.872,0.9999893921788231,15.402350599528457
7.88,0.9999894311679703,15.22886812697052
7.888,0.9999894712276486,15.055373107322328
7.896,0.999989512349846,14.88186555524413
7.904,0.9999895545264518,14.708345485455512
7.912,0.9999895977492593,14.534812912735513
7.92,0.9999896420099702,14.361267851922708
7.928,0.9999896873001958,14.187710317915323
7.936,0.9999897336114618,14.014140325671336
7.944,0.9999897809352102,13.840557890208563
7.952,0.9999898292628023,13.66696302660477
7.96,0.9999898785855221,13.493355749997768
7.968,0.9999899288945787,13.319736075585473
7.976,0.9999899801811096,13.146104018626009
7.984,0.9999900324361829,12.972459594437826
7.992,0.9999900856508016,12.798802818399732
8.0,0.999990139815904,12.625133705951013
8.008,0.9999901949223693,12.451452272591506
8.016,0.9999902509610182,12.2777585338816
8.024000000000001,0.9999903079226167,12.104052505442468
8.032,0.9999903657978778,11.930334202956052
8.04,0.9999904245774657,11.756603642165052
8.048,0.9999904842519974,11.58286083887308
8.056000000000001,0.999990544812046,11.409105808944778
8.064,0.9999906062481417,11.235338568305842
8.072,0.9999906685507776,11.061559132942966
8.08,0.9999907317104082,10.887767518904006
8.088000000000001,0.9999907957174557,10.7139637422981
8.096,0.9999908605623099,10.540147819295656
8.104,0.9999909262353327,10.36631976612831
8.112,0.999990992726858,10.192479599089063
8.120000000000001,0.999991060027197,10.01862733453242
8.128,0.9999911281266394,9.844762988874313
8.136,0.9999911970154548,9.670886578592128
8.144,0.9999912666838968,9.496998120224772
8.152000000000001,0.9999913371222042,9.323097630372809
8.16,0.9999914083206042,9.149185125698423
8.168,0.9999914802693138,8.975260622925369
8.176,0.9999915529585427,8.801324138839075
8.184000000000001,0.9999916263784955,8.627375690286753
8.192,0.9999917005193735,8.453415294177367
8.2,0.9999917753713775,8.279442967481536
8.208,0.99999185092471,8.105458727231694
8.216000000000001,0.9999919271695763,7.931462590522132
8.224,0.9999920040961882,7.757454574508977
8.232,0.9999920816947651,7.583434696410102
8.24,0.9999921599555361,7.409402973505238
8.248000000000001,0.9999922388687427,7.235359423136058
8.256,0.9999923184246405,7.061304062706094
8.264,0.9999923986135009,6.887236909680691
8.272,0.9999924794256134,6.713157981587073
8.280000000000001,0.9999925608512874,6.539067296014419
8.288,0.999992642880855,6.364964870613797
8.296,0.9999927255046714,6.190850723098081
8.304,0.9999928087131186,6.016724871242027
8.312,0.9999928924966047,5.8425873328823705
8.32,0.9999929768455691,5.668438125917559
8.328,0.9999930617504813,5.494277268308047
8.336,0.9999931472018448,5.3201047780759705
8.344,0.9999932331901976,5.14592067330545
8.352,0.9999933197061147,4.971724972142246
8.36,0.9999934067402092,4.797517692794074
8.368,0.9999934942831347,4.623298853530245
8.376,0.9999935823255858,4.449068472681973
8.384,0.999993670858302,4.274826568642029
8.392,0.9999937598720666,4.100573159865019
8.4,0.9999938493577105,3.9263082648670546
8.408,0.9999939393061122,3.7520319022260207
8.416,0.9999940297082004,3.577744090581234
8.424,0.9999941205549557,3.4034448486337086
8.432,0.9999942118374102,3.2291341951458237
8.44,0.9999943035466523,3.054812148941575
8.448,0.9999943956738248,2.880478728906225
8.456,0.9999944882101278,2.706133953986571
8.464,0.9999945811468213,2.531777843190587
8.472,0.9999946744752239,2.357410415587678
8.48,0.9999947681867173,2.183031690308324
8.488,0.9999948622727443,2.0086416865443244
8.496,0.9999949567248133,1.8342404235484506
8.504,0.9999950515344972,1.6598279206346767
8.512,0.999995146693436,1.4854041971778214
8.52,0.999995242193337,1.3109692726137907
8.528,0.9999953380259782,1.1365231664391986
8.536,0.9999954341832057,0.9620658982116183
8.544,0.9999955306569392,0.7875974875491962
8.552,0.9999956274391705,0.61311795413089
8.56,0.9999957245219644,0.43862731769609276
8.568,0.9999958218974612,0.26412559804485386
8.576,0.9999959195578775,0.08961281503750383
8.584,0.9999960174955064,-0.08491101140512393
8.592,0.9999961157027197,-0.25944586130207786
8.6,0.9999962141719678,-0.43399171461207553
8.608,0.999996312895781,-0.6085485512338865
8.616,0.9999964118667714,-0.7831163510061137
8.624,0.9999965110776323,-0.9576950937076024
8.632,0.9999966105211403,-1.1322847590572123
8.64,0.999996710190156,-1.3068853267142284
8.648,0.999996810077624,-1.4814967762781455
8.656,0.9999969101765752,-1.6561190872890754
8.664,0.999997010480126,-1.8307522392275437
8.672,0.9999971109814808,-2.0053962115148956
8.68,0.9999972116739307,-2.180050983513096
8.688,0.9999973125508569,-2.354716534525142
8.696,0.9999974136057289,-2.529392843794866
8.704,0.9999975148321067,-2.704079890507356
8.712,0.999997616223641,-2.8787776537887555
8.72,0.9999977177740739,-3.0534861127066923
8.728,0.9999978194772396,-3.2282052462700834
8.736,0.999997921327065,-3.4029350334295656
8.744,0.99999802331757,-3.577675453077306
8.752,0.9999981254428689,-3.7524264840474344
8.76,0.9999982276971695,-3.9271881051158575
8.768,0.9999983300747759,-4.101960295000697
8.776,0.999998432570086,-4.2767430323621145
8.784,0.999998535177595,-4.451536295802739
8.792,0.9999986378918931,-4.626340063867504
8.8,0.9999987407076687,-4.801154315044084
8.808,0.9999988436197058,-4.975979027762727
8.815999999999999,0.9999989466228879,-5.150814180396653
8.824,0.9999990497121944,-5.325659751262092
8.832,0.9999991528827045,-5.500515718618351
8.84,0.9999992561295955,-5.675382060668014
8.847999999999999,0.9999993594481436,-5.850258755557193
8.856,0.9999994628337241,-6.025145781375585
8.864,0.9999995662818122,-6.200043116156546
8.872,0.999999669787982,-6.37495073787732
8.879999999999999,0.999999773347908,-6.549868624459282
8.888,0.9999998769573654,-6.724796753767989
8.896,0.9999999806122284,-6.899735103613298
8.904,1.0,-7.074683651749577
8.911999999999999,1.0,-7.249642375875948
8.92,1.0,-7.424611253636381
8.928,0.9999999999999999,-7.5995902626197696
8.936,1.0,-7.774579380360201
8.943999999999999,1.0000000000000002,-7.949578584337169
8.952,1.0,-8.124587851975694
8.96,0.9999999999999999,-8.299607160646397
8.968,0.9999999999999998,-8.474636487665778
8.975999999999999,1.0,-8.649675810296442
8.984,1.0,-8.82472510574722
8.992,0.9999999999999999,-8.999784351173263
9.0,1.0,-9.174853523676303
9.008,1.0,-9.34993260030491
9.016,1.0,-9.525021558054616
9.024000000000001,1.0,-9.700120373868
9.032,1.0,-9.875229024634967
9.04,0.9999999999999999,-10.050347487193033
9.048,1.0,-10.2254757383274
9.056000000000001,1.0,-10.400613754771117
9.064,1.0,-10.57576151320532
9.072,1.0,-10.750918990259526
9.08,1.0,-10.926086162511751
9.088000000000001,0.9999999999999999,-11.101263006488622
9.096,1.0,-11.276449498665679
9.104,1.0,-11.451645615467642
9.112,1.0,-11.626851333268533
9.120000000000001,0.9999999999999999,-11.802066628391822
9.128,1.0,-11.977291477110729
9.136,1.0,-12.152525855648454
9.144,1.0,-12.327769740178383
9.152000000000001,1.0,-12.503023106824179
9.16,0.9999999999999999,-12.678285931660087
9.168,0.9999999999999999,-12.853558190711244
9.176,0.9999999999999999,-13.028839859953791
9.184000000000001,0.9999999999999999,-13.204130915315062
9.192,1.0,-13.379431332673823
9.2,0.9999999999999999,-13.554741087860634
9.208,0.9999999999999999,-13.730060156657965
9.216000000000001,1.0,-13.905388514800343
9.224,1.0,-14.080726137974676
9.232,1.0,-14.256073001820551
9.24,0.9999999999999999,-14.431429081930393
9.248000000000001,0.9999999999999999,-14.606794353849608
9.256,1.0,-14.78216879307693
9.264,0.9999999999999999,-14.957552375064685
9.272,1.0,-15.13294507521899
9.280000000000001,0.9999999999999999,-15.30834686889991
9.288,0.9999999999999999,-15.483757731421763
9.296,0.9999999999999999,-15.659177638053453
9.304,1.0,-15.834606564018632
9.312000000000001,1.0,-16.01004448449585
9.32,1.0,-16.185491374618945
9.328,0.9999999999999999,-16.36094720947727
9.336,1.0,-16.536411964115942
9.344,1.0,-16.71188561353596
9.352,1.0,-16.887368132694704
9.36,1.0,-17.062859496505922
9.368,1.0,-17.23835967984025
9.376,1.0,-17.4138686575252
9.384,1.0,-17.589386404345692
9.392,1.0,-17.764912895044027
9.4,0.9999999999999999,-17.94044810432047
9.408,0.9999999999999999,-18.115992006833178
9.416,1.0,-18.29154457719876
9.424,1.0,-18.4671057899923
9.432,1.0,-18.642675619747838
9.44,1.0,-18.81825404095842
9.448,1.0,-18.993841028076613
9.456,1.0000000000000002,-19.169436555514498
9.464,0.9999999999999999,-19.345040597644253
9.472,1.0,-19.52065312879808
9.48,1.0,-19.696274123268854
9.488,0.9999999999999999,-19.871903555310013
9.496,1.0,-20.0475413991362
9.504,1.0,-20.223187628923228
9.512,1.0,-20.398842218808646
9.52,1.0,-20.57450514289169
9.528,0.9999999999999999,-20.750176375233977
9.536,1.0,-20.925855889859328
9.544,1.0,-21.101543660754494
9.552,1.0,-21.27723966186906
9.56,0.9999999999999999,-21.45294386711605
9.568,1.0,-21.628656250371947
9.576,1.0,-21.804376785477224
9.584,1.0000000000000002,-21.980105446236372
9.592,1.0,-22.155842206418512
9.6,1.0,-22.33158703975735
9.608,1.0,-22.50733991995175
9.616,0.9999999999999999,-22.683100820665786
9.624,1.0,-22.85886971552932
9.632,1.0,-23.03464657813797
9.64,1.0,-23.21043138205374
9.648,1.0,-23.386224100805006
9.656,1.0,-23.562024707887126
9.664,0.9999999999999999,-23.73783317676241
9.672,0.9999999999999999,-23.91364948086077
9.68,1.0,-24.08947359357968
9.688,1.0,-24.2653054882848
9.696,1.0,-24.44114513830998
9.704,1.0,-24.616992516957886
9.712,1.0000000000000002,-24.792847597499946
9.72,1.0,-24.968710353177034
9.728,1.0,-25.144580757199403
9.736,1.0,-25.320458782747398
9.744,1.0,-25.496344402971328
9.752,1.0,-25.672237590992214
9.76,0.9999999999999999,-25.84813831990169
9.768,0.9999999999999999,-26.024046562762713
