freq,mag,phase
6.0,0.9999979491334939,115.31462389235513
6.008,0.9999982966149379,115.22101034839423
6.016,0.999998635276338,115.12736764854607
6.024,0.9999989652427251,115.0336957490772
6.032,0.9999992866382702,114.93999460626607
6.04,0.9999995995862878,114.8462641764033
6.048,0.9999999042092369,114.75250441579182
6.056,1.0,114.6587152807471
6.064,1.0,114.56489672759736
6.072,0.9999999999999999,114.47104871268381
6.08,1.0,114.37717119236078
6.088,0.9999999999999999,114.28326412299597
6.096,0.9999999999999999,114.18932746097066
6.104,0.9999999999999999,114.09536116267988
6.112,1.0,114.00136518453265
6.12,1.0,113.90733948295217
6.128,1.0,113.81328401437598
6.136,1.0,113.71919873525627
6.144,1.0,113.62508360205999
6.152,1.0,113.53093857126905
6.16,0.9999999999999999,113.4367635993806
6.168,0.9999999999999999,113.34255864290715
6.176,1.0,113.24832365837686
6.184,0.9999999999999999,113.15405860233368
6.192,1.0,113.05976343133749
6.2,0.9999999999999999,112.96543810196447
6.208,0.9999999999999999,112.87108257080719
6.216,1.0,112.77669679447483
6.224,1.0,112.68228072959336
6.232,1.0,112.58783433280581
6.24,0.9999999999999998,112.4933575607724
6.248,1.0,112.39885037017076
6.256,1.0,112.3043127176962
6.264,0.9999999999999999,112.20974456006184
6.272,1.0,112.11514585399875
6.28,1.0,112.02051655625634
6.288,1.0,111.92585662360236
6.296,1.0,111.83116601282326
6.304,1.0,111.73644468072428
6.312,0.9999999999999999,111.6416925841297
6.32,0.9999999999999999,111.54690967988303
6.328,1.0000000000000002,111.45209592484726
6.336,0.9999999999999999,111.35725127590496
6.344,1.0,111.26237568995852
6.352,1.0,111.16746912393046
6.36,0.9999999999999999,111.07253153476346
6.368,1.0,110.97756287942063
6.376,0.9999999999999999,110.88256311488576
6.384,1.0,110.78753219816342
6.392,1.0,110.69247008627931
6.4,0.9999999999999999,110.59737673628028
6.408,1.0,110.50225210523463
6.416,0.9999999999999999,110.4070961502323
6.424,0.9999999999999999,110.31190882838509
6.432,1.0,110.2166900968268
6.44,1.0,110.12143991271346
6.448,0.9999999999999999,110.02615823322355
6.456,1.0,109.93084501555816
6.464,1.0,109.83550021694123
6.472,1.0,109.74012379461968
6.48,1.0,109.6447157058637
6.4879999999999995,1.0,109.54927590796686
6.496,1.0,109.45380435824637
6.504,0.9999999999999999,109.35830101404329
6.5120000000000005,1.0,109.26276583272261
6.52,0.9999999999999999,109.16719877167364
6.5280000000000005,1.0,109.07159978830997
6.536,1.0,108.97596884006991
6.5440000000000005,1.0,108.88030588441649
6.552,1.0,108.78461087883781
6.5600000000000005,1.0,108.6888837808471
6.568,1.0,108.59312454798305
6.5760000000000005,0.9999999999999999,108.49733313780985
6.584,1.0,108.40150950791757
6.592,1.0,108.30565361592218
6.6,1.0,108.20976541946588
6.608,1.0,108.11384487621724
6.616,0.9999999999999999,108.01789194387136
6.624,0.9999999999999999,107.92190658015012
6.632,1.0,107.82588874280239
6.64,1.0,107.72983838960415
6.648,0.9999999999999999,107.63375547835876
6.656,1.0,107.5376399668971
6.664,1.0,107.4414918130778
6.672,1.0,107.34531097478741
6.68,1.0,107.24909740994063
6.688,1.0,107.15285107648046
6.696,1.0,107.05657193237842
6.704,1.0,106.96025993563474
6.712,1.0,106.86391504427854
6.72,1.0,106.76753721636805
6.728,1.0,106.67112640999079
6.736,1.0,106.57468258326377
6.744,1.0,106.47820569433361
6.752,0.9999999999999999,106.3816957013769
6.76,0.9999999999999999,106.28515256260019
6.768,1.0,106.18857623624035
6.776,1.0,106.09196668056467
6.784,0.9999999999999999,105.99532385387106
6.792,1.0,105.89864771448829
6.8,1.0,105.80193822077612
6.808,0.9999999999999999,105.70519533112554
6.816,1.0,105.60841900395893
6.824,1.0,105.51160919773025
6.832,0.9999999999999999,105.41476587092531
6.84,0.9999999999999999,105.3178889820618
6.848,1.0,105.22097848968963
6.856,0.9999999999999999,105.12403435239105
6.864,1.0,105.02705652878089
6.872,0.9999999999999999,104.93004497750664
6.88,1.0,104.8329996572488
6.888,0.9999999999999999,104.73592052672092
6.896,0.9999999999999999,104.63880754466989
6.904,1.0,104.54166066987605
6.912,0.9999999999999998,104.44447986115348
6.92,0.9999999999999999,104.3472650773501
6.928,1.0,104.25001627734788
6.936,1.0,104.15273342006306
6.944,1.0,104.05541646444628
6.952,1.0,103.95806536948285
6.96,1.0,103.86068009419286
6.968,1.0,103.7632605976314
6.976,0.9999999999999999,103.66580683888874
6.984,1.0,103.56831877709055
6.992,0.9999999999999999,103.47079637139805
7.0,0.9999999999999999,103.37323958100816
7.008,1.0,103.27564836515381
7.016,0.9999999999999998,103.178022683104
7.024,1.0,103.08036249416402
7.032,1.0,102.9826677576757
7.04,1.0,102.88493843301751
7.048,0.9999999999999999,102.78717447960481
7.056,1.0,102.68937585688997
7.064,1.0,102.5915425243626
7.072,1.0,102.49367444154976
7.08,1.0,102.39577156801609
7.088,0.9999999999999999,102.29783386336399
7.096,1.0000000000000002,102.19986128723386
7.104,1.0,102.10185379930425
7.112,1.0,102.00381135929203
7.12,1.0,101.9057339269526
7.128,0.9999999999999999,101.80762146208009
7.136,1.0,101.70947392450745
7.144,1.0,101.61129127410676
7.152,1.0,101.51307347078931
7.16,0.9999999999999999,101.41482047450587
7.168,0.9999999999999999,101.31653224524675
7.176,1.0,101.21820874304215
7.184,0.9999999999999999,101.11984992796216
7.192,0.9999999999999999,101.0214557601171
7.2,1.0,100.92302619965758
7.208,1.0,100.82456120677476
7.216,0.9999999999999999,100.7260607417005
7.224,0.9999999999999999,100.6275247647075
7.232,0.9999999999999999,100.5289532361096
7.24,0.9999999999999999,100.43034611626182
7.248,0.9999999999999999,100.3317033655606
7.256,0.9999999999999999,100.23302494444404
7.264,0.9999999999999999,100.13431081339198
7.272,1.0,100.03556093292617
7.28,0.9999999999999999,99.93677526361061
7.288,1.0,99.83795376605151
7.296,1.0,99.73909640089764
7.304,1.0,99.64020312884041
7.312,1.0000000000000002,99.54127391061411
7.32,1.0,99.442308706996
7.328,1.0,99.34330747880662
7.336,0.9999999999999999,99.24427018690983
7.344,0.9999999999999998,99.14519679221304
7.352,1.0,99.04608725566749
7.36,0.9999999999999999,98.94694153826822
7.368,1.0,98.84775960105442
7.376,0.9999999999999999,98.74854140510949
7.384,0.9999999999999999,98.64928691156135
7.392,1.0,98.54999608158244
7.4,1.0,98.45066887639005
7.4079999999999995,1.0,98.35130525724642
7.416,1.0,98.2519051854589
7.4239999999999995,1.0,98.15246862238018
7.432,1.0,98.0529955294084
7.4399999999999995,0.9999999999999999,97.95348586798745
7.448,0.9999999999999999,97.85393959960693
7.4559999999999995,0.9999999999999999,97.75435668580253
7.464,0.9999999999999999,97.65473708815607
7.4719999999999995,0.9999999999999998,97.55508076829577
7.48,1.0,97.45538768789629
7.4879999999999995,1.0,97.35565780867914
7.496,1.0,97.25589109241248
7.504,0.9999999999999999,97.15608750091175
7.5120000000000005,1.0,97.05624699603939
7.52,0.9999999999999998,96.95636953970538
7.5280000000000005,1.0,96.85645509386714
7.536,0.9999999999999999,96.75650362052994
7.5440000000000005,0.9999999999999999,96.65651508174678
7.552,1.0,96.55648943961887
7.5600000000000005,1.0,96.4564266562956
7.568,1.0,96.3563266939748
7.5760000000000005,0.9999999999999998,96.25618951490279
7.584,1.0,96.15601508137473
7.5920000000000005,1.0,96.05580335573465
7.6,0.9999999999999999,95.95555430037574
7.6080000000000005,1.0000000000000002,95.85526787774026
7.616,1.0,95.75494405032012
7.6240000000000006,0.9999999999999999,95.65458278065667
7.632,1.0,95.55418403134108
7.640000000000001,1.0,95.45374776501438
7.648,1.0,95.35327394436786
7.656000000000001,0.9999999999999999,95.25276253214285
7.664,1.0,95.1522134911313
7.672,0.9999999999999998,95.05162678417568
7.68,0.9999999999999999,94.95100237416919
7.688,1.0,94.85034022405605
7.696,1.0,94.74964029683153
7.704,1.0,94.64890255554218
7.712,1.0,94.54812696328598
7.72,1.0,94.44731348321251
7.728,0.9999999999999999,94.34646207852313
7.736,0.9999999999999999,94.24557271247116
7.744,1.0,94.14464534836196
7.752,1.0,94.04367994955321
7.76,1.0,93.94267647945499
7.768,1.0,93.84163490153001
7.776,1.0,93.74055517929375
7.784,0.9999999999999999,93.63943727631458
7.792,0.9999999999999999,93.53828115621403
7.8,1.0,93.43708678266684
7.808,1.0,93.33585411940122
7.816,1.0,93.23458313019896
7.824,1.0,93.1332737788956
7.832,0.9999999999999999,93.03192602938066
7.84,0.9999999999999999,92.93053984559772
7.848,0.9999999999999998,92.8291151915446
7.856,1.0,92.72765203127362
7.864,1.0,92.62615032889161
7.872,0.9999999999999999,92.52461004856025
7.88,1.0,92.42303115449604
7.888,1.0,92.32141361097071
7.896,1.0,92.21975738231113
7.904,0.9999999999999999,92.11806243289968
7.912,1.0,92.0163287271743
7.92,1.0,91.91455622962873
7.928,1.0,91.81274490481258
7.936,0.9999999999999999,91.71089471733164
7.944,1.0,91.60900563184791
7.952,1.0,91.50707761307987
7.96,0.9999999999999998,91.40511062580258
7.968,1.0,91.30310463484791
7.976,1.0,91.20105960510465
7.984,0.9999999999999999,91.09897550151874
7.992,1.0,90.9968522890934
8.0,1.0,90.89468993288928
8.008,1.0,90.79248839802474
8.016,0.9999999999999999,90.69024764967587
8.024000000000001,0.9999999999999998,90.5879676530768
8.032,0.9999999999999999,90.48564837351985
8.04,1.0,90.38328977635558
8.048,0.9999999999999999,90.2808918269931
8.056000000000001,1.0,90.17845449090024
8.064,0.9999999999999999,90.07597773360371
8.072,1.0,89.9734615206892
8.08,1.0,89.87090581780164
8.088000000000001,0.9999999999999999,89.76831059064544
8.096,0.9999999999999999,89.66567580498455
8.104,0.9999999999999999,89.56300142664267
8.112,0.9999999999999999,89.46028742150348
8.120000000000001,0.9999999999999999,89.35753375551084
8.128,1.0,89.25474039466896
8.136,0.9999999999999999,89.1519073050425
8.144,1.0,89.04903445275686
8.152000000000001,0.9999999999999999,88.94612180399842
8.16,1.0,88.8431693250146
8.168,1.0,88.74017698211418
8.176,0.9999999999999999,88.63714474166734
8.184000000000001,1.0,88.53407257010608
8.192,0.9999999999999998,88.4309604339243
8.2,0.9999999999999999,88.32780829967794
8.208,1.0,88.22461613398531
8.216000000000001,1.0,88.12138390352726
8.224,0.9999999999999999,88.01811157504746
8.232,0.9999999999999999,87.91479911535241
8.24,1.0,87.81144649131187
8.248000000000001,1.0,87.70805366985905
8.256,1.0,87.60462061799079
8.264,0.9999999999999999,87.50114730276776
8.272,1.0,87.39763369131475
8.280000000000001,1.0,87.29407975082094
8.288,1.0,87.1904854485401
8.296,1.0,87.08685075179082
8.304,0.9999999999999999,86.98317562795671
8.312,1.0,86.87946004448689
8.32,1.0,86.77570396889597
8.328,0.9999999999999999,86.6719073687645
8.336,1.0,86.56807021173911
8.344,0.9999999999999999,86.46419246553302
8.352,1.0,86.36027409792601
8.36,1.0,86.25631507676498
8.368,0.9999999999999999,86.15231536996409
8.376,1.0,86.04827494550517
8.384,1.0,85.94419377143794
8.392,1.0,85.84007181588046
8.4,1.0,85.73590904701929
8.408,0.9999999999999999,85.63170543311001
8.416,1.0,85.52746094247743
8.424,0.9999999999999999,85.42317554351607
8.432,0.9999999999999999,85.31884920469037
8.44,0.9999999999999999,85.2144818945353
8.448,1.0,85.11007358165648
8.456,0.9999999999999999,85.00562423473087
8.464,0.9999999999999999,84.90113382250698
8.472,1.0,84.79660231380537
8.48,1.0,84.69202967751906
8.488,1.0,84.58741588261412
8.496,0.9999999999999999,84.48276089812998
8.504,1.0,84.37806469318004
8.512,0.9999999999999999,84.27332723695206
8.52,0.9999999999999998,84.16854849870886
8.528,0.9999999999999999,84.06372844778872
8.536,0.9999999999999999,83.958867053606
8.544,0.9999999999999999,83.85396428565173
8.552,1.0,83.74902011349421
8.56,1.0,83.64403450677966
8.568,1.0000000000000002,83.5390074352329
8.576,0.9999999999999999,83.43393886865792
8.584,0.9999999999999999,83.32882877693878
8.592,1.0,83.22367713004016
8.6,0.9999999999999999,83.11848389800828
8.608,1.0,83.01324905097158
8.616,1.0,82.90797255914173
8.624,0.9999999999999999,82.80265439281422
8.632,1.0,82.69729452236963
8.64,1.0,82.59189291827421
8.648,1.0,82.48644955108125
8.656,1.0,82.3809643914317
8.664,1.0,82.27543741005566
8.672,1.0,82.16986857777314
8.68,1.0,82.0642578654956
8.688,0.9999999999999999,81.95860524422685
8.696,1.0,81.85291068506461
8.704,0.9999999999999999,81.74717415920166
8.712,1.0,81.64139563792745
8.72,0.9999999999999999,81.53557509262936
8.728,0.9999999999999998,81.4297124947945
8.736,0.9999999999999999,81.32380781601113
8.744,0.9999999999999999,81.21786102797056
8.752,0.9999999999999999,81.11187210246874
8.76,1.0,81.00584101140836
8.768,0.9999999999999999,80.89976772680063
8.776,1.0,80.79365222076757
8.784,0.9999999999999999,80.68749446554394
8.792,1.0,80.58129443347977
8.8,1.0,80.47505209704265
8.808,1.0,80.36876742882028
8.815999999999999,0.9999999999999999,80.26244040152316
8.824,0.9999999999999998,80.15607098798735
8.832,1.0,80.04965916117754
8.84,1.0,79.94320489419009
8.847999999999999,1.0,79.8367081602562
8.856,0.9999999999999999,79.73016893274558
8.864,1.0,79.62358718516998
8.872,1.0,79.51696289118703
8.879999999999999,1.0,79.41029602460424
8.888,1.0,79.30358655938336
8.896,0.9999999999999999,79.19683446964487
8.904,1.0,79.09003972967277
8.911999999999999,0.9999999999999999,78.98320231391942
8.92,1.0,78.87632219701105
8.928,1.0,78.76939935375326
8.936,1.0,78.66243375913702
8.943999999999999,1.0,78.55542538834476
8.952,1.0,78.44837421675713
8.96,0.9999999999999999,78.34128021995996
8.968,1.0,78.23414337375164
8.975999999999999,1.0,78.12696365415088
8.984,1.0,78.0197410374051
8.992,1.0000000000000002,77.91247549999903
9.0,0.9999999999999999,77.80516701866424
9.008,1.0,77.6978155703886
9.016,0.9999999999999999,77.59042113242701
9.024000000000001,1.0,77.48298368231217
9.032,0.9999999999999999,77.37550319786642
9.04,1.0,77.26797965721401
9.048,1.0,77.16041303879412
9.056000000000001,1.0,77.05280332137497
9.064,0.9999999999999999,76.94515048406834
9.072,0.9999999999999999,76.8374545063453
9.08,1.0,76.72971536805265
9.088000000000001,1.0,76.62193304943064
9.096,1.0,76.51410753113151
9.104,1.0,76.4062387942392
9.112,1.0000000000000002,76.29832682029036
9.120000000000001,0.9999999999999998,76.19037159129661
9.128,1.0,76.08237308976827
9.136,1.0,75.97433129873905
9.144,1.0,75.86624620179296
9.152000000000001,0.9999999999999999,75.75811778309236
9.16,1.0,75.64994602740794
9.168,1.0,75.54173092015036
9.176,1.0,75.43347244740394
9.184000000000001,1.0,75.3251705959625
9.192,1.0,75.21682535336708
9.2,0.9999999999999999,75.10843670794611
9.208,0.9999999999999999,75.00000464885797
9.216000000000001,1.0,74.89152916613612
9.224,1.0,74.78301025073681
9.232,1.0,74.67444789458965
9.24,1.0,74.56584209065105
9.248000000000001,1.0,74.45719283296087
9.256,0.9999999999999999,74.34850011670224
9.264,1.0,74.23976393826453
9.272,1.0,74.13098429531006
9.280000000000001,0.9999999999999999,74.02216118684437
9.288,0.9999999999999999,73.9132946132901
9.296,0.9999999999999999,73.80438457656464
9.304,1.0,73.6954310801617
9.312000000000001,1.0,73.58643412923708
9.32,0.9999999999999999,73.47739373069797
9.328,0.9999999999999999,73.36830989329636
9.336,0.9999999999999999,73.25918262772639
9.344,1.0,73.15001194672543
9.352,1.0,73.04079786517852
9.36,0.9999999999999999,72.93154040022635
9.368,1.0,72.82223957137587
9.376,1.0,72.71289540061348
9.384,0.9999999999999999,72.6035079125196
9.392,1.0,72.49407713438475
9.4,1.0,72.38460309632477
9.408,1.0,72.27508583139524
9.416,1.0,72.16552537570279
9.424,1.0,72.0559217685117
9.432,1.0,71.94627505234358
9.44,1.0,71.83658527306775
9.448,1.0,71.72685247997879
9.456,1.0,71.61707672585814
9.464,0.9999999999999998,71.5072580670153
9.472,1.0,71.39739656330401
9.48,1.0,71.28749227810732
9.488,0.9999999999999999,71.17754527828602
9.496,1.0,71.06755563408205
9.504,1.0,70.95752341896987
9.512,1.0,70.84744870944519
9.52,1.0,70.73733158474212
9.528,1.0,70.6271721264661
9.536,0.9999999999999999,70.51697041813114
9.544,1.0,70.40672654458699
9.552,0.9999999999999999,70.29644059132278
9.56,0.9999999999999999,70.18611264363079
9.568,0.9999997962235861,70.07574278561582
9.576,0.9999990888855999,69.96533109903352
9.584,0.9999983907010628,69.8548776619429
9.592,0.9999977048197417,69.7443825471581
9.6,0.999997034684689,69.63384582048748
9.608,0.9999963840420529,69.52326753874988
9.616,0.9999957569479385,69.41264774756287
9.624,0.9999951577715152,69.30198647890268
9.632,0.9999945911934688,69.19128374844304
9.64,0.9999940621988319,69.08053955268852
9.648,0.9999935760631555,68.96975386592949
9.656,0.9999931383309609,68.85892663705735
9.664,0.9999927547854198,68.74805778629427
9.672,0.999992431408267,68.6371472019066
9.68,0.9999921743290702,68.52619473698888
9.688,0.9999919897631869,68.4152002064219
9.696,0.9999918839380009,68.30416338412613
9.704,0.9999918630074227,68.19308400074524
9.712,0.9999919329550806,68.08196174190753
9.72,0.9999920994871967,67.97079624721862
9.728,0.9999923679167472,67.85958711013924
9.736,0.9999927430411979,67.74833387889353
9.744,0.999993229016771,67.63703605853475
9.752,0.9999938292328702,67.5256931142666
9.76,0.9999945461908573,67.41430447607873
9.768,0.9999953813917998,67.30286954470361
9.776,0.9999963352380453,67.19138769884478
9.784,0.9999974069534499,67.07985830355966
9.792,0.9999985945267792,66.96828071961583
9.8,0.9999998946821794,66.85665431357383
9.808,0.9999999999999998,66.7449784682952
9.816,1.0,66.63325259353093
9.824,1.0,66.52147613622085
9.832,1.0,66.40964859012944
9.84,1.0,66.29776950446235
9.847999999999999,1.0,66.18583849114712
9.856,1.0,66.07385523052199
9.864,0.9999999999999999,65.9618194752511
9.872,0.9999999999999999,65.84973105236968
9.879999999999999,0.9999999999999999,65.73758986345022
9.888,1.0,65.62539588296654
9.896,1.0,65.51314915500777
9.904,1.0,65.40084978855624
9.911999999999999,1.0,65.28849795158905
9.92,1.0,65.17609386428947
9.928,0.9999999999999999,65.06363779166252
9.936,1.0,64.95113003584193
9.943999999999999,1.0,64.83857092835294
9.952,1.0,64.7259608225647
9.96,1.0,64.61330008652544
9.968,1.0,64.5005890963328
9.975999999999999,0.9999999999999999,64.38782823014833
9.984,1.0,64.27501786292551
9.992,1.0,64.16215836188412
10.0,0.9999999999999999,64.0492500827328
10.008,0.9999999999999998,63.93629336661674
10.016,1.0000000000000002,63.82328853774835
10.024000000000001,0.9999999999999999,63.71023590166451
10.032,1.0,63.597135744045715
10.04,1.0,63.483988330028005
10.048,1.0,63.37079390393765
10.056000000000001,1.0,63.2575526893805
10.064,1.0,63.144264889621255
10.072,0.9999999999999999,63.03093068819366
10.08,1.0,62.91755024968857
10.088000000000001,1.0,62.80412372067268
10.096,1.0,62.69065123069756
10.104,1.0,62.57713289336463
10.112,1.0,62.463568807417566
10.120000000000001,1.0,62.349959057839015
10.128,1.0,62.2363037169326
10.136,1.0,62.12260284537627
10.144,1.0,62.008856493235854
10.152000000000001,1.0,61.89506470093118
10.16,0.9999999999999999,61.78122750014928
10.168,0.9999999999999999,61.66734491470156
10.176,1.0,61.55341696132343
10.184000000000001,0.9999999999999999,61.439443650416074
10.192,0.9999999999999999,61.32542498673152
10.2,1.0,61.211360970001934
10.208,1.0,61.09725159551622
10.216000000000001,0.9999999999999999,60.98309685464591
10.224,0.9999999999999999,60.8688967353234
10.232,1.0,60.75465122247548
10.24,1.0,60.64036029841522
10.248000000000001,1.0,60.526023943195554
10.256,1.0,60.411642134927014
10.264,1.0,60.29721485006281
10.272,1.0,60.182742063654224
10.280000000000001,1.0,60.068223749578486
10.288,1.0,59.95365988074195
10.296,0.9999999999999999,59.83905042926056
10.304,0.9999999999999999,59.724395366619994
10.312000000000001,1.0000000000000002,59.609694663817514
10.32,1.0,59.494948291486935
10.328,0.9999999999999998,59.38015622000868
10.336,1.0,59.26531841960647
10.344000000000001,1.0,59.15043486043202
10.352,1.0,59.03550551263878
10.36,1.0,58.92053034644602
10.368,1.0,58.805509332194404
10.376000000000001,0.9999999999999999,58.69044244039385
10.384,1.0,58.57532964176461
10.392,0.9999999999999999,58.46017090727203
10.4,1.0,58.34496620815619
10.408000000000001,1.0,58.22971551595676
10.416,0.9999999999999999,58.11441880253342
10.424,1.0,57.99907604008269
10.432,1.0,57.88368720115146
10.440000000000001,1.0,57.76825225864771
10.448,1.0,57.65277118584856
10.456,1.0,57.53724395640609
