freq,mag,phase
6.0,1.0001336376494063,-78.2086141057051
6.003833344,1.0001042342922875,-78.41128847039819
6.007666688,1.0000676880635406,-78.6135451198025
6.01149952,1.000026819757697,-78.81530797774386
6.015332864,0.9999844116678654,-79.01654016748691
6.019166208,0.9999427404544435,-79.21718754594653
6.022999552,0.9999047262222734,-79.41730883599054
6.026832896,0.9998722571220907,-79.61702232893373
6.03066624,0.9998476409775738,-79.81633950096113
6.034499072,0.9998322507799116,-80.01543739073585
6.038332416,0.9998268827314437,-80.21439655286504
6.04216576,0.9998322664772998,-80.4134493469992
6.045999104,0.9998476368453927,-80.61267435013832
6.049832448,0.9998722856455551,-80.81224450311659
6.053665792,0.9999048398944973,-81.0122179517327
6.057498624,0.9999431509836668,-81.21281281627927
6.061331968,0.9999848220975398,-81.4139976187096
6.065165312,1.0000276750021708,-81.61579566723819
6.068998656,1.0000687805734103,-81.81826981128282
6.072832,1.0001058494610946,-82.02130412098766
6.076664832,1.0001364808756514,-82.224895103418
6.080498176,1.0001587583728018,-82.42888394357234
6.08433152,1.0001715871359755,-82.63321108953379
6.088164864,1.0001741445461851,-82.83763202566652
6.091998208,1.0001659589852705,-83.0421320105228
6.095831552,1.0001477919781119,-83.24644635446516
6.099664384,1.0001205382755085,-83.4505391883805
6.103497728,1.000086086121167,-83.6541659650156
6.107331072,1.0000463149413215,-83.85733974904967
6.111164416,1.0000036907784986,-84.05994846860578
6.11499776,0.9999607829844964,-84.2620422166677
6.118831104,0.9999202492300012,-84.46355315503611
6.122663936,0.9998844947982543,-84.6645926645276
6.12649728,0.9998558450367555,-84.8651860291886
6.130330624,0.9998357997860852,-85.06547209871657
6.134163968,0.9998256187242414,-85.26561291505215
6.137997312,0.9998261474643744,-85.46570876146568
6.141830144,0.9998370336593105,-85.66597038920528
6.145663488,0.9998580414337015,-85.86641559119988
6.149496832,0.9998874850811602,-86.06732878889359
6.153330176,0.9999237853213893,-86.26875412479497
6.15716352,0.9999649233890144,-86.47076771741122
6.160996864,1.000008172674112,-86.6733991461887
6.164829696,1.0000509357702878,-86.87667825574881
6.16866304,1.0000905710002903,-87.0806285554499
6.172496384,1.0001248682658728,-87.28512223189644
6.176329728,1.0001515494009254,-87.49008069919468
6.180163072,1.0001692741851969,-87.69542247140065
6.183996416,1.0001765101960889,-87.90096201595426
6.187829248,1.0001731656225057,-88.10662384043759
6.191662592,1.0001592369674621,-88.31212222347872
6.195495936,1.0001356452830514,-88.51747201581392
6.19932928,1.0001040001947425,-88.72245697456287
6.203162624,1.0000658311598585,-88.92693684383636
6.206995456,1.0000237136407988,-89.13096284177796
6.2108288,0.9999800432397163,-89.33435540048714
6.214662144,0.9999375438905692,-89.53724647122704
6.218495488,0.9998988709162423,-89.7395383433938
6.222328832,0.9998661735367019,-89.941430596639
6.226162176,0.9998416412641535,-90.14291228468073
6.229995008,0.9998266452808874,-90.34414667518486
6.233828352,0.9998220600253064,-90.54529101215861
6.237661696,0.999828321585746,-90.74649935909055
6.24149504,0.9998450564638869,-90.94787905889372
6.245328384,0.9998712392291491,-91.14964183625969
6.249161728,0.999905296243129,-91.3518438170933
6.25299456,0.999944863833384,-91.55460605503694
6.256827904,0.9999880140266212,-91.75802837765968
6.260661248,1.000031874970117,-91.96208723521238
6.264494592,1.0000738536411988,-92.16683037499062
6.268327936,1.000111294806212,-92.37212216090174
6.272160768,1.00014215036935,-92.57796151863494
6.275994112,1.0001643211287106,-92.78421914419232
6.279827456,1.000176757280556,-92.9907762724246
6.2836608,1.0001783117272869,-93.1974466699093
6.287494144,1.0001690214068484,-93.40413880791179
6.291327488,1.0001495622440837,-93.61065823891371
6.29516032,1.0001209867285834,-93.81686841590583
6.298993664,1.0000850389383569,-94.0226398668818
6.302827008,1.0000438995232688,-94.22792781144956
6.306660352,1.0000000432328,-94.4326465844216
6.310493696,0.9999560939335298,-94.63678687545287
6.31432704,0.9999147972015562,-94.84038071091524
6.318159872,0.9998786448880197,-95.04344331218401
6.321993216,0.9998497384089462,-95.24604051770119
6.32582656,0.9998299340850295,-95.44836697577173
6.329659904,0.9998204172388157,-95.65051135393772
6.333493248,0.9998217098026401,-95.85264693036848
6.33732608,0.9998338207489621,-96.05493747609968
6.341159424,0.9998561060373328,-96.25746605403334
6.344992768,0.9998871737777881,-96.46041274623599
6.348826112,0.9999249980332813,-96.66391987207416
6.352659456,0.9999674983171973,-96.86800258388239
6.3564928,1.0000118443876915,-97.07274548793166
6.360325632,1.0000556258539361,-97.27817150519091
6.364158976,1.0000958715358126,-97.4842418290478
6.36799232,1.0001306328443267,-97.69082217022832
6.371825664,1.000157371366007,-97.89792310790168
6.375659008,1.000174542908431,-98.10537512093266
6.37949184,1.0001812516853144,-98.31302151124426
6.383325184,1.0001769363066073,-98.5207575369372
6.387158528,1.0001619353098514,-98.72835247216005
6.390991872,1.0001369212944011,-98.93571866591117
6.394825216,1.0001036205303062,-99.14267840166161
6.39865856,1.0000640711294484,-99.34919792280773
6.402491392,1.0000204580924057,-99.55513027721699
6.406324736,0.9999757230037425,-99.76049035097124
6.41015808,0.9999322916931987,-99.96525938010686
6.413991424,0.9998929552308553,-100.16949604524787
6.417824768,0.9998600151262426,-100.37323162610454
6.421658112,0.9998355212820274,-100.5765460618924
6.425490944,0.9998210110576126,-100.77970423292066
6.429324288,0.9998171646108088,-100.98273298720935
6.433157632,0.9998245146645498,-101.18580747690407
6.436990976,0.9998425243611447,-101.38909696432262
6.44082432,0.999870045231901,-101.5927413342913
6.444657152,0.9999053716886852,-101.79688586152609
6.448490496,0.999946620711906,-102.00160299004109
6.45232384,0.9999910698977448,-102.2069170731621
6.456157184,1.0000360050398567,-102.4129980721845
6.459990528,1.0000787907933546,-102.61966779927675
6.463823872,1.0001169851170526,-102.82694861245703
6.467656704,1.0001479941178508,-103.03476539835754
6.471490048,1.0001700545064178,-103.24298383778259
6.475323392,1.000181847957173,-103.45149794222047
6.479156736,1.0001826195390586,-103.66015424349057
6.48299008,1.0001723409472159,-103.8687213990069
6.486823424,1.0001515443259041,-104.07715192283898
6.490656256,1.0001214348358425,-104.28524779500741
6.4944896,1.0000840267623252,-104.4928368868694
6.498322944,1.0000414689014794,-104.6999862461051
6.502156288,0.9999962509712877,-104.9064857880464
6.505989632,0.999951295390848,-105.11237048190613
6.509822464,0.9999092150903225,-105.31770970621476
6.513655808,0.9998725032996196,-105.5224913134728
6.517489152,0.9998434433883845,-105.72686055933896
6.521322496,0.9998238724464728,-105.9309136613944
6.52515584,0.9998148435324652,-106.13478184422124
6.528989184,0.9998172254554244,-106.33862581294011
6.532822016,0.9998305624856433,-106.54261809470937
6.53665536,0.9998541485299985,-106.74693485258068
6.540488704,0.999886539001826,-106.95162900929371
6.544322048,0.9999258010480558,-107.15685827360727
6.548155392,0.9999697255503088,-107.3627696986596
6.551988736,1.0000154081985384,-107.56928902331762
6.555821568,1.0000602602846442,-107.77656065413636
6.559654912,1.000101353053759,-107.98438813325528
6.563488256,1.000136527582763,-108.19284067618287
6.5673216,1.0001632398890048,-108.40172533271276
6.571154944,1.000180166407274,-108.6109818032984
6.574987776,1.00018612991266,-108.82040890614628
6.57882112,1.0001808337709628,-109.02990906778733
6.582654464,1.0001644818774056,-109.23926415527858
6.586487808,1.0001382003547414,-109.44837366237786
6.590321152,1.0001035215811587,-109.65703297184228
6.594154496,1.0000624527596356,-109.86523034930511
6.597987328,1.0000174570818012,-110.07281545217782
6.601820672,0.9999713875516645,-110.27981061424966
6.605654016,0.9999270032151273,-110.48615220278418
6.60948736,0.9998869974525739,-110.69192137025226
6.613320704,0.9998537637877463,-110.8972351114509
6.617154048,0.9998292064108818,-111.10215035399244
6.62098688,0.9998150623673279,-111.30682734102257
6.624820224,0.9998120705887383,-111.51140428544383
6.628653568,0.9998203954950704,-111.71605108064215
6.632486912,0.9998397340974355,-111.92090137416827
6.636320256,0.9998686391689064,-112.12614968015633
6.640153088,0.9999055961775825,-112.33188549375456
6.643986432,0.9999481624007371,-112.53820183515177
6.647819776,0.9999940239663475,-112.74517270998939
6.65165312,1.0000401335004943,-112.95284225641436
6.655486464,1.000084016039306,-113.16116730061067
6.659319808,1.0001227054011599,-113.37012055846908
6.66315264,1.0001539435739193,-113.57956627965112
6.666985984,1.0001759056110615,-113.78944843753553
6.670819328,1.0001872283260547,-113.9995808491546
6.674652672,1.0001871629642514,-114.20982137052047
6.678486016,1.0001757078172033,-114.42001186815757
6.68231936,1.000153577037334,-114.62999873823428
6.686152192,1.0001220644094222,-114.83961507401706
6.689985536,1.0000830797674904,-115.04876563455689
6.69381888,1.000039034766649,-115.25736948348595
6.697652224,0.9999924429324868,-115.46537429125034
6.701485568,0.9999463605523932,-115.6726894085554
6.7053184,0.9999033422639875,-115.87940761841486
6.709151744,0.9998661957231758,-116.08559981023598
6.712985088,0.999836971502467,-116.29136029102477
6.716818432,0.9998176643222345,-116.49678013385939
6.720651776,0.9998092432000644,-116.70204208924179
6.72448512,0.9998124640417272,-116.90726861313037
6.728317952,0.9998268988645819,-117.1126478814932
6.732151296,0.999851851195169,-117.3183258618259
6.73598464,0.9998858117229551,-117.52445905387309
6.739817984,0.9999266983960964,-117.73113103439032
6.743651328,0.9999719663607786,-117.9384476245979
6.747484672,1.0000190303717365,-118.146458807613
6.751317504,1.0000648955797586,-118.35515027588418
6.755150848,1.0001068400027624,-118.56450361662785
6.758984192,1.0001423838727486,-118.77439371942822
6.762817536,1.000169216763916,-118.98475371166865
6.76665088,1.0001858723101436,-119.19549507252749
6.770483712,1.0001911081244408,-119.40635406485508
6.774317056,1.0001848989192708,-119.61727362463509
6.7781504,1.0001673025157634,-119.82801439122039
6.781983744,1.0001395194114393,-120.03850409850091
6.785817088,1.0001033035354447,-120.24854948978681
6.789650432,1.000060654443822,-120.45802503055454
6.793483264,1.0000142858938308,-120.6669090795034
6.797316608,0.9999670697217635,-120.8751601057248
6.801149952,0.9999215719832159,-121.08277223268726
6.804983296,0.9998808036756569,-121.28980579319744
6.80881664,0.999847202813346,-121.49628317649245
6.812649984,0.9998227586268256,-121.70242952877523
6.816482816,0.9998090047183718,-121.90828545358589
6.82031616,0.9998068028072261,-122.11407211812255
6.824149504,0.9998161619872119,-122.31988931706488
6.827982848,0.9998366531887012,-122.52597936218645
6.831816192,0.9998671821058158,-122.73241270037012
6.835649024,0.9999056852151569,-122.9393868758855
6.839482368,0.9999498553594879,-123.1469815931064
6.843315712,0.9999969828720173,-123.35521676642085
6.847149056,1.0000444111831202,-123.5641742730661
6.8509824,1.0000891372289755,-123.77377158180313
6.854815744,1.0001285253375012,-123.98401672373545
6.858648576,1.0001601183543483,-124.19477691858873
6.86248192,1.0001819657383935,-124.40590033062888
6.866315264,1.0001927649490023,-124.617329980278
6.870148608,1.0001918316506972,-124.82883504088196
6.873981952,1.0001791884425182,-125.04024205320373
6.877815296,1.0001556922684525,-125.25145479686812
6.881648128,1.0001227315041015,-125.46224455782095
6.885481472,1.000082139895971,-125.67253296418968
6.889314816,1.0000365790489079,-125.88227229407147
6.89314816,0.9999886829092505,-126.09132439573712
6.896981504,0.9999413281105415,-126.29973206317534
6.900814336,0.9998974145778029,-126.50753086474427
6.90464768,0.9998596011612868,-126.71475183265038
6.908481024,0.9998302221503355,-126.9214893665958
6.912314368,0.9998111071909683,-127.12793169987118
6.916147712,0.9998033449992522,-127.3341668520722
6.919981056,0.9998074645240554,-127.54040666952987
6.923813888,0.9998231622900348,-127.74680251215088
6.927647232,0.9998494996979389,-127.95352309815553
6.931480576,0.9998850190152548,-128.16070240729917
6.93531392,0.9999274813097121,-128.36843856468988
6.939147264,0.9999743016897665,-128.57680484997707
6.942980608,1.0000226657955649,-128.78594073889477
6.94681344,1.0000696826360427,-128.99570331581117
6.950646784,1.0001125053330047,-129.2060982681222
6.954480128,1.000148418588112,-129.417132042588
6.958313472,1.0001753234535151,-129.62859365667538
6.962146816,1.0001916246525133,-129.8404029553267
6.965979648,1.0001962615013467,-130.05236521129305
6.969812992,1.0001890011236951,-130.2643513870247
6.973646336,1.0001702399291037,-130.47611941372188
6.97747968,1.000140883385531,-130.6875697805402
6.981313024,1.0001030355626002,-130.89856846672808
6.985146368,1.000058870400095,-131.10903326741072
6.9889792,1.0000109306664227,-131.3188331209869
6.992812544,0.9999622809300022,-131.52794797283963
6.996645888,0.9999157546241643,-131.73641245755053
7.000479232,0.9998742557968664,-131.94428317616004
7.004312576,0.999840282161065,-132.15161308491432
7.008145408,0.9998158387773763,-132.3585580952473
7.011978752,0.9998024096935774,-132.56523240291511
7.015812096,0.9998009701868315,-132.77179611134144
7.01964544,0.999811542469203,-132.97844757924884
7.023478784,0.9998334084165967,-133.18536677165022
7.027312128,0.9998654141857142,-133.39268512293035
7.03114496,0.9999054555411184,-133.60047081428945
7.034978304,0.9999513200527361,-133.8089095639168
7.038811648,0.9999999552270403,-134.01805761767076
7.042644992,1.0000487251743881,-134.22787992665283
7.046478336,1.000094514179311,-134.43838932973415
7.05031168,1.0001344692556697,-134.64954349054364
7.054144512,1.0001663211500331,-134.86119641236272
7.057977856,1.0001880588162486,-135.0732547991942
7.0618112,1.000198314114186,-135.2855496861419
7.065644544,1.000196600032024,-135.49790321578647
7.069477888,1.0001828174493896,-135.71020044642978
7.07331072,1.0001578980951975,-135.9222048036518
7.077144064,1.0001233034220494,-136.13380621156938
7.080977408,1.0000811218426684,-136.3448489407796
7.084810752,1.0000338840173841,-136.55530511247846
7.088644096,0.9999845846742613,-136.7650809973824
7.09247744,0.9999359531828207,-136.97417016179767
7.096310272,0.9998911609383841,-137.18259669896293
7.100143616,0.9998527944562949,-137.39043902920355
7.10397696,0.9998232461139653,-137.59782231150845
7.107810304,0.9998043345771909,-137.80485206386965
7.111643648,0.9997972234384401,-138.01171658154777
7.115476992,0.9998022449621129,-138.21856731256185
7.119309824,0.9998192359901142,-138.42556934519087
7.123143168,0.9998470642981608,-138.6329278602698
7.126976512,0.999884301782949,-138.84073167629543
7.130809856,0.9999283207778398,-139.04914111573035
7.1346432,0.9999767400703575,-139.2582160896391
7.138476032,1.0000265800148838,-139.46800188990267
7.142309376,1.0000747315717955,-139.67847674730763
7.14614272,1.0001184118532969,-139.88958844780427
7.149976064,1.000154883924149,-140.10135235464477
7.153809408,1.0001818471715531,-140.31350506537225
7.157642752,1.0001978471033703,-140.52600090676682
7.161475584,1.0002017632715976,-140.73863092895522
7.165308928,1.000193415782051,-140.95126862914995
7.169142272,1.0001731911790428,-141.16370139003118
7.172975616,1.000142509525822,-141.37577486715824
7.17680896,1.0001029463665425,-141.58734674414262
7.180642304,1.0000570831631443,-141.7983464200063
7.184475136,1.0000076248340541,-142.00866840815607
7.18830848,0.9999575691642222,-142.21825365908492
7.192141824,0.9999099603727588,-142.4271983845753
7.195975168,0.9998676320963916,-142.63549567617963
7.199808512,0.9998331800970786,-142.84325024503968
7.203641344,0.9998087849718168,-143.05060968124445
7.207474688,0.9997958767612369,-143.25767750221925
7.211308032,0.9997952326634204,-143.4646717163268
7.215141376,0.9998069568417572,-143.6717280833388
7.21897472,0.9998301786523003,-143.87904996888201
7.222808064,0.9998637967580719,-144.08677064462591
7.226640896,0.999905551091367,-144.29505504326764
7.23047424,0.9999529945626386,-144.50397666451687
7.234307584,1.0000032700464045,-144.71361037244222
7.238140928,1.0000533484363805,-144.92390054314848
7.241974272,1.0001002110271793,-145.13491165846648
7.245807616,1.0001408806616514,-145.34657063862335
7.249640448,1.0001730047233728,-145.55874120445327
7.253473792,1.0001945755585995,-145.77128748440884
7.257307136,1.000204358654979,-145.98408607687014
7.26114048,1.000201618399631,-146.19693236264123
7.264973824,1.0001866235902364,-146.40964216336798
7.268806656,1.0001602083203744,-146.62205833736576
7.27264,1.0001239977220435,-146.83406233594815
7.276473344,1.00008009851329,-147.0454637027055
7.280306688,1.0000312296628269,-147.25624473068237
7.284140032,0.9999803536788059,-147.46629316220304
7.287973376,0.9999304254734264,-147.67566469070496
7.291806208,0.9998847262629621,-147.8843390243134
7.295639552,0.9998457457273582,-148.09239779800464
7.299472896,0.9998159977278022,-148.29995277477377
7.30330624,0.9997973138394144,-148.50721283248254
7.307139584,0.9997908447069639,-148.71426382232272
7.310972928,0.9997969193150547,-148.92135690668226
7.31480576,0.9998152006328074,-149.1285866098171
7.318639104,0.9998446295299759,-149.33615338622798
7.322472448,0.999883482013794,-149.54418684694681
7.326305792,0.9999293300247378,-149.75285661953683
7.330139136,0.9999794406813908,-149.9621846985629
7.333971968,1.0000307235364576,-150.1722660999785
7.337805312,1.000080136772932,-150.38304406880533
7.341638656,1.0001246646371273,-150.5944951852989
7.345472,1.0001616083194769,-150.80649555927553
7.349305344,1.0001887277455648,-151.01899976490276
7.353138688,1.000204369941571,-151.231767028694
7.35697152,1.0002074918208441,-151.44470150266224
7.360804864,1.000198029526828,-151.65755117258206
7.364638208,1.0001764069587804,-151.8702436842873
7.368471552,1.0001439961410141,-152.0824922364603
7.372304896,1.0001028004592738,-152.2942769031047
7.37613824,1.0000551537203197,-152.50537622020698
7.379971072,1.0000040082545474,-152.71582679569434
7.383804416,0.9999525513886502,-152.92549478461606
7.38763776,0.9999037415707934,-153.13447722671202
7.391471104,0.9998607098929544,-153.34282894691947
7.395304448,0.9998258808801407,-153.55057013610633
7.39913728,0.9998014493974368,-153.75790080994219
7.402970624,0.9997889496938057,-153.96498592494856
7.406803968,0.9997892366198974,-154.17198052369199
7.410637312,0.9998021215136434,-154.37902620045045
7.414470656,0.9998269977945655,-154.5863752157131
7.418304,0.9998622609441583,-154.79412894252994
7.422136832,0.9999058455364509,-155.0024580663018
7.425970176,0.9999550273687784,-155.2114185512426
7.42980352,1.000006940882018,-155.4210964666087
7.433636864,1.000058409413548,-155.63153977002
7.437470208,1.0001062538617458,-155.8426509134463
7.441303552,1.0001477003499517,-156.05438903181027
7.445136384,1.000180034080456,-156.26667268724498
7.448969728,1.0002015343513937,-156.47932341055107
7.452803072,1.000210660043159,-156.69217731393093
7.456636416,1.0002070480776188,-156.90509058427753
7.46046976,1.0001906561075058,-157.11787098581664
7.464302592,1.0001626563704173,-157.33031219109753
7.468135936,1.000124653049545,-157.54226453741276
7.47196928,1.0000789742931442,-157.7536593885569
7.475802624,1.0000282790146229,-157.96434021579438
7.479635968,0.9999758264183102,-158.17428610377303
7.483469312,0.9999246181897407,-158.38351903576432
7.487302144,0.9998778193749377,-158.59198859713408
7.491135488,0.9998382606105061,-158.7998781551431
7.494968832,0.9998083471072337,-159.00724856457742
7.498802176,0.9997899720621937,-159.21427689007723
7.50263552,0.9997841775800962,-159.42113940017845
7.506468864,0.9997913476683333,-159.62797283907966
7.510301696,0.9998111219142324,-159.83501547001183
7.51413504,0.9998422018234991,-160.04238327968704
7.517968384,0.999882772422009,-160.25031089110263
7.521801728,0.9999305041502302,-160.45881068724566
7.525635072,0.9999823779910144,-160.66802059786352
