freq,mag,phase
6.0,0.999617997259579,32.667879531179636
6.007533056,0.9995897001330576,32.48713937628366
6.015066112,0.9995844025080914,32.30665340225689
6.022598656,0.9996021657612807,32.12600492611438
6.030131712,0.9996423373978087,31.945019581457082
6.037664768,0.9997023907536539,31.763345416289027
6.045197824,0.9997792335412943,31.580731704967206
6.05273088,0.9998684091902553,31.396995331679406
6.060263424,0.9999651195068339,31.211999298827816
6.06779648,1.0000638539284172,31.025644737322043
6.075329536,1.0001593869978456,30.837966895313237
6.082862592,1.0002461679847945,30.64901972246592
6.090395648,1.0003194265856195,30.45902418698755
6.097928192,1.0003752299584538,30.268155861763816
6.105461248,1.0004103130961046,30.07665039441395
6.112994304,1.0004227838393025,29.884780353052747
6.12052736,1.0004119918491892,29.69292731125754
6.128060416,1.000378403099023,29.501344939990105
6.135593472,1.000323966407396,29.31040995049138
6.143126016,1.000251616260784,29.120253406410765
6.150659072,1.0001654992088618,28.931271749671097
6.158192128,1.0000702184008836,28.74342501910292
6.165725184,0.9999710345389895,28.556887983370576
6.17325824,0.9998736134384312,28.371750077458085
6.180790784,0.9997832879582726,28.18784729118904
6.18832384,0.9997049683761544,28.005093548944217
6.195856896,0.999643241630284,27.823273825672278
6.203389952,0.9996013949061529,27.642168650873447
6.210923008,0.9995817703170163,27.461480776231397
6.218455552,0.9995854783372645,27.280889560795305
6.225988608,0.9996122968766831,27.10004536803821
6.233521664,0.9996608509409177,26.918799050672153
6.24105472,0.9997284239019326,26.73668453108928
6.248587776,0.9998112170278662,26.553540973922235
6.25612032,0.9999046438257976,26.369194006443927
6.263653376,1.0000035356124812,26.18355583490876
6.271186432,1.0001024216785057,25.996559093999295
6.278719488,1.000195924374325,25.80826673036521
6.286252544,1.0002785910667453,25.61872217160594
6.293785088,1.000346049367933,25.4282070561812
6.301318144,1.0003944504683107,25.23686278419068
6.3088512,1.0004211113116652,25.045031031708096
6.316384256,1.0004245728274233,24.85295267362563
6.323917312,1.0004046868078875,24.66101356930453
6.331449856,1.00036235433854,24.46950408669485
6.338982912,1.0003000600027696,24.27865956713231
6.346515968,1.0002213071779749,24.088813295848055
6.354049024,1.0001302159837426,23.900054121407337
6.36158208,1.0000320443491815,23.71259982318896
6.369114624,0.9999320849319421,23.52649516937792
6.37664768,0.9998360836068655,23.34171246304116
6.384180736,0.9997491527025038,23.15817715621056
6.391713792,0.9996763284603749,22.975709434307202
6.399246848,0.9996214945298404,22.794137781651827
6.406779904,0.999587797278053,22.613106579718632
6.414312448,0.9995770725820834,22.432400666244142
6.421845504,0.9995900187999878,22.25171218366776
6.42937856,0.9996258028551986,22.070653031259937
6.436911616,0.9996825981733505,21.888992020605784
6.444444672,0.9997570851167867,21.70636655559786
6.451977216,0.9998452285006684,21.52268683918909
6.459510272,0.9999422440813123,21.337756439540648
6.467043328,1.0000426712444055,21.151448252138035
6.474576384,1.0001407896281105,20.963816680636796
6.48210944,1.0002314160597017,20.774859652885766
6.489641984,1.0003093221935613,20.584758055563036
6.49717504,1.0003701855870921,20.39372668721986
6.504708096,1.0004107155000284,20.202006768311062
6.512241152,1.0004287000649525,20.009865790132814
6.519774208,1.0004230159203953,19.817641780275643
6.527306752,1.0003939329984075,19.625603687368127
6.534839808,1.000343087909909,19.434170973948238
6.542372864,1.0002733492344638,19.243506445563927
6.54990592,1.000188592789067,19.053875576432176
6.557438976,1.0000933464025343,18.86552942152605
6.56497152,0.9999930784053744,18.678454616033143
6.572504576,0.9998932247244711,18.49273274621199
6.580037632,0.9997993404437634,18.308331839908476
6.587570688,0.9997166503728117,18.12512079485374
6.595103744,0.9996498679864869,17.942942875465178
6.602636288,0.9996025185051126,17.761503981491824
6.610169344,0.9995773362698862,17.58058361739342
6.6177024,0.999575862888376,17.399838746599322
6.625235456,0.9995979285681091,17.21891986544515
6.632768512,0.9996425456772399,17.037589619870587
6.640301568,0.9997072127453939,16.855478403656075
6.647834112,0.9997882632391071,16.672380792258437
6.655367168,0.9998811724512614,16.488105942364616
6.662900224,0.9999809512505679,16.30251813027279
6.67043328,1.0000819678296171,16.115553141393043
6.677966336,1.000178663929222,15.927253442198507
6.68549888,1.0002655138164716,15.737665403551041
6.693031936,1.0003379409625635,15.547028382359894
6.700564992,1.0003917509997717,15.355514482863878
6.708098048,1.0004239716432097,15.163389511030719
6.715631104,1.000432928007625,14.971023177580523
6.723163648,1.0004179038752086,14.778649706748913
6.730696704,1.0003798275859257,14.586646717070986
6.73822976,1.0003207871929627,14.395287012937928
6.745762816,1.0002440607919052,14.204864813224711
6.753295872,1.0001538773686567,14.0155304911372
6.760828416,1.0000552313134654,13.827524131855965
6.768361472,0.9999535755766802,13.640819976133212
6.775894528,0.9998545392041052,13.455481052093855
6.783427584,0.9997637029897092,13.271447038897662
6.79096064,0.9996860264075259,13.088550097867929
6.798493184,0.9996257923636593,12.906615217669634
6.80602624,0.9995865106229376,12.725325983035235
6.813559296,0.9995702658739866,12.544423414252803
6.821092352,0.9995780152041779,12.363579214909636
6.828625408,0.9996093691888802,12.18244492471857
6.836157952,0.9996625427991745,12.000750957263199
6.843691008,0.9997345976594271,11.81817740970653
6.851224064,0.9998216085808657,11.634530848385246
6.85875712,0.999918734446988,11.449618386910709
6.866290176,1.0000204939168282,11.263395988257551
6.87382272,1.000121328787672,11.075753890623611
6.881355776,1.0002155652087743,10.886734429020606
6.888888832,1.0002982017791016,10.6965818192848
6.896421888,1.0003643681859895,10.505406646350757
6.903954944,1.000410501818058,10.313449141749626
6.911488,1.0004340034626975,10.120963033437821
6.919020544,1.000433618518261,9.928382468467571
6.9265536,1.0004092531638367,9.735936762877337
6.934086656,1.0003623872165124,9.543957191193927
6.941619712,1.000295516274909,9.352778921528525
6.949152768,1.0002122723927274,9.162570633476733
6.956685312,1.0001173757260082,8.973562907544734
6.964218368,1.0000159591047475,8.785916890299415
6.971751424,0.9999137955151335,8.599620076947836
6.97928448,0.9998164237668112,8.414688833092073
6.986817536,0.999729329096212,8.230980167120627
6.99435008,0.9996573299114543,8.048388374358902
7.001883136,0.9996044750440398,7.866631279864504
7.009416192,0.9995737006953082,7.685466252689647
7.016949248,0.999566643138515,7.504507889262001
7.024482304,0.9995837805942392,7.323487046454495
7.032014848,0.9996242376645228,7.142065065988621
7.039547904,0.9996855702977133,6.9599762093126945
7.04708096,0.9997647390045007,6.7769261569725305
7.054614016,0.9998570432797576,6.592683690873761
7.062147072,0.9999574506779437,6.407123278972302
7.069679616,1.0000604845227128,6.22021270906804
7.077212672,1.0001604229528223,6.031842503379533
7.084745728,1.0002515136926673,5.842235502179231
7.092278784,1.0003288525346596,5.6514710644652295
7.09981184,1.0003882770310621,5.4597567729669025
7.107344384,1.0004262041911471,5.267352179277055
7.11487744,1.0004407282293974,5.0746318328017574
7.122410496,1.00043085921741,4.881840422643002
7.129943552,1.000397279593768,4.689345142840457
7.137476608,1.0003417778144723,4.497425350739671
7.145009664,1.0002674008164343,4.306415260969269
7.152542208,1.0001781891896633,4.116506434525855
7.160075264,1.0000792134606773,3.9278432899965585
7.16760832,0.9999759420495097,3.7405855009878963
7.175141376,0.99987409203642,3.5547184967186047
7.182674432,0.999779284643452,3.37013422446589
7.190206976,0.9996966901339579,3.186791044564238
7.197740032,0.9996310504051035,3.004431977108079
7.205273088,0.9995859877492563,2.822821074535293
7.212806144,0.9995640062004841,2.6416773871804815
7.2203392,0.999566375461224,2.4606618786703063
7.227871744,0.9995929974195527,2.279418788666624
7.2354048,0.9996423041429235,2.0976872694321678
7.242937856,0.9997116889372357,1.915163315981949
7.250470912,0.9997972286241157,1.7315139863207394
7.258003968,0.999894245699898,1.5466646947776075
7.265536512,0.9999973393080042,1.3604722734680301
7.273069568,1.0001008014984472,1.1728337410331207
7.280602624,1.0001988225712222,0.9838126818445333
7.28813568,1.0002860712630675,0.7935270760732374
7.295668736,1.0003574490849736,0.6022018176602487
7.30320128,1.0004093446931406,0.4099721844203248
7.310734336,1.0004387273228483,0.21721902828219136
7.318267392,1.000443786289328,0.024210297933381746
7.325800448,1.0004245488731172,-0.1686928348266219
7.333333504,1.0003816790112021,-0.3612025079221988
7.340866048,1.0003179074327397,-0.5529719279320628
7.348399104,1.0002365024337023,-0.74375760709547
7.35593216,1.0001421232366108,-0.9333754334920176
7.363465216,1.0000398145177898,-1.1216694494962212
7.370998272,0.9999353388669028,-1.3085744623694266
7.378531328,0.9998345858021714,-1.4940680231214958
7.386063872,0.9997430381324189,-1.6782677584211443
7.393596928,0.9996658589664805,-1.8613048943283317
7.401129984,0.999607247938307,-2.0434339493801894
7.40866304,0.9995706451622637,-2.2249322196082715
7.416196096,0.9995578906835878,-2.4060848809826845
7.42372864,0.9995698586047019,-2.5872312720207864
7.431261696,0.9996057304682971,-2.7687354960369817
7.438794752,0.9996637758349779,-2.950852421282091
7.446327808,0.9997406600463645,-3.133909990090921
7.453860864,0.999832031118734,-3.3181028396550207
7.461393408,0.9999331061369777,-3.503629512666897
7.468926464,1.0000380294806939,-3.6905459990663134
7.47645952,1.0001409408134059,-3.878845376539901
7.483992576,1.0002363576758757,-4.0685403778992635
7.491525632,1.000318852138759,-4.2594565287831685
7.499058176,1.0003838300952341,-4.451362488852097
7.506591232,1.0004276468893585,-4.6440213144622895
7.514124288,1.0004479322414441,-4.837127972326813
7.521657344,1.000443564083336,-5.030343628874732
7.5291904,1.000414675291044,-5.2233426673732035
7.536722944,1.0003628962074387,-5.415810919818101
7.544256,1.0002910817568456,-5.6074225195427685
7.551789056,1.0002032856115504,-5.797994496932462
7.559322112,1.0001041270797317,-5.98728026386818
7.566855168,0.9999993477060297,-6.175177607444463
7.574387712,0.9998946234613204,-6.361681038043768
7.581920768,0.9997957784977948,-6.546794790767646
7.589453824,0.9997084314595006,-6.7306508516844215
7.59698688,0.9996371708537292,-6.913414591783589
7.604519936,0.9995863120763299,-7.095381143876629
7.61205248,0.9995584285365038,-7.276812771719348
7.619585536,0.9995551579230079,-7.458007975868625
7.627118592,0.9995766999775019,-7.6393661418862235
7.634651648,0.9996220096830973,-7.821156429633077
7.642184704,0.9996883771523494,-8.00370569646157
7.64971776,0.9997723338234439,-8.18729859381501
7.657250304,0.9998689608527195,-8.372124471103259
7.66478336,0.999973188009915,-8.558324364846149
7.672316416,1.0000790800269697,-8.745932624859929
7.679849472,1.000180821674846,-8.935006117765168
7.687382528,1.0002726948063574,-9.125333993243517
7.694915072,1.0003497643904273,-9.316873435995321
7.702448128,1.0004074765889335,-9.50930582341873
7.709981184,1.000442819320178,-9.70241216160183
7.71751424,1.0004537759221224,-9.895803512519924
7.725047296,1.0004396740525194,-10.089204533706917
7.73257984,1.0004013321092486,-10.282239245571422
7.740112896,1.0003407736150365,-10.47463180573645
7.747645952,1.0002615104791606,-10.666060958208428
7.755179008,1.0001677396521127,-10.856321060390476
7.762712064,1.0000647759428247,-11.045277849369285
7.770244608,0.9999581722542931,-11.232800221249713
7.777777664,0.9998540012782984,-11.418908404019207
7.78531072,0.9997579615864154,-11.603647778134462
7.792843776,0.9996754592705077,-11.787176548817385
7.800376832,0.9996110337245607,-11.969717609342672
7.807909376,0.9995683020708594,-12.151523604209403
7.815442432,0.9995496277614891,-12.33293275120976
7.822975488,0.999556038023215,-12.514232195100842
7.830508544,0.9995873127359349,-12.695840841796155
7.8380416,0.9996416937909465,-12.877998420848733
7.845574144,0.9997160383022475,-13.061058785807147
7.8531072,0.9998063522860022,-13.245210645160038
7.860640256,0.9999077059404491,-13.430689667299518
7.868173312,1.0000143743177003,-13.617577320406953
7.875706368,1.0001204712346878,-13.805931139668592
7.883239424,1.0002200190222228,-13.995703833841432
7.890771968,1.0003076439254126,-14.186740926163385
7.898305024,1.0003783668420627,-14.378850729222076
7.90583808,1.0004283973341295,-14.5718052241985
7.913371136,1.0004547685030971,-14.76526216306302
7.920904192,1.0004560176785926,-14.958917575144598
7.928436736,1.0004321085681283,-15.152446334043072
7.935969792,1.000384462525422,-15.34549564473962
7.943502848,1.0003155234802534,-15.537761187994944
7.951035904,1.0002289951572791,-15.728968277360483
7.95856896,1.0001300140872973,-15.91892830116954
7.966101504,1.0000239465446639,-16.107515070353205
7.97363456,0.9999164636014619,-16.294651275686967
7.981167616,0.9998137167436645,-16.480339404341652
7.988700672,0.9997211500711634,-16.66473924224203
7.996233728,0.9996444010590426,-16.847977114946342
8.003766272,0.9995873812525737,-17.030313294574334
8.011299328,0.9995533127663684,-17.212016800339285
8.018832384,0.9995441486530137,-17.393476722542264
8.02636544,0.999560524242798,-17.57493961488839
8.033898496,0.9996013646788156,-17.756805932242127
8.04143104,0.9996644800252357,-17.93940759858237
8.048964096,0.9997464448106343,-18.122991158129025
8.056497152,0.9998427615696072,-18.30776217461868
8.064030208,0.9999480299757921,-18.493949444176316
8.071563264,1.0000562183638457,-18.68156284363951
8.079095808,1.0001616700633063,-18.870636634592437
8.086628864,1.0002583333071806,-19.061110898736267
8.09416192,1.0003408854532652,-19.25280357521368
8.101694976,1.0004046830303064,-19.445489779896192
8.109228032,1.0004461908605913,-19.638901175398033
8.116760576,1.0004632272105378,-19.832735845701233
8.124293632,1.0004546569141242,-20.02661040567049
8.131826688,1.0004210038621908,-20.220207315153207
8.139359744,1.0003640922532184,-20.413224749515205
8.1468928,1.0002870541306346,-20.60530771223605
8.154425856,1.0001942232515988,-20.7962732881098
8.1619584,1.0000906800832428,-20.985919489115542
8.169491456,0.999982066727819,-21.174101810563933
8.177024512,0.9998745223139244,-21.360851977004977
8.184557568,0.9997740756529151,-21.546161165498397
8.192090624,0.9996860755262175,-21.730231984730203
8.199623168,0.999615727067245,-21.913181026651763
8.207156224,0.9995666469573541,-22.095365239345607
8.21468928,0.9995417645294182,-22.277031536346442
8.222222336,0.9995424748213185,-22.4585530193192
8.229755392,0.9995687365062701,-22.640243725493907
8.237287936,0.9996191218604139,-22.8224657888974
8.244820992,0.9996907269145583,-23.005529246874083
8.252354048,0.999779779816217,-23.18967253753201
8.259887104,0.9998811509421967,-23.375121505243573
8.26742016,0.9999894795500353,-23.56200846093304
8.274952704,1.000098613849314,-23.75038784590957
8.28248576,1.000202435995739,-23.940211828336682
8.290018816,1.0002952761619024,-24.131378879505302
8.297551872,1.0003719728922773,-24.32371833822619
8.305084928,1.0004281884761141,-24.516941796656624
8.312617472,1.0004608530543897,-24.710783737978183
8.320150528,1.0004680967778994,-24.904934447955366
8.327683584,1.0004495043727537,-25.098975020562097
8.33521664,1.0004061915035702,-25.292644710154534
8.342749696,1.000340367681635,-25.485527310341105
8.35028224,1.0002557944985815,-25.67745660109264
8.357815296,1.0001570858868054,-25.868141711585633
8.365348352,1.000049650811491,-26.057396846482792
8.372881408,0.9999394115400836,-26.245212281509364
8.380414464,0.9998327838451239,-26.43153863565261
8.38794752,0.9997353504258429,-26.616501953350518
8.395480064,0.9996527248360659,-26.800231798260924
8.40301312,0.9995893821088996,-26.982985551122713
8.410546176,0.9995489656949972,-27.165030173851452
8.418079232,0.999533743976215,-27.346701471089094
8.425612288,0.9995444664746648,-27.528350457391568
8.433144832,0.9995805935742106,-27.710303166505806
8.440677888,0.9996402014329739,-27.892939836960945
8.448210944,0.99971995878919,-28.07649597337933
8.455744,0.9998154899708513,-28.26130141284313
8.463277056,0.9999215141132404,-28.4474417845559
8.4708096,1.000032116393403,-28.635066025353
8.478342656,1.0001410865226286,-28.824193736187002
8.485875712,1.0002426189091485,-29.01475662572019
8.493408768,1.0003308119608538,-29.20660562934968
8.500941824,1.0004008663314576,-29.399551960295007
8.508474368,1.0004488600739008,-29.59331016270013
8.516007424,1.0004721114128983,-29.787557154299325
8.52354048,1.000469413697839,-29.98197597979668
8.531073536,1.0004407625873144,-30.176139004067625
8.538606592,1.0003878675800433,-30.36980288790484
8.546139136,1.000313400005021,-30.562607028046397
8.553672192,1.0002217247927694,-30.75425302116976
8.561205248,1.0001177080259231,-30.944606336979472
8.568738304,1.0000073591658885,-31.133507806969625
8.57627136,0.9998965253073139,-31.320945841330445
8.583803904,0.9997914866873355,-31.50687305876772
8.591337472,0.9996980172499722,-31.69148376912934
8.598870016,0.9996212620259468,-31.87493176593833
8.60640256,0.9995658165650915,-32.057480882798394
8.613936128,0.9995344901201404,-32.23945441822853
8.621468672,0.9995290494602223,-32.421194081335436
8.62900224,0.9995500492398992,-32.60303891114645
8.636534784,0.9995960185830617,-32.78533601578942
8.644067328,0.9996647260554352,-32.968415798509085
8.651600896,0.999752122392158,-33.152562689851436
8.65913344,0.9998536387556416,-33.337975622486844
8.666667008,0.9999633978867625,-33.52486319420725
8.674199552,1.0000755052766177,-33.71323561662528
8.681732096,1.000183609168425,-33.90311716231032
8.689265664,1.000281715112082,-34.09442041599991
8.696798208,1.000364374173777,-34.28698287854749
8.704331776,1.0004272403864962,-34.48050641602064
8.71186432,1.0004663494163257,-34.67476995168399
8.719396864,1.0004799869586205,-34.86933898245245
8.726930432,1.0004670850804929,-35.06395465572202
8.734462976,1.0004282672449814,-35.25825867957591
8.741996544,1.0003659909350087,-35.45183482539896
8.749529088,1.0002834037770096,-35.644480186651066
8.757062656,1.0001851831733162,-35.835898636062616
8.7645952,1.0000766600824025,-36.02589939128952
8.772127744,0.9999639498733985,-36.21443886561373
8.779661312,0.9998532724075081,-36.40142570823796
8.787193856,0.9997508078303424,-36.58700289444248
8.794727424,0.9996622232750612,-36.77127255228287
8.802259968,0.9995923674630228,-36.95445026974881
8.809792512,0.9995452922189196,-37.13688779936616
8.81732608,0.999523516739379,-37.31882405439009
8.824858624,0.9995283653793532,-37.500632949999506
8.832392192,0.9995594822400838,-37.68273533640358
8.839924736,0.9996152527670472,-37.86541348440282
8.84745728,0.9996924882193248,-38.049002540809305
8.854990848,0.9997872043682259,-38.23374874976968
8.862523392,0.9998937356386245,-38.41987991751914
8.87005696,1.000006556386098,-38.60751913521512
8.877589504,1.0001191718034677,-38.79669507927033
8.885122048,1.0002255156372593,-38.98735168509417
8.892655616,1.0003194491213714,-39.179400918445886
8.90018816,1.0003959804351554,-39.37259889662823
8.907721728,1.0004506723213575,-39.56669466477444
8.915254272,1.0004806696807154,-39.761367181124584
8.922786816,1.0004841848201447,-39.95629634737472
8.930320384,1.0004607959614125,-40.151102753233076
8.937852928,1.0004120896866158,-40.34541710304702
8.945386496,1.0003406223398166,-40.53892916426364
8.95291904,1.0002502419092152,-40.73138077318859
8.960451584,1.0001461071464237,-40.922460474651224
8.967985152,1.000033852989069,-41.112137874628345
8.975517696,0.9999198437337847,-41.30025015684066
8.983051264,0.9998102044718635,-41.48685868751894
8.990583808,0.9997112150666204,-41.67204970234774
8.998116352,0.9996281539641599,-41.856003185888
9.00564992,0.9995658383801941,-42.0389857455635
9.013182464,0.9995279117061259,-42.22127406029838
9.020716032,0.9995160998747122,-42.40324591806606
