freq,mag,phase
6.0,0.9998190493250432,121.07595645587365
6.002287616,1.0002533778251688,120.92391844816288
6.004575232,1.0006743785462984,120.76568549869525
6.006862848,1.001053010710671,120.60167730398034
6.009150464,1.0013654369459262,120.43273686139051
6.011438592,1.0015920472426394,120.2599208416071
6.013726208,1.0017182888243203,120.08457142747594
6.016013824,1.001736449819455,119.90824773704963
6.01830144,1.0016451856076753,119.73246574542793
6.020589056,1.0014502787293942,119.55876753129337
6.022876672,1.0011639419626885,119.38860286544462
6.025164288,1.0008041001210815,119.22316067007846
6.027451904,1.0003936200605894,119.06335612882688
6.029740032,0.9999583436174546,118.90970559121155
6.032027648,0.9995256952010777,118.76237607897717
6.034315264,0.9991233371191064,118.62121918203216
6.03660288,0.9987766906644355,118.48549225987762
6.038890496,0.9985077487451786,118.35434963908124
6.041178112,0.9983335111796741,118.22646868809696
6.043465728,0.998265349802938,118.1003979041131
6.045753344,0.9983073788786971,117.97454433901397
6.04804096,0.9984571570930276,117.84733948511149
6.050329088,0.9987051688386152,117.71728319083712
6.052616704,0.9990356234255745,117.5830358312598
6.05490432,0.9994275369074128,117.44358783081191
6.057191936,0.9998560966973358,117.2982191172609
6.059479552,1.0002941428083105,117.14656109468922
6.061767168,1.0007139503717681,116.98871084274293
6.064054784,1.0010890054453248,116.82515422721293
6.0663424,1.0013956307980478,116.65667296816505
6.068630016,1.001614387509558,116.48444027615253
6.070918144,1.0017315600069543,116.30980175026353
6.07320576,1.0017396147595654,116.1342873446258
6.075493376,1.0016380381056509,115.95952878491264
6.077780992,1.0014331878436948,115.78698684576284
6.080068608,1.0011380002148365,115.61809124643143
6.082356224,1.0007710233015379,115.45401732587554
6.08464384,1.0003553058018648,115.29567389997038
6.086931456,0.9999174204564925,115.1435363213531
6.089219584,0.9994847788792416,114.99778788394727
6.0915072,0.999084842553595,114.858130106559
6.093794816,0.9987430717267998,114.72391232075157
6.096082432,0.9984811165033454,114.59413999676538
6.098370048,0.9983156604371747,114.4675329226421
6.100657664,0.9982572969301682,114.34258985835689
6.10294528,0.9983099509797908,114.21774959035984
6.105232896,0.9984699540418928,114.09136913331211
6.107520512,0.9987274555162001,113.9620013432225
6.10980864,0.9990659196286714,113.82832181871443
6.112096256,0.9994639574133094,113.68932296682654
6.114383872,0.9998964288806688,113.5442903640828
6.116671488,1.0003357149290648,113.39299069639891
6.118959104,1.0007542028379361,113.23548479229478
6.12124672,1.0011253008444672,113.07229717197325
6.123534336,1.0014257669031512,112.9042645445444
6.125821952,1.001636310987226,112.73257049152545
6.128109568,1.0017439143253766,112.55861143931669
6.130397696,1.001741679281245,112.38392911799426
6.132685312,1.0016295782017701,112.21012148060005
6.134972928,1.001414768636105,112.03867915590857
6.137260544,1.0011107665519432,111.87103506194688
6.13954816,1.0007366081816529,111.70833533947648
6.141835776,1.000315943548254,111.55144792836657
6.144123392,0.9998755021042456,111.4008125764025
6.146411008,0.9994430034970838,111.25656891895653
6.148699136,0.9990457896904208,111.11840724013267
6.150986752,0.9987093675575768,110.98561993471115
6.153274368,0.9984547447127069,110.85722405940678
6.155561984,0.9982983871162988,110.73180937416936
6.1578496,0.9982503242214502,110.6079744330735
6.160137216,0.9983134957533225,110.48401971179017
6.162424832,0.9984840690230113,110.35842809874582
6.164712448,0.998751074051508,110.22968152563084
6.167000064,0.9990976152345109,110.09650544108618
6.169288192,0.9995017137921328,109.95788316851026
6.171575808,0.9999378311614929,109.81319907855178
6.173863424,1.0003781893572978,109.6621330236129
6.17615104,1.0007949812124863,109.50494157579502
6.178438656,1.00116201834481,109.34206666202749
6.180726272,1.0014558461522474,109.17443132829625
6.183013888,1.0016579151750955,109.00326879988516
6.185301504,1.0017556599984376,108.82995401128227
6.18758912,1.0017427325877861,108.65603651670396
6.189877248,1.0016200304030531,108.48314225748088
6.192164864,1.001395022957742,108.31281448994719
6.19445248,1.0010820571806431,108.14639379573678
6.196740096,1.0007008871433367,107.98502986900085
6.199027712,1.0002754555331064,107.82954630477295
6.201315328,0.9998324735996539,107.68039502081143
6.203602944,0.9994003530148265,107.53764868393706
6.20589056,0.9990062869752812,107.40097465520174
6.208178688,0.9986754803837096,107.26956630977463
6.210466304,0.9984286283824397,107.1424668833126
6.21275392,0.9982817661306961,107.01825400932475
6.215041536,0.998244103496243,106.89541380730839
6.217329152,0.9983182160056513,106.77234896535269
6.219616768,0.9984993914188577,106.64747517279912
6.221904384,0.9987759968081277,106.5192886611663
6.224192,0.9991305916462055,106.38650796529413
6.226479616,0.9995406607014813,106.24824433425103
6.228767744,0.9999803387556039,106.10378614513122
6.23105536,1.000421581536673,105.95299609314243
6.233342976,1.0008364540188341,105.79599271266672
6.235630592,1.0011988210536444,105.63339281152147
6.237918208,1.0014857641361152,105.46613215088568
6.240205824,1.0016790504758757,105.29541948353992
6.24249344,1.001766610524282,105.12270563147794
6.244781056,1.0017428555408368,104.94954956571908
6.247068672,1.0016091933403755,104.77757148073721
6.2493568,1.0013740289390518,104.60830189099131
6.251644416,1.0010522043328192,104.44307105190384
6.253932032,1.0006639699152207,104.2830177796338
6.256219648,1.000233708507719,104.1289281494549
6.258507264,0.9997887935178461,103.98123390967955
6.26079488,0.9993572673767671,103.8399648192842
6.263082496,0.9989666818466981,103.70469717667453
6.265370112,0.9986416366850771,103.57468744250237
6.26765824,0.9984029382034141,103.44878594600151
6.269945856,0.9982657598501468,103.32568451864894
6.272233472,0.9982389914533395,103.20383978521214
6.274521088,0.9983240840271886,103.08159962105239
6.276808704,0.998516026961133,102.95736311943452
6.27909632,0.9988023504280357,102.82966656174065
6.281383936,0.9991650590134551,102.69727099140928
6.283671552,0.9995809175868676,102.55925520819952
6.285959168,1.0000238610042524,102.41501586835348
6.288247296,1.0004655894329502,102.2643549654818
6.290534912,1.0008782953188031,102.10754307116153
6.292822528,1.0012357503174825,101.94519697290676
6.295110144,1.0015153167216302,101.77823901009647
6.29739776,1.001699667042322,101.60796292416372
6.299685376,1.001776793922496,101.43579771334977
6.301972992,1.0017418978294728,101.26339806624335
6.304260608,1.0015971286842251,101.09229483840326
6.306548224,1.0013516959797277,100.92405131682263
6.308836352,1.001020871832481,100.75998823438398
6.311123968,1.0006255564610256,100.60121829809223
6.313411584,1.0001907991900258,100.44852701082138
6.3156992,0.999743984756576,100.30225019728026
6.317986816,0.999313513157659,100.16237654534628
6.320274432,0.998926567554812,100.02848331607878
6.322562048,0.9986077971626196,99.89979047605192
6.324849664,0.9983776379609657,99.77512162708099
6.327137792,0.9982505144634224,99.65308880515482
6.329425408,0.998234684205443,99.53215084109908
6.331713024,0.9983312236411992,99.41065019801596
6.33400064,0.9985339283206682,99.28700120610698
6.336288256,0.998829987650098,99.1597362276737
6.338575872,0.9992005987229681,99.02766199784104
6.340863488,0.999622316138818,98.88983356764581
6.343151104,1.0000683468201588,98.74570849931112
6.34543872,1.000510321823409,98.59517978562879
6.347726848,1.0009204985712348,98.43848173177955
6.350014464,1.0012725922210062,98.27631132565415
6.35230208,1.0015447224685725,98.10963430305316
6.354589696,1.001719520695407,97.9397414033683
6.356877312,1.0017858593585178,97.76813643945941
6.359164928,1.0017396854227356,97.59641376195744
6.361452544,1.0015836947921999,97.426162558902
6.36374016,1.0013278681554523,97.25891645212076
6.366027776,1.000988036495063,97.09601466131028
6.368315904,1.0005859908398893,96.93851512002972
6.37060352,1.0001468358098222,96.7871541177657
6.372891136,0.9996983499045589,96.64225285363798
6.375178752,0.9992691670676263,96.50377596223487
6.377466368,0.9988863380475552,96.37123730501207
6.379753984,0.9985741889203458,96.2438064908184
6.3820416,0.9983527870465961,96.12028823145064
6.384329216,0.9982359160089379,95.99929200806582
6.386617344,0.9982314254618606,95.879210094909
6.38890496,0.9983394614214136,95.75838306625482
6.391192576,0.998553245038785,95.63526566133919
6.393480192,0.998859007926924,95.50835815398325
6.395767808,0.9992375705393288,95.37650469095236
6.398055424,0.9996647706049728,95.23881522658361
6.40034304,1.0001137393485777,95.09480292073019
6.402630656,1.0005557433863734,94.94431456363067
6.404918272,1.0009629679930734,94.78767901045836
6.4072064,1.0013095692811695,94.62564497038143
6.409494016,1.0015737617186096,94.45919847994017
6.411781632,1.0017387580890258,94.28965638741815
6.414069248,1.001794181496161,94.11854355014565
6.416356864,1.0017363355283075,93.94748240896439
6.41864448,1.0015690488322426,93.77807889830582
6.420932096,1.0013027305850415,93.61182521803514
6.423219712,1.0009540384130646,93.45003621865457
6.425507328,1.000545137978669,93.29377004706826
6.427795456,1.0001017646385104,93.14371791666039
6.430083072,0.9996521084249,93.00017985524124
6.432370688,0.9992243814905545,92.86303727483622
6.434658304,0.9988460124068419,92.73181991760448
6.43694592,0.9985408212325685,92.60559356248466
6.439233536,0.9983284506639547,92.48320439763418
6.441521152,0.9982224614515333,92.3631608059354
6.443808768,0.9982294168776132,92.24387616468216
6.446096896,0.9983490650109523,92.12365525764905
6.448384512,0.9985738867233335,92.00099322904181
6.450672128,0.9988895040774345,91.87439528606947
6.452959744,0.9992758842235112,91.74270753707407
6.45524736,0.9997085434978893,91.60511731685787
6.457534976,1.0001600727142663,91.46108317130285
6.459822592,1.0006017449150948,91.31059386036931
6.462110208,1.0010057877667902,91.15400944343506
6.464397824,1.001346475928231,90.99203938562165
6.466685952,1.0016023624003618,90.82576010525007
6.468973568,1.001757346295916,90.65653975375147
6.471261184,1.001801394429917,90.48589726011362
6.4735488,1.0017317993228658,90.31548430570514
6.475836416,1.001553011731306,90.1468799621339
6.478124032,1.001276187179096,89.98158165400493
6.480411648,1.0009187496336198,89.82087880005523
6.482699264,1.0005032700162246,89.66584412355171
6.48498688,1.0000559111918061,89.51704974903559
6.487275008,0.9996050782931408,89.37482871638261
6.489562624,0.9991792775153999,89.23901012825641
6.49185024,0.9988055761790592,89.10905706023244
6.494137856,0.9985078336592134,88.9840255476085
6.496425472,0.9983049396326688,88.86267587829572
6.498713088,0.9982098318891711,88.74349483175678
6.501000704,0.998228532833232,88.6249489860112
6.50328832,0.998360091610282,88.50534137486868
6.505576448,0.998596015848923,88.383058050439
6.507864064,0.9989213935974658,88.25668719230259
6.51015168,0.9993154672177603,88.12511875358057
6.512439296,0.9997534054826798,87.9874983656959
6.514726912,1.0002072492613148,87.84345208758161
6.517014528,1.0006483835067967,87.69290996682474
6.519302144,1.001048715428577,87.53627233755915
6.52158976,1.0013831832449516,87.37433228053922
6.523877376,1.0016304850336182,87.20820262144144
6.526165504,1.0017749400534393,87.03926437871147
6.52845312,1.0018074643331247,86.86906171034948
6.530740736,1.0017260747438805,86.6992296306752
6.533028352,1.001535618027519,86.53139412612771
6.535315968,1.0012481876042922,86.3670266213234
6.537603584,1.0008819572267484,86.20742027816726
6.5398912,1.0004600032998596,86.05353420796013
6.542178816,1.000008877830871,85.90602151669069
6.544466432,0.9995573265123531,85.76508596034647
6.54675456,0.9991336581553508,85.6305613646113
6.549042176,0.9987651699833708,85.50181786802604
6.551329792,0.9984751149219822,85.37789197183457
6.553617408,0.9982819530966789,85.25753939046137
6.555905024,0.998198056166961,85.13924386901638
6.55819264,0.9982288191096571,85.02135140292535
6.560480256,0.9983723388622471,84.90220977928449
6.562767872,0.9986194466664058,84.78025974711866
6.565056,0.9989545934963716,84.65407197918456
6.567343616,0.9993562875304893,84.52254229132487
6.569631232,0.9997992039938315,84.38488679948081
6.571918848,1.000255181838194,84.24072308137266
6.574206464,1.0006953432556933,84.0900434952419
6.57649408,1.0010919153069666,83.93331571261895
6.578781696,1.0014196677239418,83.77138730695677
6.581069312,1.0016580298840716,83.6053609693683
6.583356928,1.001791769332933,83.43666758085898
6.585645056,1.0018125691357482,83.26686924816823
6.587932672,1.0017189437116303,83.09762859521855
6.590220288,1.0015167996272032,82.93052783677425
6.592507904,1.0012189341213626,82.76707120546513
6.59479552,1.0008439481653335,82.60849689147868
6.597083136,1.0004156831330657,82.4557755755068
6.599370752,0.9999610673586558,82.30946484102985
6.601658368,0.9995089058799832,82.16978255890766
6.603945984,0.9990879472830901,82.03646959094519
6.606234112,0.9987248844146964,81.9089044960851
6.608521728,0.9984427470324665,81.7860939923643
6.610809344,0.99825972378996,81.66668148176934
6.61309696,0.9981873808864536,81.5491401997348
6.615384576,0.9982303126700238,81.43186483977126
6.617672192,0.9983859129328343,81.31316784567589
6.619959808,0.998644283173238,81.1914516291371
6.622247424,0.9989890239964981,81.06537710194114
6.624535552,0.9993982185738661,80.93379830486488
6.626823168,0.9998459659196409,80.79604174447982
6.629110784,1.0003038259491943,80.65168506044417
6.6313984,1.0007426347589696,80.5008674885648
6.633686016,1.0011349233615965,80.34401944347648
6.635973632,1.0014558108589748,80.18204078123472
6.638261248,1.0016847903828465,80.0160719956506
6.640548864,1.0018075192197997,79.8475970578052
6.64283648,1.0018162737167609,79.67817867015609
6.645124608,1.0017104095263014,79.50946370215998
6.647412224,1.0014964767682035,79.34309372906577
6.64969984,1.0011881112668588,79.18051192997885
6.651987456,1.0008045248010837,79.02295069243156
6.654275072,1.0003701228512207,78.87133794797253
6.656562688,0.9999123120640244,78.72623999001473
6.658850304,0.9994599859043977,78.58778365713901
6.66113792,0.9990419797366661,78.4556728105244
6.663426048,0.9986846725588919,78.32923295518947
6.665713664,0.9984110857442318,78.20742218783691
6.66800128,0.9982383504604543,78.08888577638564
6.670288896,0.9981777906775862,77.97208955927846
6.672576512,0.9982331373371556,77.85534426720211
6.674864128,0.9984009591050155,77.73700128201027
6.677151744,0.9986706317829236,77.61548921012293
6.67943936,0.9990249831251963,77.48944340673245
6.681726976,0.9994415412313566,77.35778334928803
6.684015104,0.99989371396064,77.21984852544206
6.68630272,1.0003532197034888,77.07527234358629
6.688590336,1.0007905520736355,76.92421228163572
6.690877952,1.0011781735681733,76.76718023821313
6.693165568,1.0014915798452575,76.60510219615627
6.695453184,1.0017110196188919,76.4391743106162
6.6977408,1.001822425413178,76.27087280595703
6.700028416,1.0018189276977698,76.10178812118595
6.702316032,1.001700762362607,75.9335887947029
6.70460416,1.0014749320963192,75.76790698540319
6.706891776,1.0011561101759285,75.60617580451603
6.709179392,1.0007640045783537,75.44962104308655
6.711467008,1.0003236821682842,75.29911541928615
6.713754624,0.9998628739896445,75.15515916265913
6.71604224,0.9994106902895449,75.01787177271437
6.718329856,0.9989959087915328,74.8869004387193
6.720617472,0.9986448420948002,74.76157360484008
6.7229056,0.9983800036077471,74.64069644747237
6.725193216,0.9982180274059436,74.52299572741241
6.727480832,0.9981694615013061,74.40686641427384
6.729768448,0.9982374171227598,74.29060428908859
6.732056064,0.9984175716314823,74.17254365487092
6.73434368,0.9986984286277426,74.05116393805396
6.736631296,0.9990623850930139,73.92506882203608
6.738918912,0.9994859389646523,73.79328350591645
6.741206528,0.999942664957069,73.6550800753219
6.743494656,1.0004032487922225,73.5102366156947
6.745782272,1.000838655798685,73.35889407259086
6.748069888,1.0012213394863172,73.2016508914979
6.750357504,1.0015270841750652,73.03941589342729
6.75264512,1.0017365167094727,72.87345926769308
6.754932736,1.001836428875267,72.70530248549397
6.757220352,1.0018204869495637,72.5365241528056
6.759507968,1.0016895832393746,72.36883513908957
6.761795584,1.0014518930933844,72.20382513688627
6.764083712,1.0011226419924506,72.04290794743525
6.766371328,1.0007222793977248,71.88731788227524
6.768658944,1.0002761614953337,71.73786392863755
6.77094656,0.9998126521046234,71.59503020426313
6.773234176,0.9993608929523569,71.45887731533499
6.775521792,0.998949787200387,71.32903655564998
6.777809408,0.998605340900591,71.20470225707105
6.780097024,0.9983495254756362,71.08478850685805
6.782385152,0.9981985842922481,70.96785720005997
6.784672768,0.9981622833966054,70.85231988273598
6.786960384,0.9982429679194784,70.73646855186554
6.789248,0.9984354549755978,70.6186483105607
6.791535616,0.9987276212787577,70.49729208787049
6.793823232,0.9991009313403205,70.3711172313104
6.796110848,0.9995315547142718,70.23908897691148
6.798398464,0.9999922642310181,70.10059223135637
6.80068608,1.0004537732144192,69.95541467736207
6.802974208,1.000887007044786,69.8037320881286
6.805261824,1.001264267766931,69.64621602766336
6.80754944,1.0015620320790644,69.48378927395633
6.809837056,1.0017611423607993,69.31779962502654
6.812124672,1.0018492305349629,69.14972676224414
6.814412288,1.0018206164481915,68.98124443551798
6.816699904,1.0016770194552667,68.81402006249263
6.81898752,1.00142757047803,68.64962796086917
6.821275136,1.0010879139321225,68.4895342610996
6.823563264,1.0006792900613364,68.33486271772121
6.82585088,1.0002276846139087,68.18644295397664
6.828138496,0.999761761520577,68.0447075725025
6.830426112,0.999310830129251,67.90965671856392
6.832713728,0.9989037005583635,67.78085797420069
6.835001344,0.9985661391739479,67.65753115248651
6.83728896,0.998319668442125,67.5384592231908
6.839576576,0.9981800881336266,67.42224257027088
6.841864704,0.9981562571821808,67.30724415172334
6.84415232,0.9982497920979483,67.19173834786605
6.846439936,0.9984547783746094,67.07408142971737
6.848727552,0.9987581980920801,66.95272875245246
6.851015168,0.999140842707562,66.82636935347861
6.853302784,0.999578139255944,66.69406773876611
6.8555904,1.0000427040643145,66.5551973092156
6.857878016,1.0005048023744383,66.40961670998618
6.860165632,1.0009353155477452,66.25757090645153
6.86245376,1.001306974942768,66.0997280974568
6.864741376,1.0015962735621058,65.93708681276406
6.867028992,1.0017848560547284,65.77098802205224
6.869316608,1.0018608930856059,65.60301545499864
6.871604224,1.0018193781367255,65.43478333043397
6.87389184,1.0016630416786168,65.267983432441
6.876179456,1.0014016701013304,65.10421623383105
6.878467072,1.001051684232762,64.9448769281961
6.880754688,1.000635071872437,64.79112327478528
6.883042816,1.0001783129897095,64.6436838757106
6.885330432,0.9997102412527957,64.50301945198323
6.887618048,0.9992604702838328,64.36902113222651
6.889905664,0.9988576930415256,64.24124014635429
6.89219328,0.998527374606203,64.11883589982969
6.894480896,0.9982906691037466,64.00057431488734
6.896768512,0.9981627022782783,63.88500893209048
6.899056128,0.9981515958432884,63.770478281280546
6.901344256,0.9982581334505722,63.65525331834581
6.903631872,0.9984755632834191,63.537681974979336
6.905919488,0.9987901916891962,63.41624760331193
6.908207104,0.9991818755240569,63.28966062321029
6.91049472,0.9996258243561635,63.15700307751806
6.912782336,1.0000938361824534,63.01772922893821
6.915069952,1.0005562666279975,62.871687955777816
6.917357568,1.0009838049049686,62.7192178348404
6.919645184,1.0013494159268044,62.56096926322493
6.921933312,1.0016299304599376,62.398081329453625
6.924220928,1.0018076013433748,62.231889865562586
6.926508544,1.0018713232741623,62.06394613970042
6.92879616,1.0018168527818396,61.895920369643875
6.931083776,1.0016476006214945,61.729528444729624
6.933371392,1.0013742814495794,61.56636885685881
6.935659008,1.0010141272722308,61.40778201374194
