freq,mag,phase
6.0,0.9999936297362405,-40.991772601383396
6.008,0.9999953718114177,-41.31813183830339
6.016,0.9999970491827437,-41.64438226626635
6.024,0.9999986631421152,-41.97052294330399
6.032,0.9999999999999999,-42.296552933219786
6.04,1.0,-42.62247130561344
6.048,1.0,-42.94827713590483
6.056,1.0,-43.27396950535766
6.064,0.9999999999999999,-43.59954750110253
6.072,1.0,-43.92501021615969
6.08,0.9999999999999999,-44.2503567494614
6.088,1.0,-44.575586205873755
6.096,1.0,-44.90069769621816
6.104,1.0000000000000002,-45.22569033729241
6.112,1.0,-45.5505632518913
6.12,1.0,-45.87531556882675
6.128,1.0,-46.19994642294777
6.136,1.0,-46.52445495515958
6.144,0.9999999999999999,-46.84884031244274
6.152,1.0,-47.173101647871555
6.16,1.0,-47.497238120632225
6.168,1.0,-47.82124889604048
6.176,0.9999999999999999,-48.14513314555888
6.184,0.9999999999999998,-48.468890046813634
6.192,1.0,-48.79251878361101
6.2,1.0,-49.116018545953295
6.208,1.0,-49.43938853005446
6.216,1.0,-49.76262793835528
6.224,1.0,-50.08573597953807
6.232,1.0,-50.408711868541076
6.24,0.9999999999999999,-50.731554826572314
6.248,0.9999999999999999,-51.054264081123115
6.256,1.0,-51.3768388659813
6.264,0.9999999999999998,-51.69927842124366
6.272,1.0,-52.02158199332848
6.28,1.0,-52.34374883498718
6.288,1.0,-52.66577820531592
6.296,1.0,-52.98766936976658
6.304,1.0,-53.3094216001574
6.312,0.9999999999999999,-53.63103417468327
6.32,1.0,-53.95250637792549
6.328,1.0,-54.27383750086126
6.336,1.0,-54.59502684087267
6.344,1.0,-54.91607370175539
6.352,1.0,-55.23697739372687
6.36,1.0,-55.55773723343413
6.368,1.0,-55.87835254396132
6.376,1.0,-56.19882265483663
6.384,1.0,-56.51914690203913
6.392,0.9999999999999999,-56.83932462800489
6.4,1.0,-57.159355181632876
6.408,0.9999999999999999,-57.479237918290536
6.416,1.0000000000000002,-57.79897219981887
6.424,1.0,-58.11855739453715
6.432,1.0,-58.43799287724726
6.44,1.0,-58.7572780292377
6.448,0.9999999999999999,-59.076412238287205
6.456,0.9999999999999999,-59.39539489866785
6.464,1.0,-59.71422541114806
6.472,1.0,-60.032903182994964
6.48,0.9999999999999999,-60.35142762797657
6.4879999999999995,1.0,-60.66979816636345
6.496,1.0,-60.98801422493028
6.504,1.0,-61.30607523695653
6.5120000000000005,0.9999999999999999,-61.62398064222756
6.52,1.0,-61.941729887034434
6.5280000000000005,1.0,-62.25932242417439
6.536,0.9999999999999999,-62.576757712949885
6.5440000000000005,1.0,-62.894035219168366
6.552,0.9999999999999999,-63.21115441514065
6.5600000000000005,1.0,-63.528114779679996
6.568,0.9999999999999999,-63.84491579809975
6.5760000000000005,1.0,-64.16155696221176
6.584,0.9999999999999999,-64.47803777032341
6.592,1.0,-64.7943577272352
6.6,1.0,-65.1105163442373
6.608,1.0,-65.42651313910628
6.616,1.0,-65.74234763610113
6.624,1.0,-66.0580193659593
6.632,1.0,-66.3735278658921
6.64,1.0,-66.68887267958
6.648,0.9999999999999999,-67.0040533571675
6.656,1.0,-67.3190694552577
6.664,1.0,-67.63392053690666
6.672,1.0,-67.94860617161723
6.68,1.0,-68.26312593533281
6.688,1.0,-68.57747941043067
6.696,0.9999999999999999,-68.89166618571497
6.704,1.0,-69.20568585640953
6.712,1.0,-69.51953802415032
6.72,0.9999999999999999,-69.83322229697751
6.728,0.9999999999999999,-70.14673828932747
6.736,1.0,-70.46008562202422
6.744,0.9999999999999999,-70.7732639222708
6.752,0.9999999999999999,-71.08627282364027
6.76,1.0,-71.39911196606639
6.768,0.9999999999999999,-71.71178099583412
6.776,0.9999999999999999,-72.0242795655698
6.784,0.9999999999999999,-72.33660733423096
6.792,0.9999999999999999,-72.64876396709612
6.8,0.9999999999999999,-72.96074913575396
6.808,1.0,-73.27256251809263
6.816,1.0,-73.58420379828841
6.824,1.0,-73.89567266679444
6.832,1.0,-74.20696882032895
6.84,1.0,-74.51809196186343
6.848,1.0,-74.82904180061041
6.856,0.9999999430843812,-75.13981805201102
6.864,0.9999995029219595,-75.45042043772243
6.872,0.9999990668654822,-75.76084868560484
6.88,0.9999986350691058,-76.07110252970845
6.888,0.9999982076812417,-76.38118171026004
6.896,0.9999977848446412,-76.6910859736494
6.904,0.999997366696482,-77.00081507241542
6.912,0.9999969533684498,-77.31036876523218
6.92,0.9999965449868257,-77.61974681689459
6.928,0.9999961416725681,-77.92894899830387
6.936,0.9999957435413946,-78.23797508645289
6.944,0.9999953507038675,-78.54682486441133
6.952,0.9999949632654737,-78.85549812131032
6.96,0.9999945813267077,-79.1639946523273
6.968,0.9999942049831517,-79.47231425867045
6.976,0.9999938343255573,-79.78045674756285
6.984,0.9999934694399261,-80.08842193222657
6.992,0.9999931104075878,-80.39620963186658
7.0,0.9999927573052811,-80.70381967165437
7.008,0.9999924102052326,-81.01125188271145
7.016,0.9999920691752321,-81.31850610209256
7.024,0.9999917342787149,-81.62558217276889
7.032,0.9999914055748353,-81.93247994361089
7.04,0.9999910831185443,-82.23919926937111
7.048,0.9999907669606674,-82.5457400106667
7.056,0.9999904571479773,-82.85210203396183
7.064,0.9999901537232715,-83.15828521154988
7.072,0.999989856725445,-83.46428942153553
7.08,0.999989566189565,-83.77011454781666
7.088,0.9999892821469453,-84.07576048006605
7.096,0.9999890046252163,-84.38122711371298
7.104,0.9999887336484015,-84.68651434992462
7.112,0.9999884692369841,-84.99162209558729
7.12,0.9999882114079837,-85.29655026328759
7.128,0.9999879601750213,-85.60129877129337
7.136,0.9999877155483944,-85.90586754353454
7.144,0.9999874775351422,-86.21025650958374
7.152,0.9999872461391176,-86.51446560463688
7.16,0.9999870213610536,-86.81849476949355
7.168,0.9999868031986314,-87.1223439505373
7.176,0.9999865916465479,-87.42601309971576
7.184,0.9999863866965818,-87.72950217452065
7.192,0.9999861883376602,-88.03281113796767
7.2,0.9999859965559217,-88.33593995857623
7.208,0.9999858113347845,-88.63888861034918
7.216,0.9999856326550076,-88.94165707275224
7.224,0.9999854604947563,-89.24424533069345
7.232,0.9999852948296637,-89.5466533745024
7.24,0.9999851356328937,-89.84888119990958
7.248,0.9999849828752027,-90.1509288080253
7.256,0.9999848365250003,-90.45279620531869
7.264,0.9999846965484106,-90.75448340359667
7.272,0.9999845629093309,-91.05599041998258
7.28,0.9999844355694921,-91.357317276895
7.288,0.9999843144885164,-91.65846400202628
7.296,0.9999841996239767,-91.9594306283209
7.304,0.9999840909314526,-92.26021719395413
7.312,0.9999839883645878,-92.56082374231013
7.32,0.9999838918751462,-92.8612503219603
7.328,0.9999838014130694,-93.16149698664131
7.336,0.9999837169265271,-93.46156379523335
7.344,0.999983638361976,-93.76145081173797
7.352,0.9999835656642125,-94.06115810525601
7.36,0.9999834987764243,-94.36068574996558
7.368,0.9999834376402447,-94.66003382509965
7.376,0.9999833821958027,-94.9592024149239
7.384,0.9999833323817767,-95.25819160871427
7.392,0.9999832881354431,-95.5570015007347
7.4,0.9999832493927284,-95.85563219021441
7.4079999999999995,0.999983216088256,-96.15408378132551
7.416,0.9999831881553983,-96.45235638316052
7.4239999999999995,0.9999831655263224,-96.75045010970936
7.432,0.9999831481320391,-97.04836507983714
7.4399999999999995,0.9999831359024497,-97.3461014172609
7.448,0.9999831287663923,-97.64365925052734
7.4559999999999995,0.9999831266516883,-97.94103871298941
7.464,0.9999831294851866,-98.238239942784
7.4719999999999995,0.9999831371928092,-98.53526308280854
7.48,0.999983149699595,-98.83210828069844
7.4879999999999995,0.9999831669297428,-99.12877568880367
7.496,0.9999831888066554,-99.42526546416616
7.504,0.9999832152529803,-99.72157776849636
7.5120000000000005,0.9999832461906528,-100.01771276815046
7.52,0.9999832815409367,-100.31367063410698
7.5280000000000005,0.9999833212244639,-100.60945154194393
7.536,0.9999833651612756,-100.90505567181525
7.5440000000000005,0.9999834132708608,-101.20048320842808
7.552,0.9999834654721961,-101.49573434101904
7.5600000000000005,0.9999835216837827,-101.79080926333151
7.568,0.9999835818236845,-102.08570817359185
7.5760000000000005,0.9999836458095654,-102.38043127448667
7.584,0.9999837135587248,-102.67497877313906
7.5920000000000005,0.9999837849881359,-102.9693508810857
7.6,0.9999838600144775,-103.26354781425323
7.6080000000000005,0.9999839385541717,-103.5575697929353
7.616,0.9999840205234162,-103.8514170417688
7.6240000000000006,0.9999841058382201,-104.14508978971111
7.632,0.9999841944144339,-104.43858827001617
7.640000000000001,0.9999842861677853,-104.73191272021174
7.648,0.999984381013909,-105.02506338207559
7.656000000000001,0.999984478868378,-105.31804050161263
7.664,0.9999845796467369,-105.61084432903112
7.672,0.9999846832645292,-105.90347511871992
7.68,0.9999847896373288,-106.19593312922473
7.688,0.9999848986807693,-106.48821862322498
7.696,0.9999850103105721,-106.78033186751064
7.704,0.9999851244425744,-107.07227313295886
7.712,0.9999852409927583,-107.36404269451067
7.72,0.9999853598772758,-107.65564083114793
7.728,0.9999854810124773,-107.94706782586998
7.736,0.9999856043149367,-108.23832396567043
7.744,0.9999857297014774,-108.52940954151411
7.752,0.9999858570891967,-108.82032484831379
7.76,0.9999859863954917,-109.11107018490712
7.768,0.9999861175380815,-109.40164585403353
7.776,0.9999862504350328,-109.69205216231113
7.784,0.999986385004781,-109.98228942021363
7.792,0.9999865211661542,-110.27235794204742
7.8,0.9999866588383945,-110.56225804592844
7.808,0.9999867979411803,-110.85199005375935
7.816,0.9999869383946464,-111.14155429120652
7.824,0.9999870801194052,-111.43095108767716
7.832,0.9999872230365668,-111.72018077629647
7.84,0.9999873670677591,-112.00924369388481
7.848,0.9999875121351461,-112.2981401809349
7.856,0.999987658161447,-112.58687058158914
7.864,0.9999878050699548,-112.8754352436168
7.872,0.9999879527845535,-113.16383451839147
7.88,0.9999881012297365,-113.45206876086834
7.888,0.9999882503306219,-113.7401383295617
7.896,0.9999884000129705,-114.02804358652234
7.904,0.9999885502032009,-114.3157848973151
7.912,0.9999887008284056,-114.60336263099643
7.92,0.9999888518163653,-114.890777160092
7.928,0.9999890030955652,-115.17802886057433
7.936,0.9999891545952069,-115.46511811184054
7.944,0.9999893062452245,-115.75204529669006
7.952,0.9999894579762971,-116.03881080130242
7.96,0.9999896097198618,-116.32541501521521
7.968,0.999989761408126,-116.6118583313019
7.976,0.9999899129740804,-116.89814114574988
7.984,0.9999900643515102,-117.18426385803836
7.992,0.9999902154750061,-117.47022687091666
8.0,0.9999903662799767,-117.75603059038215
8.008,0.9999905167026577,-118.04167542565851
8.016,0.9999906666801225,-118.32716178917413
8.024000000000001,0.9999908161502924,-118.61249009654018
8.032,0.9999909650519458,-118.89766076652909
8.04,0.9999911133247272,-119.18267422105306
8.048,0.9999912609091554,-119.46753088514262
8.056000000000001,0.9999914077466334,-119.75223118692492
8.064,0.9999915537794544,-120.03677555760244
8.072,0.9999916989508106,-120.32116443143204
8.08,0.9999918432048003,-120.60539824570327
8.088000000000001,0.9999919864864347,-120.88947744071739
8.096,0.9999921287416438,-121.17340245976614
8.104,0.9999922699172837,-121.45717374911092
8.112,0.9999924099611416,-121.74079175796176
8.120000000000001,0.9999925488219419,-122.02425693845612
8.128,0.9999926864493504,-122.30756974563833
8.136,0.9999928227939808,-122.5907306374389
8.144,0.9999929578073977,-122.87374007465364
8.152000000000001,0.9999930914421217,-123.15659852092301
8.16,0.9999932236516319,-123.43930644271163
8.168,0.9999933543903714,-123.72186430928785
8.176,0.9999934836137497,-124.0042725927034
8.184000000000001,0.9999936112781452,-124.28653176777284
8.192,0.999993737340909,-124.56864231205331
8.2,0.9999938617603644,-124.85060470582464
8.208,0.9999939844958138,-125.13241943206897
8.216000000000001,0.9999941055075361,-125.41408697645068
8.224,0.9999942247567898,-125.69560782729653
8.232,0.999994342205815,-125.97698247557585
8.24,0.9999944578178327,-126.25821141488069
8.248000000000001,0.9999945715570461,-126.53929514140589
8.256,0.999994683388642,-126.82023415392949
8.264,0.9999947932787894,-127.10102895379346
8.272,0.9999949011946397,-127.38168004488388
8.280000000000001,0.9999950071043272,-127.66218793361149
8.288,0.999995110976967,-127.94255312889244
8.296,0.9999952127826552,-128.22277614212916
8.304,0.9999953124924673,-128.50285748719105
8.312,0.9999954100784566,-128.78279768039513
8.32,0.9999955055136529,-129.06259724048752
8.328,0.99999559877206,-129.34225668862393
8.336,0.9999956898286548,-129.62177654835133
8.344,0.9999957786593829,-129.90115734558867
8.352,0.9999958652411582,-130.1803996086086
8.36,0.9999959495518588,-130.45950386801837
8.368,0.9999960315703238,-130.7384706567419
8.376,0.999996111276351,-131.0173005100006
8.384,0.9999961886506923,-131.29599396529568
8.392,0.9999962636750513,-131.57455156238922
8.4,0.9999963363320785,-131.85297384328643
8.408,0.999996406605367,-132.13126135221725
8.416,0.9999964744794495,-132.40941463561845
8.424,0.999996539939792,-132.68743424211536
8.432,0.9999966029727908,-132.96532072250452
8.44,0.9999966635657668,-133.24307462973513
8.448,0.9999967217069605,-133.52069651889215
8.456,0.999996777385527,-133.7981869471778
8.464,0.9999968305915304,-134.0755464738948
8.472,0.9999968813159384,-134.35277566042828
8.48,0.9999969295506166,-134.62987507022874
8.488,0.999996975288322,-134.90684526879448
8.496,0.9999970185226977,-135.18368682365468
8.504,0.9999970592482663,-135.46040030435185
8.512,0.9999970974604236,-135.73698628242528
8.52,0.9999971331554321,-136.0134453313934
8.528,0.9999971663304135,-136.2897780267376
8.536,0.9999971969833432,-136.56598494588465
8.544,0.9999972251130427,-136.84206666819082
8.552,0.9999972507191722,-137.11802377492432
8.56,0.9999972738022231,-137.39385684924954
8.568,0.9999972943635121,-137.66956647621
8.576,0.9999973124051713,-137.94515324271225
8.584,0.999997327930143,-138.2206177375093
8.592,0.9999973409421697,-138.4959605511847
8.6,0.9999973514457879,-138.77118227613616
8.608,0.9999973594463191,-139.04628350655946
8.616,0.9999973649498618,-139.3212648384325
8.624,0.9999973679632835,-139.59612686949959
8.632,0.9999973684942123,-139.87087019925522
8.64,0.9999973665510281,-140.14549542892868
8.648,0.9999973621428542,-140.4200031614682
8.656,0.9999973552795478,-140.69439400152535
8.664,0.9999973459716938,-140.9686685554397
8.672,0.9999973342305924,-141.24282743122333
8.68,0.9999973200682524,-141.51687123854526
8.688,0.9999973034973817,-141.79080058871662
8.696,0.9999972845313776,-142.06461609467502
8.704,0.9999972631843187,-142.3383183709699
8.712,0.9999972394709536,-142.61190803374703
8.72,0.9999972134066936,-142.88538570073413
8.728,0.999997185007602,-143.15875199122533
8.736,0.9999971542903844,-143.4320075260672
8.744,0.9999971212723803,-143.70515292764316
8.752,0.9999970859715522,-143.9781888198597
8.76,0.9999970484064762,-144.25111582813122
8.768,0.9999970085963319,-144.52393457936594
8.776,0.9999969665608934,-144.79664570195123
8.784,0.9999969223205181,-145.06924982573966
8.792,0.999996875896138,-145.34174758203434
8.8,0.9999968273092483,-145.61413960357518
8.808,0.9999967765818983,-145.8864265245245
8.815999999999999,0.9999967237366811,-146.1586089804532
8.824,0.9999966687967227,-146.430687608327
8.832,0.9999966117856725,-146.70266304649203
8.84,0.9999965527276925,-146.97453593466167
8.847999999999999,0.9999964916474472,-147.24630691390266
8.856,0.9999964285700941,-147.51797662662142
8.864,0.9999963635212707,-147.7895457165505
8.872,0.9999962965270873,-148.06101482873504
8.879999999999999,0.9999962276141143,-148.33238460951978
8.888,0.9999961568093726,-148.60365570653528
8.896,0.9999960841403226,-148.8748287686849
8.904,0.9999960096348544,-149.14590444613148
8.911999999999999,0.9999959333212762,-149.4168833902846
8.92,0.999995855228305,-149.6877662537872
8.928,0.9999957753850547,-149.9585536905027
8.936,0.9999956938210263,-150.22924635550208
8.943999999999999,0.9999956105660969,-150.49984490505145
8.952,0.9999955256505092,-150.77034999659887
8.96,0.9999954391048612,-151.0407622887618
8.968,0.9999953509600951,-151.31108244131454
8.975999999999999,0.999995261247486,-151.58131111517588
8.984,0.9999951699986331,-151.85144897239644
8.992,0.9999950772454466,-152.1214966761463
9.0,0.9999949830201402,-152.39145489070262
9.008,0.9999948873552166,-152.66132428143771
9.016,0.9999947902834603,-152.9311055148066
9.024000000000001,0.9999946918379247,-153.2007992583349
9.032,0.9999945920519228,-153.4704061806069
9.04,0.9999944909590154,-153.73992695125344
9.048,0.9999943885930017,-154.00936224094033
9.056000000000001,0.9999942849879083,-154.27871272135602
9.064,0.9999941801779779,-154.5479790652002
9.072,0.9999940741976594,-154.81716194617198
9.08,0.9999939670815977,-155.0862620389583
9.088000000000001,0.9999938588646224,-155.3552800192222
9.096,0.9999937495817377,-155.62421656359132
9.104,0.9999936392681116,-155.89307234964673
9.112,0.9999935279590666,-156.1618480559113
9.120000000000001,0.9999934156900679,-156.4305443618382
9.128,0.999993302496713,-156.69916194780004
9.136,0.9999931884147233,-156.96770149507742
9.144,0.9999930734799307,-157.23616368584794
9.152000000000001,0.9999929577282702,-157.50454920317486
9.16,0.9999928411957687,-157.7728587309963
9.168,0.999992723918533,-158.04109295411425
9.176,0.9999926059327429,-158.30925255818372
9.184000000000001,0.9999924872746383,-158.57733822970175
9.192,0.9999923679805105,-158.84535065599658
9.2,0.9999922480866917,-159.11329052521728
9.208,0.9999921276295456,-159.38115852632276
9.216000000000001,0.9999920066454566,-159.64895534907126
9.224,0.9999918851708206,-159.91668168400966
9.232,0.9999917632420345,-160.1843382224633
9.24,0.9999916408954866,-160.45192565652536
9.248000000000001,0.9999915181675478,-160.71944467904632
9.256,0.999991395094561,-160.98689598362384
9.264,0.9999912717128304,-161.25428026459247
9.272,0.9999911480586148,-161.52159821701335
9.280000000000001,0.9999910241681151,-161.78885053666406
9.288,0.9999909000774675,-162.05603792002844
9.296,0.9999907758227313,-162.32316106428672
9.304,0.9999906514398818,-162.5902206673054
9.312000000000001,0.9999905269648001,-162.85721742762712
9.32,0.9999904024332645,-163.12415204446089
9.328,0.9999902778809401,-163.3910252176724
9.336,0.9999901533433709,-163.657837647774
9.344,0.9999900288559707,-163.9245900359148
9.352,0.9999899044540135,-164.19128308387147
9.36,0.9999897801726251,-164.4579174940378
9.368,0.999989656046774,-164.72449396941587
9.376,0.999989532111264,-164.991013213606
9.384,0.9999894084007225,-165.25747593079737
9.392,0.9999892849495956,-165.5238828257584
9.4,0.9999891617921373,-165.79023460382768
9.408,0.9999890389624014,-166.05653197090405
9.416,0.9999889164942338,-166.3227756334378
9.424,0.9999887944212635,-166.58896629842087
9.432,0.9999886727768946,-166.85510467337804
9.44,0.9999885515942992,-167.12119146635732
9.448,0.9999884309064075,-167.38722738592114
9.456,0.9999883107459019,-167.6532131411368
9.464,0.9999881911452071,-167.9191494415679
9.472,0.9999880721364839,-168.18503699726472
9.48,0.9999879537516206,-168.45087651875573
9.488,0.9999878360222269,-168.71666871703823
9.496,0.9999877189796236,-168.9824143035697
9.504,0.999987602654838,-169.2481139902586
9.512,0.9999874870785952,-169.51376848945588
9.52,0.9999873722813106,-169.7793785139458
9.528,0.9999872582930837,-170.04494477693754
9.536,0.9999871451436901,-170.31046799205595
9.544,0.9999870328625754,-170.57594887333343
9.552,0.9999869214788473,-170.84138813520062
9.56,0.9999868110212705,-171.10678649247842
9.568,0.9999867015182573,-171.37214466036878
9.576,0.999986592997864,-171.63746335444665
9.584,0.9999864854877826,-171.90274329065087
9.592,0.9999863790153343,-172.16798518527634
9.6,0.9999862736074642,-172.43318975496484
9.608,0.9999861692907348,-172.6983577166973
9.616,0.9999860660913193,-172.96348978778457
9.624,0.9999859640349964,-173.2285866858599
9.632,0.999985863147143,-173.4936491288699
9.64,0.9999857634527307,-173.75867783506658
9.648,0.9999856649763184,-174.02367352299888
9.656,0.9999855677420462,-174.2886369115046
9.664,0.999985471773632,-174.55356871970184
9.672,0.999985377094364,-174.81846966698117
9.68,0.9999852837270968,-175.08334047299704
9.688,0.9999851916942457,-175.34818185766005
9.696,0.9999851010177808,-175.6129945411283
