freq,mag,phase
6.0,1.0000149179519175,139.53587293512672
6.041236992,1.0000127614151952,136.75124587699838
6.082473984,1.0000098326392162,133.9678628480466
6.123711488,1.0000069169000079,131.18572341263845
6.16494848,1.0000039128098515,128.40483171792505
6.206185472,1.0000008751396645,125.62520718078102
6.247422464,0.9999978578501973,122.84683195511955
6.288659968,0.999994899325994,120.06971198899664
6.32989696,0.9999919726628166,117.29384578877489
6.371133952,0.9999891686666023,114.5192424379838
6.412370944,0.9999864995977659,111.74588105288593
6.453608448,0.999983909765702,108.97373839654978
6.49484544,0.9999814143537147,106.20285381286202
6.536082432,0.9999791787669707,103.43317905446771
6.577319424,0.999977205637353,100.66470588556783
6.618556928,0.9999752255056978,97.8974530137221
6.65979392,0.9999736145526653,95.13137530634273
6.701030912,0.9999722028373381,92.36645693352452
6.742267904,0.9999711113017683,89.6027041308544
6.783505408,0.9999701884659861,86.84008001240983
6.8247424,0.9999695491174329,84.07858110548574
6.865979392,0.999969303188173,81.3181632926976
6.907216384,0.9999691235930206,78.55883957215107
6.948453376,0.9999692432017191,75.80055983958783
6.98969088,0.9999696824308069,73.04331965458867
7.030927872,0.9999703451401916,70.28707374320001
7.072164864,0.9999712945512883,67.5318139162339
7.113401856,0.99997244859026,64.77751312741057
7.15463936,0.9999738035020996,62.024121535015425
7.195876352,0.999975388498092,59.27166087817987
7.237113344,0.9999772073804354,56.520061334145915
7.278350336,0.9999792816986383,53.76930069049646
7.31958784,0.9999814837615482,51.0193490709089
7.360824832,0.9999837842387274,48.270176636042365
7.402061824,0.9999862794211227,45.52178568771834
7.443298816,0.999988910543078,42.77410736357479
7.48453632,0.9999915571796125,40.027112932024664
7.525773312,0.999994312876533,37.28077558272296
7.567010304,0.9999971776113888,34.53509403402606
7.608247296,1.0000000589215912,31.78998009669279
7.649484288,1.000002911895096,29.045440987663316
7.690721792,1.0000057617650133,26.301427002496585
7.731958784,1.0000086084487687,23.557925962629824
7.773195776,1.0000113912798922,20.8148815464196
7.814432768,1.0000139951061913,18.072278029811205
7.855670272,1.0000165940526504,15.33005723959092
7.896907264,1.0000190937038407,12.58822105469247
7.938144256,1.000021484001789,9.846705141844927
7.979381248,1.0000237523114581,7.105488026439775
8.020618752,1.0000257347899688,4.3645529085558294
8.061855744,1.0000276436891198,1.6238457071207768
8.103092736,1.0000292264828228,-1.1166683321907427
8.144329728,1.0000308547773087,-3.856990255745455
8.185567232,1.000032027362658,-6.597183498157995
8.226804224,1.00003306570018,-9.337286400821549
8.268041216,1.0000338356887741,-12.077295220175023
8.309278208,1.000034366446441,-14.81726610806265
8.350515712,1.0000347022532234,-17.55722067169245
8.391752704,1.0000347454965395,-20.29719415326556
8.432989696,1.0000345224608513,-23.03720295762026
8.474226688,1.0000340870191655,-25.777309838158597
8.51546368,1.0000334257171613,-28.517510568426164
8.556701184,1.0000324178804096,-31.257852968760112
8.597938176,1.0000312608635795,-33.99833417408362
8.63917568,1.0000298485072632,-36.739014523612134
8.68041216,1.0000280921854598,-39.47989469557712
8.721649664,1.0000262813161884,-42.22104014065454
8.762886144,1.0000241372753151,-44.96243087724328
8.804123648,1.000021872592975,-47.704115074753666
8.845361152,1.0000194039365147,-50.44612980934585
8.886597632,1.0000167433386489,-53.188473549609384
8.927835136,1.0000139393980385,-55.93117129871425
8.96907264,1.0000110213020266,-58.67423910825588
9.01030912,1.0000079417791026,-61.417733392314716
9.051546624,1.0000048087685307,-64.1616400240382
9.092783104,1.0000015803646094,-66.90598653824091
9.134020608,0.9999982993405221,-69.6507949472024
9.175258112,0.9999949529278265,-72.39609240956943
9.216494592,0.9999916604634382,-75.1418676894668
9.257732096,0.999988365799249,-77.88814974480339
9.298968576,0.9999850494868335,-80.63496753147521
9.34020608,0.9999818996970616,-83.38235014803958
9.381443584,0.9999787955486783,-86.1302584132435
9.422680064,0.9999758255372633,-88.8787408243312
9.463917568,0.9999730173683876,-91.62780476238449
9.505155072,0.9999703734521118,-94.3774531133287
9.546391552,0.9999679369683141,-97.12770030341895
9.587629056,0.9999656993691818,-99.8785645213797
9.628865536,0.9999636899514124,-102.63003658275494
9.67010304,0.9999619016007352,-105.38213423648837
9.711340544,0.9999604888970612,-108.13486617760134
9.752577024,0.9999593054088497,-110.88822556654095
9.793814528,0.9999584330123644,-113.64222008068128
9.835052032,0.9999578876497249,-116.39687235807259
9.876288512,0.999957755831276,-119.15214811261865
9.917526016,0.9999579085295417,-121.90810261422605
9.958762496,0.9999584301704071,-124.66468348182885
10.0,0.9999594574753428,-127.42190893691978
10.041237504,0.9999607038140647,-130.1797855937271
10.082473984,0.9999623234238892,-132.9382985502801
10.123711488,0.9999642751612124,-135.69744934724952
10.164947968,0.9999666047657676,-138.45724273734243
10.206185472,0.9999692559034568,-141.217654876929
10.247422976,0.9999722019863099,-143.97869595579527
10.288659456,0.9999755371917413,-146.74034514455522
10.32989696,0.9999790773171033,-149.50261034355046
10.371134464,0.9999828870327114,-152.2654606880333
10.412370944,0.9999868550047654,-155.02889168455167
10.453608448,0.9999911406639292,-157.7929042711722
10.494844928,0.9999955581802574,-160.55747967409422
10.536082432,1.0000000218589415,-163.32260420627617
10.577319936,1.000004526577168,-166.08825100750153
10.618556416,1.0000092097865454,-168.85440489642613
10.65979392,1.0000137939058216,-171.62107638411214
10.701031424,1.000018364126347,-174.38822955740466
10.742267904,1.0000228758586203,-177.15584112332178
10.783505408,1.0000272276266948,-179.9238871422467
10.824741888,1.000031420667376,177.3076402910143
10.865979392,1.0000353729948437,174.5387677892979
10.907216896,1.0000390327661874,171.76951023787467
10.948453376,1.0000424484887047,168.99990387241843
10.98969088,1.0000455510368205,166.22995688753198
11.03092736,1.0000482055561979,163.4597051718017
11.072164864,1.0000504285581422,160.68917556324524
11.113402368,1.0000522233806541,157.91838998427943
11.154638848,1.0000534695173475,155.14736810432578
11.195876352,1.0000543866137337,152.37614627799815
11.237113856,1.000054786366485,149.60475847262018
11.278350336,1.000054511215257,146.83321883887163
11.31958784,1.0000538013315468,144.0615473410473
11.36082432,1.0000525861126688,141.2897983209608
11.402061824,1.0000506833616112,138.5179855719501
11.443299328,1.0000484066741875,135.74613806984254
11.484535808,1.000045514007428,132.97428398827378
11.525773312,1.0000422028703946,130.20245883970907
11.567010816,1.0000384109753693,127.4306859374045
11.608247296,1.0000340898596352,124.65899141587285
11.6494848,1.0000293935736189,121.8874157256848
11.69072128,1.0000243228993841,119.11597005228212
11.731958784,1.000019005823829,116.34469475370325
11.773196288,1.0000132808145434,113.57359905441815
11.814432768,1.0000073799528677,110.8027410688082
11.855670272,1.000001267617467,108.03214117082491
11.896906752,0.999995090933437,105.26178298633216
11.938144256,0.9999888418288264,102.49174863000458
11.97938176,0.9999826560753999,99.72203201964332
12.02061824,0.9999764986854676,96.95264465252538
12.061855744,0.9999704303385807,94.18363039894153
12.103093248,0.9999645989235766,91.41502652850961
12.144329728,0.9999589047468334,88.64683208985966
12.185567232,0.9999536743298465,85.8790721356427
12.226803712,0.9999487511093949,83.1117572026556
12.268041216,0.9999442453839623,80.34492049301824
12.30927872,0.9999401331269318,77.57858177382998
12.3505152,0.9999366002813845,74.81273549984803
12.391752704,0.9999336640477399,72.04740648814057
12.432989184,0.9999313006878022,69.28263069904322
12.474226688,0.9999295977601051,66.51840670564707
12.515464192,0.9999285449225582,63.75474537205216
12.556700672,0.9999280856144442,60.99166371813356
12.597938176,0.9999283600985611,58.22918554536292
12.63917568,0.999929304313438,55.46730412522851
12.68041216,0.9999309497153147,52.706020319764754
12.721649664,0.999933269425763,49.94537598847021
12.762886144,0.9999362642304201,47.185345129377176
12.804123648,0.9999399100088698,44.42597340747395
12.845361152,0.9999440795699199,41.66723756026289
12.886597632,0.9999488846425704,38.909157788748196
12.927835136,0.9999542880926738,36.15172538695001
12.96907264,0.9999600886426216,33.39497381940896
13.01030912,0.9999663699987864,30.638885511426693
13.051546624,0.999972950306013,27.883462925284128
13.092783104,0.9999800108623633,25.128723325759662
13.134020608,0.9999872380065964,22.374673829421248
13.175258112,0.9999946564099655,19.62129609548829
13.216494592,1.000002091765807,16.868614106360834
13.257732096,1.000009781457959,14.116608435482357
13.298968576,1.0000173374099177,11.365295492843076
13.34020608,1.00002479743437,8.614688728598644
13.381443584,1.0000320842820822,5.864761162241063
13.422680064,1.000039097814088,3.1155204750619743
13.463917568,1.0000459047665167,0.36698218592866055
13.505155072,1.0000522620636627,-2.380888294042459
13.546391552,1.0000582955558588,-5.128053161367635
13.587629056,1.0000636879397775,-7.874531846259734
13.628865536,1.0000686039584485,-10.620326969946152
13.67010304,1.0000729395003936,-13.365438145296308
13.711340544,1.0000766429545804,-16.10987061686157
13.752577024,1.0000796960566722,-18.853626797104344
13.793814528,1.000082009942672,-21.596717951935894
13.835052032,1.0000836129503592,-24.339138880617483
13.876288512,1.0000845297732144,-27.080901129860578
13.917526016,1.0000845311374997,-29.822008697230597
13.958762496,1.0000838217078443,-32.56247524791709
14.0,1.0000823561405514,-35.30229455373775
