freq,mag,phase
6.0,0.9986798112483198,-29.745294419343114
6.017353728,0.9986424088935743,-30.37071193826045
6.034706944,0.998656981702983,-30.996329162685004
6.052060672,0.9987240899457253,-31.62267328940691
6.0694144,0.998841501160756,-32.25032965778652
6.086768128,0.9990043261951672,-32.879907302326
6.104121344,0.999206807734209,-33.51182915147595
6.121475072,0.9994403067106691,-34.1465886218827
6.1388288,0.9996962997829277,-34.78442626407407
6.156182016,0.9999644499869812,-35.42553725710669
6.173535744,1.0002341885168238,-36.070026627347026
6.190889472,1.000495153946441,-36.71784941534199
6.2082432,1.0007369073455545,-37.36886339228419
6.225596416,1.0009498211403225,-38.02275899603935
6.242950144,1.0011255011123839,-38.67920403126442
6.260303872,1.0012573821594242,-39.33771697974565
6.277657088,1.0013398258980637,-39.99772721817437
6.295010816,1.0013697215678508,-40.65878421090446
6.312364544,1.0013455085706178,-41.32016229984502
6.32971776,1.001268255983826,-41.981298370688826
6.347071488,1.001140789296089,-42.641576593135056
6.364425216,1.000967924524311,-43.30050301362015
6.381778944,1.000756522449204,-43.957531366164204
6.39913216,1.0005147344423935,-44.612364163255954
6.416485888,1.0002518977579564,-45.264600373253764
6.433839616,0.9999782946003504,-45.91409356541585
6.451192832,0.9997047263921476,-46.56082178454932
6.46854656,0.9994419464152834,-47.20477882905852
6.485900288,0.9992001754562767,-47.84616005654381
6.503254016,0.9989891445267278,-48.48524645194077
6.520607232,0.9988171182370807,-49.12246202877898
6.53796096,0.9986909739936236,-49.7583308234322
6.555314688,0.9986158381634509,-50.393299751278455
6.572667904,0.9985947096307358,-51.02806023234287
6.590021632,0.998628725247903,-51.66312899265348
6.60737536,0.9987164416550225,-52.29925359347057
6.624729088,0.9988545885772436,-52.93698942284083
6.642082304,0.999037811667365,-53.57687322480691
6.659436032,0.9992590942303263,-54.219389532571334
6.67678976,0.9995096827360114,-54.86491319501743
6.694142976,0.9997798221835905,-55.513699513906204
6.711496704,1.0000591392929412,-56.16597374850027
6.728850432,1.0003362267415012,-56.82174847114628
6.74620416,1.0006007072362475,-57.480939920901314
6.763557376,1.000841787694179,-58.14337806471108
6.780911104,1.0010502079823917,-58.808700001580256
6.798264832,1.0012177817977357,-59.47650321734311
6.815618048,1.001337666713372,-60.14625413247203
6.832971776,1.0014051740877554,-60.817450533043726
6.850325504,1.0014175021335503,-61.48948620815806
6.86767872,1.0013740068933432,-62.161674681637564
6.885032448,1.0012764430458203,-62.83340568823234
6.902386176,1.0011282794706675,-63.50409311607256
6.919739904,1.000935293136075,-64.17319512804973
6.93709312,1.0007049335789457,-64.8402811727573
6.954446848,1.0004460472140526,-65.50487827173107
6.971800576,1.000168893278965,-66.16684016458173
6.989153792,0.9998841152498646,-66.82586666960825
7.00650752,0.9996028619344003,-67.48209095051618
7.023861248,0.9993363739048169,-68.13544896768353
7.041214976,0.9990948850168718,-68.78630621692311
7.058568192,0.9988880637386258,-69.43490655395973
7.07592192,0.9987243357163602,-70.08171554872314
7.093275648,0.9986099008518043,-70.72726120391425
7.110628864,0.9985494345330587,-71.37215206300985
7.127982592,0.9985456710857732,-72.01699412885525
7.14533632,0.9985987941652964,-72.66245290838357
7.162690048,0.9987068167838115,-73.30913006055945
7.180043264,0.998865607458503,-73.95771473115053
7.197396992,0.9990691637203858,-74.60868186206677
7.21475072,0.9993093774220674,-75.26250571718019
7.232103936,0.9995771274110243,-75.91959953010576
7.249457664,0.9998617937164043,-76.58018495321572
7.266811392,1.0001523118037938,-77.24438275008059
7.284164608,1.0004373715118933,-77.91221290361476
7.301518336,1.0007057424881751,-78.58355696167503
7.318872064,1.0009467963661773,-79.25819104194741
7.336225792,1.0011512331757768,-79.93568458026401
7.353579008,1.0013107390657816,-80.6156637751813
7.370932736,1.0014192460107705,-81.29750955740617
7.388286464,1.0014722536926992,-81.98063640963635
7.40563968,1.001467443347722,-82.66443606777187
7.422993408,1.0014050251734556,-83.34822895393438
7.440347136,1.0012872766412813,-84.03136470794752
7.457700864,1.0011185466788157,-84.7133039539583
7.47505408,1.0009052565495171,-85.39343960054934
7.492407808,1.000655782026217,-86.07128520780124
7.509761536,1.0003797333814686,-86.74654953784457
7.527114752,1.000087658348711,-87.41895031296409
7.54446848,0.9997910815752606,-88.08839243787787
7.561822208,0.999501754255421,-88.75481934733028
7.579175936,0.9992307189614335,-89.4184267181755
7.596529152,0.998988873652653,-90.07945308375537
7.61388288,0.998785739261282,-90.7382805073233
7.631236608,0.9986294317876101,-91.39542595013685
7.648589824,0.9985260147781585,-92.05142296352625
7.665943552,0.998480033462598,-92.7069392604665
7.68329728,0.9984930836890146,-93.36258822957623
7.700651008,0.998565025689496,-94.01909084090698
7.718004224,0.9986931864634749,-94.67706361783881
7.735357952,0.9988727669123978,-95.3371558956273
7.75271168,0.9990965700835613,-95.99989039575557
7.770064896,0.9993562477201928,-96.6657577587092
7.787418624,0.9996415188540191,-97.33507687211984
7.804772352,0.9999412809200096,-98.0081365579668
7.822125568,1.0002440431378374,-98.68497013422156
7.839479296,1.0005376283081744,-99.36558140352848
7.856833024,1.0008108316651567,-100.04979469926693
7.874186752,1.0010528085974413,-100.73733139759916
7.891539968,1.001254016889518,-101.42775046056857
7.908893696,1.001406718433471,-102.12058019620721
7.926247424,1.0015045041377102,-102.81525136309911
7.94360064,1.0015435562486874,-103.51109998347589
7.960954368,1.001522259218659,-104.20744826731378
7.978308096,1.0014411524473406,-104.9035906059431
7.995661824,1.0013032985846597,-105.59893043952071
8.01301504,1.001113867807526,-106.29281723467946
8.030368768,1.0008800724962699,-106.98469870462621
8.047722496,1.000610992831424,-107.67413938467647
8.065075712,1.0003169329062414,-108.36076532494228
8.08242944,1.0000092485853156,-109.04436378240368
8.099783168,0.9997000654203853,-109.7248147308355
8.117136896,0.9994012642848084,-110.40221818498004
8.134490112,0.9991247244081162,-111.07670503977957
8.15184384,0.9988813833608857,-111.7486184767256
8.169197568,0.9986806713141462,-112.4183350407772
8.186550784,0.9985306893998543,-113.08643627096504
8.203904512,0.9984374790907801,-113.75351347428179
8.22125824,0.9984049398810351,-114.42022856904833
8.238611968,0.9984343640447035,-115.08728725796502
8.255965184,0.9985248893287999,-115.75538584197389
8.273318912,0.9986731602737479,-116.42522660240162
8.29067264,0.9988735436353384,-117.0973997427608
8.308025856,0.9991182512054868,-117.77249105043182
8.325379584,0.9993978380599319,-118.4509926700607
8.342733312,0.9997016419901587,-119.13314786756102
8.360086528,1.0000177001910084,-119.8192222264081
8.377440256,1.0003337824789107,-120.50929210821876
8.394793984,1.0006374302454446,-121.20328396626961
8.412147712,1.000916992751171,-121.90096499649103
8.429500928,1.0011611863047742,-122.60204526719004
8.446854656,1.0013607928950796,-123.30606466428479
8.464208384,1.0015076176313402,-124.0124549321744
8.4815616,1.0015958369269564,-124.72058028252201
8.498915328,1.0016219246906586,-125.42979418045275
8.516269056,1.001584650565686,-126.13937397142061
8.533622784,1.001485238242077,-126.84858154858351
8.550976,1.0013273628217871,-127.55679421402115
8.568329728,1.001116924466643,-128.26333660856628
8.585683456,1.0008619718310596,-128.96767027230786
8.603036672,1.000572277764358,-129.6693018290021
8.6203904,1.0002590299448832,-130.3679511982938
8.637744128,0.9999342313636909,-131.0633710919647
8.655097856,0.9996106139304478,-131.755529934377
8.672451584,0.9993008966024628,-132.44447162236804
8.689804288,0.9990169949216269,-133.13039658461278
8.707158016,0.9987701852496902,-133.8137134824169
8.724511744,0.9985703106099629,-134.49486021610764
8.741865472,0.9984252816130214,-135.17440393917462
8.7592192,0.9983409651056802,-135.85303395034316
8.776572928,0.9983207762024552,-136.53139823766605
8.793926656,0.998365951838737,-137.2103199250723
8.81127936,0.9984746953113948,-137.89048357564894
8.828633088,0.9986430871847584,-138.5725952508523
8.845986816,0.9988647576672074,-139.25731429950713
8.863340544,0.9991312100488289,-139.94520012861665
8.880694272,0.9994320082902987,-140.6366946763129
8.898048,0.9997557927984914,-141.3321522256748
8.915401728,1.000089778936902,-142.03171768821565
8.932754432,1.0004212410516964,-142.7355023777113
8.95010816,1.0007370186574238,-143.44334936000803
8.967461888,1.0010249859320537,-144.1550739929003
8.984815616,1.001273644810935,-144.87024621925318
9.002169344,1.0014734284256677,-145.58837534138988
9.019523072,1.001616228542847,-146.30887996731286
9.0368768,1.0016964355115594,-147.03110483983008
9.054229504,1.0017107118350805,-147.75429007793295
9.071583232,1.0016582250830248,-148.477710258641
9.08893696,1.0015407367912106,-149.20063786035047
9.106290688,1.0013626001918026,-149.9223046828986
9.123644416,1.0011306365441868,-150.64212883190868
9.140998144,1.0008534380720868,-151.3595009222857
9.158351872,1.0005416694283082,-152.0739464850338
9.175704576,1.000207299116945,-152.78519195741583
9.193058304,0.9998633155067537,-153.49296731503637
9.210412032,0.9995230263742704,-154.1973162055833
9.22776576,0.9991996052695105,-154.8982677076554
9.245119488,0.99890578200382,-155.59610879778052
9.262473216,0.9986532227587542,-156.29124223556735
9.279826944,0.9984517879271639,-156.9841788627474
9.297179648,0.9983095969770306,-157.6755264792976
9.314533376,0.9982324567007929,-158.36601223195976
9.331887104,0.998223503573609,-159.05638330704343
9.349240832,0.9982835257905303,-159.74745033646926
9.36659456,0.9984102557244076,-160.4399258857818
9.383948288,0.9985991092771407,-161.13459143074166
9.401302016,0.9988428888198284,-161.83212987151083
9.41865472,0.9991323785925657,-162.53307670094497
9.436008448,0.9994564028756127,-163.23790531893118
9.453362176,0.9998025246631366,-163.9469678784548
9.470715904,1.000157170803476,-164.6603938432102
9.488069632,1.0005068089058924,-165.37824056556394
9.50542336,1.0008377131331059,-166.10038329947187
9.522776064,1.0011371845814372,-166.8265232284288
9.540129792,1.0013931818394952,-167.55627072172024
9.55748352,1.0015959474525276,-168.28901145834848
9.574837248,1.0017371289676074,-169.02418208082776
9.592190976,1.0018112380452981,-169.76102313311443
9.609544704,1.0018149992276753,-170.49876916502075
9.626898432,1.0017481051562955,-171.23661891719564
9.644251136,1.001612846280636,-171.97377930635196
9.661604864,1.0014141044365465,-172.70951395018358
9.678958592,1.0011593943767068,-173.44317539248902
9.69631232,1.0008582847547878,-174.1741105612399
9.713666048,1.0005221088271954,-174.90192202124462
9.731019776,1.0001639838664511,-175.62622713738497
9.748373504,0.9997976007200573,-176.34686228831305
9.765726208,0.999437159383274,-177.06378348495937
9.783079936,0.9990966785599685,-177.77716825836688
9.800433664,0.9987893231126628,-178.48724822769665
9.817787392,0.998527499336144,-179.1944901407088
9.83514112,0.9983214599307831,-179.89949085179902
9.852494848,0.9981793756959079,179.39714402602516
9.869848576,0.99810719327116,178.69460490093093
9.88720128,0.9981079597434602,177.99208003839448
9.904555008,0.9981819621873025,177.28873397011418
9.921908736,0.9983266708318056,176.58378296674604
9.939262464,0.9985365900265921,175.87642027605244
9.956616192,0.9988039607392123,175.16595599472646
9.97396992,0.9991186384660791,174.4517700302104
9.991323648,0.9994686013435373,173.7334029114649
10.008676352,0.9998401962185011,173.01054333929534
10.02603008,1.0002193665251404,172.2830121961446
10.043383808,1.0005913214898814,171.55077714070887
10.060737536,1.0009415077354342,170.81403052156216
10.078091264,1.001256423617506,170.07306876818063
10.095444992,1.0015238356191272,169.32835089006664
10.11279872,1.0017330284833068,168.58047447132262
10.130151424,1.0018755626721045,167.8301411395178
10.147505152,1.0019461016754503,167.07815182705775
10.16485888,1.001941110726513,166.32528977045382
10.182212608,1.0018606632400968,165.5724349768774
10.199566336,1.0017075864639846,164.82042187477126
10.216920064,1.0014872796967027,164.07001173676713
10.234273792,1.0012080695579466,163.32194892343298
10.251626496,1.0008803000255009,162.5768493336027
10.268980224,1.0005165393109694,161.83518036522997
10.286333952,1.0001305963779887,161.09731906600558
10.30368768,0.9997374270307067,160.36342011676857
10.321041408,0.999352051318392,159.63350209258053
10.338395136,0.9989895769519451,158.9073942610772
10.355748864,0.9986640385798142,158.18477035367823
10.373101568,0.9983882758054736,157.46516954776652
10.390455296,0.9981735167081244,156.74798241146704
10.407809024,0.9980281522763927,156.03244020562428
10.425162752,0.9979581023481269,155.31772912492858
10.44251648,0.9979666938262746,154.6029946660942
10.459870208,0.9980538883326647,153.8873350911347
10.477223936,0.9982166285738643,153.16986986971736
10.49457664,0.9984488738995557,152.44977393771651
10.511930368,0.9987421871125024,151.72628383747673
10.529284096,0.9990852660876083,150.99877865128312
10.546637824,0.9994650399267838,150.2667658321028
10.563991552,0.9998670397502829,149.52988273588045
10.58134528,1.0002758045560263,148.78798119360246
10.598697984,1.0006755595924879,148.04105491368566
10.616051712,1.0010507262167072,147.28930095880682
10.63340544,1.0013869281576369,146.5330710976335
10.650759168,1.001670648781171,145.7728623586398
10.668112896,1.001890908032976,145.00933303443094
10.685466624,1.0020390257402791,144.24320309561827
10.702820352,1.0021089108271777,143.47536569809213
10.720173056,1.0020972769518655,142.70669105367637
10.737526784,1.0020041445263184,141.938091937801
10.754880512,1.0018328315959373,141.17045360198617
10.77223424,1.0015894678255144,140.40466863351008
10.789587968,1.0012829948122004,139.64147098188923
10.806941696,1.0009249486466745,138.8815227854529
10.824295424,1.0005287401257195,138.12535571371865
10.841648128,1.0001095289286577,137.3733071646859
10.859001856,0.9996833285259591,136.62559177993782
10.876355584,0.9992664777888188,135.88220837200083
10.893709312,0.9988753261930349,135.1429453699419
10.91106304,0.9985250912762457,134.40746849760671
10.928416768,0.9982295858960042,133.67524476797132
10.945770496,0.9980005609642703,132.94562636991134
10.9631232,0.9978473350609559,132.2177534357516
10.980476928,0.9977760732828772,131.49078092031587
10.997830656,0.997790326771052,130.76373991400524
11.015184384,0.9978898544448147,130.03567633671284
11.032538112,0.9980712366636797,129.30562038295074
11.04989184,0.9983278225334634,128.57265633363014
11.067245568,0.9986503262760885,127.83601904794968
11.084598272,0.9990263923415372,127.09501709037129
11.101952,0.9994418370006662,126.34906558696487
11.119305728,0.9998807086493217,125.59786293059362
11.136659456,1.0003263877239292,124.8411953045711
11.154013184,1.0007615292958367,124.0790781539364
11.171366912,1.0011694765074928,123.31170756691529
11.18872064,1.0015341518888587,122.53949285080739
11.206073344,1.0018414861450335,121.76297693364101
11.223427072,1.0020791166981606,120.9828873622709
11.2407808,1.0022377743574067,120.20001384419753
11.258134528,1.002310779474694,119.41530686765579
11.275488256,1.0022947042505745,118.6297049838097
11.292841984,1.0021898180181619,117.84425022399803
11.310195712,1.001999440833373,117.05989831364266
11.327548416,1.0017304970931702,116.2775702628598
11.344902144,1.0013928410194166,115.49810573319925
11.362255872,1.00099877927251,114.72221907690788
11.3796096,1.0005633802282212,113.9504940101735
11.396963328,1.0001030092119567,113.18331316425659
11.414317056,0.9996350817366052,112.42087186683294
11.431670784,0.9991779730872123,111.66320616710348
11.449023488,0.9987490038327141,110.91006159694213
11.466377216,0.9983652800181373,110.16109110459973
11.483730944,0.9980417536129054,109.4157008040708
11.501084672,0.9977912605664143,108.67313429458983
11.5184384,0.9976242399442316,107.93254452590088
11.535792128,0.9975474524895959,107.19292093828372
11.553144832,0.9975646443363914,106.45322596706256
11.57049856,0.9976756042100805,105.71240960117565
11.587852288,0.9978769251339915,104.96939318289668
11.605206016,0.99816098253368,104.22319210337207
11.622559744,0.9985175425820972,103.47292619079737
11.639913472,0.9989333156857179,102.71783355409161
11.6572672,0.9993925167107448,101.9573472907699
11.674619904,0.9998777461383421,101.1910021520944
11.691973632,1.0003703792233845,100.41864622733013
11.70932736,1.0008516986740956,99.64029557083624
11.726681088,1.0013029352096858,98.85612158164817
11.744034816,1.0017065420678843,98.066616927363
11.761388544,1.0020468126842017,97.27231549892656
11.778742272,1.002310250190278,96.47403519768012
11.796094976,1.0024863298024478,95.67268964520953
11.813448704,1.002567495476735,94.86928653111306
11.830802432,1.0025501254320106,94.06487805953648
11.84815616,1.0024342188747506,93.26058559976386
11.865509888,1.002223380582563,92.45748876907916
11.882863616,1.0019250975440699,91.65661798771032
11.900217344,1.0015501972217036,90.85890602819245
11.917570048,1.00111227343267,90.06513041132268
11.934923776,1.0006279027209863,89.27594571430288
11.952277504,1.0001151973845033,88.4918176966594
11.969631232,0.9995935995153371,87.71294089216784
11.98698496,0.9990833067490612,86.93935355458045
12.004338688,0.9986038397354382,86.17082385584685
12.021692416,0.9981741873440639,85.40695192234843
12.03904512,0.9978111595452862,84.64706730134645
12.056398848,0.9975292423069522,83.89038304410832
12.073752576,0.9973401587921918,83.13589686791205
12.091106304,0.9972518012052225,82.382539032352
12.108460032,0.9972683189995131,81.62911182797903
12.12581376,0.9973900427449248,80.87444546990427
12.143167488,0.9976128936555946,80.117351364674
12.160520192,0.9979290692942181,79.35671986806886
12.17787392,0.998327093373588,78.59153587162818
12.195227648,0.9987921890262037,77.82093006581671
12.212581376,0.9993068548054188,77.04425175231184
12.229935104,0.9998517913880556,76.26103426941214
12.247288832,1.0004061244623808,75.4710191840641
12.26464256,1.0009486338082334,74.67419367059438
12.281995264,1.0014584607533839,73.87078838597787
12.299348992,1.0019157671932033,73.06128693108279
12.31670272,1.0023027459896563,72.24633912632798
12.334056448,1.0026038917057922,71.426827748814
12.351410176,1.0028070425699511,70.60370426269189
12.368763904,1.0029037084400803,69.77816857501075
12.386117632,1.0028893099817222,68.95138968559482
12.403470336,1.0027634611033869,68.12459614940346
12.420824064,1.0025299746794059,67.2990221078303
12.438177792,1.0021968831031023,66.47583093378542
12.45553152,1.0017760999948342,65.65607635308871
12.472885248,1.0012828139062475,64.84069513715117
12.490238976,1.0007354078502348,64.03038256830243
12.50759168,1.0001541592413514,63.22569483146627
12.524945408,0.9995612907441171,62.42692084644951
12.542299136,0.9989793672446718,61.63407664373169
12.559652864,0.9984307323987632,60.846967154658834
12.577006592,0.9979370857916751,60.06510445764344
12.59436032,0.9975176833603145,59.287793836152815
12.611714048,0.9971896340132765,58.51412698725677
12.629066752,0.9969662879011653,57.74300271062437
12.64642048,0.9968573658277062,56.973178046306955
12.663774208,0.9968679334319517,56.20333857500761
12.681127936,0.9969988638095144,55.43208557513421
12.698481664,0.9972459910912008,54.658085634252146
12.715835392,0.997601064772234,53.88006281379565
12.73318912,0.9980510726298139,53.09682296626361
12.750541824,0.9985797278542755,52.30736772837551
12.767895552,0.999167384506506,51.510889801443575
12.78524928,0.9997917929176632,50.706816028613524
12.802603008,1.000429582401493,49.894856938398604
12.819956736,1.0010561998690424,49.07495079563805
12.837310464,1.0016475589107754,48.24733324770382
12.854664192,1.0021808061189674,47.41250168604377
12.872016896,1.0026350923730667,46.57119710315918
12.889370624,1.002992271893758,45.72435304979355
12.906724352,1.003237761589003,44.87311261885671
12.92407808,1.0033611928645916,44.018771827263755
