freq,mag,phase
6.0,0.9999355708182712,172.0236947934361
6.002287104,1.0000730376950606,171.87611684461132
6.004574208,1.0002069719963262,171.72662917918046
6.006861312,1.0003272931925726,171.57536228443158
6.009147904,1.0004267567662861,171.4225228022449
6.011435008,1.0004990049448987,171.26853052262555
6.013722112,1.0005390751455996,171.11379166958997
6.016009216,1.0005448806827384,170.95875416891073
6.01829632,1.0005156199646676,170.8039135307646
6.020583424,1.0004533529507103,170.64982901849075
6.022870016,1.0003618673264567,170.49693016331005
6.02515712,1.0002470154049654,170.3455376167025
6.027444224,1.000115980896491,170.1960365203759
6.029731328,0.9999770173540784,170.0485438848567
6.032018432,0.9998389433524092,169.90313056326445
6.034305536,0.999710479922521,169.75970861122096
6.036592128,0.9995999724880916,169.61809104272714
6.038879232,0.9995140967670382,169.4779669328226
6.041166336,0.9994586239056722,169.3389150455129
6.04345344,0.9994371598659697,169.20047872203764
6.045740544,0.9994506813525884,169.06221404970304
6.048027648,0.9994989013725153,168.92353639670867
6.05031424,0.9995783227680973,168.78399244648443
6.052601344,0.999684120742945,168.64318157058307
6.054888448,0.9998098467097677,168.50074983708257
6.057175552,0.999947221131201,168.35644399638875
6.059462656,1.0000877666857038,168.21019081132263
6.06174976,1.0002223218605508,168.06200309160914
6.064036352,1.0003426604607606,167.91202960794985
6.066323456,1.0004408647071676,167.76051934995976
6.06861056,1.0005109369354257,167.6078404638366
6.070897664,1.0005484082602276,167.45441761915686
6.073184768,1.0005506439146596,167.3007916274711
6.075471872,1.0005175824427954,167.1474437436165
6.077758464,1.000451415276171,166.99485035675244
6.080045568,1.0003560779318699,166.84353503169382
6.082332672,1.0002377040176842,166.69377981396872
6.084619776,1.0001037136655617,166.5459321640644
6.08690688,0.999962700684682,166.4001682214798
6.089193984,0.9998233678660904,166.25646476449526
6.091481088,0.9996947172985904,166.11477875937885
6.09376768,0.999584901654111,165.97491729656025
6.096054784,0.9995008926245693,165.83649362757288
6.098341888,0.9994479803055845,165.69913075588246
6.100628992,0.9994295849347121,165.5623781667258
6.102916096,0.9994469688771729,165.4256822760084
6.1052032,0.9994991578219803,165.28855493210247
6.107489792,0.9995826256577262,165.15047729471738
6.109776896,0.9996923006827944,165.01109388996363
6.112064,0.999821164865125,164.87000145503225
6.114351104,0.9999609645676176,164.72704172292077
6.116638208,1.0001032121608204,164.5820813396608
6.118925312,1.0002385789209147,164.43518620884166
6.121211904,1.000358337729538,164.2864689768306
6.123499008,1.0004553707660648,164.13625847901864
6.125786112,1.0005231819809584,163.98485454438898
6.128073216,1.000557429108184,163.83282747741126
6.13036032,1.000556193493187,163.68060213106844
6.132647424,1.0005191026240083,163.528672338642
6.134934016,1.0004488135199616,163.3776368346216
6.13722112,1.0003496270215866,163.22785736628433
6.139508224,1.0002276421321104,163.07973469629272
6.141795328,1.0000907959520458,162.93357329823144
6.144082432,0.9999474976477197,162.78947033687288
6.146369536,0.9998072536363857,162.64749607490515
6.148656128,0.9996784146827082,162.50757125137736
6.150943232,0.9995695377363479,162.36942926973364
6.153230336,0.9994874190503051,162.23271739557248
6.15551744,0.9994371966198573,162.0970580787669
6.157804544,0.9994224295856563,161.96189111559215
6.160091648,0.9994437476581195,161.8268026054174
6.162378752,0.9995000413733395,161.69115934723175
6.164665344,0.9995875734042875,161.5545708216743
6.166952448,0.9997011037481282,161.4165478290568
6.169239552,0.9998331372392048,161.2768453576403
6.171526656,0.9999757479159078,161.13517810373588
6.17381376,1.0001192786587942,160.99149037282137
6.176100864,1.0002551568106783,160.84582535714353
6.178387456,1.000374646513907,160.69836077705565
6.18067456,1.0004701166439272,160.5494130890934
6.182961664,1.0005354150340533,160.3993522739182
6.185248768,1.00056648716329,160.24862321566872
6.187535872,1.0005612467251592,160.09780497908469
6.189822976,1.0005201097178076,159.94734453204305
6.192109568,1.0004455580323557,159.79775995791266
6.194396672,1.0003423070958837,159.64955506735149
6.196683776,1.0002167636663224,159.50304179966344
6.19897088,1.0000769677835564,159.3585508192959
6.201257984,0.9999318347006865,159.21617145022742
6.203545088,0.999790359278039,159.07592719559887
6.20583168,0.9996616292768866,158.93771878189958
6.208118784,0.9995537350145394,158.80127165547887
6.210405888,0.9994738166663113,158.66629306281402
6.212692992,0.9994267625542764,158.53226934691702
6.214980096,0.9994156249986942,158.3987540141415
6.2172672,0.9994410708477244,158.26518517749994
6.219553792,0.9995015891698822,158.13106877701148
6.221840896,0.9995933507567752,157.9958858683848
6.224128,0.9997107186282708,157.8592467729615
6.226415104,0.9998461018697414,157.72080760664247
6.228702208,0.9999910349553757,157.58043123949633
6.230989312,1.0001361377988571,157.43798125329982
6.233275904,1.0002724297626653,157.29357465683884
6.235563008,1.0003912314887775,157.14733259017015
6.237850112,1.0004849250023622,156.99962698359235
6.240137216,1.0005475646924327,156.85082654816426
6.24242432,1.0005751533304923,156.70144239643503
6.244711424,1.0005660191766275,156.55197239459858
6.246998528,1.0005204840759576,156.40294689295044
6.24928512,1.0004415075826747,156.25489650309342
6.251572224,1.0003341160470838,156.10820905671724
6.253859328,1.0002050323406855,155.9633339547555
6.256146432,1.0000624483353022,155.82048592621445
6.258433536,0.9999152803103173,155.6798050963323
6.26072064,0.9997728712631577,155.5412815234458
6.263007232,0.9996443432531057,155.40479934692158
6.265294336,0.9995378527550206,155.27007663820413
6.26758144,0.9994602765449283,155.13674003063875
6.269868544,0.999416280632838,155.00437571762507
6.272155648,0.9994090140627124,154.87245211923212
6.274442752,0.9994387915667536,154.7404017557594
6.276729344,0.9995037439926526,154.6077410622791
6.279016448,0.9996000298207699,154.4739465773575
6.281303552,0.9997211771199335,154.33864381827587
6.283590656,0.9998597155151266,154.20152625478394
6.28587776,1.0000070620784314,154.06238206679546
6.288164864,1.0001537233548734,153.92114497476027
6.290451456,1.000290268846006,153.7779387570283
6.29273856,1.0004081573133545,153.63289207089494
6.295025664,1.0004997253224377,153.48641524566764
6.297312768,1.0005596113191622,153.3388787970269
6.299599872,1.000583589640836,153.19079349372709
6.301886976,1.0005700315454746,153.0426882568825
6.304173568,1.0005201484791781,152.8950620538388
6.306460672,1.0004366045973663,152.7484890690481
6.308747776,1.0003250919242779,152.60339228304898
6.31103488,1.000192479801347,152.4601126095629
6.313321984,1.0000468931111133,152.31889601995184
6.315609088,0.9998978513387569,152.17990360044408
6.317896192,0.999754755283081,152.0430863902239
6.320182784,0.9996267277198261,151.90830844324512
6.322469888,0.9995216988045844,151.77526535853445
6.324756992,0.9994466109015945,151.6436089480007
6.327044096,0.9994061335710933,151.5128538210773
6.3293312,0.9994028798192942,151.38249864305018
6.331618304,0.9994370698784963,151.25193242400184
6.333904896,0.9995068721877121,151.12071833766942
6.336192,0.9996073493814259,150.9882963487021
6.338479104,0.9997325830768982,150.85429870942556
6.340766208,0.9998744144108663,150.71842966300912
6.343053312,1.000024047949996,150.58044547793352
6.345340416,1.0001719677746643,150.4404104817388
6.347627008,1.000308562289846,150.29835118869013
6.349914112,1.000425439312036,150.15452337053742
6.352201216,1.000514944000922,150.00923684269463
6.35448832,1.0005715267426867,149.86292356997467
6.356775424,1.0005916305499991,149.71610678491373
6.359062528,1.000573767931814,149.56931883438622
6.36134912,1.0005190698313764,149.4231433918305
6.363636224,1.000431107696267,149.27803325164066
6.365923328,1.000315304591253,149.13445809255498
6.368210432,1.0001788637256015,148.99278002246393
6.370497536,1.0000305806435772,148.85323542282967
6.37278464,0.9998798225568359,148.71590332470868
6.375071232,0.9997360346515364,148.58075507111522
6.377358336,0.9996084706898766,148.44768790318273
6.37964544,0.9995053419562305,148.31632530719838
6.381932544,0.9994329641963208,148.18628138051213
6.384219648,0.9993961430810551,148.05713708515228
6.386506752,0.9993972414561142,147.9282806022288
6.388793344,0.9994360964730862,147.79922462160175
6.391080448,0.9995106167545806,147.66938883794492
6.393367552,0.9996156958730339,147.53828127715371
6.395654656,0.9997449679543193,147.40555318857685
6.39794176,0.9998899600904244,147.2709070103907
6.400228864,1.0000418879295416,147.13410470518605
6.402515968,1.0001908013275185,146.99520468137493
6.40480256,1.0003273589908557,146.85427453225503
6.407089664,1.0004429975720526,146.71158149865275
6.409376768,1.0005301407405043,146.56745922037442
6.411663872,1.0005834240045084,146.42235556915384
6.413950976,1.0005993369157828,146.27682575221712
6.41623808,1.0005769345862794,146.1313607211668
6.418524672,1.0005173711762458,145.9865642417974
6.420811776,1.0004247508402977,145.84292880122615
6.42309888,1.0003044253481794,145.70088606922025
6.425385984,1.0001644055683896,145.56077575099485
6.427673088,1.0000133852721234,145.42283898198525
6.429960192,0.9998610584688684,145.28717628446813
6.432246784,0.9997167377604043,145.15372074165936
6.434533888,0.9995900484746979,145.0222847093604
6.436820992,0.999488822418393,144.89259086409788
6.439108096,0.9994194675241271,144.7641889324167
6.4413952,0.9993865503260514,144.63659142917479
6.443682304,0.9993919980568704,144.5092606738417
6.445968896,0.9994358078153242,144.3815981778407
6.448256,0.9995150005969445,144.25312729281367
6.450543104,0.9996247356358584,144.12334881603317
6.452830208,0.9997580626608664,143.99181799759813
6.455117312,0.999906419272821,143.8583292534848
6.457404416,1.0000604475218728,143.7226800209779
6.459691008,1.000210345733662,143.58488430936984
6.461978112,1.0003467429223487,143.4450665746763
6.464265216,1.000460745490515,143.30345627616978
6.46655232,1.0005454038557444,143.16047330276393
6.468839424,1.0005949111309715,143.01657694127525
6.471126528,1.0006065950695666,142.8722679791462
6.473413632,1.0005792936117321,142.7281280303051
6.475700224,1.0005148466391842,142.5847022187178
6.477987328,1.0004171488323783,142.44251114993745
6.480274432,1.000292581260551,142.30197641914424
6.482561536,1.0001489686766158,142.16343980648062
6.48484864,0.9999952654484393,142.02712762851263
6.487135744,0.9998413666707535,141.89308954317565
6.489422336,0.9996969112526427,141.76129967865478
6.49170944,0.9995710816159378,141.63152872734773
6.493996544,0.999472016119301,141.50345443892041
6.496283648,0.9994059878600093,141.37662240134057
6.498570752,0.9993771836679989,141.25056059407055
6.500857856,0.9993873138718841,141.12465905926618
6.503144448,0.9994363167830034,140.99844625086266
6.505431552,0.9995205226314938,140.8712878490942
6.507718656,0.999634903964302,140.74273124641212
6.51000576,0.9997722732727522,140.6124022035444
6.512292864,0.9999238072469586,140.48004651415044
6.514579968,1.0000799068220714,140.34547305555523
6.51686656,1.0002307279172342,140.2087344398008
6.519153664,1.0003664800215077,140.0699695630066
6.521440768,1.000478904745579,139.92947109176015
6.523727872,1.0005605996515956,139.78756588692858
6.526014976,1.000606344638176,139.64484180513486
6.52830208,1.0006133730443205,139.50174352736238
6.530588672,1.0005810678246287,139.35889547515495
6.532875776,1.0005115121738246,139.2168397356752
6.53516288,1.0004089316004465,139.0760502398236
6.537449984,1.0002800217934071,138.93701788100864
6.539737088,1.0001326476056227,138.80004190954534
6.542024192,0.9999762459187255,138.66532604690906
6.544310784,0.9998210174761977,138.53291451564667
6.546597888,0.9996764267561533,138.40276036024315
6.548884992,0.9995519706746789,138.27463026488311
6.551172096,0.9994552176724293,138.14813477204447
6.5534592,0.9993926123187403,138.02288182342517
6.555746304,0.9993682308059616,137.89831030077576
6.558033408,0.9993834495549286,137.7738589793745
6.56032,0.9994374901077567,137.64896115841526
6.562607104,0.9995268681611738,137.52309326981046
6.564894208,0.9996460900298151,137.39575469985385
6.567181312,0.9997873831123695,137.26656870914675
6.569468416,0.9999419870536056,137.13529012656988
6.57175552,1.0001000647858722,137.0017683583197
6.574042112,1.000251522053986,136.86608493072455
6.576329216,1.0003867256410879,136.72832699150413
6.57861632,1.0004970965307984,136.5888593256733
6.580903424,1.000575657740347,136.44808009700265
6.583190528,1.0006175361875926,136.30643578640755
6.585477632,1.0006196509195406,136.16452932874233
6.587764224,1.0005822312198371,136.0229655103993
6.590051328,1.0005073014651473,135.88220767144364
6.592338432,1.0003997882677318,135.74286321473986
6.594625536,1.0002663293399048,135.60532442842396
6.59691264,1.0001154201362352,135.4698709807946
6.599199744,0.9999566040262031,135.33674377379666
6.601486336,0.999800006552609,135.20594991408487
6.60377344,0.9996555862388716,135.0774149529015
6.606060544,0.9995323940158045,134.9508616562196
6.608347648,0.999438393133603,134.82595648285036
6.610634752,0.9993795916139366,134.7022191187181
6.612921856,0.9993598051291994,134.57910328800673
6.615208448,0.9993801906322995,134.45607983317456
6.617495552,0.9994396113014542,134.33248085086268
6.619782656,0.9995341982749318,134.2078533365378
6.62206976,0.9996581575474708,134.08164423358176
6.624356864,0.99980354078367,133.95358802233173
6.626643968,0.9999611672006906,133.8233342607602
6.628931072,1.0001210366693922,133.69083123991837
6.631217664,1.0002729168828306,133.5561013296861
6.633504768,1.0004072397820376,133.41936029966772
6.635791872,1.0005155035636906,133.2808950620708
6.638078976,1.0005907173755717,133.1411423942624
6.64036608,1.000628172420138,133.00061427752308
6.642653184,1.000625252230058,132.85990407737864
6.644939776,1.0005824007477493,132.71954315472357
6.64722688,1.0005020797701984,132.58011907685858
6.649513984,1.0003894416650088,132.4421582148777
6.651801088,1.000251538080163,132.30608206874166
6.654088192,1.0000972218078026,132.1721550194027
6.656375296,0.999935991292499,132.0405882273715
6.658661888,0.9997783876988083,131.91140074181718
6.660948992,0.9996341049899726,131.7844498837794
6.663236096,0.9995127344674122,131.6594763147308
6.6655232,0.9994217362249721,131.53612566315678
6.667810304,0.9993668477403105,131.41385890783712
6.670097408,0.9993519065119849,131.29221205441607
6.672384,0.9993776196936115,131.17049741014333
6.674671104,0.9994426050186708,131.04816431545436
6.676958208,0.9995425790439472,130.92475122109622
6.679245312,0.9996714725467882,130.79966106678984
6.681532416,0.9998208803695589,130.67263014085597
6.68381952,0.9999813956537558,130.5433522442603
6.686106112,1.0001428904168863,130.4118279687495
6.688393216,1.0002951053740832,130.2780591903371
6.69068032,1.00042827764053,130.1422238056711
6.692967424,1.0005341010060333,130.00477038366557
6.695254528,1.000605537385674,129.8660160360254
6.697541632,1.0006384571400886,129.72658972350004
6.699828224,1.0006303503476337,129.5869695776796
6.702115328,1.0005818948264296,129.4478759429823
6.704402432,1.000496050496055,129.30976694253033
6.706689536,1.000378129504291,129.17316542737353
6.70897664,1.0002357434527396,129.03854399874658
6.711263744,1.0000779352741918,128.90611720163875
6.713550848,0.9999144144003835,128.77609458727412
6.71583744,0.9997558212629292,128.6484371612238
6.718124544,0.9996122039157485,128.52307343062003
6.720411648,0.9994925763083592,128.3996793334587
6.722698752,0.9994047453419715,128.2778047505058
6.724985856,0.999354311527567,128.15703599616077
6.72727296,0.9993443718043836,128.03675150353945
6.729559552,0.9993758105478809,127.91635601743002
6.731846656,0.999446343841022,127.79524822789105
6.73413376,0.9995518991021562,127.6729436971323
6.736420864,0.9996855671224806,127.54894676950659
6.738707968,0.9998389662033162,127.42289567968342
6.740995072,1.0000023788426804,127.29460168735127
6.743281664,1.0001653683180431,127.16397259558663
6.745568768,1.0003176582856999,127.03109717323062
6.747855872,1.0004494646898479,126.89618206115435
6.750142976,1.0005525637096475,126.75964138400728
6.75243008,1.0006202262013395,126.6218901115817
6.754717184,1.0006480911015974,126.48349905589119
6.757003776,1.000634658027642,126.3450303586767
6.75929088,1.0005803451217692,126.2071046298546
6.761577984,1.0004888165376837,126.0702875617766
6.763865088,1.000365708232264,125.93504883115442
6.766152192,1.0002188775114815,125.80183411160891
6.768439296,1.00005757927902,125.67089478487674
6.770725888,0.9998920157770836,125.54241367979898
6.773012992,0.9997328037770834,125.41634334213838
6.775300096,0.9995898194299214,125.29252155026118
6.7775872,0.9994725617605635,125.17058566720749
6.779874304,0.9993880300788174,125.05023010005355
6.782161408,0.9993421199402333,124.93086076622039
6.784448512,0.9993375370274554,124.81192104645412
6.786735104,0.9993746677576083,124.69278869480954
6.789022208,0.9994512064075258,124.57288117882926
6.791309312,0.9995623145377336,124.45165602716645
6.793596416,0.9997008422314776,124.32867085691653
6.79588352,0.9998582697143852,124.20357763434943
6.798170624,1.0000244170169297,124.07617765071504
6.800457216,1.0001886726693197,123.94641699125111
6.80274432,1.0003407929224402,123.81440756199699
6.805031424,1.000471049667261,123.68037489537906
6.807318528,1.0005710457194632,123.5447246274913
6.809605632,1.000634579343819,123.40791096956237
6.811892736,1.000657402656155,123.27054890749565
6.814179328,1.0006382046966449,123.13316163394323
6.816466432,1.0005780330406815,122.99642475657441
6.818753536,1.0004806907853925,122.86084761101618
6.82104064,1.0003522312345747,122.72698595028841
6.823327744,1.0002011097119554,122.59516627113109
6.825614848,1.0000363577781208,122.46572557434136
6.82790144,0.9998688301586516,122.33871577672967
6.830188544,0.9997090103302599,122.21416742961016
6.832475648,0.999567097649957,122.09185235093526
6.834762752,0.999452251460119,121.97142862095511
6.837049856,0.9993716908850837,121.85251675801734
6.83933696,0.9993305299739792,121.73453979239379
6.841623552,0.9993314413173152,121.61691572705107
6.843910656,0.9993746938315329,121.49897479838417
6.84619776,0.9994570346971275,121.38020608470515
6.848484864,0.9995738382050672,121.26001993877014
6.850771968,0.9997173363494646,121.13800074117074
6.853059072,0.9998785397713943,121.01380579168294
6.855345664,1.0000473360514155,120.88726805700104
6.857632768,1.000212820791513,120.75830325285763
6.859919872,1.00036448827969,120.62710613458796
6.862206976,1.0004928316114512,120.49391819654575
6.86449408,1.0005895362153612,120.3591359752367
6.866781184,1.000648527256339,120.22327563875996
6.869068288,1.00066609389926,120.08686697742041
6.87135488,1.000640944132741,119.95057732199305
6.873641984,1.0005747252179158,119.81498694960742
6.875929088,1.0004713607889293,119.6806607348022
6.878216192,1.0003376286840078,119.54809009073277
6.880503296,1.000181920503783,119.41770617372448
6.8827904,1.0000141066366846,119.28968405546644
6.885076992,0.9998446904314815,119.1641734982647
6.887364096,0.9996846997664248,119.04111129546347
6.8896512,0.9995441194387822,118.92026624926207
6.891938304,0.9994319656436897,118.8013420913722
6.894225408,0.9993554604784431,118.68381792093236
6.896512512,0.9993192777712538,118.56717802483573
6.898799104,0.999326107033786,118.45080544325323
6.901086208,0.9993753512986582,118.33405673524099
6.903373312,0.9994639672578141,118.21635676339812
6.905660416,0.9995864226230465,118.0971867791043
6.90794752,0.9997348243801004,117.9760904729706
6.910234624,0.9998998305640097,117.85274312618006
6.912521216,1.0000709104841374,117.7269959853737
6.91480832,1.0002373549890806,117.59884199671588
6.917095424,1.000388538730296,117.46840283382781
6.919382528,1.0005146820172135,117.33599364609209
6.921669632,1.0006078884020209,117.20204937163321
6.923956736,1.000662266344712,117.06705257044382
