freq,mag,phase
6.0,0.9999930669971031,-31.59021243875213
6.008,0.9999946820175181,-31.968436103073756
6.016,0.999996228609628,-32.3464316419635
6.024,0.999997708291411,-32.7241957927832
6.032,0.9999991225625081,-33.10172531262987
6.04,0.9999999999999999,-33.47901697853425
6.048,1.0,-33.85606758765589
6.056,0.9999999999999999,-34.23287395747464
6.064,1.0,-34.60943292597886
6.072,1.0,-34.98574135185
6.08,1.0,-35.36179611464363
6.088,0.9999999999999999,-35.73759411496703
6.096,0.9999999999999999,-36.11313227465324
6.104,0.9999999999999999,-36.48840753693137
6.112,0.9999999999999999,-36.86341686659359
6.12,0.9999999999999999,-37.238157250158366
6.128,0.9999999999999999,-37.612625696030165
6.136,1.0,-37.98681923465544
6.144,0.9999999999999999,-38.36073491867526
6.152,0.9999999999999999,-38.73436982307409
6.16,0.9999999999999999,-39.10772104532493
6.168,1.0,-39.48078570553105
6.176,0.9999999999999999,-39.853560946563874
6.184,1.0,-40.22604393419737
6.192,1.0,-40.598231857238694
6.2,1.0,-40.970121927655235
6.208,0.9999999999999999,-41.341711380698094
6.216,1.0,-41.71299747502178
6.224,1.0,-42.08397749280043
6.232,1.0,-42.454648739840344
6.24,1.0,-42.8250085456887
6.248,0.9999999999999999,-43.19505426373904
6.256,0.9999999999999999,-43.564783271332836
6.264,1.0,-43.93419296985746
6.272,1.0,-44.303280784840716
6.28,0.9999999999999999,-44.67204416604166
6.288,1.0,-45.040480587537864
6.296,0.9999999999999999,-45.40858754780909
6.304,1.0,-45.77636256981746
6.312,1.0,-46.143803201083976
6.32,0.9999999999999999,-46.51090701376171
6.328,1.0,-46.877671604705135
6.336,1.0,-47.24409459553628
6.344,0.9999999999999998,-47.61017363270724
6.352,0.9999999999999999,-47.975906387559235
6.36,0.9999999999999999,-48.34129055637812
6.368,0.9999999999999999,-48.70632386044671
6.376,0.9999999999999999,-49.07100404609331
6.384,1.0,-49.4353288847372
6.392,0.9999999999999999,-49.79929617293057
6.4,1.0,-50.16290373239706
6.408,1.0,-50.526149410066985
6.416,0.9999999999999999,-50.889031078109355
6.424,1.0,-51.25154663396045
6.432,1.0,-51.61369400034923
6.44,0.9999999999999999,-51.97547112531934
6.448,1.0,-52.33687598224815
6.456,1.0,-52.69790656986233
6.464,1.0,-53.05856091225049
6.472,1.0,-53.41883705887239
6.48,1.0,-53.778733084565346
6.4879999999999995,1.0,-54.13824708954726
6.496,1.0,-54.49737719941695
6.504,0.9999999999999999,-54.85612156515081
6.5120000000000005,1.0,-55.21447836309734
6.52,1.0,-55.572445794967734
6.5280000000000005,1.0,-55.93002208782455
6.536,1.0,-56.287205494066306
6.5440000000000005,1.0,-56.64399429141043
6.552,1.0,-57.00038678287209
6.5600000000000005,1.0000000000000002,-57.35638129674149
6.568,1.0,-57.71197618655705
6.5760000000000005,0.9999999999999999,-58.06716983107714
6.584,1.0,-58.42196063424774
6.592,1.0,-58.7763470251689
6.6,0.9999999999999999,-59.130327458057
6.608,1.0,-59.483900412205514
6.616,1.0,-59.837064391942675
6.624,1.0,-60.18981792658672
6.632,1.0,-60.54215957039851
6.64,0.9999999999999999,-60.89408790253176
6.648,1.0,-61.24560152698074
6.656,1.0,-61.59669907252557
6.664,1.0,-61.94737919267516
6.672,0.9999999999999999,-62.29764056560774
6.68,1.0,-62.647481894109106
6.688,0.9999999999999999,-62.99690190550857
6.696,0.9999998417529281,-63.34589935161266
6.704,0.9999993842167199,-63.69447300863663
6.712,0.9999989295969502,-64.04262167713375
6.72,0.9999984781428713,-64.3903441819225
6.728,0.999998030094749,-64.73763937201167
6.736,0.9999975856840003,-65.08450612052329
6.744,0.9999971451333355,-65.43094332461364
6.752,0.9999967086568963,-65.77694990539224
6.76,0.9999962764603937,-66.12252480783887
6.768,0.9999958487412475,-66.46766700071858
6.776,0.9999954256887233,-66.81237547649499
6.784,0.9999950074840689,-67.15664925124162
6.792,0.9999945943006526,-67.50048736455136
6.8,0.999994186304097,-67.84388887944432
6.808,0.9999937836524154,-68.18685288227374
6.816,0.999993386496146,-68.52937848263043
6.824,0.9999929949784864,-68.87146481324525
6.832,0.9999926092354253,-69.21311102989027
6.84,0.999992229395877,-69.55431631127809
6.848,0.9999918555818113,-69.89507985895959
6.856,0.9999914879083852,-70.23540089722046
6.864,0.9999911264840731,-70.57527867297583
6.872,0.9999907714107958,-70.91471245566375
6.88,0.9999904227840495,-71.253701537137
6.888,0.999990080693032,-71.59224523155383
6.896,0.9999897452207718,-71.930342875267
6.904,0.9999894164442513,-72.26799382671173
6.912,0.9999890944345344,-72.60519746629235
6.92,0.9999887792568876,-72.94195319626762
6.928,0.9999884709709054,-73.27826044063481
6.936,0.9999881696306321,-73.61411864501281
6.944,0.9999878752846814,-73.94952727652387
6.952,0.9999875879763581,-74.28448582367426
6.96,0.999987307743777,-74.61899379623407
6.968,0.9999870346199801,-74.95305072511562
6.976,0.9999867686330548,-75.28665616225115
6.984,0.9999865098062494,-75.6198096804694
6.992,0.9999862581580876,-75.95251087337124
7.0,0.9999860137024844,-76.28475935520449
7.008,0.9999857764488557,-76.61655476073764
7.016,0.9999855464022337,-76.94789674513301
7.024,0.9999853235633749,-77.27878498381887
7.032,0.9999851079288702,-77.60921917236088
7.04,0.9999848994912549,-77.9391990263327
7.048,0.9999846982391132,-78.26872428118597
7.056,0.9999845041571876,-78.5977946921195
7.064,0.9999843172264821,-78.9264100339479
7.072,0.9999841374243652,-79.25457010096947
7.08,0.9999839647246753,-79.58227470683352
7.088,0.9999837990978199,-79.90952368440716
7.096,0.9999836405108772,-80.23631688564154
7.104,0.9999834889276958,-80.5626541814375
7.112,0.9999833443089914,-80.88853546151074
7.12,0.9999832066124439,-81.21396063425667
7.128,0.999983075792795,-81.5389296266146
7.136,0.9999829518019412,-81.86344238393183
7.144,0.999982834589026,-82.18749886982691
7.152,0.9999827241005347,-82.51109906605302
7.16,0.9999826202803842,-82.83424297236084
7.168,0.9999825230700117,-83.15693060636092
7.176,0.9999824324084645,-83.4791620033861
7.184,0.9999823482324883,-83.80093721635352
7.192,0.9999822704766106,-84.12225631562646
7.2,0.9999821990732285,-84.44311938887581
7.208,0.9999821339526898,-84.7635265409417
7.216,0.9999820750433789,-85.0834778936946
7.224,0.9999820222717954,-85.40297358589666
7.232,0.9999819755626352,-85.72201377306267
7.24,0.9999819348388689,-86.040598627321
7.248,0.9999819000218221,-86.3587283372747
7.256,0.9999818710312486,-86.67640310786219
7.264,0.9999818477854079,-86.99362316021823
7.272,0.999981830201139,-87.3103887315349
7.28,0.9999818181939333,-87.62670007492238
7.288,0.9999818116780063,-87.94255745927002
7.296,0.9999818105663687,-88.25796116910732
7.304,0.9999818147708969,-88.57291150446517
7.312,0.9999818242023988,-88.887408780737
7.32,0.9999818387706828,-89.20145332854028
7.328,0.9999818583846241,-89.51504549357804
7.336,0.9999818829522285,-89.82818563650048
7.344,0.9999819123806968,-90.14087413276702
7.352,0.9999819465764872,-90.4531113725084
7.36,0.9999819854453771,-90.76489776038892
7.368,0.9999820288925229,-91.07623371546919
7.376,0.9999820768225186,-91.38711967106882
7.384,0.9999821291394568,-91.69755607462969
7.392,0.9999821857469815,-92.00754338757936
7.4,0.9999822465483468,-92.31708208519471
7.4079999999999995,0.9999823114464713,-92.6261726564661
7.416,0.9999823803439906,-92.93481560396188
7.4239999999999995,0.9999824531433111,-93.24301144369284
7.432,0.9999825297466608,-93.55076070497788
7.4399999999999995,0.9999826100561403,-93.8580639303089
7.448,0.9999826939737716,-94.16492167521747
7.4559999999999995,0.9999827814015465,-94.4713345081405
7.464,0.9999828722414741,-94.77730301028762
7.4719999999999995,0.9999829663956272,-95.08282777550792
7.48,0.9999830637661868,-95.38790941015816
7.4879999999999995,0.9999831642554867,-95.69254853297039
7.496,0.999983267766057,-95.99674577492117
7.504,0.9999833742006655,-96.30050177910016
7.5120000000000005,0.9999834834623594,-96.60381720058035
7.52,0.9999835954545047,-96.9066927062877
7.5280000000000005,0.999983710080827,-97.20912897487237
7.536,0.9999838272454482,-97.51112669657944
7.5440000000000005,0.9999839468529234,-97.81268657312128
7.552,0.9999840688082791,-98.11380931754935
7.5600000000000005,0.9999841930170469,-98.41449565412775
7.568,0.9999843193852984,-98.71474631820611
7.5760000000000005,0.9999844478196792,-99.01456205609439
7.584,0.9999845782274404,-99.31394362493695
7.5920000000000005,0.999984710516471,-99.61289179258851
7.6,0.9999848445953289,-99.9114073374895
7.6080000000000005,0.9999849803732698,-100.20949104854328
7.616,0.9999851177602772,-100.50714372499277
7.6240000000000006,0.9999852566670908,-100.80436617629887
7.632,0.9999853970052311,-101.10115922201848
7.640000000000001,0.9999855386870307,-101.39752369168421
7.648,0.9999856816256543,-101.69346042468376
7.656000000000001,0.9999858257351284,-101.98897027014085
7.664,0.9999859709303612,-102.28405408679612
7.672,0.9999861171271692,-102.57871274288932
7.68,0.9999862642422968,-102.87294711604173
7.688,0.9999864121934394,-103.16675809313952
7.696,0.999986560899264,-103.46014657021776
7.704,0.9999867102794283,-103.75311345234523
7.712,0.9999868602546012,-104.04565965350969
7.72,0.9999870107464802,-104.33778609650425
7.728,0.99998716167781,-104.62949371281412
7.736,0.999987312972399,-104.92078344250436
7.744,0.9999874645551353,-105.2116562341081
7.752,0.9999876163520034,-105.50211304451585
7.76,0.9999877682900984,-105.7921548388652
7.768,0.9999879202976398,-106.08178259043149
7.776,0.9999880723039853,-106.3709972805192
7.784,0.9999882242396448,-106.65979989835402
7.792,0.9999883760362902,-106.94819144097578
7.8,0.9999885276267698,-107.23617291313204
7.808,0.9999886789451164,-107.52374532717258
7.816,0.9999888299265602,-107.81090970294453
7.824,0.9999889805075359,-108.09766706768833
7.832,0.9999891306256938,-108.3840184559345
7.84,0.9999892802199074,-108.66996490940106
7.848,0.9999894292302803,-108.95550747689195
7.856,0.9999895775981565,-109.24064721419595
7.864,0.9999897252661226,-109.52538518398663
7.872,0.999989872178018,-109.80972245572293
7.88,0.9999900182789382,-110.09366010555065
7.888,0.9999901635152402,-110.37719921620453
7.896,0.9999903078345477,-110.66034087691138
7.904,0.9999904511857544,-110.94308618329372
7.912,0.9999905935190271,-111.22543623727444
7.92,0.9999907347858101,-111.50739214698218
7.928,0.9999908749388255,-111.7889550266574
7.936,0.9999910139320777,-112.07012599655934
7.944,0.999991151720852,-112.35090618287379
7.952,0.9999912882617178,-112.63129671762154
7.96,0.9999914235125282,-112.91129873856775
7.968,0.9999915574324204,-113.19091338913202
7.976,0.9999916899818152,-113.4701418182993
7.984,0.9999918211224155,-113.74898518053146
7.992,0.9999919508172063,-114.02744463568001
8.0,0.9999920790304523,-114.305521348899
8.008,0.9999922057276955,-114.58321649055938
8.016,0.9999923308757538,-114.86053123616371
8.024000000000001,0.999992454442717,-115.13746676626162
8.032,0.9999925763979439,-115.41402426636637
8.04,0.9999926967120587,-115.69020492687213
8.048,0.999992815356948,-115.96600994297172
8.056000000000001,0.9999929323057537,-116.24144051457542
8.064,0.9999930475328712,-116.51649784623041
8.072,0.9999931610139428,-116.7911831470413
8.08,0.9999932727258525,-117.06549763059103
8.088000000000001,0.9999933826467198,-117.33944251486258
8.096,0.9999934907558952,-117.61301902216177
8.104,0.9999935970339516,-117.88622837904063
8.112,0.9999937014626793,-118.15907181622151
8.120000000000001,0.9999938040250778,-118.43155056852191
8.128,0.9999939047053498,-118.70366587478007
8.136,0.9999940034888919,-118.97541897778177
8.144,0.9999941003622888,-119.2468111241872
8.152000000000001,0.9999941953133025,-119.51784356445886
8.16,0.9999942883308668,-119.78851755279032
8.168,0.9999943794050767,-120.05883434703587
8.176,0.9999944685271789,-120.32879520864049
8.184000000000001,0.9999945556895655,-120.59840140257063
8.192,0.9999946408857613,-120.8676541972461
8.2,0.9999947241104157,-121.13655486447253
8.208,0.9999948053592935,-121.40510467937438
8.216000000000001,0.9999948846292631,-121.67330492032869
8.224,0.9999949619182875,-121.9411568688998
8.232,0.9999950372254134,-122.2086618097748
8.24,0.9999951105507598,-122.47582103069944
8.248000000000001,0.9999951818955084,-122.74263582241474
8.256,0.9999952512618914,-123.00910747859461
8.264,0.99999531865318,-123.27523729578424
8.272,0.9999953840736747,-123.5410265733386
8.280000000000001,0.9999954475286913,-123.80647661336222
8.288,0.9999955090245514,-124.0715887206495
8.296,0.9999955685685672,-124.33636420262573
8.304,0.9999956261690337,-124.60080436928874
8.312,0.9999956818352128,-124.8649105331511
8.32,0.9999957355773224,-125.1286840091836
8.328,0.9999957874065237,-125.39212611475843
8.336,0.9999958373349088,-125.65523816959424
8.344,0.9999958853754869,-125.91802149570063
8.352,0.999995931542173,-126.18047741732437
8.36,0.9999959758497722,-126.44260726089553
8.368,0.9999960183139693,-126.70441235497486
8.376,0.9999960589513146,-126.96589403020118
8.384,0.9999960977792092,-127.22705361924031
8.392,0.9999961348158933,-127.48789245673342
8.4,0.999996170080432,-127.74841187924757
8.408,0.9999962035927009,-128.0086132252253
8.416,0.9999962353733741,-128.2684978349362
8.424,0.9999962654439075,-128.52806705042815
8.432,0.9999962938265282,-128.78732221547983
8.44,0.9999963205442187,-129.04626467555343
8.448,0.9999963456207025,-129.30489577774827
8.456,0.9999963690804307,-129.56321687075487
8.464,0.9999963909485685,-129.82122930480978
8.472,0.9999964112509795,-130.07893443165068
8.48,0.9999964300142122,-130.33633360447286
8.488,0.9999964472654858,-130.59342817788502
8.496,0.9999964630326756,-130.85021950786722
8.504,0.9999964773442993,-131.10670895172802
8.512,0.9999964902295003,-131.3628978680632
8.52,0.9999965017180369,-131.61878761671437
8.528,0.9999965118402638,-131.87437955872898
8.536,0.9999965206271212,-132.12967505631974
8.544,0.9999965281101179,-132.38467547282585
8.552,0.9999965343213172,-132.63938217267383
8.56,0.999996539293323,-132.89379652133965
8.568,0.9999965430592646,-133.14791988531067
8.576,0.9999965456527823,-133.4017536320491
8.584,0.9999965471080132,-133.65529912995473
8.592,0.999996547459576,-133.9085577483298
8.6,0.9999965467425567,-134.16153085734265
8.608,0.9999965449924934,-134.41421982799363
8.616,0.9999965422453633,-134.66662603208
8.624,0.9999965385375663,-134.91875084216272
8.632,0.999996533905912,-135.1705956315326
8.64,0.9999965283876034,-135.42216177417785
8.648,0.9999965220202248,-135.6734506447516
8.656,0.9999965148417251,-135.92446361854036
8.664,0.9999965068904043,-136.17520207143235
8.672,0.9999964982048988,-136.42566737988733
8.68,0.9999964888241676,-136.6758609209057
8.688,0.9999964787874769,-136.9257840719994
8.696,0.9999964681343871,-137.17543821116197
8.704,0.9999964569047366,-137.42482471684048
8.712,0.9999964451386303,-137.67394496790658
8.72,0.9999964328764223,-137.92280034362932
8.728,0.9999964201587037,-138.17139222364716
8.736,0.9999964070262881,-138.41972198794176
8.744,0.9999963935201972,-138.6677910168111
8.752,0.9999963796816476,-138.9156006908438
8.76,0.9999963655520351,-139.16315239089363
8.768,0.9999963511729227,-139.41044749805442
8.776,0.9999963365860259,-139.65748739363556
8.784,0.9999963218331984,-139.904273459138
8.792,0.9999963069564197,-140.15080707623022
8.8,0.9999962919977801,-140.39708962672557
8.808,0.9999962769994677,-140.6431224925589
8.815999999999999,0.9999962620037548,-140.8889070557647
8.824,0.9999962470529847,-141.13444469845481
8.832,0.9999962321895577,-141.3797368027972
8.84,0.9999962174559185,-141.6247847509945
8.847999999999999,0.9999962028945422,-141.86958992526394
8.856,0.9999961885479214,-142.1141537078166
8.864,0.9999961744585538,-142.35847748083765
8.872,0.9999961606689278,-142.602562626467
8.879999999999999,0.9999961472215112,-142.8464105267804
8.888,0.9999961341587363,-143.09002256377065
8.896,0.9999961215229899,-143.33340011932924
8.904,0.9999961093565973,-143.5765445752287
8.911999999999999,0.9999960977018129,-143.8194573131051
8.92,0.999996086600805,-144.062139714441
8.928,0.9999960760956457,-144.3045931605486
8.936,0.9999960662282966,-144.54681903255343
8.943999999999999,0.9999960570405978,-144.78881871137875
8.952,0.999996048574255,-145.0305935777295
8.96,0.9999960408708282,-145.27214501207732
8.968,0.9999960339717193,-145.51347439464556
8.975999999999999,0.9999960279181606,-145.75458310539506
8.984,0.9999960227512014,-145.99547252400976
8.992,0.9999960185116988,-146.2361440298829
9.0,0.9999960152403053,-146.4765990021036
9.008,0.9999960129774556,-146.71683881944395
9.016,0.9999960117633578,-146.95686486034606
9.024000000000001,0.9999960116379802,-147.19667850290963
9.032,0.9999960126410418,-147.43628112487983
9.04,0.9999960148119994,-147.6756741036358
9.048,0.9999960181900381,-147.91485881617893
9.056000000000001,0.9999960228140603,-148.15383663912186
9.064,0.9999960287226738,-148.39260894867763
9.072,0.9999960359541821,-148.63117712064934
9.08,0.9999960445465742,-148.86954253041998
9.088000000000001,0.9999960545375136,-149.10770655294243
9.096,0.999996065964328,-149.3456705627299
9.104,0.9999960788639997,-149.5834359338471
9.112,0.999996093273154,-149.82100403990083
9.120000000000001,0.9999961092280513,-150.05837625403151
9.128,0.9999961267645757,-150.29555394890488
9.136,0.999996145918226,-150.532538496704
9.144,0.9999961667241064,-150.76933126912144
9.152000000000001,0.9999961892169151,-151.00593363735163
9.16,0.9999962134309375,-151.24234697208394
9.168,0.9999962394000355,-151.47857264349568
9.176,0.9999962671576375,-151.71461202124542
9.184000000000001,0.9999962967367313,-151.95046647446657
9.192,0.9999963281698547,-152.18613737176142
9.2,0.9999963614890847,-152.42162608119528
9.208,0.9999963967260317,-152.656933970291
9.216000000000001,0.9999964339118289,-152.8920624060233
9.224,0.9999964730771246,-153.1270127548143
9.232,0.9999965142520737,-153.36178638252832
9.24,0.9999965574663299,-153.59638465446756
9.248000000000001,0.9999966027490369,-153.83080893536766
9.256,0.9999966501288208,-154.06506058939377
9.264,0.9999966996337823,-154.29914098013683
9.272,0.9999967512914891,-154.53305147061002
9.280000000000001,0.9999968051289679,-154.76679342324522
9.288,0.999996861172697,-155.00036819989023
9.296,0.9999969194485997,-155.23377716180585
9.304,0.9999969799820355,-155.46702166966335
9.312000000000001,0.9999970427977948,-155.70010308354188
9.32,0.9999971079200901,-155.93302276292647
9.328,0.9999971753725513,-156.1657820667063
9.336,0.9999972451782166,-156.39838235317274
9.344,0.9999973173595277,-156.63082498001785
9.352,0.9999973919383219,-156.86311130433347
9.36,0.9999974689358275,-157.09524268260972
9.368,0.9999975483726559,-157.32722047073455
9.376,0.9999976302687961,-157.55904602399283
9.384,0.9999977146436088,-157.79072069706615
9.392,0.9999978015158207,-158.02224584403245
9.4,0.9999978909035183,-158.2536228183662
9.408,0.9999979828241425,-158.4848529729383
9.416,0.999998077294484,-158.71593766001678
9.424,0.9999981743306754,-158.9468782312671
9.432,0.9999982739481893,-159.1776760377533
9.44,0.9999983761618308,-159.4083324299383
9.448,0.9999984809857337,-159.638848757686
9.456,0.9999985884333551,-159.86922637026166
9.464,0.9999986985174706,-160.09946661633413
9.472,0.9999988112501703,-160.32957084397714
9.48,0.9999989266428543,-160.55954040067147
9.488,0.9999990447062275,-160.78937663330672
9.496,0.9999991654502964,-161.0190808881838
9.504,0.9999992888843644,-161.24865451101712
9.512,0.9999994150170276,-161.4780988469375
9.52,0.9999995438561731,-161.70741524049444
9.528,0.999999675408972,-161.9366050356595
9.536,0.9999998096818777,-162.16566957582904
9.544,0.9999999466806235,-162.3946102038277
9.552,1.0,-162.62342826191164
9.56,0.9999999999999999,-162.8521250917722
9.568,1.0,-163.08070203453946
9.576,1.0,-163.30916043078648
9.584,1.0,-163.5375016205328
9.592,0.9999999999999999,-163.76572694324904
9.6,0.9999999999999998,-163.99383773786104
9.608,1.0,-164.2218353427544
9.616,0.9999999999999998,-164.44972109577893
9.624,0.9999999999999999,-164.67749633425376
9.632,0.9999999999999999,-164.90516239497177
9.64,1.0,-165.13272061420508
9.648,1.0,-165.36017232770985
9.656,0.9999999999999998,-165.5875188707319
9.664,1.0,-165.81476157801197
