freq,mag,phase
6.0,0.9999965851305198,67.32455498295289
6.008,0.9999960465263823,67.09361945515452
6.016,0.9999955137876264,66.86236453826497
6.024,0.9999949869240913,66.63079034715126
6.032,0.999994465944948,66.39889700415303
6.04,0.9999939508587031,66.16668463912812
6.048,0.9999934416732023,65.93415338949802
6.056,0.9999929383956312,65.70130340029307
6.064,0.9999924410325223,65.46813482419778
6.072,0.9999919495897545,65.2346478215957
6.08,0.999991464072559,65.00084256061447
6.088,0.9999909844855215,64.76671921717049
6.096,0.9999905108325853,64.53227797501349
6.104,0.9999900431170549,64.29751902577091
6.112,0.9999895813415997,64.06244256899232
6.12,0.999989125508257,63.82704881219338
6.128,0.999988675618435,63.59133797089968
6.136,0.9999882316729174,63.355310268690644
6.144,0.9999877936718651,63.11896593724285
6.152,0.9999873616148213,62.88230521637347
6.16,0.9999869355007145,62.645328354083325
6.168,0.9999865153278611,62.40803560659985
6.176,0.9999861010939701,62.17042723841967
6.184,0.9999856927961467,61.93250352235111
6.192,0.999985290430894,61.69426473955641
6.2,0.9999848939941198,61.45571117959368
6.208,0.9999845034811373,61.21684314045862
6.216,0.9999841188866699,60.97766092862601
6.224,0.9999837402048555,60.73816485909094
6.232,0.999983367429249,60.498355255409635
6.24,0.9999830005528273,60.258232449740305
6.248,0.9999826395679914,60.017796782883316
6.256,0.9999822844665721,59.77704860432147
6.264,0.9999819352398325,59.535988272259665
6.272,0.9999815918784722,59.294616153664435
6.28,0.999981254372631,59.052932624303146
6.288,0.9999809227118933,58.81093806878279
6.296,0.9999805968852911,58.56863288058859
6.304,0.9999802768813094,58.32601746212212
6.312,0.9999799626878884,58.083092224739225
6.32,0.9999796542924286,57.839857588787524
6.328,0.9999793516817947,57.59631398364348
6.336,0.9999790548423195,57.3524618477493
6.344,0.9999787637598073,57.10830162864927
6.352,0.9999784784195397,56.86383378302585
6.36,0.999978198806278,56.61905877673525
6.368,0.9999779249042676,56.37397708484278
6.376,0.9999776566972438,56.12858919165761
6.384,0.999977394168433,55.88289559076735
6.392,0.9999771373005605,55.63689678507192
6.4,0.9999768860758519,55.390593286817264
6.408,0.9999766404760381,55.14398561762856
6.416,0.9999764004823601,54.897074308542784
6.424,0.9999761660755742,54.64985990004121
6.432,0.9999759372359532,54.40234294208109
6.44,0.9999757139432945,54.154523994127096
6.448,0.9999754961769218,53.90640362518223
6.456,0.9999752839156911,53.65798241381819
6.464,0.9999750771379939,53.409260948205336
6.472,0.999974875821763,53.16023982614218
6.48,0.9999746799444759,52.910919655084236
6.4879999999999995,0.9999744894831596,52.661301052172576
6.496,0.9999743044143959,52.411384644261524
6.504,0.999974124714325,52.161171067946434
6.5120000000000005,0.9999739503586501,51.91066096959005
6.52,0.9999737813226425,51.65985500534931
6.5280000000000005,0.9999736175811467,51.40875384120073
6.536,0.9999734591085837,51.15735815296593
6.5440000000000005,0.9999733058789569,50.90566862633597
6.552,0.9999731578658558,50.65368595689583
6.5600000000000005,0.9999730150424622,50.401410850147414
6.568,0.999972877381553,50.148844021533
6.5760000000000005,0.999972744855507,49.89598619645706
6.584,0.9999726174363082,49.64283811030845
6.592,0.9999724950955512,49.38940050848111
6.6,0.9999723778044459,49.135674146394805
6.608,0.9999722655338231,48.881659789514934
6.616,0.9999721582541383,48.62735821337177
6.624,0.999972055935477,48.37277020357898
6.632,0.9999719585475598,48.11789655585176
6.64,0.9999718660597476,47.86273807602387
6.648,0.9999717784410461,47.60729558006451
6.656,0.9999716956601106,47.35156989409419
6.664,0.9999716176852521,47.09556185439991
6.672,0.9999715444844415,46.839272307449995
6.68,0.9999714760253137,46.58270210990777
6.688,0.9999714122751756,46.325852128644925
6.696,0.9999713532010078,46.06872324075395
6.704,0.9999712987694723,45.81131633355997
6.712,0.9999712489469164,45.55363230463181
6.72,0.9999712036993773,45.29567206179231
6.728,0.9999711629925894,45.037436523127944
6.736,0.999971126791987,44.77892661699774
6.744,0.9999710950627115,44.52014328204137
6.752,0.9999710677696149,44.261087467186464
6.76,0.9999710448772668,44.00176013165532
6.768,0.9999710263499585,43.74216224497067
6.776,0.9999710121517085,43.48229478696077
6.784,0.9999710022462673,43.22215874776367
6.792,0.9999709965971244,42.96175512783074
6.8,0.9999709951675113,42.7010849379293
6.808,0.9999709979204089,42.44014919914462
6.816,0.9999710048185511,42.17894894288089
6.824,0.9999710158244318,41.91748521086164
6.832,0.9999710309003087,41.65575905512905
6.84,0.9999710500082105,41.39377153804275
6.848,0.9999710731099397,41.13152373227744
6.856,0.9999711001670809,40.86901672082003
6.864,0.9999711311410043,40.60625159696568
6.872,0.9999711659928718,40.34322946431302
6.88,0.999971204683642,40.07995143675873
6.888,0.9999712471740761,39.816418638490966
6.896,0.9999712934247436,39.5526322039821
6.904,0.9999713433960267,39.28859327798057
6.912,0.9999713970481273,39.024303015501815
6.92,0.9999714543410705,38.75976258181837
6.928,0.9999715152347123,38.49497315244901
6.936,0.9999715796887433,38.229935913147116
6.944,0.9999716476626949,37.964652059887996
6.952,0.9999717191159448,37.699122798855505
6.96,0.9999717940077227,37.43334934642753
6.968,0.9999718722971155,37.16733292916076
6.976,0.9999719539430727,36.90107478377445
6.984,0.9999720389044121,36.634576157133246
6.992,0.9999721271398255,36.367838306229245
7.0,0.9999722186078838,36.10086249816287
7.008,0.9999723132670428,35.83365001012309
7.016,0.9999724110756489,35.56620212936649
7.024,0.9999725119919436,35.298520153195554
7.032,0.9999726159740703,35.03060538893596
7.04,0.9999727229800798,34.76245915391288
7.048,0.9999728329679337,34.494082775426435
7.056,0.999972945895513,34.225477590726115
7.064,0.9999730617206216,33.95664494698431
7.072,0.9999731804009917,33.687586201268864
7.08,0.9999733018942907,33.41830272051468
7.088,0.999973426158125,33.14879588149427
7.096,0.9999735531500472,32.87906707078763
7.104,0.9999736828275598,32.60911768475072
7.112,0.9999738151481223,32.338949129483446
7.12,0.9999739500691551,32.06856282079628
7.128,0.9999740875480463,31.797960184176162
7.136,0.9999742275421564,31.527142654751387
7.144,0.9999743700088237,31.256111677255387
7.152,0.9999745149053704,30.984868705989726
7.16,0.9999746621891065,30.71341520478601
7.168,0.9999748118173372,30.441752646966904
7.176,0.9999749637473666,30.169882515306057
7.184,0.9999751179365035,29.89780630198714
7.192,0.9999752743420679,29.62552550856199
7.2,0.9999754329213943,29.353041645907542
7.208,0.9999755936318387,29.080356234182027
7.216,0.9999757564307826,28.80747080278007
7.224,0.9999759212756394,28.534386890286868
7.232,0.9999760881238591,28.26110604443131
7.24,0.9999762569329333,27.987629822038254
7.248,0.999976427660401,27.713959788979743
7.256,0.9999766002638533,27.440097520125285
7.264,0.9999767747009385,27.166044599291126
7.272,0.9999769509293683,26.891802619188603
7.28,0.9999771289069215,26.617373181371505
7.288,0.9999773085914493,26.34275789618251
7.296,0.9999774899408819,26.06795838269858
7.304,0.9999776729132313,25.79297626867546
7.312,0.9999778574665983,25.517813190491246
7.32,0.9999780435591761,25.2424707930889
7.328,0.9999782311492562,24.96695072991788
7.336,0.9999784201952322,24.6912546628749
7.344,0.9999786106556063,24.41538426224348
7.352,0.999978802488993,24.13934120663294
7.36,0.9999789956541241,23.863127182916074
7.368,0.9999791901098538,23.58674388616616
7.376,0.9999793858151633,23.31019301959289
7.384,0.9999795827291658,23.033476294477463
7.392,0.9999797808111108,22.756595430106668
7.4,0.999979980020389,22.479552153706134
7.4079999999999995,0.9999801803165369,22.20234820037263
7.416,0.999980381659242,21.924985313005333
7.4239999999999995,0.9999805840083457,21.647465242236603
7.432,0.9999807873238501,21.369789746361135
7.4399999999999995,0.9999809915659206,21.091960591265135
7.448,0.9999811966948915,20.813979550353647
7.4559999999999995,0.9999814026712698,20.53584840447792
7.464,0.9999816094557399,20.257568941861038
7.4719999999999995,0.9999818170091674,19.97914295802348
7.48,0.9999820252926049,19.70057225570703
7.4879999999999995,0.9999822342672944,19.421858644798675
7.496,0.9999824438946717,19.143003942252697
7.504,0.9999826541363728,18.864009972013
7.5120000000000005,0.9999828649542346,18.58487856493344
7.52,0.9999830763103018,18.305611558698438
7.5280000000000005,0.99998328816683,18.02621079774182
7.536,0.9999835004862888,17.746678133165645
7.5440000000000005,0.9999837132313668,17.467015422657465
7.552,0.9999839263649759,17.187224530407565
7.5600000000000005,0.9999841398502531,16.90730732702463
7.568,0.999984353650567,16.627265689451402
7.5760000000000005,0.999984567729519,16.347101500878754
7.584,0.9999847820509491,16.066816650659895
7.5920000000000005,0.9999849965789379,15.786413034222825
7.6,0.9999852112778113,15.505892552983077
7.6080000000000005,0.9999854261121436,15.225257114254712
7.616,0.9999856410467612,14.944508631161538
7.6240000000000006,0.9999858560467452,14.663649022546677
7.632,0.999986071077436,14.382680212882404
7.640000000000001,0.9999862861044361,14.101604132178199
7.648,0.9999865010936135,13.820422715889238
7.656000000000001,0.9999867160111041,13.539137904823134
7.664,0.9999869308233161,13.257751645047001
7.672,0.999987145496933,12.976265887792916
7.68,0.9999873599989147,12.694682589363524
7.688,0.9999875742965036,12.413003711036506
7.696,0.9999877883572251,12.131231218968637
7.704,0.9999880021488919,11.849367084099125
7.712,0.9999882156396052,11.567413282052444
7.72,0.9999884287977597,11.285371793040458
7.728,0.9999886415920447,11.00324460176408
7.736,0.9999888539914472,10.721033697314247
7.744,0.9999890659652542,10.438741073072396
7.752,0.9999892774830558,10.156368726610426
7.76,0.9999894885147472,9.873918659590021
7.768,0.9999896990305319,9.591392877661534
7.776,0.9999899090009225,9.30879339036235
7.784,0.9999901183967446,9.026122211014693
7.792,0.9999903271891379,8.743381356623
7.8,0.9999905353495594,8.460572847770818
7.808,0.9999907428497841,8.177698708517202
7.816,0.9999909496619088,7.89476096629269
7.824,0.9999911557583525,7.6117616517948505
7.832,0.999991361111859,7.328702798883378
7.84,0.9999915656954992,7.045586444474802
7.848,0.9999917694826717,6.762414628436784
7.856,0.9999919724471057,6.479189393482034
7.864,0.9999921745628624,6.195912785061867
7.872,0.999992375804336,5.912586851259385
7.88,0.9999925761462555,5.629213642682329
7.888,0.9999927755636867,5.345795212355593
7.896,0.9999929740320331,5.06233361561343
7.904,0.9999931715270377,4.7788309099913375
7.912,0.9999933680247832,4.4952891551176855
7.92,0.9999935635016947,4.211710412605031
7.928,0.9999937579345395,3.9280967459412133
7.936,0.9999939513004297,3.644450220380163
7.944,0.9999941435768213,3.360772902832509
7.952,0.9999943347415167,3.07706686175595
7.96,0.9999945247726657,2.7933341670454293
7.968,0.9999947136487646,2.509576889923118
7.976,0.9999949013486589,2.22579710282822
7.984,0.999995087851543,1.9419968793066258
7.992,0.9999952731369612,1.6581782939004004
8.0,0.9999954571848081,1.374343422037164
8.008,0.9999956399753288,1.090494339919366
8.016,0.9999958214891204,0.8066331244132758
8.024000000000001,0.9999960017071308,0.522761852938328
8.032,0.999996180610661,0.23888260335594452
8.04,0.9999963581813637,-0.04500254614166279
8.048,0.9999965344012436,-0.32889151714248843
8.056000000000001,0.999996709252659,-0.6127822311257556
8.064,0.9999968827183207,-0.8966726095732102
8.072,0.9999970547812914,-1.180560574080412
8.08,0.9999972254249875,-1.464444046467759
8.088000000000001,0.9999973946331776,-1.7483209488914981
8.096,0.9999975623899826,-2.0321892039549168
8.104,0.9999977286798755,-2.31604673481951
8.112,0.9999978934876811,-2.5998914653157996
8.120000000000001,0.9999980567985759,-2.883721320054066
8.128,0.999998218598088,-3.16753422453526
8.136,0.9999983788720949,-3.451328105261765
8.144,0.9999985376068252,-3.7351008898477884
8.152000000000001,0.9999986947888566,-4.018850507129619
8.16,0.9999988504051155,-4.30257488727597
8.168,0.9999990044428767,-4.5862719618981345
8.176,0.9999991568897628,-4.869939664159734
8.184000000000001,0.9999993077337421,-5.153575928886225
8.192,0.9999994569631285,-5.437178692674489
8.2,0.9999996045665815,-5.720745894002128
8.208,0.9999997505331039,-6.004275473336336
8.216000000000001,0.9999998948520409,-6.287765373242462
8.224,1.0,-6.571213538492562
8.232,1.0,-6.854617916173676
8.24,0.9999999999999999,-7.137976455795539
8.248000000000001,1.0,-7.421287109397998
8.256,1.0,-7.70454783165832
8.264,1.0,-7.987756579998204
8.272,1.0,-8.270911314690142
8.280000000000001,1.0,-8.554009998963416
8.288,0.9999999999999999,-8.837050599110011
8.296,1.0,-9.120031084590078
8.304,1.0,-9.402949428136768
8.312,1.0,-9.685803605860546
8.32,1.0,-9.968591597353777
8.328,1.0,-10.251311385793821
8.336,1.0,-10.533960958046741
8.344,0.9999999999999999,-10.816538304769507
8.352,0.9999999999999999,-11.099041420512748
8.36,1.0,-11.381468303821947
8.368,1.0,-11.663816957339186
8.376,1.0,-11.946085387903324
8.384,1.0,-12.228271606650678
8.392,1.0,-12.510373629114119
8.4,1.0,-12.792389475322642
8.408,1.0,-13.074317169899357
8.416,1.0,-13.356154742159873
8.424,1.0,-13.637900226209133
8.432,0.9999999999999999,-13.919551661038605
8.44,1.0,-14.20110709062189
8.448,1.0,-14.48256456401067
8.456,1.0,-14.763922135429059
8.464,0.9999999999999999,-15.045177864368242
8.472,0.9999999999999999,-15.326329815679546
8.48,0.9999999999999999,-15.607376059667772
8.488,0.9999999999999998,-15.888314672182842
8.496,0.9999999999999999,-16.16914373471183
8.504,1.0,-16.449861334469215
8.512,0.9999999999999999,-16.73046556448746
8.52,0.9999999999999998,-17.01095452370586
8.528,0.9999999999999999,-17.291326317059717
8.536,1.0,-17.571579055567646
8.544,1.0,-17.851710856419317
8.552,0.9999999999999999,-18.131719843061255
8.56,1.0,-18.411604145283025
8.568,1.0,-18.69136189930157
8.576,1.0,-18.97099124784573
8.584,0.9999999999999999,-19.25049034023912
8.592,0.9999999999999999,-19.52985733248301
8.6,1.0,-19.80909038733757
8.608,1.0,-20.088187674403198
8.616,1.0,-20.367147370200097
8.624,1.0,-20.645967658247937
8.632,0.9999999999999999,-20.92464672914377
8.64,0.9999999999999999,-21.203182780640066
8.648,1.0,-21.481574017720884
8.656,0.9999999999999999,-21.7598186526782
8.664,1.0,-22.037914905186405
8.672,1.0,-22.315861002376835
8.68,1.0,-22.593655178910588
8.688,1.0,-22.871295677051283
8.696,1.0,-23.14878074673608
8.704,1.0,-23.42610864564667
8.712,1.0,-23.70327763927852
8.72,1.0,-23.98028600101009
8.728,0.9999999999999999,-24.257132012170185
8.736,1.0,-24.533813962105437
8.744,1.0,-24.810330148245786
8.752,1.0,-25.086678876170097
8.76,1.0,-25.36285845966986
8.768,1.0,-25.638867220812905
8.776,1.0,-25.914703490005248
8.784,1.0,-26.190365606052953
8.792,0.9999999999999999,-26.46585191622204
8.8,1.0,-26.74116077629856
8.808,1.0,-27.01629055064652
8.815999999999999,1.0,-27.29123961226602
8.824,0.9999999999999999,-27.566006342849644
8.832,0.9999999999999999,-27.840589132838065
8.84,1.0,-28.11498638147484
8.847999999999999,0.9999999999999998,-28.389196496860365
8.856,0.9999999999999999,-28.663217896004486
8.864,0.9999999999999999,-28.9370490048783
8.872,1.0,-29.210688258465066
8.879999999999999,1.0,-29.484134100810284
8.888,1.0,-29.757384985070512
8.896,1.0,-30.0304393735612
8.904,0.9999999999999999,-30.303295737803804
8.911999999999999,0.9999999999999999,-30.575952558571952
8.92,1.0,-30.848408325936333
8.928,1.0,-31.12066153930876
8.936,1.0,-31.392710707485254
8.943999999999999,1.0,-31.664554348688416
8.952,1.0,-31.93619099060847
8.96,1.0,-32.20761917044323
8.968,1.0,-32.47883743493753
8.975999999999999,1.0,-32.74984434042156
8.984,1.0,-33.02063845284808
8.992,1.0,-33.29121834782849
9.0,1.0,-33.56158261066842
9.008,1.0,-33.831729836402076
9.016,1.0,-34.10165862982568
9.024000000000001,1.0,-34.37136760552971
9.032,0.9999999999999999,-34.64085538793045
9.04,0.9999999999999999,-34.91012061130077
9.048,0.9999999999999999,-35.17916191979937
9.056000000000001,1.0,-35.447977967499476
9.064,1.0,-35.716567418416425
9.072,1.0,-35.98492894653457
9.08,0.9999999999999999,-36.253061235832945
9.088000000000001,0.9999999999999999,-36.52096298030981
9.096,1.0,-36.788632884006766
9.104,1.0,-37.05606966103172
9.112,1.0,-37.32327203558075
9.120000000000001,1.0,-37.590238741959034
9.128,1.0,-37.856968524601086
9.136,0.9999999999999998,-38.1234601380901
9.144,0.9999999999999999,-38.38971234717604
9.152000000000001,1.0,-38.655723926792845
9.16,1.0,-38.92149366207506
9.168,1.0,-39.18702034837342
9.176,1.0,-39.45230279126938
9.184000000000001,0.9999999999999999,-39.71733980658864
9.192,1.0,-39.9821302204141
9.2,0.9999999999999999,-40.24667286909793
9.208,1.0,-40.510966599272486
9.216000000000001,0.9999999999999999,-40.775010267860246
9.224,0.9999999999999999,-41.03880274208331
9.232,1.0,-41.3023428994718
9.24,0.9999999999999999,-41.56562962787139
9.248000000000001,1.0,-41.828661825449664
9.256,1.0,-42.09143840070224
9.264,1.0,-42.35395827245768
9.272,1.0,-42.61622036988154
9.280000000000001,1.0,-42.8782236324795
9.288,0.9999999999999999,-43.139967010099916
9.296,1.0,-43.401449462935496
9.304,1.0,-43.662669961523925
9.312000000000001,0.9999999999999999,-43.92362748674781
9.32,0.9999999999999999,-44.18432102983385
9.328,0.9999999999999999,-44.44474959235123
9.336,1.0,-44.70491218620915
9.344,1.0,-44.96480783365336
9.352,1.0,-45.224435567262425
9.36,1.0,-45.48379442994254
9.368,1.0,-45.742883474922365
9.376,1.0,-46.001701765746134
9.384,1.0,-46.26024837626705
9.392,0.9999999999999999,-46.51852239063887
9.4,0.9999999999999999,-46.77652290330783
9.408,1.0,-47.0342490190027
9.416,1.0,-47.29169985272524
9.424,1.0,-47.54887452973878
9.432,1.0,-47.80577218555728
9.44,1.0,-48.06239196593249
9.448,1.0,-48.318733026841436
9.456,1.0,-48.57479453447242
9.464,0.9999999999999999,-48.83057566521092
9.472,1.0,-49.08607560562429
9.48,0.9999999999999999,-49.341293552446324
9.488,1.0,-49.596228712560595
9.496,1.0,-49.85088030298367
9.504,1.0,-50.105247550847075
9.512,1.0,-50.35932969337936
9.52,1.0,-50.61312597788669
9.528,1.0,-50.866635661733625
9.536,0.9999999999999999,-51.119858012322446
9.544,1.0,-51.372792307072785
9.552,1.0,-51.62543783339965
9.56,1.0,-51.87779388869183
9.568,1.0,-52.12985978028878
9.576,0.9999999999999999,-52.38163482545786
9.584,1.0000000000000002,-52.633118351369966
9.592,1.0,-52.88430969507564
9.6,0.9999999999999999,-53.135208203479785
9.608,0.9999999999999999,-53.38581323331628
9.616,1.0,-53.636124151121834
9.624,1.0,-53.886140333209575
9.632,0.9999999999999999,-54.135861165641614
9.64,0.9999999999999999,-54.38528604420178
9.648,1.0,-54.63441437436698
9.656,0.9999999999999999,-54.883245571279005
9.664,1.0,-55.13177905971492
9.672,0.9999999999999999,-55.38001427405779
9.68,0.9999999999999999,-55.627950658266116
9.688,0.9999999261681277,-55.87558766584356
9.696,0.9999998316945823,-56.122924759807574
9.704,0.9999997368793426,-56.36996141265807
9.712,0.9999996417318386,-56.61669710634511
9.72,0.9999995462614139,-56.86313133223679
9.728,0.9999994504773264,-57.10926359108594
9.736,0.9999993543887474,-57.35509339299724
9.744,0.9999992580047614,-57.60062025739297
9.752,0.999999161334365,-57.845843712979324
9.76,0.9999990643864684,-58.090763297711334
9.768,0.9999989671698931,-58.335378558758414
9.776,0.9999988696933734,-58.57968905246844
9.784,0.9999987719655548,-58.823694344332516
9.792,0.9999986739949943,-59.06739400894834
9.8,0.9999985757901607,-59.31078762998416
9.808,0.9999984773594344,-59.5538748001415
9.816,0.9999983787111066,-59.79665512111824
9.824,0.9999982798533799,-60.03912820357083
9.832,0.9999981807943679,-60.28129366707656
9.84,0.9999980815420952,-60.52315114009505
9.847999999999999,0.9999979821044982,-60.764700259930066
9.856,0.999997882489424,-61.00594067269028
9.864,0.9999977827046307,-61.24687203325022
9.872,0.9999976827577882,-61.48749400521067
9.879999999999999,0.9999975826564781,-61.72780626085911
9.888,0.9999974824081931,-61.967808481129396
9.896,0.9999973820203378,-62.20750035556142
