freq,mag,phase
6.0,1.000345096664811,30.85440075278257
6.005578752,1.0002814504547524,30.70944426098016
6.011157504,1.0002009386379611,30.56550329328756
6.016736256,1.0001082234180518,30.422741137139425
6.022315008,1.0000085912782264,30.281333747896902
6.02789376,0.999908085907462,30.1412998021794
6.033473024,0.9998124554988738,30.002686939340837
6.039051776,0.9997274169906432,29.86526913924966
6.044630528,0.99965789808758,29.728960713628382
6.05020928,0.9996080973385567,29.593478883854058
6.055788032,0.9995808232067236,29.458501302854778
6.061366784,0.9995777375827877,29.32378685945792
6.066945536,0.999599093970314,29.188918632568104
6.072524288,0.9996436404354841,29.053584743254948
6.07810304,0.9997086782550253,28.917465566061495
6.083681792,0.9997903963246555,28.780310013727398
6.089261056,0.9998840766312278,28.641964863905947
6.094839808,0.9999842601538445,28.502214761045305
6.10041856,1.0000849659610989,28.361083825370716
6.105997312,1.0001802418201524,28.218574379592546
6.111576064,1.0002646208813248,28.074780770198437
6.117154816,1.000333040672101,27.92990495821941
6.122733568,1.000381573435772,27.78424360046712
6.12831232,1.0004072183750579,27.638028738264012
6.133891072,1.0004085614562,27.491640169246267
6.139469824,1.0003855322441817,27.34539767100537
6.145048576,1.0003394819424474,27.199621592217635
6.15062784,1.0002729937700232,27.054612698534395
6.156206592,1.0001899839864719,26.910679060969695
6.161785344,1.0000954354428722,26.767932479651574
6.167364096,0.9999947401977443,26.626574800950507
6.172942848,0.9998939403707346,26.48664466782503
6.1785216,0.9997988969650549,26.348025281580362
6.184100352,0.9997152060244079,26.210662553097368
6.189679104,0.9996477367643017,26.07435686039069
6.195257856,0.9996005862152159,25.9388785392533
6.200836608,0.9995764694575815,25.803862961229473
6.206415872,0.999576770703769,25.66906483018504
6.211994624,0.9996015165580301,25.534024191602075
6.217573376,0.9996493194770826,25.398499487099635
6.223152128,0.999717282892787,25.26215632517289
6.22873088,0.9998015629133867,25.124729273216897
6.234309632,0.9998970624673587,24.986074198667183
6.239888384,0.9999981943878967,24.84603725198133
6.245467136,1.0000990907075298,24.704512908008883
6.251045888,1.0001938770841656,24.561676467058852
6.25662464,1.0002767969919766,24.417577798370246
6.262203392,1.0003431187748082,24.27242764454316
6.267782656,1.0003888635749147,24.126484618732704
6.273361408,1.000411417148143,23.980077236931436
6.27894016,1.0004094140185809,23.833516048597996
6.284518912,1.0003828846417764,23.68711339910222
6.290097664,1.0003335384060874,23.541238916450407
6.295676416,1.0002641314146312,23.396230185406484
6.301255168,1.0001786601210916,23.252262652888938
6.30683392,1.0000823673570267,23.109607414000564
6.312412672,0.9999807439974637,22.968246025520283
6.317991424,0.9998797040863155,22.828369930722513
6.323570688,0.9997852650560356,22.689811665331266
6.32914944,0.999703018594262,22.55249558206199
6.334728192,0.9996377314448611,22.416241396000135
6.340306944,0.9995933616241316,22.280726748748307
6.345885696,0.9995724187604647,22.145655305251637
6.351464448,0.9995760789098058,22.01073643154699
6.3570432,0.9996043018694178,21.875545395318394
6.362621952,0.9996553775654172,21.73981315401174
6.368200704,0.9997263394436439,21.60320203254068
6.373779456,0.9998129486957413,21.465496468759138
6.379358208,0.9999101987182093,21.326538903949995
6.384937472,1.000012318809429,21.186146424687127
6.390516224,1.0001133945671077,21.04432529494415
6.396094976,1.0002073330135297,20.90112799388522
6.401673728,1.0002888260140768,20.756723115451457
6.40725248,1.0003529419012713,20.611289163102306
6.412831232,1.0003959612697635,20.465075206577684
6.418409984,1.0004152402066886,20.318422511873617
6.423988736,1.0004097962962222,20.17170168646703
6.429567488,1.00037986222441,20.02520508385396
6.43514624,1.0003272864085981,19.87926872795832
6.440724992,1.0002549198956316,19.734177179223728
6.446304256,1.0001670905675255,19.590218320524198
6.451883008,1.0000690874318583,19.447569951663624
6.45746176,0.9999665233834555,19.3063263721823
6.463040512,0.9998653468633444,19.166466115665067
6.468619264,0.999771748593358,19.027979053774107
6.474198016,0.99969106099063,18.89069305378157
6.479776768,0.9996279750413566,18.754410409356083
6.48535552,0.9995864025541686,18.61888307487793
6.490934272,0.9995686369747036,18.483741935831404
6.496513024,0.9995758627310946,18.348698901213332
6.502092288,0.9996075115835682,18.213338632683147
6.50767104,0.999661888682033,18.07740989394434
6.513249792,0.9997357092864614,17.940549105928167
6.518828544,0.9998247344180144,17.802578394126435
6.524407296,0.9999235391373065,17.66324491347276
6.529986048,1.0000265937500894,17.52252664216749
6.5355648,1.00012766822792,17.38033777283952
6.541143552,1.000220935954716,17.236821592239405
6.546722304,1.0003007706510774,17.092078229280176
6.552301056,1.0003625259155366,16.946356518297954
6.557879808,1.0004027391034638,16.799898977371093
6.563459072,1.0004187651577179,16.65302737296333
6.569037824,1.0004098841559772,16.506120703879333
6.574616576,1.0003765005568535,16.35947519125005
6.580195328,1.0003205526200998,16.213480013345414
6.58577408,1.00024528681681,16.06838032316876
6.591352832,1.0001551995457836,15.92442173777693
6.596931584,1.0000555242782476,15.781809892701
6.602510336,0.9999521037045478,15.64060674189833
6.608089088,0.9998510014183233,15.500810201955447
6.61366784,0.9997582207775937,15.36235707292857
6.619247104,0.9996791902083307,15.225102797114342
6.624825856,0.9996184891677486,15.088837849354038
6.630404608,0.9995798073358764,14.953249031845825
6.63598336,0.9995653043288515,14.818056113854617
6.641562112,0.9995759963740716,14.682881302685233
6.647140864,0.9996111645284744,14.547358231284516
6.652719616,0.9996687927919609,14.411187856328509
6.658298368,0.9997454360450047,14.274097036167223
6.66387712,0.9998367369583949,14.135760465762315
6.669455872,0.9999371913660644,13.996152921277883
6.675034624,1.0000409813948563,13.855086244454533
6.680613888,1.0001419843616761,13.712548676999212
6.68619264,1.0002342595584999,13.568698074737918
6.691771392,1.0003124694842846,13.42364851682232
6.697350144,1.000371954951787,13.277605735422773
6.702928896,1.000409160236562,13.130887009697133
6.708507648,1.0004218655308756,12.983803841943173
6.7140864,1.0004095354217326,12.836719747825775
6.719665152,1.0003726691386137,12.68996709039309
6.725243904,1.000313473740392,12.54389366577328
6.730822656,1.0002353070939403,12.398735562920441
6.73640192,1.0001429770369243,12.254786703944127
6.741980672,1.000041828445566,12.11219184259035
6.747559424,0.9999377108979579,11.971011369686137
6.753138176,0.9998365914150394,11.831277042425697
6.758716928,0.9997448256727814,11.692879821778721
6.76429568,0.9996674753302743,11.555686829054112
6.769874432,0.9996091828490292,11.419424877119416
6.775453184,0.9995734514650317,11.2837618459354
6.781031936,0.9995622908504569,11.148499835560767
6.786610688,0.9995765008781387,11.013165217611098
6.79218944,0.9996152235476884,10.877490951103884
6.797768704,0.9996760583471528,10.741078221680109
6.803347456,0.9997555263627929,10.603677513134576
6.808926208,0.9998489972305004,10.465080598559751
6.81450496,0.9999509901351749,10.325102587727962
6.820083712,1.000055508539303,10.183708748960326
6.825662464,1.0001563989012212,10.04082709484157
6.831241216,1.0002477060862391,9.896641052623332
6.836819968,1.0003241023448888,9.751207042706861
6.84239872,1.0003811122739392,9.60489013915212
6.847977472,1.000415215089889,9.457904401706159
6.853556736,1.000424692226955,9.310598309968544
6.859135488,1.0004087678888305,9.16335488190867
6.86471424,1.0003684201070253,9.016496031613364
6.870292992,1.0003059610391039,8.870324113937253
6.875871744,1.0002251321657203,8.725179180155656
6.881450496,1.0001305555394775,8.581257425642994
6.887029248,1.0000278714590902,8.43865231279766
6.892608,0.999923064652214,8.297531019726527
6.898186752,0.9998222445289807,8.15783612860049
6.903765504,0.9997314842579618,8.019494201755874
6.909344256,0.9996559863190946,7.8822929819252545
6.91492352,0.9996002072913505,7.74599716904921
6.920502272,0.9995675765653537,7.610328526437836
6.926081024,0.9995597985616724,7.474945517124379
6.931659776,0.9995774832637293,7.3394763726074945
6.937238528,0.9996196309042252,7.203581602641869
6.94281728,0.9996837425184504,7.066979237598947
6.948396032,0.9997660595090474,6.929279060096621
6.953974784,0.9998617095942165,6.790358475673945
6.959553536,0.9999650654763397,6.650063969338314
6.965132288,1.0000702345954506,6.508272247506133
6.970711552,1.0001708352891117,6.3650553921064805
6.976290304,1.0002610598948318,6.220473782233815
6.981869056,1.0003354759215117,6.074758763261838
6.987447808,1.0003899382173864,5.928143267501494
6.99302656,1.0004211828624152,5.7809049957852165
6.998605312,1.0004271332783485,5.633377314119074
7.004184064,1.0004075973811055,5.485981021439196
7.009762816,1.0003637269023358,5.338980064967694
7.015341568,1.0002980586569996,5.192750400503824
7.02092032,1.0002144984154027,5.047553566613216
7.026499072,1.0001177025992605,4.9036265405796815
7.032078336,1.0000136535175064,4.761079751314142
7.037657088,0.9999083207992588,4.620031035530465
7.04323584,0.9998078550140818,4.480354142132206
7.048814592,0.9997181775141211,4.342051527099308
7.054393344,0.9996445806250629,4.2048703610633265
7.059972096,0.9995914498588139,4.068564899264069
7.065550848,0.9995618925919834,3.932836942234327
7.0711296,0.9995575809851907,3.797345032403252
7.076708352,0.9995788944092598,3.661716306866177
7.082287104,0.999624500979423,3.525650308355608
7.087865856,0.9996917515953216,3.38873553133274
7.09344512,0.9997768471877176,3.2507740266638123
7.099023872,0.9998745851138093,3.111559692265803
7.104602624,0.9999793420136729,2.970905555593475
7.110181376,1.0000849508531087,2.828712545498136
7.115760128,1.0001852389627064,2.685138806769292
7.12133888,1.0002742230558013,2.540231233436998
7.126917632,1.0003467290807075,2.3941701789619487
7.132496384,1.0003986377176255,2.247237510734811
7.138075136,1.0004265765835099,2.0997464387145786
7.143653888,1.000429101085639,1.952035528181798
7.149233152,1.0004060080884112,1.8044266120499999
7.154811904,1.000358698738408,1.6573467784623797
7.160390656,1.0002897977795162,1.5110714093535513
7.165969408,1.000203534831305,1.365841837234145
7.17154816,1.0001047480416156,1.221889960775006
7.177126912,0.9999992929108041,1.0794031202709629
7.182705664,0.9998934147630332,0.9383768741712157
7.188284416,0.9997933525136071,0.7987740368236144
7.193863168,0.999704977112647,0.6604690823840614
7.19944192,0.9996334002456005,0.5232936316310243
7.205020672,0.9995829129616818,0.38694668418968836
7.210599936,0.9995564906231338,0.2511805408322709
7.216178688,0.999555713358818,0.11555702794917873
7.22175744,0.9995805647418853,-0.020217849653903292
7.227336192,0.9996297704073346,-0.1565199142473791
7.232914944,0.9997003252992298,-0.29365906226598437
7.238493696,0.9997879030842473,-0.4319204020162349
7.244072448,0.9998877912954989,-0.5714840244811596
7.2496512,0.9999938132745912,-0.7125017885423014
7.255229952,1.0000999133841368,-0.8550266563161226
7.260808704,1.0001997079061202,-0.9989784484474875
7.266387968,1.0002874493902023,-1.144259234803754
7.27196672,1.0003578615406354,-1.2906483693861461
7.277545472,1.0004069146021273,-1.437867554299202
7.283124224,1.000431711768722,-1.5856207380625928
7.288702976,1.0004307026867054,-1.733555170045186
7.294281728,1.0004040575498863,-1.8813119923212258
7.29986048,1.0003532358842961,-2.028505123482575
7.305439232,1.000281193509142,-2.174860983389361
7.311017984,1.0001922067998619,-2.3201009933756698
7.316596736,1.000091459401834,-2.4640258733883003
7.322175488,0.9999847172607883,-2.6065332361404314
7.327754752,0.9998784980617087,-2.7475082981609087
7.333333504,0.9997789087129714,-2.887064270057865
7.338912256,0.9996919355036281,-3.025351390829165
7.344491008,0.9996224289999283,-3.162486991483222
7.35006976,0.9995746507926826,-3.2988695477115084
7.355648512,0.999551488127076,-3.4347159055139764
7.361227264,0.9995543071478908,-3.5704560237226817
7.366806016,0.9995828020142145,-3.7064029936370524
7.372384768,0.9996354452037384,-3.84290402500378
7.37796352,0.9997091304841188,-3.9803362438700076
7.383542784,0.9997994308029216,-4.118926895235813
7.389121536,0.9999012620244285,-4.258828856644546
7.394700288,1.00000859277114,-4.400228145759742
7.40027904,1.0001148827530995,-4.543094767700426
7.405857792,1.0002142205893947,-4.687426104741149
7.411436544,1.000300579240797,-4.833062584916482
7.417015296,1.0003687805885328,-4.979794717381003
7.422594048,1.0004150489684993,-5.127303485766031
7.4281728,1.0004365314438204,-5.275323268466925
7.433751552,1.0004320543237686,-5.423476725392223
7.439330304,1.000401681401365,-5.571380828043628
7.444909568,1.0003474022239682,-5.718697619025264
7.45048832,1.0002721429509227,-5.865109833830107
7.456067072,1.0001805190942308,-6.0104006142911395
7.461645824,1.0000777792441724,-6.154292812436997
7.467224576,0.9999700145805357,-6.2967503413410535
7.472803328,0.9998634773975493,-6.437726425966005
7.47838208,0.9997644633935115,-6.5772550300853805
7.483960832,0.999678895754302,-6.715473658405162
7.489539584,0.9996116759321025,-6.852647281843525
7.495118336,0.9995667965230991,-6.989041151412745
7.5006976,0.9995468584507813,-7.124975665792948
7.506276352,0.9995532360922821,-7.260842525110282
7.511855104,0.9995854283861093,-7.396971763581408
7.517433856,0.9996415546464087,-7.533723018058275
7.523012608,0.9997183981806748,-7.6714253654067805
7.52859136,0.9998113894759263,-7.81029814785359
7.534170112,0.9999151530222344,-7.950562082955888
7.539748864,1.0000233577749593,-8.092330722756659
7.545327616,1.000130004284484,-8.235581438946122
7.550906368,1.0002286436133907,-8.380308371525272
7.55648512,1.0003134699135077,-8.526294269508297
7.562064384,1.0003794892627476,-8.673350021642147
7.567643136,1.0004228847828391,-8.821202050945235
7.573221888,1.000440972616269,-8.969438961144306
7.57880064,1.0004328174397996,-9.117806329393877
7.584379392,1.0003988635117638,-9.265872705700883
7.589958144,1.0003409982890379,-9.413314700827362
7.595536896,1.000262735009958,-9.559784477748183
7.601115648,1.0001685305314183,-9.705086591225824
7.6066944,1.000063867184164,-9.848973248676689
7.612273152,0.9999549762305959,-9.991391607545125
7.617852416,0.999848306079449,-10.132318406532121
7.623431168,0.999750024892041,-10.271811155135172
7.62900992,0.9996658903425942,-10.410056904317175
7.634588672,0.9996009643125702,-10.547220472836093
7.640167424,0.9995591099845518,-10.683680691309533
7.645746176,0.999542639114063,-10.819693838697884
7.651324928,0.9995524883981445,-10.95568821543527
7.65690368,0.9995883853254756,-11.092018956741912
7.662482432,0.9996480578361014,-11.229008092807895
7.668061184,0.9997279212763127,-11.366987536924075
7.673639936,0.9998234561784534,-11.506217155861881
7.6792192,0.9999291656261191,-11.64680995623701
7.684797952,1.0000384053581515,-11.788962196928804
7.690376704,1.0001451380112734,-11.932599061947446
7.695955456,1.0002430134838614,-12.077682677496544
7.701534208,1.000326291574624,-12.224035123263405
7.70711296,1.0003899370106089,-12.371450975235058
7.712691712,1.0004302978022783,-12.519574450557915
7.718270464,1.00044509780834,-12.668092206488936
7.723849216,1.0004333137814656,-12.816668302743189
7.729427968,1.0003956127801956,-12.964870770853244
7.73500672,1.0003342592674884,-13.112423560363789
7.740585984,1.0002528387875944,-13.258965719385388
7.746164736,1.0001560648794083,-13.404302823114664
7.751743488,1.000049675376936,-13.548168421236612
7.75732224,0.9999398737332768,-13.690585922553373
7.762900992,0.9998330496537703,-13.831459993118171
7.768479744,0.9997355883101459,-13.970920279410532
7.774058496,0.999653089940025,-14.109118664225273
7.779637248,0.9995905805154776,-14.24634585468913
7.785216,0.9995516586226414,-14.382793496502002
7.790794752,0.9995386590568248,-14.518950332450874
7.796374016,0.9995523087290745,-14.655082019155723
7.801952768,0.9995918950348128,-14.791599950130788
7.80753152,0.999655008643955,-14.928841138217836
7.813110272,0.9997379452791683,-15.067118633737776
7.818689024,0.9998360549502234,-15.20667973524776
7.824267776,0.9999434064936036,-15.347678124690558
7.829846528,1.0000537428269185,-15.49017181020669
7.83542528,1.000160493416896,-15.634206299010934
7.841004032,1.0002575308150872,-15.77969265423566
7.846582784,1.000339009356203,-15.926405926916402
7.852161536,1.0004002496465811,-16.074167116188622
7.8577408,1.0004376528698335,-16.222591469352988
7.863319552,1.0004489426353307,-16.371362102392816
7.868898304,1.0004334289172208,-16.52015702685762
7.874477056,1.000392056400401,-16.668502690937952
7.880055808,1.0003271926957507,-16.81615195561756
7.88563456,1.000242716005444,-16.962750402463683
7.891213312,1.000143414128992,-17.108098984433976
7.896792064,1.0000352785888635,-17.251959298054697
7.902370816,0.9999245372447023,-17.394345550928154
7.907949568,0.9998177687793158,-17.53517247810874
7.913528832,0.9997211565694409,-17.674619748995372
7.919107584,0.9996404322221822,-17.8128331090302
7.924686336,0.9995804077354948,-17.950042832887537
7.930265088,0.9995445673285844,-18.08657777096139
7.93584384,0.9995350609397943,-18.222839782003163
7.941422592,0.9995525061444287,-18.359137643334243
7.947001344,0.9995958211525136,-18.495856585320862
7.952580096,0.9996623767007252,-18.633364809309164
7.958158848,0.9997485147058173,-18.771953830821737
7.9637376,0.9998490126276399,-18.911825953590313
7.969316352,0.9999580586917511,-19.05316610751721
7.974895616,1.000069155497215,-19.196106233750267
7.980474368,1.000175927570586,-19.340550218898695
7.98605312,1.0002719421052368,-19.486419296923696
7.991631872,1.0003516351423654,-19.633495567143896
7.997210624,1.0004103760614709,-19.781588166404585
8.002789376,1.0004445671956401,-19.930347242626663
8.008368128,1.0004523940324486,-20.07936663366648
8.01394688,1.0004330993836965,-20.228328435275042
8.019525632,1.000387984106609,-20.37685923428926
8.025104384,1.0003195849061775,-20.524589568732516
8.030683648,1.0002320915193825,-20.67126435756837
8.0362624,1.0001302898264561,-20.816626458215385
8.041841152,1.0000206522854487,-20.96048373647284
8.047419904,0.9999089554663527,-21.102845156206353
8.052998656,0.999802284819631,-21.243654232263854
8.058577408,0.9997068175364867,-21.383055909371066
8.06415616,0.9996279210701254,-21.521265753835483
8.069734912,0.9995703920346944,-21.65850116036125
8.075313664,0.9995377585696441,-21.795130231584668
8.080892416,0.999531816410767,-21.93147412246093
8.086471168,0.9995529943310599,-22.06793400681134
8.092050432,0.9995999270301932,-22.20489344850842
8.097629184,0.9996701300364224,-22.342670340769136
8.103207936,0.9997592421380737,-22.481557487792596
8.108786688,0.9998621648260926,-22.621794742474872
8.11436544,0.9999728157585893,-22.76351970341782
8.119944192,1.000084753755797,-22.906847424988012
8.125522944,1.0001912837987963,-23.051693710087058
8.131101696,1.0002862932020826,-23.19797119335432
8.136680448,1.0003641647382526,-23.345431224785955
8.1422592,1.0004202785704954,-23.49382885846455
8.147838464,1.0004513000899373,-23.642883202894026
8.153417216,1.000455434905961,-23.79220073884038
8.158995968,1.0004322871145208,-23.941334906506118
8.16457472,1.00038355270258,-24.0900342212847
8.170153472,1.0003116645219179,-24.237863010952573
8.175732224,1.000221061558836,-24.384597815698445
8.181310976,1.0001169874826732,-24.52996210085581
8.186889728,1.000005657097843,-24.673827695760597
8.19246848,0.9998933069280258,-24.816157484148277
8.198047232,0.9997867935489829,-24.956914758572882
8.203625984,0.9996923363475109,-25.09631166996414
8.209205248,0.9996155324400685,-25.234508748748752
8.214784,0.999560741359551,-25.37177359848479
8.220362752,0.9995312580761394,-25.508468199521943
8.225941504,0.9995289494483797,-25.644940766057978
8.231520256,0.9995540088843533,-25.7815921789426
8.237099008,0.9996047855412049,-25.91878524564546
8.24267776,0.9996783396579311,-26.05682632612628
