freq,mag,phase
6.0,1.0008953600588095,152.1479120966353
6.002286592,1.0009497722636687,151.9802837172387
6.004572672,1.0009452340058158,151.81234573066095
6.006859264,1.0008810706210205,151.64490540418768
6.009145344,1.0007614035048493,151.47885434216823
6.011431936,1.0005937104011202,151.3148950986724
6.013718016,1.0003884147502728,151.15369130771379
6.016004608,1.0001586867662322,150.99567398468807
6.018290688,0.9999191305925783,150.84112841749274
6.02057728,0.9996847401380303,150.6900540999522
6.022863872,0.9994703519456094,150.5422266874089
6.025149952,0.9992897197718618,150.39737172713694
6.027436544,0.9991540751539723,150.25484038055276
6.029722624,0.9990724357474582,150.11393413380543
6.032009216,0.9990496824746007,149.97382156421958
6.034295296,0.9990875192943592,149.8336340580202
6.036581888,0.9991833746413327,149.69253187420856
6.03886848,0.9993312336023787,149.54966039125085
6.04115456,0.9995219221627254,149.40438961962465
6.043441152,0.9997430860085763,149.25613577753896
6.045727232,0.9999810192967026,149.10458882012162
6.048013824,1.0002202914705316,148.94958833683665
6.050299904,1.0004460727460693,148.7912872082361
6.052586496,1.000644011429604,148.629945735003
6.054872576,1.0008012527083219,148.466016374601
6.057159168,1.0009082030308574,148.3002489008283
6.05944576,1.0009578601219449,148.13334661408894
6.06173184,1.000947252713982,147.9661851475731
6.064018432,1.0008769348592368,147.7996787896231
6.066304512,1.0007511669789406,147.63460106573103
6.068591104,1.0005781023795317,147.47172725393892
6.070877184,1.0003685320810585,147.31166586237404
6.073163776,1.00013566662301,147.15485901129583
6.075450368,0.9998943714707949,147.00150496188812
6.077736448,0.999659824876888,146.85166938553607
6.08002304,0.999446868123393,146.70510797920278
6.08230912,0.999269063272629,146.56144006704693
6.084595712,0.9991379089262196,146.42008755745937
6.086881792,0.9990613424665563,146.2802513476332
6.089168384,0.9990446319827695,146.14113086580372
6.091454464,0.9990885964109965,146.00184140886634
6.093741056,0.9991907074294013,145.86158167688959
6.096027648,0.9993444773998355,145.71945137435657
6.098313728,0.9995398780182269,145.574832921076
6.10060032,0.9997649752982436,145.4271817699746
6.1028864,1.0000050567343228,145.2761858796574
6.105172992,1.0002453731888965,145.12172461123922
6.107459072,1.0004703424110422,144.96392944770776
6.109745664,1.0006658357479234,144.8031103133612
6.112032256,1.000819472876129,144.639799324682
6.114318336,1.0009216353676398,144.47466576558986
6.116604928,1.000965670397328,144.3084989756171
6.118891008,1.0009487825841006,144.14216103933674
6.1211776,1.0008720000733509,143.97653934061466
6.12346368,1.0007403173956084,143.8124635439014
6.125750272,1.0005619167623987,143.65065035778582
6.128036352,1.000347906652716,143.49174059223628
6.130322944,1.0001119653687545,143.33611921788113
6.132609536,0.9998691576887192,143.18402966347463
6.134895616,0.9996344264885735,143.03543064954243
6.137182208,0.9994231991841196,142.8901129377925
6.139468288,0.9992485566456306,142.74765553191415
6.14175488,0.9991217199363491,142.6074127561697
6.14404096,0.999050708208495,142.4686498902857
6.146327552,0.9990400454448465,142.33053601526012
6.148614144,0.9990905276783671,142.192143746101
6.150900224,0.9991988045966733,142.0526572504402
6.153186816,0.9993583365773439,141.9112704433312
6.155472896,0.9995587848170322,141.76727921088906
6.157759488,0.9997874559061715,141.62019295940132
6.160045568,1.0000299659458427,141.4697254444419
6.16233216,1.0002708766194528,141.31577154726
6.16461824,1.0004949242744947,141.15849497759288
6.166904832,1.000687927481556,140.9981882677775
6.169191424,1.000837707631314,140.83547610012468
6.171477504,1.0009346683808698,140.6709684521573
6.173764096,1.0009728883874127,140.5055355195676
6.176050176,1.0009494511762362,140.34002107111397
6.178336768,1.0008663191750282,140.17530363008547
6.180622848,1.0007285062324391,140.0122181740865
6.18290944,1.0005446354141447,139.85146926603656
6.18519552,1.0003263124973463,139.69373173796123
6.187482112,1.0000874912128062,139.53930721648806
6.189768704,0.9998431822344525,139.388448696059
6.192054784,0.9996087379175707,139.2410902040609
6.194341376,0.999399238920762,139.09700644917274
6.196627456,0.9992279711438216,138.95571155053977
6.198914048,0.9991057506341805,138.81662956987768
6.201200128,0.9990402575772044,138.6788989521175
6.20348672,0.9990360203238928,138.54177272569154
6.205773312,0.9990930637894332,138.40427497268877
6.208059392,0.9992078020634307,138.26558039533177
6.210345984,0.9993731402447166,138.12483995298595
6.212632064,0.9995783701032956,137.9814717750419
6.214918656,0.9998108462114619,137.83496240485303
6.217204736,1.0000554120246599,137.68500199055083
6.219491328,1.0002967923097306,137.53152148455894
6.221777408,1.0005197747010055,137.37472738825826
6.224064,1.000710149155199,137.2149683359896
6.226350592,1.000855719583182,137.05279599501728
6.228636672,1.0009475911219747,136.88895419827804
6.230923264,1.0009794459702186,136.72422838294528
6.233209344,1.0009496358550911,136.55953410876168
6.235495936,1.000859832274247,136.3957036793742
6.237782016,1.0007157677809464,136.2336092213436
6.240068608,1.0005265273262165,136.07395240841248
6.2423552,1.000304071057456,135.91735226754457
6.24464128,1.000062365880272,135.76412587193684
6.246927872,0.9998165732698282,135.61449754657417
6.249213952,0.99958270692791,135.46838676274683
6.251500544,0.9993752271322651,135.32552224685884
6.253786624,0.9992074172683214,135.18541595499772
6.256073216,0.9990899956993531,135.04744884017316
6.258359296,0.9990305095414614,134.9107987714453
6.260645888,0.9990326467620362,134.77459061679326
6.26293248,0.999096492286464,134.63794728038377
6.26521856,0.9992176387802195,134.50001869540262
6.267505152,0.9993889173848056,134.35994883970787
6.269791232,0.9995990249673158,134.21717503281363
6.272077824,0.999835070342812,134.07115658911903
6.274363904,1.0000817520670005,133.92169372740472
6.276650496,1.0003235135825945,133.76871275384627
6.278937088,1.00054506341547,133.6123624931455
6.281223168,1.0007324981339005,133.45310967770348
6.28350976,1.000873806371219,133.29150624646311
6.28579584,1.0009599861490892,133.12825560206028
6.288082432,1.0009856115235218,132.96425259105513
6.290368512,1.0009492828251603,132.8003416720901
6.292655104,1.000852738549011,132.637456311639
6.294941184,1.0007024010269954,132.47634110817077
6.297227776,1.0005076254651313,132.3177975424973
6.299514368,1.000280876626724,132.16232698836998
6.301800448,1.0000362880401579,132.0103168628609
6.30408704,0.9997896593966188,131.86190105872637
6.30637312,0.9995561431617269,131.71701308884735
6.308659712,0.9993509591198875,131.5753508245781
6.310945792,0.9991869101587829,131.4364539502248
6.313232384,0.999074615645085,131.2995596902563
6.315518464,0.9990211387684351,131.16392267139287
6.317805056,0.9990299649964847,131.02865033258817
6.320091648,0.9991005913741785,130.89284934591262
6.322377728,0.9992283652326287,130.75561786726513
6.32466432,0.9994054334574939,130.61622177579252
6.3269504,0.9996205081562585,130.4739947048096
6.329236992,0.9998599430642074,130.32849328972821
6.331523072,1.000108410377692,130.17946449525127
6.333809664,1.0003504468185767,130.02694122059486
6.336096256,1.0005705290412314,129.8710699748591
6.338382336,1.0007547941741513,129.71231089768307
6.340668928,1.0008914659202683,129.5512109400854
6.342955008,1.0009719243570367,129.38860548085125
6.3452416,1.0009911052170668,129.2253036567794
6.34752768,1.0009477038653536,129.06221420731498
6.349814272,1.0008444644710246,128.9002030473991
6.352100352,1.000687902933288,128.74007103475458
6.354386944,1.0004877854716294,128.58261706866102
6.356673536,1.0002568169413653,128.42827184434654
6.358959616,1.0000096587677958,128.27745714070343
6.361246208,0.9997619679223592,128.1303004873592
6.363532288,0.9995292384710217,127.98663368717182
6.36581888,0.9993264787479808,127.84616924106831
6.36810496,0.9991664879265687,127.70842567704574
6.370391552,0.999059523234913,127.57260824376922
6.372678144,0.9990123285584296,127.43797956135178
6.374964224,0.999027995292614,127.30363946391829
6.377250816,0.9991054894262579,127.16860926525403
6.379536896,0.9992399800189375,127.03210289662285
6.381823488,0.9994230269377362,126.8932970320088
6.384109568,0.9996428573161811,126.751611765021
6.38639616,0.9998855677999565,126.60658670100682
6.38868224,1.000135825314589,126.45800972236393
6.390968832,1.0003779665207613,126.3058666202677
6.393255424,1.0005961629561435,126.15046647833593
6.395541504,1.000777092765735,125.99214070954561
6.397828096,1.0009089584763033,125.83160471788604
6.400114176,1.000983535152862,125.66959759411031
6.402400768,1.0009960891573042,125.50696773641
6.404686848,1.0009457348765605,125.3446896939535
6.40697344,1.0008354518898346,125.18354030567912
6.409260032,1.0006726024775578,125.02443779995635
6.411546112,1.0004671305212054,124.86802558905798
6.413832704,1.00023195482292,124.71485671153461
6.416118784,0.9999823735646579,124.56522974589407
6.418405376,0.9997337184899735,124.41928454706174
6.420691456,0.9995021710832053,124.2768181936504
6.422978048,0.9993021142978884,124.13755980707357
6.425264128,0.9991462876556692,124.00092412948207
6.42755072,0.9990448833682124,123.86617883973703
6.429837312,0.9990040861464698,123.7325490423158
6.432123392,0.9990267283637863,123.59904234353534
6.434409984,0.99911143115668,123.4648213762872
6.436696064,0.9992526151099484,123.32897488358631
6.438982656,0.9994414406704918,123.19075842046533
6.441268736,0.9996660475895103,123.04956581323401
6.443555328,0.9999120897091659,122.90500779097461
6.44584192,1.000164026688571,122.75680761540119
6.448128,1.0004057990031305,122.605090073411
6.450414592,1.0006221404777833,122.45007404128022
6.452700672,1.0007992725738832,122.29220793241457
6.454987264,1.0009263052271984,122.13219438511892
6.457273344,1.0009946978831201,121.97075585456166
6.459559936,1.0010002461572274,121.8088469042918
6.461846016,1.0009427555192707,121.64731488305493
6.464132608,1.0008255250168483,121.48709483209676
6.4664192,1.0006562202604574,121.32896208534088
6.46870528,1.0004454616436205,121.17364230799382
6.470991872,1.0002064192637021,121.02158147547735
6.473277952,0.9999542440930116,120.87317223628041
6.475564544,0.9997050990480917,120.72839908864768
6.477850624,0.9994745502325849,120.58714978300432
6.480137216,0.9992774679454915,120.44906762781919
6.482423296,0.9991261758747313,120.31354673411293
6.484709888,0.9990305820537365,120.17985365594608
6.48699648,0.9989964795722134,120.04713943590097
6.48928256,0.9990262811271235,119.91452204924258
6.491569152,0.9991180628471353,119.78102955208252
6.493855232,0.9992660721278256,119.64583349139033
6.496141824,0.999460794653361,119.50818668173775
6.498427904,0.9996901436814264,119.36745253889563
6.500714496,0.9999392970380968,119.22327012371622
6.503001088,1.000192704476626,119.07547599102931
6.505287168,1.0004339931055255,118.92410452165244
6.50757376,1.0006481662085374,118.76947164081186
6.50985984,1.0008215576577186,118.61206355635422
6.512146432,1.0009430942101492,118.45253948947169
6.514432512,1.001005154290801,118.29170763917165
6.516719104,1.0010037248551849,118.13044088719518
6.519005184,1.00093883062122,117.96969943769778
6.521291776,1.0008146786626972,117.81034066928422
6.523578368,1.0006389393984902,117.65320320285696
6.525864448,1.0004228025479431,117.49894508618448
6.52815104,1.0001797974917477,117.34803675170062
6.53043712,0.999925476101217,117.20079624662269
6.532723712,0.999675851415453,117.05720299176178
6.535009792,0.999446795477855,116.91715258893547
6.537296384,0.9992527355700767,116.78021484800895
6.539582976,0.9991062045719044,116.64579412825024
6.541869056,0.9990166049854089,116.51312768187039
6.544155648,0.9989894755042231,116.38134918289633
6.546441728,0.9990265843680726,116.24953391967104
6.54872832,0.999125691543035,116.11676090809166
6.5510144,0.9992805544426341,115.98215813484009
6.553300992,0.9994812314521605,115.84500743080264
6.555587072,0.9997150216676376,115.70471528084484
6.557873664,0.999967446618102,115.56093078925937
6.560160256,1.0002218971005916,115.41349908851124
6.562446336,1.0004626304040973,115.26245986905398
6.564732928,1.0006744482501524,115.10819030449451
6.567019008,1.0008436318214275,114.9512062864843
6.5693056,1.000959734788863,114.7921298251839
6.57159168,1.0010151281135033,114.63186786416635
6.573878272,1.0010064568941421,114.47126377642765
6.576164864,1.0009341049102551,114.31129710801663
6.578450944,1.000802824901339,114.15283835906737
6.580737536,1.0006206426556679,113.99669287157913
6.583023616,1.0003991249142263,113.84346684183396
6.585310208,1.0001524309174084,113.69367714387914
6.587596288,0.9998960155238404,113.54759601972228
6.58988288,0.9996460722504046,113.40521261761297
6.59216896,0.9994186167784478,113.2663181457176
6.594455552,0.9992279906712501,113.1305073245457
6.596742144,0.9990866537146487,112.99716963454023
6.599028224,0.9990032011683451,112.86550322391422
6.601314816,0.9989830778064468,112.7346054160354
6.603600896,0.9990276799992935,112.60357618423284
6.605887488,0.9991341894536115,112.47146628793895
6.608173568,0.99929596847129,112.33745443519042
6.61046016,0.9995024421550338,112.20078635521052
6.612746752,0.999740848208509,112.06089351868744
6.615032832,0.9999959833615717,111.91744232570628
6.617319424,1.0002516171320948,111.77033867355776
6.619605504,1.0004915859906642,111.61961402198594
6.621892096,1.000700555843278,111.465689222379
6.624178176,1.0008653893543566,111.30907241931503
6.626464768,1.0009757019231562,111.15049390591395
6.628750848,1.0010244570262128,110.99076780026304
6.63103744,1.001008296256873,110.8308292973243
6.633324032,1.0009284764520123,110.67162426397685
6.635610112,1.0007898432240843,110.51401529007657
6.637896704,1.0006012355973426,110.3588242665796
6.640182784,1.0003746441583903,110.20666291259256
6.642469376,1.0001241934242582,110.05799564436191
6.644755456,0.9998658064522109,109.91306136214392
6.647042048,0.9996159733655734,109.77184061004664
6.649328128,0.9993904136832292,109.63410538338049
6.65161472,0.9992035250629181,109.49944438032533
6.653901312,0.9990672243760852,109.36713886098319
6.656187392,0.9989902463984858,109.23640940098457
6.658473984,0.9989774499036751,109.106391716219
6.660760064,0.9990297429872045,108.97610915976985
6.663046656,0.999143807377858,108.84465350533614
6.665332736,0.9993123222871341,108.71117989009764
6.667619328,0.9995248806094729,108.5749334996301
6.66990592,0.9997676743533794,108.43541168806034
6.672192,1.0000255895559413,108.29227557186425
6.674478592,1.000282119424132,108.14543750339347
6.676764672,1.0005209154532373,107.99503285990815
6.679051264,1.0007269337083196,107.84140975026015
6.681337344,1.000887205174513,107.68515368605077
6.683623936,1.000991434912638,107.5270160286413
6.685910016,1.00103302262213,107.36782554644854
6.688196608,1.0010093783479808,107.20854286098768
6.6904832,1.0009218429796198,107.05008125185668
6.69276928,1.0007760533623327,106.8933417311949
6.695055872,1.0005810424686237,106.73909179702608
6.697341952,1.000349122311151,106.58797447644187
6.699628544,1.0000951763003698,106.44041468933766
6.701914624,0.9998350921593331,106.296606879398
6.704201216,0.9995853448034338,106.15655658310736
6.706487808,0.9993620127435704,106.01996179713258
6.708773888,0.99917902916678,105.88637109382204
6.71106048,0.9990483454124925,105.7550960035548
6.71334656,0.9989779994224277,105.62531212908718
6.715633152,0.9989726693708677,105.49612813010644
6.717919232,0.9990326902634166,105.3665570980626
6.720205824,0.999154343503959,105.23570138932895
6.722491904,0.9993298931695002,105.10270893683551
6.724778496,0.9995481392064044,104.96687728018794
6.727065088,0.9997953513986898,104.82767191890048
6.729351168,1.0000557633091465,104.68485217872583
6.73163776,1.000312929488697,104.53823799814647
6.73392384,1.0005504100015932,104.38807026698005
6.736210432,1.0007533622520557,104.23473873757263
6.738496512,1.0009087155937182,104.07883148144033
6.740783104,1.0010067350220793,103.92111212576695
6.743069696,1.0010410382075314,103.76248035096053
6.745355776,1.0010096687864924,103.60380250243442
6.747642368,1.000914307998983,103.44609233500279
6.749928448,1.0007611368810414,103.29021233512003
6.75221504,1.0005597488015734,103.13691642551231
6.75450112,1.0003227698976591,102.98682668180794
6.756787712,1.0000653093788288,102.84034944334591
6.759073792,0.9998036922410958,102.69768225966324
6.761360384,0.9995545292918759,102.55876609976663
6.763646976,0.9993334675758422,102.42327836873595
6.765933056,0.9991547337098992,102.29075410713945
6.768219648,0.9990297326917583,102.16048067919836
6.770505728,0.9989663612831547,102.03161038221717
6.77279232,0.9989687207557548,101.90319006757778
6.7750784,0.9990367465768224,101.77430349078598
6.777364992,0.9991659896167965,101.64402717598726
6.779651584,0.9993485214830804,101.51149339868581
6.781937664,0.9995726300198537,101.37602839809439
6.784224256,0.9998239954677218,101.23713065115687
6.786510336,1.000086788438223,101.09449679421337
6.788796928,1.0003443335915074,100.94813805121198
6.791083008,1.0005803277214538,100.79820035138074
6.7933696,1.0007797565893612,100.64512377113157
6.79565568,1.000929943895351,100.48953981694827
6.797942272,1.0010215685401747,100.33222799859645
6.800228864,1.0010484620712536,100.17408644369523
6.802514944,1.001009031875805,100.01603783880908
6.804801536,1.0009058909757542,99.85905374303837
6.807087616,1.0007453178750292,99.70398114728806
6.809374208,1.00053748624139,99.55163300822065
6.811660288,1.000295503268502,99.40257925811648
6.81394688,1.000034887306903,99.257176640907
6.81623296,0.999771877076735,99.11563691976697
6.818519552,0.9995233608780206,98.97783477109951
6.820806144,0.9993049114773727,98.84344556404747
6.823092224,0.9991306667021743,98.71195203073215
6.825378816,0.9990116989237635,98.5826511921931
6.827664896,0.9989554621554073,98.45463560480107
6.829951488,0.998965656336538,98.32698359121413
6.832237568,0.9990417072484638,98.19874177746372
6.83452416,0.9991788037192331,98.06898395483528
6.836810752,0.9993681965511739,97.93688318260706
6.839096832,0.9995979998808175,97.8017236818011
6.841383424,0.9998533946192005,97.66306923629408
6.843669504,1.000118459641634,97.52066531516944
6.845956096,1.0003761909998903,97.37446206778344
6.848242176,1.000610327392184,97.2247246269875
6.850528768,1.0008060655699758,97.07189814546987
6.852814848,1.00095085993309,96.91661105481917
6.85510144,1.001035597503869,96.75968801648845
6.857388032,1.001054888126494,96.60202555269535
6.859674112,1.0010074110524876,96.44459953437983
6.861960704,1.000896212074133,96.28832246212644
6.864246784,1.0007281890916015,96.13408382086283
6.866533376,1.00051408177093,95.9826768846049
6.868819456,1.0002672953639067,95.83462996284258
6.871106048,1.0000034673888292,95.69029922395163
6.87339264,0.9997393901470822,95.549844208526
6.87567872,0.999491759355408,95.41313103866715
6.877965312,0.9992762105369712,95.27983762035163
6.880251392,0.9991067836186398,95.14935477173972
6.882537984,0.9989940030583624,95.0209807560426
6.884824064,0.9989451350731402,94.89380153735851
6.887110656,0.9989634154214567,94.76687250069386
6.889396736,0.9990476192635468,94.63924758292582
6.891683328,0.9991925077569204,94.50995312746038
6.89396992,0.9993888464567225,94.37821668535291
6.896256,0.9996242198377604,94.24333581525366
6.898542592,0.9998836226296044,94.1049160677287
6.900828672,1.00015075938694,93.96265856334742
6.903115264,1.000408389992262,93.81661873807796
6.905401344,1.0006404739185106,93.66705573945607
6.907687936,1.0008321635116637,93.51441654307051
6.909974528,1.000971322112729,93.35940836087538
6.912260608,1.001049090342226,93.20285494492818
6.9145472,1.0010604841267816,93.04567247069856
6.91683328,1.0010048600386758,92.88882108582817
6.919119872,1.0008854451451825,92.73325987033502
6.921405952,1.0007101019151476,92.57985781659906
6.923692544,1.0004895890275185,92.42935022056388
6.925978624,1.0002380957948163,92.28228342984934
