freq,mag,phase
6.0,0.9999954434274508,51.029648269164454
6.008,0.9999947947050312,50.836998675369564
6.016,0.9999941531903581,50.64429188693424
6.024,0.9999935188951821,50.45152801501608
6.032,0.9999928918303205,50.25870717147603
6.04,0.999992272005664,50.065829468878306
6.048,0.9999916594301855,49.87289502049006
6.056,0.9999910541119454,49.679903940281356
6.064,0.999990456058102,49.48685634292476
6.072,0.9999898652749157,49.2937523437952
6.08,0.9999892817677587,49.100592058969774
6.088,0.9999887055411221,48.9073756052273
6.096,0.9999881365986226,48.714103100048185
6.104,0.9999875749430107,48.52077466161401
6.112,0.9999870205761782,48.32739040880728
6.12,0.9999864734991653,48.13395046121102
6.128,0.9999859337121673,47.94045493910844
6.136,0.9999854012145439,47.74690396348256
6.144,0.9999848760048257,47.55329765601581
6.152,0.999984358080721,47.35963613908956
6.16,0.9999838474391239,47.16591953578383
6.168,0.9999833440761223,46.97214796987666
6.176,0.9999828479870047,46.77832156584378
6.184,0.9999823591662671,46.58444044885806
6.192,0.9999818776076216,46.39050474478902
6.2,0.999981403304003,46.19651458020229
6.208,0.9999809362475768,46.00247008235914
6.216,0.9999804764297463,45.80837137921582
6.224,0.9999800238411597,45.61421859942306
6.232,0.9999795784717187,45.42001187232548
6.24,0.9999791403105841,45.225751327960914
6.248,0.999978709346185,45.031437097059815
6.256,0.999978285566225,44.83706931104467
6.264,0.9999778689576904,44.642648102029206
6.272,0.999977459506857,44.44817360281786
6.28,0.9999770571992979,44.25364594690489
6.288,0.99997666201989,44.05906526847386
6.296,0.9999762739528231,43.864431702396736
6.304,0.9999758929816055,43.669745384233245
6.312,0.9999755190890721,43.475006450230026
6.32,0.9999751522573924,43.280215037319834
6.328,0.9999747924680763,43.085371283120836
6.336,0.9999744397019833,42.890475325935604
6.344,0.9999740939393278,42.695527304750456
6.352,0.9999737551596879,42.50052735923444
6.36,0.9999734233420129,42.30547562973851
6.368,0.9999730984646291,42.11037225729465
6.376,0.9999727805052485,41.915217383614916
6.384,0.9999724694409754,41.72001115109046
6.392,0.9999721652483141,41.52475370279068
6.4,0.9999718679031755,41.329445182462116
6.408,0.9999715773808847,41.13408573452754
6.416,0.9999712936561886,40.938675504084905
6.424,0.9999710167032635,40.74321463690633
6.432,0.9999707464957208,40.54770327943706
6.44,0.9999704830066145,40.3521415787943
6.448,0.9999702262084509,40.15652968276629
6.456,0.9999699760731919,39.96086773981104
6.464,0.9999697325722655,39.7651558990553
6.472,0.9999694956765716,39.569394310293426
6.48,0.9999692653564877,39.37358312398609
6.4879999999999995,0.9999690415818793,39.17772249125927
6.496,0.9999688243221041,38.98181256390283
6.504,0.9999686135460213,38.78585349436964
6.5120000000000005,0.9999684092219969,38.58984543577391
6.52,0.9999682113179112,38.393788541890345
6.5280000000000005,0.9999680198011677,38.197682967152495
6.536,0.9999678346386969,38.001528866651825
6.5440000000000005,0.9999676557969664,37.80532639613601
6.552,0.9999674832419866,37.60907571200803
6.5600000000000005,0.9999673169393171,37.41277697132441
6.568,0.999967156854075,37.216430331794214
6.5760000000000005,0.9999670029509412,37.02003595177724
6.584,0.9999668551941672,36.823593990283165
6.592,0.9999667135475823,36.627104606969525
6.6,0.9999665779746011,36.43056796214069
6.608,0.9999664484382293,36.23398421674626
6.616,0.9999663249010717,36.03735353237954
6.624,0.9999662073253378,35.840676071276135
6.632,0.9999660956728503,35.643951996312325
6.64,0.9999659899050505,35.4471814710036
6.648,0.9999658899830062,35.250364659503106
6.656,0.9999657958674179,35.0535017266
6.664,0.9999657075186253,34.856592837717926
6.672,0.9999656248966154,34.65963815891335
6.68,0.999965547961028,34.46263785687401
6.688,0.9999654766711624,34.265592098917125
6.696,0.9999654109859857,34.06850105298786
6.704,0.999965350864137,33.87136488765758
6.712,0.9999652962639365,33.6741837721221
6.72,0.9999652471433913,33.476957876200075
6.728,0.9999652034602009,33.27968737033113
6.736,0.999965165171766,33.08237242557419
6.744,0.9999651322351929,32.885013213605625
6.752,0.999965104607302,32.68760990671751
6.76,0.9999650822446329,32.49016267781576
6.768,0.9999650651034514,32.29267170041837
6.776,0.999965053139757,32.095137148653414
6.784,0.9999650463092882,31.897559197257333
6.792,0.9999650445675285,31.699938021572898
6.8,0.9999650478697154,31.502273797547463
6.808,0.9999650561708431,31.304566701730863
6.816,0.9999650694256726,31.106816911273555
6.824,0.999965087588736,30.909024603924653
6.832,0.9999651106143428,30.711189958029944
6.84,0.9999651384565873,30.513313152529836
6.848,0.9999651710693539,30.315394366957378
6.856,0.9999652084063247,30.117433781436223
6.864,0.9999652504209839,29.91943157667857
6.872,0.9999652970666255,29.72138793398302
6.88,0.9999653482963593,29.523303035232605
6.888,0.9999654040631168,29.325177062892557
6.896,0.9999654643196573,29.127010200008243
6.904,0.9999655290185743,28.928802630203013
6.912,0.9999655981123013,28.730554537675996
6.92,0.9999656715531189,28.532266107199952
6.928,0.9999657492931594,28.333937524119026
6.936,0.9999658312844134,28.13556897434661
6.944,0.9999659174787365,27.937160644363
6.952,0.9999660078278549,27.73871272121319
6.96,0.99996610228337,27.54022539250464
6.968,0.9999662007967669,27.341698846404896
6.976,0.9999663033194184,27.143133271639332
6.984,0.9999664098025913,26.944528857488805
6.992,0.9999665201974527,26.745885793787345
7.0,0.9999666344550753,26.54720427091973
7.008,0.999966752526443,26.348484479819156
7.016,0.9999668743624579,26.149726611964816
7.024,0.9999669999139451,25.950930859379497
7.032,0.9999671291316578,25.752097414627126
7.04,0.9999672619662844,25.553226470810337
7.048,0.9999673983684527,25.354318221568008
7.056,0.9999675382887375,25.15537286107275
7.064,0.9999676816776637,24.956390584028437
7.072,0.9999678284857138,24.757371585667656
7.08,0.9999679786633326,24.55831606174919
7.088,0.9999681321609329,24.35922420855546
7.096,0.999968288928901,24.16009622288996
7.104,0.9999684489176016,23.960932302074646
7.112,0.9999686120773846,23.761732643947365
7.12,0.9999687783585886,23.562497446859208
7.128,0.9999689477115479,23.363226909671877
7.136,0.9999691200865962,23.16392123175505
7.144,0.9999692954340744,22.96458061298365
7.152,0.9999694737043328,22.76520525373528
7.16,0.999969654847738,22.56579535488736
7.168,0.9999698388146784,22.36635111781453
7.176,0.9999700255555684,22.166872744385874
7.184,0.9999702150208545,21.967360436962103
7.192,0.9999704071610187,21.767814398392904
7.2,0.9999706019265858,21.56823483201407
7.208,0.9999707992681265,21.368621941644726
7.216,0.999970999136264,21.16897593158449
7.224,0.9999712014816773,20.969297006610667
7.232,0.9999714062551072,20.76958537197539
7.24,0.9999716134073616,20.569841233402734
7.248,0.9999718228893187,20.370064797085885
7.256,0.9999720346519334,20.17025626968416
7.264,0.9999722486462417,19.970415858320198
7.272,0.9999724648233641,19.77054377057694
7.28,0.9999726831345132,19.570640214494723
7.288,0.9999729035309951,19.370705398568333
7.296,0.9999731259642163,19.170739531744008
7.304,0.9999733503856877,18.97074282341648
7.312,0.9999735767470286,18.770715483425924
7.32,0.9999738049999722,18.570657722054968
7.328,0.9999740350963694,18.370569750025663
7.336,0.9999742669881926,18.17045177849642
7.344,0.9999745006275429,17.970304019058936
7.352,0.9999747359666508,17.770126683735157
7.36,0.9999749729578831,17.569919984974135
7.368,0.9999752115537465,17.369684135648928
7.376,0.9999754517068914,17.169419349053523
7.384,0.999975693370117,16.96912583889966
7.392,0.9999759364963752,16.76880381931365
7.4,0.9999761810387744,16.568453504833283
7.4079999999999995,0.9999764269505836,16.36807511040463
7.416,0.9999766741852375,16.167668851378732
7.4239999999999995,0.9999769226963391,15.96723494350866
7.432,0.9999771724376649,15.766773602945934
7.4399999999999995,0.9999774233631686,15.566285046237661
7.448,0.9999776754269847,15.36576949032295
7.4559999999999995,0.9999779285834323,15.165227152529935
7.464,0.9999781827870197,14.96465825057226
7.4719999999999995,0.9999784379924476,14.764063002546019
7.48,0.9999786941546132,14.563441626926165
7.4879999999999995,0.9999789512286136,14.362794342563587
7.496,0.9999792091697504,14.16212136868133
7.504,0.9999794679335319,13.961422924871693
7.5120000000000005,0.9999797274756779,13.760699231092488
7.52,0.9999799877521232,13.559950507664004
7.5280000000000005,0.9999802487190207,13.359176975265324
7.536,0.9999805103327453,13.158378854931247
7.5440000000000005,0.9999807725498969,12.957556368048547
7.552,0.9999810353273045,12.756709736352914
7.5600000000000005,0.9999812986220291,12.555839181925156
7.568,0.9999815623913673,12.354944927188125
7.5760000000000005,0.9999818265928544,12.154027194902913
7.584,0.9999820911842682,11.953086208165711
7.5920000000000005,0.9999823561236311,11.75212219040404
7.6,0.999982621369215,11.55113536537353
7.6080000000000005,0.9999828868795428,11.35012595715417
7.616,0.9999831526133931,11.149094190147043
7.6240000000000006,0.9999834185298013,10.948040289070539
7.632,0.9999836845880647,10.74696447895713
7.640000000000001,0.999983950747744,10.545866985149464
7.648,0.9999842169686671,10.344748033297204
7.656000000000001,0.9999844832109318,10.14360784935306
7.664,0.9999847494349088,9.942446659569605
7.672,0.9999850156012434,9.741264690495322
7.68,0.9999852816708608,9.540062168971284
7.688,0.9999855476049658,9.338839322127386
7.696,0.9999858133650482,9.137596377378802
7.704,0.9999860789128838,8.936333562422323
7.712,0.9999863442105378,8.735051105232719
7.72,0.9999866092203664,8.533749234059098
7.728,0.9999868739050211,8.33242817742124
7.736,0.9999871382274496,8.13108816410594
7.744,0.9999874021508991,7.929729423163304
7.752,0.9999876656389184,7.728352183903093
7.76,0.99998792865536,7.526956675891
7.768,0.999988191164384,7.3255431289449575
7.776,0.9999884531304581,7.124111773131407
7.784,0.9999887145183616,6.922662838761595
7.792,0.9999889752931868,6.721196556387824
7.8,0.9999892354203411,6.519713156799714
7.808,0.9999894948655508,6.318212871020445
7.816,0.9999897535948596,6.116695930303015
7.824,0.9999900115746353,5.915162566126457
7.832,0.9999902687715677,5.713613010192062
7.84,0.9999905251526734,5.512047494419606
7.848,0.9999907806852957,5.310466250943545
7.856,0.999991035337108,5.108869512109228
7.864,0.999991289076115,4.9072575104690825
7.872,0.9999915418706554,4.705630478778789
7.88,0.9999917936894008,4.503988649993484
7.888,0.9999920445013616,4.3023322572639
7.896,0.9999922942758854,4.100661533932556
7.904,0.9999925429826602,3.898976713529887
7.912,0.9999927905917156,3.697278029770416
7.92,0.9999930370734247,3.4955657165488785
7.928,0.9999932823985047,3.2938400079363688
7.936,0.9999935265380192,3.092101138176462
7.944,0.9999937694633797,2.890349341681338
7.952,0.9999940111463465,2.6885848530279013
7.96,0.9999942515590305,2.4868079069538847
7.968,0.9999944906738942,2.285018738353961
7.976,0.9999947284637529,2.08321758227583
7.984,0.9999949649017761,1.8814046739163237
7.992,0.9999951999614892,1.6795802486174796
8.0,0.9999954336167738,1.4777445418626347
8.008,0.9999956658418693,1.2758977892725145
8.016,0.9999958966113734,1.0740402266011968
8.024000000000001,0.9999961259002443,0.8721720897323758
8.032,0.9999963536838006,0.670293614675313
8.04,0.9999965799377225,0.4684050375608019
8.048,0.9999968046380532,0.26650659463731063
8.056000000000001,0.9999970277611988,0.0645985222671179
8.064,0.9999972492839301,-0.13731894307773615
8.072,0.9999974691833834,-0.3392455648194978
8.08,0.9999976874370601,-0.541181106278581
8.088000000000001,0.9999979040228287,-0.7431253306774402
8.096,0.9999981189189246,-0.9450780011446428
8.104,0.9999983321039515,-1.1470388807189276
8.112,0.9999985435568807,-1.3490077323531011
8.120000000000001,0.9999987532570536,-1.5509843189179333
8.128,0.9999989611841805,-1.7529684032062258
8.136,0.9999991673183415,-1.954959747936906
8.144,0.9999993716399874,-2.1569581157589193
8.152000000000001,0.9999995741299398,-2.3589632692551423
8.16,0.9999997747693917,-2.5609749709464653
8.168,0.9999999735399063,-2.762992983295896
8.176,1.0,-2.9650170687124593
8.184000000000001,1.0,-3.167046989555121
8.192,1.0,-3.369082508136889
8.2,1.0,-3.571123386728905
8.208,1.0,-3.7731693875643777
8.216000000000001,0.9999999999999999,-3.975220272842499
8.224,0.9999999999999999,-4.1772758047325524
8.232,1.0,-4.379335745378017
8.24,1.0,-4.581399856900507
8.248000000000001,1.0,-4.7834679014036805
8.256,1.0,-4.985539640977373
8.264,0.9999999999999999,-5.187614837701689
8.272,0.9999999999999999,-5.3896932536509485
8.280000000000001,1.0,-5.591774650897618
8.288,1.0,-5.79385879151641
8.296,1.0,-5.9959454375884125
8.304,1.0,-6.198034351205022
8.312,1.0,-6.400125294471807
8.32,1.0,-6.6022180295128905
8.328,1.0,-6.80431231847457
8.336,1.0,-7.0064079235297285
8.344,1.0,-7.208504606881481
8.352,1.0000000000000002,-7.410602130767558
8.36,1.0,-7.612700257463987
8.368,0.9999999999999999,-7.814798749289434
8.376,1.0,-8.016897368608907
8.384,1.0,-8.218995877838084
8.392,1.0,-8.421094039447011
8.4,0.9999999999999999,-8.62319161596445
8.408,1.0,-8.825288369981557
8.416,1.0,-9.02738406415621
8.424,1.0,-9.229478461216717
8.432,1.0,-9.431571323966127
8.44,1.0,-9.633662415285913
8.448,1.0,-9.835751498140304
8.456,1.0,-10.03783833557996
8.464,1.0,-10.239922690746294
8.472,0.9999999999999999,-10.442004326875121
8.48,0.9999999999999999,-10.644083007301024
8.488,1.0,-10.846158495460946
8.496,1.0,-11.04823055489858
8.504,1.0,-11.250298949267949
8.512,1.0,-11.452363442337768
8.52,1.0,-11.654423797995051
8.528,1.0,-11.85647978024945
8.536,1.0,-12.058531153236844
8.544,0.9999999999999999,-12.260577681223682
8.552,1.0,-12.462619128610566
8.56,1.0,-12.664655259936572
8.568,1.0,-12.86668583988284
8.576,0.9999999999999999,-13.068710633276883
8.584,0.9999999999999999,-13.27072940509615
8.592,1.0,-13.472741920472345
8.6,1.0,-13.67474794469498
8.608,0.9999999999999999,-13.876747243215675
8.616,0.9999999999999999,-14.078739581651693
8.624,1.0,-14.280724725790254
8.632,1.0,-14.482702441592041
8.64,0.9999999999999999,-14.684672495195507
8.648,0.9999999999999998,-14.886634652920362
8.656,1.0,-15.088588681271863
8.664,1.0,-15.290534346944364
8.672,1.0,-15.49247141682546
8.68,1.0,-15.694399657999599
8.688,1.0,-15.896318837752275
8.696,0.9999999999999999,-16.098228723573506
8.704,1.0,-16.300129083162073
8.712,1.0,-16.502019684428994
8.72,1.0,-16.703900295501747
8.728,1.0,-16.905770684727695
8.736,1.0,-17.10763062067832
8.744,1.0,-17.309479872152657
8.752,1.0,-17.511318208181464
8.76,0.9999999999999999,-17.71314539803068
8.768,1.0,-17.914961211205558
8.776,0.9999999999999998,-18.116765417454108
8.784,0.9999999999999999,-18.318557786771233
8.792,1.0,-18.520338089402134
8.8,1.0,-18.72210609584644
8.808,0.9999999999999999,-18.923861576861608
8.815999999999999,0.9999999999999999,-19.125604303466957
8.824,1.0,-19.3273340469473
8.832,1.0,-19.529050578856584
8.84,1.0,-19.730753671021663
8.847999999999999,1.0,-19.932443095546148
8.856,1.0,-20.13411862481397
8.864,1.0,-20.335780031493012
8.872,1.0,-20.53742708853891
8.879999999999999,0.9999999999999999,-20.739059569198723
8.888,1.0,-20.940677247014623
8.896,1.0,-21.14227989582736
8.904,1.0,-21.343867289780082
8.911999999999999,0.9999999999999999,-21.54543920332199
8.92,1.0,-21.746995411211902
8.928,0.9999999999999999,-21.948535688521794
8.936,0.9999999999999999,-22.150059810640453
8.943999999999999,0.9999999999999999,-22.351567553277203
8.952,1.0,-22.55305869246538
8.96,0.9999999999999999,-22.7545330045658
8.968,1.0,-22.955990266270426
8.975999999999999,1.0,-23.157430254606044
8.984,1.0,-23.358852746937636
8.992,0.9999999999999999,-23.56025752097187
9.0,0.9999999999999999,-23.761644354760737
9.008,0.9999999999999999,-23.963013026705053
9.016,1.0,-24.164363315557985
9.024000000000001,0.9999999999999999,-24.365695000428314
9.032,0.9999999999999999,-24.56700786078413
9.04,0.9999999999999999,-24.768301676456293
9.048,1.0,-24.96957622764181
9.056000000000001,1.0,-25.170831294907195
9.064,1.0,-25.372066659191994
9.072,0.9999999999999999,-25.573282101812264
9.08,1.0,-25.774477404463894
9.088000000000001,0.9999999999999999,-25.9756523492259
9.096,1.0,-26.176806718563903
9.104,1.0,-26.377940295333566
9.112,1.0,-26.57905286278388
9.120000000000001,1.0,-26.78014420456038
9.128,0.9999999999999999,-26.981214104708585
9.136,1.0,-27.1822623476774
9.144,1.0000000000000002,-27.383288718322305
9.152000000000001,1.0,-27.58429300190858
9.16,1.0,-27.785274984114633
9.168,1.0,-27.9862344510354
9.176,1.0,-28.187171189185474
9.184000000000001,1.0,-28.388084985502218
9.192,1.0,-28.588975627349132
9.2,0.9999999999999999,-28.789842902519133
9.208,1.0,-28.99068659923762
9.216000000000001,1.0,-29.19150650616562
9.224,0.9999999999999999,-29.392302412403
9.232,0.9999999999999999,-29.59307410749172
9.24,1.0,-29.793821381418905
9.248000000000001,1.0,-29.994544024619856
9.256,1.0,-30.195241827981203
9.264,1.0,-30.395914582844203
9.272,0.9999999999999999,-30.596562081007633
9.280000000000001,0.9999999999999999,-30.797184114730797
9.288,1.0000000000000002,-30.99778047673666
9.296,0.9999999999999999,-31.198350960215013
9.304,1.0,-31.398895358825353
9.312000000000001,0.9999999999999999,-31.599413466699797
9.32,1.0,-31.79990507844626
9.328,1.0,-32.00036998915137
9.336,1.0,-32.20080799438349
9.344,1.0,-32.40121889019542
9.352,1.0,-32.601602473127706
9.36,0.9999999999999999,-32.801958540211174
9.368,1.0,-33.002286888970204
9.376,1.0,-33.202587317425234
9.384,1.0,-33.40285962409601
9.392,0.9999999999999999,-33.603103608004105
9.4,1.0,-33.80331906867603
9.408,0.9999999999999998,-34.003505806145874
9.416,1.0,-34.203663620958245
9.424,1.0,-34.40379231417084
9.432,1.0,-34.60389168735762
9.44,1.0,-34.80396154261109
9.448,0.9999999999999999,-35.0040016825455
9.456,1.0,-35.20401191029918
9.464,1.0,-35.40399202953756
9.472,0.9999999999999999,-35.603941844455655
9.48,1.0,-35.80386115978094
9.488,1.0,-36.00374978077576
9.496,0.9999999999999999,-36.20360751324029
9.504,0.9999999999999999,-36.403434163514845
9.512,1.0,-36.60322953848281
9.52,0.9999999999999999,-36.80299344557292
9.528,1.0,-37.00272569276219
9.536,0.9999999999999999,-37.20242608857809
9.544,1.0,-37.40209444210154
9.552,0.9999999999999999,-37.60173056296897
9.56,1.0,-37.801334261375295
9.568,1.0,-38.00090534807599
9.576,1.0,-38.200443634389956
9.584,1.0,-38.399948932201646
9.592,1.0,-38.59942105396384
9.6,1.0,-38.79885981269973
9.608,0.9999999999999999,-38.99826502200572
9.616,0.9999999999999999,-39.19763649605342
9.624,0.9999999999999999,-39.3969740495924
9.632,1.0,-39.59627749795226
9.64,0.9999999999999999,-39.79554665704519
9.648,0.9999999999999999,-39.99478134336815
9.656,0.9999999999999999,-40.19398137400532
9.664,0.9999999999999999,-40.39314656663017
9.672,1.0,-40.59227673950809
9.68,1.0,-40.79137171149826
9.688,1.0,-40.99043130205626
9.696,1.0,-41.189455331235926
9.704,1.0,-41.388443619691955
9.712,0.9999999999999999,-41.5873959886817
9.72,0.9999999999999999,-41.78631226006773
9.728,1.0,-41.985192256319564
9.736,1.0,-42.1840358005163
9.744,0.9999999999999999,-42.38284271634825
9.752,1.0,-42.58161282811942
9.76,0.9999999999999999,-42.78034596074933
9.768,1.0,-42.97904193977534
9.776,1.0,-43.177700591354366
9.784,1.0,-43.376321742265354
9.792,0.9999999652517677,-43.57490521991078
9.8,0.9999998512356685,-43.77345085231916
9.808,0.9999997374769509,-43.971958468146546
9.816,0.9999996239974289,-44.17042789667899
9.824,0.9999995108188234,-44.368858967833965
9.832,0.9999993979627616,-44.56725151216279
9.84,0.9999992854507713,-44.76560536085209
9.847999999999999,0.9999991733042799,-44.96392034572606
9.856,0.9999990615446115,-45.16219629924814
9.864,0.9999989501929833,-45.360433054522844
9.872,0.9999988392705041,-45.558630445297666
9.879999999999999,0.9999987287981704,-45.75678830596496
9.888,0.9999986187968647,-45.95490647156369
9.896,0.9999985092873517,-46.152984777781114
9.904,0.9999984002902768,-46.35102306095465
9.911999999999999,0.9999982918261621,-46.54902115807367
