freq,mag,phase
6.0,0.9999926413032167,-82.50460822404898
6.008,0.9999948805425094,-82.85563112281719
6.016,0.9999970102385249,-83.20625133534503
6.024,0.9999990330830205,-83.55646893791956
6.032,0.9999999999999999,-83.90628402445112
6.04,0.9999999999999999,-84.25569670633875
6.048,1.0,-84.60470711233532
6.056,1.0,-84.95331538841245
6.064,0.9999999999999999,-85.30152169762567
6.072,1.0,-85.64932621997906
6.08,0.9999999999999999,-85.99672915229013
6.088,0.9999999999999999,-86.3437307080546
6.096,0.9999999999999998,-86.69033111731109
6.104,1.0,-87.03653062650595
6.112,1.0,-87.38232949835796
6.12,1.0,-87.72772801172322
6.128,0.9999999999999999,-88.07272646145998
6.136,1.0,-88.41732515829372
6.144,0.9999999999999999,-88.76152442868215
6.152,1.0,-89.10532461468053
6.16,1.0,-89.44872607380694
6.168,1.0,-89.79172917890791
6.176,1.0,-90.13433431802407
6.184,1.0,-90.47654189425613
6.192,1.0,-90.81835232563093
6.2,1.0,-91.15976604496792
6.208,1.0,-91.50078349974576
6.216,1.0,-91.84140515196918
6.224,1.0,-92.1816314780362
6.232,1.0,-92.52146296860558
6.24,0.9999999999999999,-92.86090012846472
6.248,1.0,-93.19994347639772
6.256,1.0,-93.53859354505389
6.264,0.9999999999999999,-93.87685088081655
6.272,0.9999999999999999,-94.21471604367242
6.28,0.9999999999999999,-94.55218960708103
6.288,1.0,-94.88927215784493
6.296,1.0,-95.22596429597999
6.304,1.0,-95.56226663458642
6.312,0.9999999999999999,-95.89817979971998
6.32,1.0,-96.23370443026383
6.328,1.0,-96.56884117780069
6.336,0.9999999999999999,-96.90359070648576
6.344,0.9999999999999999,-97.23795369291969
6.352,1.0,-97.57193082602257
6.36,1.0,-97.90552280690798
6.368,1.0,-98.2387303487579
6.376,1.0,-98.57155417669792
6.384,1.0,-98.9039950276732
6.392,1.0,-99.23605365032482
6.4,0.9999999999999999,-99.56773080486681
6.408,1.0,-99.89902726296366
6.416,1.0,-100.22994380760852
6.424,1.0,-100.560481233002
6.432,1.0,-100.89064034443135
6.44,0.9999999999999999,-101.22042195815061
6.448,0.9999999999999999,-101.54982690126108
6.456,0.9999999999999999,-101.8788560115926
6.464,1.0,-102.20751013758532
6.472,1.0000000000000002,-102.53579013817226
6.48,1.0,-102.86369688266244
6.4879999999999995,0.9999999999999999,-103.19123125062465
6.496,0.9999999999999999,-103.51839413177204
6.504,1.0,-103.84518642584692
6.5120000000000005,0.9999999999999998,-104.17160904250713
6.52,1.0,-104.49766290121185
6.5280000000000005,1.0,-104.82334893110948
6.536,0.9999999999999999,-105.1486680709249
6.5440000000000005,0.9999999999999999,-105.47362126884863
6.552,1.0,-105.79820948242545
6.5600000000000005,0.999999497826916,-106.1224336784451
6.568,0.9999986759629595,-106.44629483283238
6.5760000000000005,0.99999785372507,-106.76979393053902
6.584,0.9999970317568783,-107.09293196543545
6.592,0.9999962106832738,-107.4157099402041
6.6,0.9999953911106768,-107.7381288662325
6.608,0.9999945736273099,-108.06018976350808
6.616,0.9999937588034701,-108.38189366051293
6.624,0.9999929471917972,-108.70324159411977
6.632,0.9999921393275409,-109.0242346094885
6.64,0.9999913357288253,-109.34487375996342
6.648,0.9999905368969143,-109.66516010697134
6.656,0.9999897433164715,-109.98509471992044
6.664,0.9999889554558227,-110.3046786760997
6.672,0.9999881737672106,-110.62391306057935
6.68,0.9999873986870546,-110.94279896611187
6.688,0.9999866306362033,-111.26133749303384
6.696,0.9999858700201885,-111.5795297491685
6.704,0.9999851172294746,-111.89737684972921
6.712,0.9999843726397075,-112.21487991722353
6.72,0.9999836366119628,-112.53204008135799
6.728,0.9999829094929897,-112.84885847894392
6.736,0.9999821916154555,-113.16533625380379
6.744,0.9999814832981839,-113.4814745566784
6.752,0.9999807848463969,-113.79727454513488
6.76,0.9999800965519506,-114.11273738347538
6.768,0.9999794186935709,-114.42786424264655
6.776,0.9999787515370866,-114.74265630014986
6.784,0.99997809533566,-115.05711473995264
6.792,0.9999774503300172,-115.37124075239984
6.8,0.9999768167486742,-115.68503553412664
6.808,0.9999761948081626,-115.99850028797175
6.816,0.9999755847132528,-116.31163622289162
6.824,0.9999749866571747,-116.6244445538752
6.832,0.9999744008218369,-116.93692650185966
6.84,0.999973827378044,-117.24908329364679
6.848,0.9999732664857109,-117.5609161618202
6.856,0.9999727182940772,-117.87242634466322
6.864,0.9999721829419153,-118.18361508607758
6.872,0.9999716605577426,-118.49448363550302
6.88,0.9999711512600257,-118.80503324783729
6.888,0.9999706551573863,-119.1152651833573
6.896,0.9999701723488034,-119.42518070764088
6.904,0.999969702923814,-119.73478109148913
6.912,0.9999692469627125,-120.0440676108498
6.92,0.9999688045367455,-120.3530415467412
6.928,0.9999683757083078,-120.661704185177
6.936,0.9999679605311337,-120.97005681709174
6.944,0.9999675590504884,-121.27810073826707
6.952,0.9999671713033553,-121.58583724925862
6.96,0.9999667973186228,-121.89326765532387
6.968,0.9999664371172688,-122.20039326635057
6.976,0.9999660907125418,-122.5072153967859
6.984,0.999965758110143,-122.81373536556644
6.992,0.9999654393084019,-123.11995449604878
7.0,0.9999651342984547,-123.42587411594097
7.008,0.9999648430644171,-123.73149555723458
7.016,0.9999645655835565,-124.03682015613767
7.024,0.999964301826463,-124.34184925300805
7.032,0.9999640517572166,-124.64658419228785
7.04,0.9999638153335529,-124.95102632243838
7.048,0.9999635925070289,-125.2551769958758
7.056,0.9999633832231832,-125.55903756890753
7.064,0.9999631874216975,-125.86260940166939
7.072,0.9999630050365542,-126.16589385806341
7.08,0.9999628359961926,-126.46889230569623
7.088,0.9999626802236639,-126.77160611581839
7.096,0.9999625376367826,-127.07403666326417
7.104,0.9999624081482773,-127.37618532639216
7.112,0.9999622916659398,-127.67805348702656
7.12,0.99996218809277,-127.979642530399
7.128,0.9999620973271234,-128.28095384509132
7.136,0.9999620192628507,-128.58198882297856
7.144,0.999961953789441,-128.88274885917326
7.152,0.9999619007921599,-129.1832353519698
7.16,0.9999618601521869,-129.4834497027898
7.168,0.9999618317467506,-129.78339331612804
7.176,0.9999618154492619,-130.08306759949892
7.184,0.9999618111294465,-130.38247396338383
7.192,0.9999618186534731,-130.68161382117904
7.2,0.9999618378840839,-130.98048858914407
7.208,0.9999618686807176,-131.27909968635097
7.216,0.9999619108996372,-131.57744853463404
7.224,0.9999619643940493,-131.8755365585403
7.232,0.9999620290142278,-132.1733651852804
7.24,0.9999621046076309,-132.47093584468055
7.248,0.9999621910190197,-132.7682499691345
7.256,0.9999622880905734,-133.06530899355658
7.264,0.9999623956620025,-133.36211435533525
7.272,0.9999625135706626,-133.65866749428704
7.28,0.9999626416516632,-133.95496985261144
7.288,0.9999627797379772,-134.251022874846
7.296,0.9999629276605487,-134.54682800782246
7.304,0.9999630852483964,-134.84238670062302
7.312,0.9999632523287199,-135.13770040453753
7.32,0.9999634287270003,-135.43277057302103
7.328,0.9999636142671003,-135.72759866165214
7.336,0.9999638087713658,-136.0221861280916
7.344,0.9999640120607192,-136.31653443204186
7.352,0.9999642239547581,-136.6106450352069
7.36,0.9999644442718486,-136.90451940125257
7.368,0.9999646728292182,-137.19815899576793
7.376,0.999964909443046,-137.49156528622643
7.384,0.9999651539285519,-137.78473974194847
7.392,0.9999654061000873,-138.07768383406366
7.4,0.9999656657712178,-138.37039903547426
7.4079999999999995,0.9999659327548098,-138.66288682081876
7.416,0.9999662068631159,-138.9551486664364
7.4239999999999995,0.9999664879078527,-139.24718605033152
7.432,0.9999667757002856,-139.53900045213922
7.4399999999999995,0.9999670700513046,-139.830593353091
7.448,0.9999673707715039,-140.12196623598118
7.4559999999999995,0.9999676776712576,-140.4131205851335
7.464,0.9999679905607934,-140.7040578863689
7.4719999999999995,0.9999683092502678,-140.9947796269727
7.48,0.9999686335498372,-141.2852872956636
7.4879999999999995,0.9999689632697277,-141.57558238256183
7.496,0.9999692982203068,-141.86566637915905
7.504,0.9999696382121482,-142.1555407782876
7.5120000000000005,0.9999699830561006,-142.44520707409106
7.52,0.9999703325633529,-142.73466676199476
7.5280000000000005,0.9999706865454964,-143.02392133867724
7.536,0.99997104481459,-143.3129723020414
7.5440000000000005,0.9999714071832189,-143.60182115118724
7.552,0.9999717734645567,-143.89046938638367
7.5600000000000005,0.9999721434724236,-144.17891850904232
7.568,0.999972517021344,-144.46717002169015
7.5760000000000005,0.9999728939266023,-144.75522542794408
7.584,0.9999732740042993,-145.04308623248468
7.5920000000000005,0.9999736570714042,-145.33075394103145
7.6,0.9999740429458099,-145.6182300603175
7.6080000000000005,0.9999744314463823,-145.90551609806562
7.616,0.9999748223930118,-146.1926135629639
7.6240000000000006,0.9999752156066619,-146.47952396464254
7.632,0.9999756109094182,-146.76624881365018
7.640000000000001,0.9999760081245344,-147.0527896214318
7.648,0.9999764070764782,-147.3391479003058
7.656000000000001,0.9999768075909764,-147.6253251634424
7.664,0.999977209495058,-147.91132292484176
7.672,0.9999776126170977,-148.19714269931336
7.68,0.9999780167868563,-148.48278600245456
7.688,0.9999784218355208,-148.76825435063063
7.696,0.9999788275957446,-149.0535492609546
7.704,0.9999792339016863,-149.33867225126764
7.712,0.9999796405890448,-149.62362484011965
7.72,0.9999800474950973,-149.90840854675045
7.728,0.9999804544587342,-150.19302489107136
7.736,0.9999808613204925,-150.4774753936467
7.744,0.9999812679225903,-150.76176157567616
7.752,0.9999816741089578,-151.04588495897715
7.76,0.9999820797252696,-151.32984706596784
7.768,0.9999824846189744,-151.61364941965016
7.776,0.9999828886393248,-151.89729354359335
7.784,0.999983291637405,-152.18078096191797
7.792,0.9999836934661596,-152.4641131992799
7.8,0.9999840939804192,-152.7472917808549
7.808,0.9999844930369265,-153.03031823232348
7.816,0.9999848904943612,-153.313194079856
7.824,0.9999852862133646,-153.59592085009817
7.832,0.999985680056561,-153.87850007015672
7.84,0.9999860718885824,-154.16093326758568
7.848,0.9999864615760871,-154.44322197037246
7.856,0.9999868489877831,-154.7253677069248
7.864,0.9999872339944459,-155.00737200605752
7.872,0.9999876164689382,-155.28923639697993
7.88,0.9999879962862281,-155.57096240928328
7.888,0.9999883733234067,-155.85255157292855
7.896,0.9999887474597039,-156.13400541823472
7.904,0.9999891185765043,-156.41532547586692
7.912,0.9999894865573641,-156.69651327682533
7.92,0.9999898512880218,-156.9775703524338
7.928,0.9999902126564161,-157.25849823432927
7.936,0.9999905705526945,-157.53929845445117
7.944,0.9999909248692288,-157.8199725450309
7.952,0.9999912755006244,-158.10052203858214
7.96,0.9999916223437318,-158.38094846789073
7.968,0.9999919652976559,-158.66125336600524
7.976,0.9999923042637667,-158.94143826622772
7.984,0.9999926391457067,-159.22150470210445
7.992,0.9999929698493989,-159.50145420741728
8.0,0.9999932962830546,-159.7812883161749
8.008,0.9999936183571796,-160.06100856260443
8.016,0.9999939359845805,-160.34061648114354
8.024000000000001,0.99999424908037,-160.620113606432
8.032,0.9999945575619719,-160.8995014733044
8.04,0.9999948613491242,-161.1787816167825
8.048,0.9999951603638835,-161.457955572068
8.056000000000001,0.9999954545306282,-161.73702487453517
8.064,0.9999957437760596,-162.01599105972429
8.072,0.9999960280292052,-162.2948556633348
8.08,0.9999963072214186,-162.57362022121904
8.088000000000001,0.9999965812863807,-162.85228626937547
8.096,0.999996850160099,-163.13085534394298
8.104,0.9999971137809086,-163.40932898119488
8.112,0.9999973720894699,-163.68770871753313
8.120000000000001,0.9999976250287668,-163.96599608948273
8.128,0.999997872544106,-164.2441926336863
8.136,0.9999981145831132,-164.52229988689916
8.144,0.9999983510957293,-164.80031938598398
8.152000000000001,0.9999985820342092,-165.07825266790604
8.16,0.9999988073531159,-165.3561012697284
8.168,0.999999027009315,-165.63386672860756
8.176,0.9999992409619719,-165.91155058178902
8.184000000000001,0.9999994491725444,-166.18915436660285
8.192,0.9999996516047776,-166.4666796204597
8.2,0.9999998482246969,-166.7441278808471
8.208,0.9999999999999999,-167.02150068532532
8.216000000000001,0.9999999999999999,-167.2987995715239
8.224,1.0,-167.57602607713795
8.232,0.9999999999999999,-167.8531817399252
8.24,0.9999999999999999,-168.13026809770224
8.248000000000001,1.0,-168.4072866883417
8.256,0.9999999999999999,-168.6842390497691
8.264,0.9999999999999999,-168.9611267199601
8.272,1.0,-169.2379512369378
8.280000000000001,1.0,-169.5147141387698
8.288,0.9999999999999998,-169.79141696356592
8.296,1.0,-170.06806124947582
8.304,1.0,-170.34464853468663
8.312,0.9999999999999999,-170.6211803574205
8.32,1.0,-170.89765825593304
8.328,0.9999999999999999,-171.17408376851066
8.336,1.0000000000000002,-171.45045843346927
8.344,0.9999999999999999,-171.7267837891519
8.352,0.9999999999999999,-172.00306137392755
8.36,0.9999999999999999,-172.279292726189
8.368,1.0,-172.55547938435163
8.376,1.0,-172.83162288685168
8.384,1.0,-173.10772477214513
8.392,0.9999999999999999,-173.383786578706
8.4,1.0,-173.65980984502553
8.408,1.0,-173.93579610961046
8.416,1.0,-174.21174691098253
8.424,1.0,-174.48766378767672
8.432,1.0,-174.76354827824093
8.44,0.9999999999999999,-175.03940192123446
8.448,0.9999999999999999,-175.31522625522757
8.456,0.9999999999999999,-175.59102281880018
8.464,1.0,-175.8667931505416
8.472,0.9999999999999999,-176.14253878904924
8.48,0.9999999999999999,-176.4182612729284
8.488,1.0,-176.69396214079111
8.496,0.9999999999999999,-176.969642931256
8.504,1.0,-177.24530518294722
8.512,1.0,-177.5209504344943
8.52,0.9999999999999999,-177.79658022453114
8.528,1.0,-178.07219609169616
8.536,1.0,-178.34779957463095
8.544,0.9999999999999999,-178.62339221198056
8.552,0.9999999999999999,-178.89897554239263
8.56,1.0,-179.17455110451706
8.568,1.0,-179.45012043700547
8.576,1.0,-179.72568507851102
8.584,1.0,179.99875343231236
8.592,1.0,179.7231935568099
8.6,1.0,179.44763375632706
8.608,1.0,179.17207249220937
8.616,1.0,178.8965082258032
8.624,1.0,178.62093941845595
8.632,1.0,178.34536453151685
8.64,0.9999999999999999,178.06978202633698
8.648,0.9999999999999999,177.79419036427018
8.656,0.9999999999999999,177.51858800667318
8.664,1.0,177.2429734149065
8.672,1.0,176.96734505033447
8.68,1.0,176.69170137432658
8.688,1.0,176.41604084825727
8.696,0.9999999999999999,176.14036193350714
8.704,1.0,175.86466309146334
8.712,1.0,175.5889427835205
8.72,1.0,175.31319947108128
8.728,0.9999999999999999,175.0374316155574
8.736,0.9999999460962029,174.76163767837022
8.744,0.9999997809342097,174.48581612095197
8.752,0.9999996123722487,174.2099654047464
8.76,0.9999994404990707,173.93408399121014
8.768,0.9999992654044395,173.65817034181336
8.776,0.9999990871791068,173.3822229180413
8.784,0.9999989059147871,173.10624018139518
8.792,0.9999987217041336,172.83022059339382
8.8,0.999998534640712,172.55416261557443
8.808,0.999998344818976,172.27806470949469
8.815999999999999,0.9999981523342417,172.00192533673368
8.824,0.9999979572826624,171.72574295889376
8.832,0.999997759761203,171.4495160376022
8.84,0.9999975598676145,171.17324303451286
8.847999999999999,0.9999973577004091,170.89692241130797
8.856,0.9999971533588332,170.62055262970003
8.864,0.9999969469428435,170.34413215143402
8.872,0.9999967385530791,170.06765943828947
8.879999999999999,0.9999965282908382,169.7911329520823
8.888,0.9999963162580499,169.5145511546675
8.896,0.9999961025572497,169.23791250794156
8.904,0.9999958872915533,168.96121547384482
8.911999999999999,0.9999956705646306,168.68445851436408
8.92,0.999995452480679,168.4076400915354
8.928,0.9999952331443986,168.13075866744705
8.936,0.9999950126609656,167.8538127042425
8.943999999999999,0.9999947911360048,167.57680066412325
8.952,0.9999945686755662,167.2997210093523
8.96,0.9999943453860963,167.0225722022575
8.968,0.9999941213744137,166.745352705235
8.975999999999999,0.9999938967476811,166.4680609807528
8.984,0.9999936716133813,166.19069549135446
8.992,0.9999934460792889,165.9132546996633
9.0,0.9999932202534453,165.6357370683862
9.008,0.9999929942441319,165.35814106031762
9.016,0.9999927681598445,165.08046513834427
9.024000000000001,0.9999925421092668,164.8027077654495
9.032,0.9999923162012425,164.52486740471784
9.04,0.9999920905447522,164.24694251933985
9.048,0.9999918652488847,163.96893157261698
9.056000000000001,0.999991640422812,163.69083302796696
9.064,0.9999914161757627,163.41264534892883
9.072,0.999991192616995,163.13436699916852
9.08,0.9999909698557724,162.85599644248424
9.088000000000001,0.999990748001336,162.57753214281271
9.096,0.9999905271628794,162.29897256423496
9.104,0.9999903074495219,162.02031617098226
9.112,0.9999900889702823,161.74156142744263
9.120000000000001,0.9999898718340533,161.46270679816766
9.128,0.9999896561495766,161.18375074787883
9.136,0.9999894420254147,160.90469174147458
9.144,0.9999892295699263,160.62552824403744
9.152000000000001,0.9999890188912409,160.34625872084138
9.16,0.9999888100972322,160.06688163735942
9.168,0.9999886032954927,159.78739545927107
9.176,0.9999883985933069,159.5077986524704
9.184000000000001,0.9999881960976281,159.22808968307447
9.192,0.9999879959150509,158.94826701743136
9.2,0.9999877981517856,158.6683291221288
9.208,0.9999876029136336,158.38827446400305
9.216000000000001,0.9999874103059625,158.10810151014803
9.224,0.9999872204336787,157.8278087279245
9.232,0.9999870334012044,157.54739458496937
9.24,0.9999868493124515,157.2668575492057
9.248000000000001,0.9999866682707961,156.9861960888526
9.256,0.9999864903790543,156.70540867243554
9.264,0.9999863157394565,156.4244937687964
9.272,0.999986144453624,156.14344984710453
9.280000000000001,0.999985976622542,155.86227537686784
9.288,0.9999858123465369,155.5809688279436
9.296,0.9999856517252513,155.29952867055022
9.304,0.9999854948576187,155.0179533752787
9.312000000000001,0.9999853418418403,154.73624141310495
9.32,0.9999851927753598,154.454391255402
9.328,0.9999850477548401,154.17240137395217
9.336,0.9999849068761387,153.8902702409602
9.344,0.9999847702342838,153.6079963290665
9.352,0.999984637923451,153.32557811135996
9.36,0.9999845100369391,153.04301406139223
9.368,0.9999843866671463,152.76030265319108
9.376,0.9999842679055481,152.4774423612752
9.384,0.999984153842672,152.19443166066816
9.392,0.9999840445680762,151.91126902691377
9.4,0.9999839401703255,151.6279529360907
9.408,0.9999838407369687,151.3444818648284
9.416,0.9999837463545151,151.06085429032234
9.424,0.999983657108414,150.77706869035055
9.432,0.9999835730830285,150.49312354328956
9.44,0.9999834943616182,150.20901732813144
9.448,0.999983421026312,149.92474852450047
9.456,0.9999833531580888,149.64031561267083
9.464,0.9999832908367555,149.3557170735839
9.472,0.9999832341409246,149.07095138886658
9.48,0.9999831831479932,148.78601704084926
9.488,0.9999831379341206,148.50091251258505
9.496,0.9999830985742088,148.21563628786802
9.504,0.9999830651418795,147.93018685125332
9.512,0.9999830377094546,147.64456268807632
9.52,0.9999830163479351,147.35876228447313
9.528,0.99998300112698,147.07278412740052
9.536,0.9999829921148874,146.78662670465727
9.544,0.9999829893785721,146.50028850490474
9.552,0.9999829929835483,146.21376801768892
9.56,0.9999830029939079,145.92706373346184
9.568,0.9999830194723011,145.64017414360427
9.576,0.9999830424799174,145.35309774044788
9.584,0.9999830720764675,145.06583301729884
9.592,0.9999831083201622,144.77837846846057
9.6,0.9999831512676953,144.49073258925816
9.608,0.9999832009742238,144.20289387606203
9.616,0.9999832574933506,143.91486082631303
9.624,0.9999833208771058,143.62663193854684
9.632,0.9999833911759293,143.33820571241998
9.64,0.9999834684386525,143.049580648735
9.648,0.9999835527124812,142.76075524946728
9.656,0.9999836440429785,142.47172801779107
9.664,0.9999837424740471,142.18249745810712
9.672,0.9999838480479135,141.89306207606947
9.68,0.9999839608051112,141.6034203786141
9.688,0.9999840807844638,141.31357087398655
9.696,0.9999842080230702,141.02351207177114
9.704,0.9999843425562878,140.73324248291982
9.712,0.9999844844177168,140.44276061978215
9.72,0.9999846336391864,140.15206499613498
9.728,0.999984790250738,139.86115412721333
