freq,mag,phase
6.0,0.9999944936219862,-34.58189097549311
6.008,0.999995284921127,-34.90267597242817
6.016,0.9999960397209436,-35.223322216318095
6.024,0.9999967588426998,-35.54382859227787
6.032,0.999997443096917,-35.86419399225641
6.04,0.999998093283434,-36.18441731506884
6.048,0.9999987101914665,-36.50449746642813
6.056,0.9999992945996671,-36.82443335897611
6.064,0.9999998472761873,-37.14422391231403
6.072,1.0,-37.46386805303243
6.08,0.9999999999999999,-37.78336471474038
6.088,1.0,-38.10271283809441
6.096,0.9999999999999999,-38.42191137082651
6.104,0.9999999999999999,-38.74095926777181
6.112,1.0,-39.05985549089551
6.12,1.0,-39.37859900931935
6.128,1.0,-39.69718879934744
6.136,1.0,-40.015623844491536
6.144,0.9999999999999999,-40.33390313549568
6.152,1.0,-40.65202567036039
6.16,0.9999999999999999,-40.96999045436605
6.168,1.0,-41.28779650009594
6.176,1.0,-41.60544282745868
6.184,1.0,-41.92292846370984
6.192,1.0,-42.24025244347328
6.2,1.0,-42.55741380876181
6.208,0.9999999999999998,-42.87441160899717
6.216,1.0,-43.19124490102957
6.224,1.0,-43.507912749156624
6.232,1.0,-43.82441422514168
6.24,0.9999999999999999,-44.1407484082316
6.248,1.0,-44.456914385174024
6.256,0.9999999999999999,-44.77291125023397
6.264,1.0,-45.088738105209856
6.272,1.0,-45.40439405944921
6.28,1.0,-45.71987822986348
6.288,1.0,-46.035189740942435
6.296,0.9999999999999999,-46.35032772476809
6.304,1.0,-46.665291321027894
6.312,1.0,-46.980079677027554
6.32,1.0,-47.294691947703186
6.328,0.9999999999999999,-47.60912729563291
6.336,0.9999999999999999,-47.92338489104794
6.344,1.0,-48.23746391184321
6.352,0.9999999999999998,-48.5513635435872
6.36,1.0,-48.865082979531564
6.368,0.9999999999999999,-49.17862142061992
6.376,0.9999999999999999,-49.49197807549632
6.384,1.0,-49.80515216051297
6.392,1.0,-50.11814289973768
6.4,0.9999999999999999,-50.430949524960596
6.408,1.0,-50.74357127570042
6.416,0.9999999999999999,-51.05600739921018
6.424,1.0,-51.36825715048248
6.432,1.0,-51.68031979225412
6.44,1.0,-51.99219459501034
6.448,0.9999999999999999,-52.30388083698849
6.456,1.0,-52.61537780418117
6.464,0.9999999999999999,-52.926684790338925
6.472,1.0,-53.237801096972284
6.48,0.9999999999999999,-53.548726033353624
6.4879999999999995,1.0,-53.859458916518165
6.496,1.0,-54.16999907126472
6.504,0.999999727284441,-54.480345830155784
6.5120000000000005,0.9999994351491034,-54.79049853351737
6.52,0.999999139897728,-55.10045652943804
6.5280000000000005,0.9999988418069194,-55.41021917376789
6.536,0.9999985411469469,-55.719785830116415
6.5440000000000005,0.9999982381818165,-56.02915586985082
6.552,0.9999979331693463,-56.33832867209274
6.5600000000000005,0.9999976263612353,-56.64730362371568
6.568,0.9999973180031388,-56.95608011934085
6.5760000000000005,0.9999970083347391,-57.26465756133358
6.584,0.999996697589818,-57.573035359798375
6.592,0.9999963859963277,-57.88121293257434
6.6,0.9999960737764642,-58.189189705229396
6.608,0.9999957611467366,-58.496965111054664
6.616,0.99999544831804,-58.804538591058
6.624,0.9999951354957253,-59.11190959395737
6.632,0.9999948228796705,-59.419077576173635
6.64,0.9999945106643512,-59.72604200182294
6.648,0.9999941990389106,-60.03280234270869
6.656,0.9999938881872293,-60.33935807831311
6.664,0.9999935782879956,-60.645708695788414
6.672,0.9999932695147745,-60.9518536899475
6.68,0.9999929620360772,-61.25779256325428
6.688,0.9999926560154295,-61.563524825813595
6.696,0.9999923516114407,-61.869049995360754
6.704,0.9999920489778727,-62.174367597250615
6.712,0.9999917482637055,-62.479477164446344
6.72,0.9999914496132081,-62.78437823750775
6.728,0.9999911531660036,-63.089070364579264
6.736,0.9999908590571372,-63.393553101377435
6.744,0.9999905674171424,-63.697826011178265
6.752,0.9999902783721083,-64.00188866480393
6.76,0.999989992043744,-64.30574064060929
6.768,0.9999897085494457,-64.60938152446802
6.776,0.999989428002362,-64.91281090975828
6.784,0.9999891505114579,-65.21602839734823
6.792,0.9999888761815802,-65.51903359558086
6.8,0.9999886051135211,-65.82182612025898
6.808,0.9999883374040832,-66.12440559462925
6.816,0.9999880731461416,-66.42677164936647
6.824,0.9999878124287077,-66.72892392255713
6.832,0.9999875553369918,-67.03086205968272
6.84,0.9999873019524659,-67.3325857136029
6.848,0.9999870523529242,-67.63409454453807
6.856,0.9999868066125465,-67.93538822005189
6.864,0.9999865648019577,-68.23646641503323
6.872,0.9999863269882897,-68.53732881167808
6.88,0.9999860932352401,-68.83797509947091
6.888,0.9999858636031344,-69.13840497516587
6.896,0.9999856381489826,-69.43861814276777
6.904,0.9999854169265409,-69.73861431351244
6.912,0.9999851999863683,-70.03839320584731
6.92,0.9999849873758858,-70.33795454541126
6.928,0.9999847791394334,-70.63729806501432
6.936,0.9999845753183283,-70.93642350461731
6.944,0.9999843759509204,-71.23533061131087
6.952,0.9999841810726501,-71.53401913929453
6.96,0.999983990716103,-71.83248884985528
6.968,0.999983804911066,-72.13073951134605
6.976,0.9999836236845824,-72.42877089916385
6.984,0.9999834470610058,-72.7265827957277
6.992,0.9999832750620552,-73.02417499045629
7.0,0.9999831077068672,-73.32154727974549
7.008,0.999982945012051,-73.61869946694539
7.016,0.9999827869917391,-73.91563136233741
7.024,0.9999826336576416,-74.21234278311104
7.032,0.9999824850190955,-74.50883355334024
7.04,0.9999823410831191,-74.8051035039599
7.048,0.99998220185446,-75.10115247274176
7.056,0.9999820673356464,-75.39698030427043
7.064,0.9999819375270377,-75.692586849919
7.072,0.9999818124268731,-75.98797196782448
7.08,0.9999816920313206,-76.2831355228631
7.088,0.9999815763345254,-76.57807738662542
7.096,0.9999814653286583,-76.87279743739116
7.104,0.9999813590039627,-77.16729556010388
7.112,0.9999812573488012,-77.4615716463456
7.12,0.9999811603497039,-77.75562559431101
7.128,0.9999810679914118,-78.0494573087818
7.136,0.9999809802569244,-78.34306670110041
7.144,0.9999808971275436,-78.63645368914415
7.152,0.9999808185829191,-78.92961819729865
7.16,0.9999807446010917,-79.22256015643143
7.168,0.9999806751585373,-79.51527950386529
7.176,0.9999806102302105,-79.80777618335152
7.184,0.9999805497895853,-80.10005014504284
7.192,0.9999804938087005,-80.39210134546649
7.2,0.9999804422581977,-80.68392974749686
7.208,0.999980395107365,-80.9755353203282
7.216,0.999980352324177,-81.2669180394471
7.224,0.9999803138753344,-81.55807788660489
7.232,0.9999802797263048,-81.84901484978988
7.24,0.9999802498413607,-82.13972892319948
7.248,0.9999802241836194,-82.43022010721226
7.256,0.9999802027150803,-82.72048840835986
7.264,0.9999801853966631,-83.01053383929863
7.272,0.999980172188246,-83.3003564187816
7.28,0.9999801630487002,-83.5899561716298
7.288,0.9999801579359288,-83.87933312870385
7.296,0.9999801568069003,-84.16848732687541
7.304,0.9999801596176873,-84.45741880899838
7.312,0.9999801663234973,-84.74612762388017
7.32,0.9999801768787102,-85.03461382625277
7.328,0.9999801912369113,-85.32287747674384
7.336,0.9999802093509239,-85.61091864184766
7.344,0.9999802311728446,-85.89873739389603
7.352,0.9999802566540732,-86.18633381102902
7.36,0.9999802857453468,-86.47370797716582
7.368,0.99998031839677,-86.76085998197533
7.376,0.9999803545578477,-87.04778992084682
7.384,0.9999803941775143,-87.33449789486055
7.392,0.9999804372041645,-87.6209840107581
7.4,0.9999804835856833,-87.907248380913
7.4079999999999995,0.9999805332694748,-88.19329112330105
7.416,0.9999805862024924,-88.4791123614708
7.4239999999999995,0.9999806423312653,-88.76471222451347
7.432,0.9999807016019275,-89.05009084703389
7.4399999999999995,0.9999807639602459,-89.3352483691199
7.448,0.9999808293516466,-89.62018493631344
7.4559999999999995,0.9999808977212417,-89.90490069957991
7.464,0.9999809690138555,-90.18939581527896
7.4719999999999995,0.9999810431740501,-90.47367044513402
7.48,0.9999811201461518,-90.757724756203
7.4879999999999995,0.9999811998742743,-91.04155892084775
7.496,0.9999812823023448,-91.32517311670465
7.504,0.9999813673741268,-91.60856752665417
7.5120000000000005,0.9999814550332446,-91.89174233879136
7.52,0.9999815452232055,-92.17469774639541
7.5280000000000005,0.9999816378874243,-92.45743394790013
7.536,0.9999817329692434,-92.73995114686343
7.5440000000000005,0.9999818304119569,-93.02224955193788
7.552,0.9999819301588305,-93.30432937684016
7.5600000000000005,0.9999820321531233,-93.58619084032166
7.568,0.9999821363381094,-93.86783416613785
7.5760000000000005,0.9999822426570961,-94.14925958301895
7.584,0.9999823510534457,-94.43046732463938
7.5920000000000005,0.9999824614705941,-94.71145762958835
7.6,0.9999825738520703,-94.99223074133938
7.6080000000000005,0.999982688141515,-95.27278690822095
7.616,0.9999828042826985,-95.55312638338602
7.6240000000000006,0.9999829222195399,-95.83324942478274
7.632,0.9999830418961226,-96.11315629512406
7.640000000000001,0.9999831632567141,-96.39284726185842
7.648,0.9999832862457805,-96.67232259713944
7.656000000000001,0.9999834108080037,-96.95158257779673
7.664,0.9999835368882982,-97.23062748530555
7.672,0.999983664431826,-97.50945760575769
7.68,0.9999837933840117,-97.78807322983145
7.688,0.9999839236905584,-98.06647465276221
7.696,0.9999840552974615,-98.34466217431275
7.704,0.9999841881510236,-98.62263609874383
7.712,0.999984322197867,-98.90039673478462
7.72,0.9999844573849498,-99.1779443956034
7.728,0.9999845936595758,-99.45527939877807
7.736,0.9999847309694101,-99.73240206626684
7.744,0.999984869262491,-100.00931272437901
7.752,0.9999850084872409,-100.28601170374576
7.76,0.9999851485924794,-100.56249933929088
7.768,0.9999852895274342,-100.83877597020187
7.776,0.9999854312417527,-101.11484193990069
7.784,0.9999855736855128,-101.39069759601497
7.792,0.9999857168092331,-101.666343290349
7.8,0.9999858605638832,-101.94177937885487
7.808,0.9999860049008938,-102.21700622160384
7.816,0.9999861497721666,-102.49202418275743
7.824,0.9999862951300826,-102.76683363053897
7.832,0.999986440927512,-103.04143493720494
7.84,0.9999865871178223,-103.31582847901652
7.848,0.9999867336548873,-103.59001463621117
7.856,0.9999868804930946,-103.8639937929743
7.864,0.9999870275873532,-104.13776633741102
7.872,0.9999871748931021,-104.411332661518
7.88,0.9999873223663166,-104.68469316115531
7.888,0.999987469963515,-104.95784823601845
7.896,0.9999876176417666,-105.23079828961046
7.904,0.9999877653586959,-105.50354372921402
7.912,0.9999879130724915,-105.77608496586372
7.92,0.9999880607419094,-106.04842241431844
7.928,0.9999882083262797,-106.32055649303372
7.936,0.9999883557855124,-106.59248762413431
7.944,0.9999885030801011,-106.86421623338673
7.952,0.9999886501711296,-107.1357427501721
7.96,0.9999887970202742,-107.40706760745876
7.968,0.9999889435898104,-107.6781912417753
7.976,0.9999890898426149,-107.94911409318348
7.984,0.9999892357421706,-108.21983660525134
7.992,0.9999893812525698,-108.49035922502641
8.0,0.9999895263385176,-108.76068240300891
8.008,0.9999896709653351,-109.0308065931252
8.016,0.9999898150989618,-109.3007322527014
8.024000000000001,0.9999899587059587,-109.57045984243658
8.032,0.9999901017535112,-109.83998982637685
8.04,0.9999902442094292,-110.10932267188903
8.048,0.9999903860421517,-110.37845884963457
8.056000000000001,0.9999905272207477,-110.64739883354342
8.064,0.9999906677149164,-110.91614310078822
8.072,0.9999908074949903,-111.18469213175868
8.08,0.9999909465319351,-111.45304641003584
8.088000000000001,0.9999910847973519,-111.72120642236621
8.096,0.9999912222634765,-111.98917265863668
8.104,0.999991358903181,-112.25694561184913
8.112,0.999991494689974,-112.52452577809517
8.120000000000001,0.9999916295979998,-112.79191365653084
8.128,0.9999917636020399,-113.05910974935179
8.136,0.9999918966775114,-113.32611456176848
8.144,0.9999920288004678,-113.59292860198126
8.152000000000001,0.9999921599475969,-113.85955238115567
8.16,0.9999922900962221,-114.12598641339792
8.168,0.999992419224299,-114.3922312157307
8.176,0.9999925473104171,-114.6582873080686
8.184000000000001,0.9999926743337961,-114.92415521319387
8.192,0.9999928002742855,-115.18983545673255
8.2,0.999992925112363,-115.45532856713048
8.208,0.9999930488291338,-115.72063507562943
8.216000000000001,0.9999931714063259,-115.9857555162432
8.224,0.9999932928262911,-116.25069042573422
8.232,0.999993413072001,-116.51544034359014
8.24,0.9999935321270448,-116.7800058120003
8.248000000000001,0.9999936499756277,-117.04438737583247
8.256,0.9999937666025678,-117.30858558260977
8.264,0.9999938819932925,-117.57260098248781
8.272,0.9999939961338371,-117.83643412823174
8.280000000000001,0.9999941090108408,-118.1000855751933
8.288,0.9999942206115434,-118.36355588128838
8.296,0.9999943309237829,-118.62684560697448
8.304,0.9999944399359909,-118.88995531522848
8.312,0.9999945476371901,-119.1528855715239
8.32,0.9999946540169901,-119.41563694380937
8.328,0.9999947590655835,-119.67821000248603
8.336,0.9999948627737426,-119.9406053203862
8.344,0.9999949651328146,-120.20282347275104
8.352,0.9999950661347183,-120.46486503720939
8.36,0.9999951657719394,-120.72673059375596
8.368,0.9999952640375258,-120.98842072473006
8.376,0.9999953609250838,-121.24993601479423
8.384,0.9999954564287739,-121.51127705091324
8.392,0.9999955505433048,-121.77244442233275
8.4,0.9999956432639303,-122.03343872055896
8.408,0.9999957345864428,-122.29426053933719
8.416,0.99999582450717,-122.55491047463182
8.424,0.9999959130229689,-122.81538912460526
8.432,0.9999960001312208,-123.07569708959794
8.44,0.999996085829827,-123.33583497210776
8.448,0.9999961701172019,-123.59580337677023
8.456,0.9999962529922694,-123.85560291033802
8.464,0.9999963344544565,-124.11523418166163
8.472,0.9999964145036877,-124.37469780166896
8.48,0.9999964931403804,-124.63399438334633
8.488,0.9999965703654383,-124.89312454171831
8.496,0.999996646180246,-125.1520888938289
8.504,0.9999967205866641,-125.41088805872178
8.512,0.9999967935870214,-125.66952265742158
8.52,0.9999968651841109,-125.9279933129144
8.528,0.9999969353811838,-126.18630065012935
8.536,0.9999970041819415,-126.44444529591944
8.544,0.999997071590532,-126.70242787904317
8.552,0.9999971376115422,-126.96024903014572
8.56,0.9999972022499926,-127.21790938174088
8.568,0.9999972655113306,-127.47540956819248
8.576,0.9999973274014242,-127.73275022569646
8.584,0.9999973879265565,-127.98993199226251
8.592,0.999997447093418,-128.2469555076967
8.6,0.9999975049091012,-128.50382141358295
8.608,0.9999975613810943,-128.76053035326615
8.616,0.9999976165172741,-129.01708297183393
8.624,0.9999976703258993,-129.27347991609977
8.632,0.9999977228156053,-129.52972183458533
8.64,0.9999977739953959,-129.78580937750345
8.648,0.9999978238746382,-130.04174319674098
8.656,0.9999978724630552,-130.29752394584213
8.664,0.9999979197707186,-130.55315227999108
8.672,0.9999979658080436,-130.808628855996
8.68,0.9999980105857809,-131.06395433227183
8.688,0.9999980541150106,-131.31912936882432
8.696,0.9999980964071354,-131.57415462723327
8.704,0.9999981374738733,-131.82903077063673
8.712,0.9999981773272516,-132.0837584637145
8.72,0.9999982159795994,-132.33833837267252
8.728,0.9999982534435413,-132.59277116522665
8.736,0.9999982897319906,-132.84705751058726
8.744,0.9999983248581413,-133.1011980794433
8.752,0.9999983588354635,-133.35519354394714
8.76,0.9999983916776943,-133.60904457769868
8.768,0.9999984233988316,-133.86275185573072
8.776,0.9999984540131281,-134.11631605449313
8.784,0.999998483535084,-134.36973785183832
8.792,0.9999985119794393,-134.623017927006
8.8,0.9999985393611676,-134.8761569606086
8.808,0.9999985656954689,-135.12915563461624
8.815999999999999,0.999998590997764,-135.38201463234256
8.824,0.9999986152836854,-135.63473463843002
8.832,0.9999986385690726,-135.88731633883535
8.84,0.9999986608699634,-136.13976042081566
8.847999999999999,0.9999986822025885,-136.39206757291413
8.856,0.999998702583364,-136.64423848494604
8.864,0.9999987220288841,-136.89627384798473
8.872,0.9999987405559154,-137.1481743543479
8.879999999999999,0.9999987581813892,-137.39994069758401
8.888,0.999998774922395,-137.65157357245852
8.896,0.9999987907961736,-137.90307367494046
8.904,0.9999988058201105,-138.15444170218905
8.911999999999999,0.999998820011729,-138.4056783525407
8.92,0.9999988333886838,-138.65678432549547
8.928,0.9999988459687534,-138.90776032170427
8.936,0.9999988577698345,-139.15860704295582
8.943999999999999,0.9999988688099345,-139.40932519216392
8.952,0.9999988791071653,-139.6599154733547
8.96,0.9999988886797369,-139.91037859165394
8.968,0.9999988975459501,-140.16071525327456
8.975999999999999,0.9999989057241896,-140.41092616550432
8.984,0.9999989132329197,-140.66101203669353
8.992,0.9999989200906745,-140.91097357624258
9.0,0.9999989263160541,-141.16081149459012
9.008,0.9999989319277168,-141.41052650320097
9.016,0.9999989369443733,-141.6601193145544
9.024000000000001,0.9999989413847792,-141.90959064213192
9.032,0.9999989452677306,-142.15894120040585
9.04,0.9999989486120556,-142.40817170482794
9.048,0.9999989514366093,-142.65728287181753
9.056000000000001,0.9999989537602672,-142.90627541875023
9.064,0.9999989556019189,-143.15515006394665
9.072,0.9999989569804623,-143.4039075266614
9.08,0.9999989579147962,-143.65254852707181
9.088000000000001,0.9999989584238168,-143.90107378626675
9.096,0.9999989585264083,-144.1494840262359
9.104,0.9999989582414395,-144.39777996985924
9.112,0.9999989575877561,-144.64596234089575
9.120000000000001,0.9999989565841761,-144.89403186397323
9.128,0.999998955249483,-145.14198926457746
9.136,0.9999989536024201,-145.38983526904207
9.144,0.9999989516616844,-145.63757060453807
9.152000000000001,0.9999989494459225,-145.88519599906343
9.16,0.999998946973722,-146.1327121814331
9.168,0.9999989442636079,-146.38011988126897
9.176,0.999998941334037,-146.62741982898987
9.184000000000001,0.9999989382033911,-146.87461275580148
9.192,0.9999989348899725,-147.12169939368675
9.2,0.9999989314119976,-147.36868047539616
9.208,0.9999989277875925,-147.61555673443812
9.216000000000001,0.9999989240347871,-147.8623289050692
9.224,0.999998920171509,-148.10899772228493
9.232,0.9999989162155802,-148.35556392181041
9.24,0.9999989121847096,-148.602028240091
9.248000000000001,0.9999989080964891,-148.84839141428296
9.256,0.9999989039683884,-149.09465418224454
9.264,0.9999988998177499,-149.34081728252693
9.272,0.9999988956617826,-149.58688145436537
9.280000000000001,0.9999988915175593,-149.83284743767004
9.288,0.9999988874020099,-150.0787159730174
9.296,0.999998883331917,-150.32448780164177
9.304,0.9999988793239111,-150.57016366542638
9.312000000000001,0.9999988753944664,-150.81574430689477
9.32,0.9999988715598953,-151.06123046920263
9.328,0.9999988678363446,-151.30662289612923
9.336,0.99999886423979,-151.55192233206927
9.344,0.9999988607860324,-151.79712952202436
9.352,0.999998857490693,-152.04224521159526
9.36,0.9999988543692094,-152.28727014697336
9.368,0.9999988514368308,-152.53220507493324
9.376,0.9999988487086133,-152.77705074282417
9.384,0.9999988461994171,-153.02180789856268
9.392,0.9999988439239016,-153.26647729062455
9.4,0.9999988418965207,-153.51105966803726
9.408,0.9999988401315195,-153.75555578037225
9.416,0.99999883864293,-153.99996637773745
9.424,0.9999988374445684,-154.2442922107697
9.432,0.9999988365500292,-154.48853403062742
9.44,0.9999988359726827,-154.73269258898318
9.448,0.9999988357256722,-154.9767686380166
9.456,0.9999988358219078,-155.22076293040683
9.464,0.9999988362740654,-155.4646762193258
9.472,0.9999988370945814,-155.70850925843067
9.48,0.9999988382956504,-155.95226280185742
9.488,0.9999988398892218,-156.19593760421324
9.496,0.9999988418869955,-156.43953442057037
9.504,0.9999988443004196,-156.6830540064585
9.512,0.9999988471406864,-156.92649711785884
9.52,0.9999988504187308,-157.1698645111967
9.528,0.9999988541452254,-157.41315694333548
9.536,0.9999988583305787,-157.65637517156964
9.544,0.9999988629849321,-157.89951995361855
9.552,0.9999988681181566,-158.14259204761973
9.56,0.9999988737398503,-158.38559221212287
9.568,0.9999988798593359,-158.6285212060831
9.576,0.9999988864856578,-158.87137978885505
9.584,0.9999988936275795,-159.11416872018648
9.592,0.9999989012935813,-159.35688876021223
9.6,0.9999989094918581,-159.599540669448
