freq,mag,phase
6.0,1.000281020305697,-167.21730306743538
6.002573312,1.0003502170672698,-167.3887296607895
6.005146112,1.0003980438201618,-167.5609836610992
6.007719424,1.0004207929435756,-167.7337554619059
6.010292736,1.0004171948501748,-167.9067043250228
6.012866048,1.0003873566764223,-168.07939460223955
6.015438848,1.0003330624752578,-168.25150662606194
6.01801216,1.0002578930134127,-168.42264017073148
6.020585472,1.0001663058587194,-168.5926028349326
6.023158784,1.0000643075709057,-168.76116133274
6.025731584,0.9999581142217593,-168.92823407766997
6.028304896,0.9998544653985827,-169.09379155406322
6.030878208,0.9997597768616672,-169.25787792746195
6.03345152,0.9996802331362357,-169.42071909210685
6.03602432,0.9996205865594769,-169.58260131848823
6.038597632,0.9995847457355372,-169.74374821800626
6.041170944,0.9995748771630834,-169.90456660829858
6.043743744,0.9995917172409567,-170.0654415833358
6.046317056,0.9996342403786247,-170.22674564036524
6.048890368,0.9996996214481109,-170.38885182633965
6.05146368,0.9997840274026418,-170.55202928423446
6.05403648,0.9998818164553399,-170.71650433564136
6.056609792,0.9999871406216643,-170.8824682108275
6.059183104,1.0000931519678615,-171.04998985894713
6.061756416,1.0001934333268203,-171.21898929934736
6.064329216,1.0002816380899073,-171.38935896513578
6.066902528,1.0003520632487632,-171.56087893881286
6.06947584,1.000400376044786,-171.73325038265494
6.07204864,1.000423546249627,-171.90616122348882
6.074621952,1.000420099778342,-172.07920343565073
6.077195264,1.0003903108533232,-172.2520076462838
6.079768576,1.000335774732357,-172.42422266166554
6.082341376,1.000260242787627,-172.59549284759262
6.084914688,1.0001682257838942,-172.76554413058193
6.087488,1.0000654575418115,-172.93420152869095
6.090061312,0.9999585297576759,-173.1013463320546
6.092634112,0.999854080997506,-173.26696706569516
6.095207424,0.9997588029241582,-173.43114053899498
6.097780736,0.9996784599885714,-173.59402333732305
6.100354048,0.9996182657949362,-173.75591721382543
6.102926848,0.9995818553891674,-173.91709991344402
6.10550016,0.9995718036570129,-174.07793389634946
6.108073472,0.999588640682064,-174.238859622883
6.110646272,0.9996311143633386,-174.4001847976194
6.113219584,0.99969685337133,-174.5622800223398
6.115792896,0.9997815406863575,-174.72547098033408
6.118366208,0.9998799769332031,-174.89000395645576
6.120939008,0.9999859075085599,-175.05602959749046
6.12351232,1.000092879465728,-175.22357429849717
6.126085632,1.0001939093922712,-175.3926265063237
6.128658944,1.0002828548627833,-175.56308821600382
6.131231744,1.0003539441120755,-175.7346586487775
6.133805056,1.0004027317659014,-175.9071256717078
6.136378368,1.0004263937238875,-176.0801364274456
6.13895168,1.0004230987587537,-176.25329417021467
6.14152448,1.0003932747998026,-176.42618965025636
6.144097792,1.0003387898093972,-176.5984945646098
6.146671104,1.000262716369394,-176.7698576454516
6.149243904,1.0001701357373263,-176.93999598200327
6.151817216,1.0000668096693233,-177.10873213702956
6.154390528,0.9999591199531147,-177.27595706873882
6.15696384,0.9998539850298531,-177.44160743919863
6.15953664,0.999757814289173,-177.60580741283772
6.162109952,0.9996768127135461,-177.76875401651256
6.164683264,0.999615966582056,-177.93065181474478
6.167256576,0.9995792117038388,-178.09183775445436
6.169829376,0.9995687327237874,-178.25270245141388
6.172402688,0.9995853847169095,-178.41358614356182
6.174976,0.9996280197611347,-178.57492912712962
6.1775488,0.9996939616055468,-178.73703422900718
6.180122112,0.9997792079864378,-178.90025450687565
6.182695424,0.999878204482546,-179.06478847477646
6.185268736,0.9999849674315147,-179.23081516952675
6.187841536,1.0000925582469613,-179.39841104297216
6.190414848,1.0001944319857943,-179.567523112548
6.19298816,1.0002840434905038,-179.73799824095258
6.195561472,1.0003558913891224,-179.90965015164946
6.198134272,1.0004052679446993,179.9178119230046
6.200707584,1.0004293067294703,179.74473839971827
6.203280896,1.000426253051603,179.57152082853267
6.205854208,1.000396537443506,179.3985269560571
6.208427008,1.0003416957925126,179.2261577763202
6.21100032,1.0002654735830467,179.05471179753968
6.213573632,1.0001723844567145,178.88449984462642
6.216146432,1.000068362172719,178.715698600909
6.218719744,0.999959923722357,178.54843774206725
6.221293056,0.9998539134689526,178.38274133010674
6.223866368,0.9997569287294449,178.21853840044997
6.226439168,0.9996751483294517,178.055590239243
6.22901248,0.9996136553309797,177.89368058374265
6.231585792,0.9995764010156576,177.73248565840265
6.234159104,0.9995656405497635,177.57164554763796
6.236731904,0.9995821758195957,177.41076850273316
6.239305216,0.9996249109183983,177.24947113878073
6.241878528,0.9996911446975654,177.08738167817268
6.24445184,0.9997768269855908,176.9241813957824
6.24702464,0.9998764404160655,176.75965020042943
6.249597952,0.9999839284898405,176.5936110647988
6.252171264,1.0000921811718344,176.42600828821833
6.254744064,1.0001949830590295,176.25689952324865
6.257317376,1.0002853299933614,176.08639021133558
6.259890688,1.0003578079442192,175.91467916816325
6.262464,1.0004078089297546,175.7420915024396
6.2650368,1.0004321861283072,175.5689672286155
6.267610112,1.0004294161976284,175.39567108729204
6.270183424,1.0003995374028316,175.2226314860002
6.272756736,1.000344646263604,175.05020019551685
6.275329536,1.000267958485927,174.8786938753354
6.277902848,1.000174301047136,174.708430243536
6.28047616,1.0000695319377464,174.53961139087227
6.28304896,0.9999605033251264,174.37232934953187
6.285622272,0.999853577340433,174.20660949926594
6.288195584,0.9997558005930164,174.04236715103778
6.290768896,0.9996733583231617,173.8794481065989
6.293341696,0.9996111133984553,173.7175646764267
6.295915008,0.9995735436724466,173.5563833361365
6.29848832,0.9995624198714639,173.39560996337977
6.301061632,0.9995787687789566,173.2347594168397
6.303634432,0.999621573560588,173.0735070179467
6.306207744,0.999688120292974,172.91145387293574
6.308781056,0.9997742395489695,172.74829592535457
6.311354368,0.9998744788441565,172.58378974853528
6.313927168,0.999982671271206,172.4177851518288
6.31650048,1.0000919477676011,172.25018423615865
6.319073792,1.0001954015715813,172.08105810438133
6.321646592,1.000286613628156,171.91051418386786
6.324219904,1.0003598152183868,171.73879456959756
6.326793216,1.000410404125646,171.56617937517552
6.329366528,1.0004352855407417,171.39301410664845
6.331939328,1.0004326500829572,171.21967468772698
6.33451264,1.0004028505187146,171.04657581683222
6.337085952,1.0003477210734855,170.87411062918017
6.339659264,1.0002706321112353,170.70259288266945
6.342232064,1.0001764579584247,170.53227686840663
6.344805376,1.000071067776829,170.36343412032772
6.347378688,0.9999611427023132,170.19615318248174
6.349952,0.9998534194609942,170.03042480126888
6.3525248,0.9997548879764774,169.8662225317241
6.355098112,0.9996716841292624,169.70331851333788
6.357671424,0.9996087791524448,169.54146987850308
6.360244224,0.9995705907747157,169.38036172393987
6.362817536,0.9995591184849149,169.2196069797688
6.365390848,0.9995753789807006,169.05882807606713
6.36796416,0.9996183710889485,168.89763851284118
6.37053696,0.9996851571697066,168.7356361115236
6.373110272,0.9997716700821381,168.5725188347208
6.375683584,0.9998726337665229,168.40808230687642
6.378256896,0.999981595569038,168.2420859700901
6.380829696,1.0000915622079773,168.07452836444435
6.383403008,1.0001959535439486,167.90542404385596
6.38597632,1.000287920402181,167.73490193650133
6.38854912,1.00036189338748,167.56315937082414
6.391122432,1.0004130382248066,167.39053507456603
6.393695744,1.000438250478139,167.2173569465855
6.396269056,1.000435988802945,167.0439703170071
6.398841856,1.0004062223626309,166.87085620898642
6.401415168,1.0003508265291021,166.69836502637088
6.40398848,1.0002734815563934,166.52680948072992
6.406561792,1.0001786773137116,166.35651546978312
6.409134592,1.0000725162662651,166.18764953777168
6.411707904,0.9999617356847444,166.02037013251862
6.414281216,0.9998532647091116,165.85466398872765
6.416854528,0.9997539128937221,165.69049513703786
6.419427328,0.9996697565021575,165.5276279292505
6.42200064,0.9996063764759773,165.36584184643806
6.424573952,0.9995675288380346,165.2048173418259
6.427146752,0.9995558059630001,165.04414322642225
6.429720064,0.9995719599569602,164.8834509455702
6.432293376,0.9996149713018249,164.72231878089045
6.434866688,0.9996819862311944,164.56041461491193
6.437439488,0.9997690847382072,164.39737055429572
6.4400128,0.9998705878146147,164.2329623765634
6.442586112,0.9999802502376479,164.06704814255403
6.445159424,1.0000912088665355,163.89953686783096
6.447732224,1.000196422543454,163.73044523319723
6.450305536,1.0002892990629846,163.55995104382706
6.452878848,1.0003639100541577,163.38821259538554
6.45545216,1.0004158139357222,163.21559194515768
6.45802496,1.0004414031237294,163.04241731008392
6.460598272,1.0004393528776179,162.8690521858767
6.463171584,1.0004095145109728,162.69591541204275
6.465744384,1.0003540720091635,162.5233942979592
6.468317696,1.0002761901766712,162.35183272008288
6.470891008,1.000180819481727,162.1815358796694
6.47346432,1.0000741254759506,162.01271974039508
6.47603712,0.9999624994147455,161.845448020889
6.478610432,0.9998531217896144,161.67978069300148
6.481183744,0.9997527783020472,161.5156653713657
6.483757056,0.9996680159504683,161.35286177507825
6.486329856,0.9996038155090035,161.1911726080306
6.488903168,0.9995645599812925,161.03021587858964
6.49147648,0.9995524546557881,160.86961991506317
6.49404928,0.9995684469387734,160.70902569568455
6.496622592,0.9996113936925543,160.54799483524397
6.499195904,0.9996788189810718,160.38618445391904
6.501769216,0.9997664002899611,160.2232325476342
6.504342016,0.9998686334923597,160.05894280104377
6.506915328,0.9999790448252399,159.89306512304395
6.50948864,1.0000909199379027,159.7256175285283
6.512061952,1.0001969396975463,159.5565987643
6.514634752,1.0002906258253943,159.38614641882742
6.517208064,1.0003661025528092,159.21442355108073
6.519781376,1.0004183869925083,159.04183222718513
6.522354688,1.0004445013446586,158.86865052589238
6.524927488,1.0004427224670278,158.69528072662771
6.5275008,1.000412947564284,158.5221457770864
6.530074112,1.0003573174076161,158.3496463779368
6.532646912,1.000278961195565,158.1781138949815
6.535220224,1.0001830770080877,158.0078339965771
6.537793536,1.0000755741784404,157.8390330436732
6.540366848,0.9999632092300863,157.67182606876682
6.542939648,0.999852926108119,157.50623242395855
6.54551296,0.9997517186259793,157.34216264183266
6.548086272,0.9996660828570608,157.17945262766307
6.550659584,0.9996012674097552,157.0178444589698
6.553232384,0.9995613707305729,156.8569926983451
6.555805696,0.9995488711347614,156.6965201557872
6.558379008,0.9995647152278498,156.53603168375398
6.56095232,0.999607984421744,156.37512319634638
6.56352512,0.999675706086071,156.21342207938443
6.566098432,0.999763754233071,156.0505694334157
6.568671744,0.9998665558679399,155.88636510205347
6.571244544,0.9999778726844113,155.72060398661137
6.573817856,1.000090570813737,155.55325317761748
6.576391168,1.0001974097144075,155.3842813012585
6.57896448,1.0002919648279158,155.21386135872595
6.58153728,1.0003681330867198,155.04220697759007
6.584110592,1.000421200827008,154.86963369342948
6.586683904,1.0004478273152957,154.696486824337
6.589257216,1.0004461867668761,154.52315631057004
6.591830016,1.0004164437314778,154.35005937877037
6.594403328,1.0003606211252105,154.17756311126158
6.59697664,1.0002817608884778,154.00606300733125
6.59954944,1.0001852965862121,153.835815446889
6.602122752,1.0000770601165692,153.6670593067697
6.604696064,0.9999637921833682,153.49991237739206
6.607269376,0.9998526810359059,153.33438263802336
6.609842176,0.9997506292778353,153.17039423623672
6.612415488,0.9996641429722233,153.00777940765497
6.6149888,0.9995985792510875,152.84628979326854
6.617562112,0.9995580651765382,152.68556938267884
6.620134912,0.9995454263343402,152.52521607519475
6.622708224,0.9995610465372391,152.36487725766918
6.625281536,0.999604212406716,152.20407841836925
6.627854848,0.9996723650397114,152.0425177703449
6.630427648,0.9997609183436746,151.87979709835827
6.63300096,0.9998644742280103,151.7157186843769
6.635574272,0.9999766580497026,151.55006727921142
6.638147072,1.0000900566346818,151.38278023538993
6.640720384,1.0001980320559654,151.21390928401405
6.643293696,1.0002933644722347,151.04357504293307
6.645867008,1.000370360248433,150.87199324136535
6.648439808,1.0004240834043792,150.6994540378248
6.65101312,1.0004510746239064,150.52633093169413
6.653586432,1.000449718427122,150.35303591437395
6.656159744,1.000420077970434,150.17997482112145
6.658732544,1.0003640087556025,150.00753096612942
6.661305856,1.0002849073637567,149.83605824377827
6.663879168,1.0001877741170682,149.6658705039131
6.66645248,1.0000786966287454,149.49719341256164
6.66902528,0.9999646749874114,149.3301109007121
6.671598592,0.9998525592530056,149.16467136098572
6.674171904,0.9997495305679807,149.00079602638198
6.676744704,0.9996622532415347,148.83829647375157
6.679318016,0.9995960386216033,148.6769159428332
6.681891328,0.9995550337691892,148.5163382233428
6.68446464,0.9995418691451987,148.3561296169598
6.68703744,0.99955751542257,148.19592866334688
6.689610752,0.9996008156044085,148.03531198778902
6.692184064,0.9996691226948531,147.8738836534568
6.694757376,0.9997582272218986,147.71131201050784
6.697330176,0.9998625480910778,147.54734805623673
6.699903488,0.9999754501783343,147.3818447087387
6.7024768,1.0000899368476799,147.21466041799016
6.7050496,1.0001987308428324,147.04587745574912
6.707622912,1.0002949637211256,146.87562960472374
6.710196224,1.0003727576952113,146.70411256806236
6.712769536,1.0004270150356167,146.5316633674043
6.715342336,1.000454600322707,146.35859429947095
6.717915648,1.0004534135770458,146.1853602799912
6.72048896,1.0004237774235716,146.01233494989583
6.723062272,1.0003674119211363,145.83996203083146
6.725635072,1.0002878225801972,145.66854104084962
6.728208384,1.0001901553088566,145.4984370934947
6.730781696,1.0000803307887143,145.3298286215074
6.733355008,0.9999652807827731,145.1628360418311
6.735927808,0.9998522806075453,144.99749506648905
6.73850112,0.9997484554140984,144.83372764174715
6.741074432,0.9996602982152555,144.6713711511889
6.743647232,0.9995932190167528,144.51013331374094
6.746220544,0.9995517797034728,144.34972151844366
6.748793856,0.9995381352143704,144.1896681441273
6.751367168,0.9995536586146926,144.02962248822828
6.753939968,0.9995972175009864,143.86918198730828
6.75651328,0.9996657508079683,143.70790978576335
6.759086592,0.9997554666164938,143.54549399917605
6.761659904,0.9998604849297053,143.38169481366296
6.764232704,0.9999741901926962,143.21629476841065
6.766806016,1.000089579538274,143.04927564497535
6.769379328,1.0001992996831541,142.880607596349
6.77195264,1.0002965307934957,142.71044166573117
6.77452544,1.0003751432792738,142.53903300496893
6.777098752,1.0004301001192464,142.36663109562934
6.779672064,1.0004580357757051,142.19366628385643
6.782244864,1.0004570955540188,142.02048211008926
6.784818176,1.000427463429756,141.8475374914596
6.787391488,1.0003710134454566,141.67521148088898
6.7899648,1.0002910185601654,141.50388221942845
6.7925376,1.0001926362023936,141.3338498578057
6.795110912,1.000081982094327,141.16530761353175
6.797684224,0.999966083917791,140.9984400897952
6.800257536,0.9998520973053477,140.83321978305818
6.802830336,0.9997473411624433,140.66959155836557
6.805403648,0.9996583121879602,140.50738591588643
6.80797696,0.9995905375070407,140.34631426985374
6.810550272,0.9995483820046165,140.18604200859332
6.813123072,0.9995346318293118,140.02618485787923
6.815696384,0.999549946835743,139.86632979022255
6.818269696,0.9995933854628949,139.70604065814373
6.820842496,0.9996625056644712,139.54495592430573
6.823415808,0.9997527528583849,139.38272226750726
6.82598912,0.9998584111326219,139.21907604069548
6.828562432,0.9999730412821495,139.0538379462897
6.831135232,1.0000893711830545,138.8869441109912
6.833708544,1.0002000694659674,138.71840834002677
6.836281856,1.0002980691199717,138.54836662981987
6.838855168,1.0003775197754177,138.3770497146177
6.841427968,1.0004331885486568,138.20475926209735
6.84400128,1.000461529751848,138.03186025747584
6.846574592,1.0004609425945243,137.85875998782615
6.849147392,1.0004313262926559,137.6858965175254
6.851720704,1.000374510525658,137.51365205812127
6.854294016,1.0002940523571813,137.34240360027147
6.856867328,1.0001949849796374,137.17245981511903
6.859440128,1.0000835606301077,137.0040242285233
6.86201344,0.9999666918493648,136.83727699177754
6.864586752,0.9998517836593365,136.67219684004073
6.867160064,0.9997460135985851,136.5087170928049
6.869732864,0.9996561099767427,136.34667006395762
6.872306176,0.9995876491615282,136.18575600833614
6.874879488,0.9995448860302908,136.02570661913683
6.8774528,0.9995307626056001,135.8660278310933
6.8800256,0.9995459427261966,135.70635229335068
6.882598912,0.9995895574514095,135.546289821469
6.885172224,0.9996589948222394,135.3853804392213
6.887745024,0.9997497246160161,135.22335157006756
6.890318336,0.9998563024497095,135.0598820729665
6.892891648,0.999971659519119,134.89481150983468
6.89546496,1.0000890092841042,134.72804739015353
6.89803776,1.0002007189514734,134.55968064635726
6.900611072,1.0002996953097647,134.38975621032654
6.903184384,1.0003800020607754,134.21855873301328
6.905757696,1.000436233265071,134.04637387716755
6.908330496,1.0004651688621595,133.8735727424557
6.910903808,1.0004648036507273,133.7005570522687
6.91347712,1.0004351269811211,133.5277880557711
6.916050432,1.0003780615187194,133.35562654480148
6.918623232,1.0002970756193112,133.1844739814165
6.921196544,1.000197461849499,133.0146464768165
6.923769856,1.0000851503533148,132.84635683821517
6.926342656,0.9999674005530658,132.67973108077024
6.928915968,0.999851440482807,132.51479871915555
6.93148928,0.9997446760629924,132.35147372158931
6.934062592,0.9996538411871059,132.18959554004667
6.936635392,0.9995846345393656,132.02888375438488
6.939208704,0.9995414132156878,131.869023199952
6.941782016,0.9995268563831461,131.7095431708249
6.944355328,0.9995418422991019,131.55008907524495
6.946928128,0.9995856664416928,131.39023556755905
6.94950144,0.999655443062546,131.22954357990133
6.952074752,0.9997468610074868,131.06770687557565
6.954647552,0.9998541463253686,130.90442007299222
6.957220864,0.9999705351023334,130.7395344136342
6.959794176,1.0000887721120593,130.57297195680718
6.962367488,1.000201435744343,130.4047217395817
6.964940288,1.0003013684400806,130.23493850396062
6.9675136,1.000382451844305,130.06387651036516
6.970086912,1.000439455021892,129.8918073030277
6.972660224,1.0004687739400608,129.7191092666553
6.975233024,1.0004687199384683,129.54620535557066
6.977806336,1.0004389859727525,129.37352313596014
6.980379648,1.0003816771047318,129.20148758553663
6.98295296,1.0003002982299192,129.03045171558793
6.98552576,1.0001998875239018,128.86072769439667
6.988099072,1.0000867489394847,128.69255725926604
6.990672384,0.9999680454289298,128.52607107266272
6.993245184,0.9998511178093245,128.36132589775158
6.995818496,0.9997433554760301,128.19817221398387
6.998391808,0.9996516942793726,128.0364740530245
7.00096512,0.9995817504990164,127.87597818592104
7.00353792,0.9995377870334133,127.71630276812745
7.006111232,0.9995228926496781,127.55707623099462
7.008684544,0.9995378652561182,127.39783037948507
7.011257856,0.9995817708418135,127.23820277947837
7.013830656,0.9996518935014799,127.07773524339193
7.016403968,0.9997438819911884,126.91609795482371
7.01897728,0.999851887852747,126.75303825946635
7.021550592,0.9999692541537678,126.58833652991585
7.024123392,1.0000884892600468,126.4219419794856
7.026696704,1.0002021855466192,126.25386784120431
7.029270016,1.0003032310699111,126.08423242130122
7.031842816,1.0003850827802006,125.91328883423569
7.034416128,1.0004428137081391,125.7413596757557
7.03698944,1.000472669992661,125.56879278717373
