freq,mag,phase
6.0,0.9999999999999998,32.71037924059266
6.008,1.0,32.48833158578974
6.016,0.9999999999999999,32.26621649006044
6.024,1.0,32.04403413506301
6.032,0.9999999999999999,31.821784703197643
6.04,1.0,31.599468377606026
6.048,0.9999999999999999,31.377085342170695
6.056,0.9999999999999999,31.15463578151462
6.064,1.0,30.932119881000542
6.072,1.0,30.709537826730394
6.08,1.0,30.48688980554472
6.088,0.9999999999999999,30.264176005021948
6.096,0.9999999999999999,30.041396613477815
6.104,1.0,29.818551819964558
6.112,0.9999999999999999,29.59564181427029
6.12,0.9999999999999999,29.372666786918195
6.128,0.9999999999999999,29.149626929165777
6.136,1.0,28.92652243300405
6.144,1.0,28.703353491156722
6.152,1.0,28.48012029707933
6.16,0.9999998903416075,28.25682304495839
6.168,0.9999996390021072,28.033461929710505
6.176,0.9999993922819845,27.810037146981365
6.184,0.9999991501107263,27.5865488931449
6.192,0.9999989124184391,27.362997365302228
6.2,0.9999986791358487,27.139382761280675
6.208,0.9999984501942979,26.915705279632757
6.216,0.999998225525748,26.69196511963511
6.224,0.999998005062778,26.46816248128743
6.232,0.9999977887385837,26.244297565311317
6.24,0.999997576486978,26.02037057314921
6.248,0.9999973682423892,25.796381706963185
6.256,0.9999971639398622,25.57233116963378
6.264,0.9999969635150564,25.348219164758795
6.272,0.9999967669042464,25.124045896652028
6.28,0.9999965740443212,24.89981157034204
6.288,0.9999963848727818,24.675516391570877
6.296,0.9999961993277438,24.451160566792694
6.304,0.9999960173479341,24.226744303172477
6.312,0.9999958388726912,24.00226780858463
6.32,0.9999956638419651,23.777731291611637
6.328,0.9999954921963157,23.553134961542554
6.336,0.9999953238769116,23.32847902837164
6.344,0.9999951588255308,23.10376370279684
6.352,0.9999949969845593,22.878989196218317
6.36,0.9999948382969892,22.654155720736885
6.368,0.99999468270642,22.429263489152465
6.376,0.9999945301570551,22.204312714962544
6.384,0.9999943805937036,21.979303612360507
6.392,0.9999942339617772,21.75423639623403
6.4,0.9999940902072901,21.52911128216347
6.408,0.999993949276859,21.303928486420045
6.416,0.9999938111176998,21.078688225964278
6.424,0.999993675677629,20.853390718444146
6.432,0.9999935429050606,20.62803618219334
6.44,0.9999934127490067,20.402624836229492
6.448,0.9999932851590755,20.177156900252317
6.456,0.99999316008547,19.951632594641808
6.464,0.9999930374789876,19.726052140456304
6.472,0.999992917291018,19.50041575943066
6.48,0.9999927994735434,19.27472367397423
6.4879999999999995,0.9999926839791348,19.048976107169022
6.496,0.9999925707609539,18.82317328276753
6.504,0.9999924597727496,18.597315425191
6.5120000000000005,0.999992350968857,18.371402759527072
6.52,0.9999922443041966,18.145435511528067
6.5280000000000005,0.9999921397342731,17.919413907608504
6.536,0.9999920372151734,17.693338174843376
6.5440000000000005,0.9999919367035649,17.467208540965625
6.552,0.9999918381566957,17.241025234364365
6.5600000000000005,0.9999917415323909,17.014788484082274
6.568,0.9999916467890535,16.788498519813764
6.5760000000000005,0.999991553885661,16.562155571902338
6.584,0.9999914627817642,16.335759871338738
6.592,0.9999913734374868,16.109311649758176
6.6,0.9999912858135229,15.882811139438386
6.608,0.9999911998711352,15.656258573297054
6.616,0.9999911155721538,15.429654184889507
6.624,0.9999910328789747,15.202998208406262
6.632,0.9999909517545579,14.976290878670623
6.64,0.9999908721624259,14.749532431136148
6.648,0.9999907940666608,14.522723101884264
6.656,0.9999907174319055,14.29586312762162
6.664,0.9999906422233579,14.068952745677647
6.672,0.9999905684067728,13.84199219400189
6.68,0.9999904959484576,13.614981711161482
6.688,0.999990424815272,13.387921536338487
6.696,0.9999903549746251,13.160811909327215
6.704,0.9999902863944745,12.933653070531594
6.712,0.9999902190433232,12.70644526096243
6.72,0.999990152890219,12.479188722234671
6.728,0.9999900879047514,12.25188369656467
6.736,0.999990024057051,12.024530426767356
6.744,0.9999899613177855,11.797129156253474
6.752,0.9999898996581595,11.56968012902669
6.76,0.9999898390499121,11.34218358968077
6.768,0.9999897794653142,11.114639783396653
6.776,0.9999897208771668,10.887048955939544
6.784,0.9999896632587993,10.659411353655983
6.792,0.9999896065840662,10.431727223470851
6.8,0.9999895508273471,10.203996812884373
6.808,0.9999894959635415,9.976220369969125
6.816,0.9999894419680702,9.748398143366932
6.824,0.99998938881687,9.520530382285841
6.832,0.9999893364863932,9.292617336496996
6.84,0.9999892849536045,9.064659256331515
6.848,0.99998923419598,8.836656392677321
6.856,0.999989184191503,8.608608996975999
6.864,0.9999891349186634,8.380517321219546
6.872,0.9999890863564546,8.152381617947187
6.88,0.9999890384843716,7.924202140242077
6.888,0.9999889912824081,7.695979141728054
6.896,0.9999889447310544,7.467712876566303
6.904,0.9999888988112948,7.2394035994520465
6.912,0.9999888535046058,7.011051565611177
6.92,0.9999888087929532,6.78265703079687
6.928,0.9999887646587894,6.554220251286187
6.936,0.9999887210850517,6.325741483876638
6.944,0.9999886780551588,6.097220985882722
6.952,0.9999886355530094,5.868659015132445
6.96,0.999988593562979,5.640055829963819
6.968,0.9999885520699177,5.411411689221317
6.976,0.9999885110591463,5.182726852252334
6.984,0.9999884705164569,4.9540015789035845
6.992,0.9999884304281067,4.725236129517516
7.0,0.9999883907808176,4.496430764928674
7.008,0.9999883515617731,4.267585746460038
7.016,0.999988312758615,4.038701335919353
7.024,0.9999882743594419,3.809777795595424
7.032,0.9999882363528059,3.5808153882543925
7.04,0.9999881987277096,3.351814377135983
7.048,0.9999881614736037,3.122775025949719
7.056,0.999988124580385,2.893697598871148
7.064,0.9999880880383925,2.6645823605380037
7.072,0.9999880518384049,2.435429576046368
7.08,0.9999880159716388,2.2062395109467774
7.088,0.9999879804297452,1.9770124312403883
7.096,0.9999879452048062,1.747748603374992
7.104,0.9999879102893334,1.5184482942411397
7.112,0.9999878756762636,1.2891117711681315
7.12,0.9999878413589579,1.0597393019200692
7.128,0.999987807331198,0.8303311546918273
7.136,0.9999877735871809,0.6008875981050316
7.144,0.9999877401215213,0.37140890120400766
7.152,0.9999877069292435,0.1418953334517171
7.16,0.9999876740057825,-0.08765283527436578
7.168,0.9999876413469776,-0.31723533468635273
7.176,0.9999876089490729,-0.5468518940900716
7.184,0.999987576808711,-0.7765022423892596
7.192,0.9999875449229335,-1.0061861080897345
7.2,0.9999875132891757,-1.2359032193035708
7.208,0.9999874819052639,-1.465653303753379
7.216,0.9999874507694134,-1.6954360887765252
7.224,0.9999874198802245,-1.9252513013293915
7.232,0.9999873892366813,-2.155098667991692
7.24,0.9999873588381453,-2.38497791497078
7.248,0.9999873286843564,-2.614888768105969
7.256,0.9999872987754276,-2.8448309528728903
7.264,0.999987269111842,-3.0748041943878768
7.272,0.9999872396944504,-3.304808217412355
7.28,0.9999872105244685,-3.534842746357254
7.288,0.9999871816034724,-3.764907505287449
7.296,0.9999871529333985,-3.9950022179262104
7.304,0.9999871245165365,-4.225126607659696
7.312,0.9999870963555301,-4.455280397541414
7.32,0.9999870684533712,-4.685463310296781
7.328,0.9999870408133986,-4.915675068327622
7.336,0.9999870134392939,-5.1459153937167414
7.344,0.9999869863350787,-5.376184008232498
7.352,0.9999869595051124,-5.606480633333382
7.36,0.9999869329540871,-5.836804990172658
7.368,0.9999869066870272,-6.067156799602943
7.376,0.9999868807092835,-6.297535782180924
7.384,0.9999868550265322,-6.527941658171965
7.392,0.9999868296447711,-6.758374147554827
7.4,0.9999868045703167,-6.988832970026363
7.4079999999999995,0.9999867798098003,-7.219317845006209
7.416,0.9999867553701663,-7.449828491641666
7.4239999999999995,0.9999867312586675,-7.680364628812158
7.432,0.9999867074828637,-7.910925975134422
7.4399999999999995,0.999986684050617,-8.141512248966842
7.448,0.9999866609700897,-8.372123168414715
7.4559999999999995,0.9999866382497418,-8.602758451334648
7.464,0.9999866158983255,-8.833417815339816
7.4719999999999995,0.9999865939248846,-9.064100977804422
7.48,0.999986572338751,-9.294807655868958
7.4879999999999995,0.9999865511495399,-9.52553756644472
7.496,0.999986530367149,-9.756290426219104
7.504,0.9999865100017536,-9.987065951660146
7.5120000000000005,0.9999864900638046,-10.217863859021868
7.52,0.9999864705640253,-10.448683864348803
7.5280000000000005,0.999986451513408,-10.6795256834814
7.536,0.9999864329232104,-10.91038903206063
7.5440000000000005,0.999986414804955,-11.141273625533334
7.552,0.9999863971704218,-11.372179179156904
7.5600000000000005,0.9999863800316501,-11.603105408004682
7.568,0.9999863634009316,-11.834052026970616
7.5760000000000005,0.9999863472908097,-12.065018750774744
7.584,0.9999863317140752,-12.296005293967848
7.5920000000000005,0.999986316683764,-12.52701137093696
7.6,0.9999863022131538,-12.758036695910075
7.6080000000000005,0.9999862883157613,-12.989080982961662
7.616,0.9999862750053392,-13.220143946017421
7.6240000000000006,0.9999862622958724,-13.451225298859805
7.632,0.9999862502015768,-13.682324755132798
7.640000000000001,0.999986238736895,-13.913442028347504
7.648,0.9999862279164932,-14.144576831886907
7.656000000000001,0.9999862177552598,-14.375728879011513
7.664,0.9999862082683006,-14.606897882864127
7.672,0.9999861994709377,-14.838083556475485
7.68,0.9999861913787046,-15.069285612769232
7.688,0.9999861840073456,-15.300503764567237
7.696,0.9999861773728114,-15.531737724594928
7.704,0.9999861714912567,-15.762987205486482
7.712,0.9999861663790375,-15.994251919790184
7.72,0.9999861620527086,-16.2255315799737
7.728,0.9999861585290201,-16.456825898429376
7.736,0.9999861558249151,-16.688134587479603
7.744,0.9999861539575271,-16.919457359382125
7.752,0.9999861529441777,-17.150793926335385
7.76,0.9999861528023717,-17.382144000483926
7.768,0.9999861535497983,-17.613507293923696
7.776,0.9999861552043241,-17.844883518707512
7.784,0.9999861577839948,-18.076272386850352
7.792,0.9999861613070289,-18.307673610334863
7.8,0.9999861657918174,-18.5390869011167
7.808,0.999986171256921,-18.77051197112998
7.816,0.9999861777210661,-19.001948532292694
7.824,0.9999861852031446,-19.23339629651221
7.832,0.99998619372221,-19.464854975690656
7.84,0.999986203297475,-19.696324281730398
7.848,0.9999862139483096,-19.927803926539564
7.856,0.9999862256942387,-20.159293622037474
7.864,0.9999862385549397,-20.390793080160154
7.872,0.9999862525502403,-20.62230201286583
7.88,0.9999862677001158,-20.853820132140452
7.888,0.9999862840246875,-21.0853471500032
7.896,0.9999863015442202,-21.316882778512042
7.904,0.9999863202791205,-21.548426729769208
7.912,0.9999863402499338,-21.779978715926823
7.92,0.9999863614773434,-22.011538449192415
7.928,0.9999863839821675,-22.243105641834454
7.936,0.999986407785358,-22.474680006187995
7.944,0.9999864329079977,-22.70626125466022
7.952,0.9999864593712998,-22.937849099735995
7.96,0.9999864871966044,-23.16944325398357
7.968,0.9999865164053783,-23.401043430060074
7.976,0.9999865470192112,-23.632649340717226
7.984,0.9999865790598168,-23.864260698806877
7.992,0.9999866125490293,-24.095877217286706
8.0,0.9999866475088015,-24.327498609225845
8.008,0.9999866839612047,-24.55912458781048
8.016,0.9999867219284259,-24.790754866349683
8.024000000000001,0.9999867614327677,-25.022389158280802
8.032,0.9999868024966454,-25.254027177175306
8.04,0.9999868451425867,-25.48566863674455
8.048,0.9999868893932314,-25.717313250845347
8.056000000000001,0.9999869352713271,-25.948960733485634
8.064,0.9999869827997313,-26.180610798830205
8.072,0.9999870320014086,-26.41226316120658
8.08,0.9999870828994304,-26.64391753511065
8.088000000000001,0.9999871355169738,-26.875573635212234
8.096,0.9999871898773202,-27.10723117636103
8.104,0.9999872460038555,-27.338889873592397
8.112,0.9999873039200684,-27.570549442133053
8.120000000000001,0.9999873636495507,-27.802209597406744
8.128,0.9999874252159958,-28.033870055040136
8.136,0.9999874886431986,-28.265530530868713
8.144,0.9999875539550555,-28.49719074094247
8.152000000000001,0.9999876211755627,-28.72885040153166
8.16,0.9999876903288182,-28.960509229132658
8.168,0.9999877614390186,-29.192166940474014
8.176,0.9999878345304619,-29.423823252522116
8.184000000000001,0.9999879096275455,-29.655477882486974
8.192,0.9999879867547673,-29.887130547828196
8.2,0.999988065936725,-30.11878096626104
8.208,0.9999881471981169,-30.35042885576211
8.216000000000001,0.9999882305637423,-30.582073934575284
8.224,0.9999883160585014,-30.813715921217657
8.232,0.9999884037073956,-31.045354534485686
8.24,0.9999884935355291,-31.276989493460945
8.248000000000001,0.9999885855681085,-31.5086205175161
8.256,0.999988679830444,-31.740247326320986
8.264,0.99998877634795,-31.971869639848673
8.272,0.9999888751461466,-32.20348717838149
8.280000000000001,0.9999889762506597,-32.43509966251695
8.288,0.9999890796872221,-32.666706813173825
8.296,0.9999891854816764,-32.89830835159851
8.304,0.9999892936599734,-33.129903999371
8.312,0.9999894042481762,-33.36149347841079
8.32,0.9999895172724599,-33.59307651098352
8.328,0.9999896327591139,-33.82465281970672
8.336,0.9999897507345424,-34.056222127556424
8.344,0.9999898712252684,-34.28778415787306
8.352,0.9999899942579326,-34.51933863436809
8.36,0.9999901198592971,-34.750885281130024
8.368,0.9999902480562467,-34.982423822631084
8.376,0.9999903788757908,-35.213953983733234
8.384,0.9999905123450659,-35.44547548969498
8.392,0.9999906484913368,-35.67698806617752
8.4,0.9999907873419992,-35.90849143925152
8.408,0.999990928924582,-36.13998533540345
8.416,0.9999910732667492,-36.37146948154242
8.424,0.9999912203963015,-36.602943605006494
8.432,0.99999137034118,-36.83440743356987
8.44,0.9999915231294675,-37.065860695449175
8.448,0.9999916787893898,-37.2973031193106
8.456,0.9999918373493194,-37.52873443427657
8.464,0.9999919988377765,-37.760154369933005
8.472,0.9999921632834318,-37.99156265633582
8.48,0.9999923307151071,-38.22295902401864
8.488,0.9999925011617788,-38.45434320399941
8.496,0.9999926746525784,-38.6857149277881
8.504,0.9999928512167942,-38.91707392739356
8.512,0.9999930308838726,-39.14841993533154
8.52,0.9999932136834196,-39.37975268463157
8.528,0.9999933996452011,-39.611071908845155
8.536,0.9999935887991426,-39.842377342053105
8.544,0.9999937811753311,-40.07366871887363
8.552,0.9999939768040134,-40.304945774470085
8.56,0.9999941757155956,-40.53620824455935
8.568,0.9999943779406417,-40.76745586541974
8.576,0.9999945835098725,-40.99868837389972
8.584,0.9999947924541609,-41.22990550742605
8.592,0.9999950048045312,-41.46110700401287
8.6,0.9999952205921531,-41.69229260227015
8.608,0.999995439848336,-41.92346204141315
8.616,0.9999956626045252,-42.154615061271166
8.624,0.9999958888922917,-42.38575140229747
8.632,0.9999961187433253,-42.61687080557844
8.64,0.9999963521894228,-42.84797301284389
8.648,0.9999965892624785,-43.07905776647672
8.656,0.9999968299944674,-43.310124809523735
8.664,0.9999970744174319,-43.54117388570577
8.672,0.999997322563463,-43.77220473942908
8.68,0.9999975744646805,-44.003217115796076
8.688,0.999997830153209,-44.23421076061733
8.696,0.9999980896611526,-44.46518542042288
8.704,0.9999983530205645,-44.69614084247498
8.712,0.9999986202634158,-44.927076774780254
8.72,0.9999988914215571,-45.15799296610298
8.728,0.9999991665266768,-45.388889165978235
8.736,0.999999445610256,-45.61976512472601
8.744,0.9999997287035147,-45.85062059346521
8.752,1.0,-46.081455324128804
8.76,1.0,-46.312269069478816
8.768,1.0,-46.54306158312258
8.776,1.0,-46.77383261952882
8.784,1.0,-47.00458193404513
8.792,1.0,-47.23530928291535
8.8,1.0,-47.46601442329837
8.808,1.0,-47.696697113286895
8.815999999999999,0.9999999999999999,-47.92735711192769
8.824,1.0,-48.1579941792422
8.832,0.9999999999999999,-48.38860807624793
8.84,0.9999999999999999,-48.61919856498104
8.847999999999999,0.9999999999999999,-48.84976540851978
8.856,1.0,-49.08030837100877
8.864,1.0,-49.31082721768418
8.872,1.0,-49.541321714900285
8.879999999999999,0.9999999999999999,-49.77179163015698
8.888,0.9999999999999999,-50.00223673212843
8.896,0.9999999999999998,-50.23265679069267
8.904,1.0,-50.46305157696275
8.911999999999999,0.9999999999999999,-50.693420863319155
8.92,1.0,-50.92376442344317
8.928,0.9999999999999999,-51.1540820323516
8.936,1.0,-51.384373466433075
8.943999999999999,1.0,-51.6146385034855
8.952,0.9999999999999999,-51.84487692275472
8.96,1.0,-52.07508850497434
8.968,1.0,-52.30527303240706
8.975999999999999,1.0,-52.53543028888702
8.984,1.0,-52.76556005986311
8.992,1.0,-52.99566213244306
9.0,1.0,-53.22573629543834
9.008,1.0,-53.45578233940986
9.016,0.9999999999999999,-53.68580005671313
9.024000000000001,1.0,-53.915789241543685
9.032,1.0,-54.14574968998177
9.04,0.9999999999999999,-54.37568120003577
9.048,1.0,-54.60558357168382
9.056000000000001,1.0,-54.83545660691232
9.064,0.9999999999999999,-55.065300109751256
9.072,0.9999999999999999,-55.29511388630449
9.08,1.0,-55.52489774477362
9.088000000000001,1.0,-55.754651495473986
9.096,1.0,-55.98437495084093
9.104,1.0,-56.214067925424004
9.112,1.0,-56.44373023586616
9.120000000000001,1.0,-56.673361700864895
9.128,1.0,-56.90296214111213
9.136,1.0,-57.132531379208174
9.144,0.9999999999999999,-57.36206923954494
9.152000000000001,1.0,-57.59157554815271
9.16,1.0000000000000002,-57.821050132504524
9.168,1.0,-58.05049282127054
9.176,1.0,-58.279903444013826
9.184000000000001,1.0,-58.50928183081857
9.192,1.0,-58.7386278118406
9.2,1.0,-58.96794121676817
9.208,1.0,-59.197221874180386
9.216000000000001,1.0,-59.42646961079011
9.224,0.9999999999999999,-59.65568425055594
9.232,0.9999999999999999,-59.88486561364921
9.24,1.0,-60.11401351525877
9.248000000000001,1.0,-60.34312776421945
9.256,1.0,-60.57220816144931
9.264,1.0,-60.80125449818325
9.272,1.0,-61.03026655399299
9.280000000000001,1.0,-61.2592440945895
9.288,1.0,-61.48818686940986
9.296,1.0,-61.717094608999965
9.304,1.0,-61.945967022215854
9.312000000000001,1.0,-62.17480379328286
9.32,0.9999999999999999,-62.403604578769006
9.328,0.9999999999999999,-62.63236900455252
9.336,1.0,-62.86109666288636
9.344,0.9999999999999999,-63.08978710969348
9.352,0.9999999999999998,-63.31843986225399
9.36,1.0,-63.547054397474795
9.368,1.0,-63.77563015095948
9.376,1.0,-64.00416651711453
9.384,1.0000000000000002,-64.23266285053865
9.392,1.0,-64.46111846893463
9.4,1.0000000000000002,-64.68953265775895
9.408,1.0,-64.91790467677157
9.416,0.9999999999999999,-65.14623376857358
9.424,1.0,-65.37451916911209
9.432,0.9999999999999999,-65.60276012000361
9.44,1.0,-65.83095588237602
9.448,0.9999999999999999,-66.05910575177523
9.456,1.0,-66.2872090735328
9.464,1.0,-66.51526525787015
9.472,0.9999999999999999,-66.74327379393573
9.48,0.9999999999999999,-66.97123426195569
9.488,1.0,-67.19914634272926
9.496,1.0,-67.42700982382888
9.504,0.9999999999999999,-67.65482460205463
9.512,1.0,-67.88259068193656
9.52,0.9999999999999999,-68.11030817034228
9.528,0.9999995711926888,-68.3379772675123
9.536,0.9999983708011262,-68.5655982550744
9.544,0.9999972491211104,-68.7931714817665
9.552,0.9999962136132176,-69.02069734769994
9.56,0.9999952701603425,-69.24817628802673
9.568,0.9999944230544429,-69.47560875682814
9.576,0.9999936750366446,-69.70299521194207
9.584,0.9999930273827541,-69.93033610129956
9.592,0.9999924800246558,-70.15763185117731
9.6,0.9999920316974712,-70.38488285660027
9.608,0.9999916801025637,-70.61208947397496
9.616,0.9999914220773306,-70.83925201589764
9.624,0.9999912537640195,-71.06637074798081
9.632,0.9999911707713437,-71.2934458874671
9.64,0.9999911683242507,-71.52047760336023
9.648,0.9999912413987387,-71.7474660177846
9.656,0.9999913848399411,-71.97441120829184
9.664,0.9999915934628469,-72.20131321085046
9.672,0.9999918621358989,-72.42817202328612
9.68,0.9999921858483789,-72.65498760897259
9.688,0.9999925597629165,-72.88175990061148
9.696,0.9999929792547221,-73.10848880397131
9.704,0.999993439939272,-73.3351742014913
9.712,0.9999939376901592,-73.56181595567988
9.72,0.9999944686487616,-73.78841391226467
9.728,0.999995029227262,-74.01496790306733
9.736,0.9999956161063781,-74.2414777485938
9.744,0.9999962262290112,-74.46794326034006
