freq,mag,phase
6.0,0.9994088704536254,-149.6931538842956
6.003319296,0.9994948383236878,-149.89070884593448
6.006639104,0.9996119068603887,-150.0897244297401
6.0099584,0.9997527706780834,-150.2905792311986
6.013278208,0.9999088254006895,-150.4935629841929
6.016597504,1.0000705562260241,-150.69882877482928
6.0199168,1.000227915142367,-150.90642134942811
6.023236608,1.0003713064644442,-151.11613674139826
6.026555904,1.0004918859466574,-151.32778115987364
6.029875712,1.0005823311984576,-151.5409457453844
6.033195008,1.0006370340288877,-151.7551643372881
6.036514304,1.0006525758096534,-151.9698435653849
6.039834112,1.0006280957960814,-152.18450812672353
6.043153408,1.0005649760350168,-152.3985638200347
6.046473216,1.0004671000066998,-152.6114920311545
6.049792512,1.000340499688393,-152.82280691253342
6.053111808,1.0001930061492752,-153.0321841495607
6.056431616,1.000033374838098,-153.23939787561494
6.059750912,0.9998716392694562,-153.44427557185472
6.06307072,0.999717680934316,-153.6469569885016
6.066390016,0.9995808943932076,-153.8475266719059
6.069709312,0.9994697902505242,-154.04633272698706
6.07302912,0.9993911245890632,-154.24380992331638
6.076348416,0.9993497184344191,-154.44041904865583
6.079668224,0.9993483439478171,-154.63671924198024
6.08298752,0.9993868266427977,-154.8333222664583
6.086306816,0.9994630494199399,-155.0307331428659
6.089626624,0.9995721723006726,-155.2294695012952
6.09294592,0.9997076368826519,-155.42999647522464
6.096265728,0.9998610397927347,-155.6325605705927
6.099585024,1.0000229844725612,-155.83742502649986
6.10290432,1.0001835828553998,-156.04460527483602
6.106224128,1.0003328223763492,-156.2540153982227
6.109543424,1.0004617330820764,-156.46539613505692
6.112863232,1.0005622234578273,-156.67842295131723
6.116182528,1.0006283391298485,-156.8926808751328
6.119501824,1.0006558411772364,-157.107600910013
6.122821632,1.0006430580129233,-157.32263502998245
6.126140928,1.0005907729554122,-157.5372337263277
6.129460736,1.0005021835476615,-157.75081263651396
6.132780032,1.0003827014253657,-157.96293125410583
6.13609984,1.0002396368140074,-158.1731772811331
6.139419136,1.000081818341383,-158.38127689360067
6.142738432,0.9999187468208194,-158.5871209260857
6.14605824,0.9997605291619976,-158.79065002528645
6.149377536,0.9996169087150724,-158.99203018091467
6.152697344,0.9994967314199495,-159.191523331467
6.15601664,0.999407391640343,-159.38952884765052
6.159335936,0.9993543221950104,-159.5865131942604
6.162655744,0.9993408224340901,-159.7830515289804
6.16597504,0.9993678730420932,-159.97967422350203
6.169294848,0.9994336376165127,-160.17694615527023
6.172614144,0.9995342938086778,-160.3754697626302
6.17593344,0.9996634068191976,-160.57560046245115
6.179253248,0.9998132839050347,-160.77774383945174
6.182572544,0.999974598281339,-160.9821288457112
6.185892352,1.000137508162071,-161.1888561335483
6.189211648,1.000292016258113,-161.39782018994032
6.192530944,1.0004285936122335,-161.60891551747827
6.195850752,1.0005389289064932,-161.82176305567188
6.199170048,1.0006161009075374,-162.0359723814361
6.202489856,1.0006555640573882,-162.25101861838044
6.205809152,1.0006547873984488,-162.4663307155638
6.209128448,1.000613771847354,-162.68136290523665
6.212448256,1.000534996655905,-162.895556676332
6.215767552,1.000423315215886,-163.10840386251036
6.21908736,1.000285551160834,-163.31946518153063
6.222406656,1.0001302386795206,-163.52845940058452
6.225725952,0.9999667843997624,-163.7351685044615
6.22904576,0.999805224604502,-163.93953922406212
6.232365056,0.9996554122227264,-164.1417325300852
6.235684864,0.9995267954627528,-164.34191729570685
6.23900416,0.9994270808233736,-164.54045884184077
6.242323456,0.9993624256098537,-164.73785388636156
6.245643264,0.9993368985933393,-164.93459225728776
6.24896256,0.9993520607492246,-165.13126214098781
6.252282368,0.9994069134929608,-165.32844874205801
6.255601664,0.9994983304309704,-165.52666805148044
6.25892096,0.9996204092979946,-165.72641346395818
6.262240768,0.9997658842029183,-165.92810140561824
6.265560064,0.9999258015929098,-166.13195773223862
6.268879872,1.000090225933312,-166.33818678170306
6.272199168,1.0002491852583013,-166.54671536047888
6.275518464,1.0003928039633811,-166.7574075550348
6.278838272,1.0005123570793937,-166.96998017312518
6.282157568,1.0006004746267203,-167.1840453173392
6.285477376,1.0006518059950724,-167.39910136162783
6.288796672,1.0006631848075265,-167.61463634642809
6.292115968,1.000633717372495,-167.83006807597312
6.295435776,1.0005653627954108,-168.0447757394463
6.298755072,1.0004622272850618,-168.25823731182757
6.30207488,1.0003306776265721,-168.47010723834498
6.305394176,1.0001786621516628,-168.67992087382174
6.308713472,1.0000156548267105,-168.88747097104053
6.31203328,0.9998515115012088,-169.0927023639708
6.315352576,0.9996964155066834,-169.29566990319861
6.318672384,0.9995597680073698,-169.49651757473282
6.32199168,0.9994501439325519,-169.69563595776225
6.325310976,0.9993740133193485,-169.89341691596363
6.328630784,0.9993364820425196,-170.09038977747957
6.33195008,0.9993395324533536,-170.28711657412703
6.335269888,0.9993831262179698,-170.48415178621937
6.338589184,0.9994646115269306,-170.68214509727053
6.34190848,0.9995790479669161,-170.88150133604134
6.345228288,0.9997192329163019,-171.08269926128284
6.348547584,0.999876754257578,-171.28602208635763
6.351867392,1.0000418607458141,-171.49167838576744
6.355186688,1.0002044474174827,-171.6996681110337
6.358505984,1.0003544626238143,-171.90990793368482
6.361825792,1.0004828821439704,-172.12214035752456
6.365145088,1.0005814879183268,-172.33597642968073
6.368464896,1.0006445494792087,-172.55103355069429
6.371784192,1.0006680023509764,-172.76665240391227
6.375103488,1.000650524164027,-172.98232877159032
6.378423296,1.0005929822930535,-173.1975093770038
6.381742592,1.0004991144913133,-173.41157107699965
6.3850624,1.00037448238486,-173.62412780309543
6.388381696,1.0002268530128617,-173.83470933989952
6.391700992,1.0000650689758883,-174.04310292157112
6.3950208,0.9998991763116323,-174.2491234673016
6.398340096,0.9997393539806082,-174.45286220242662
6.401659904,0.9995954456891158,-174.65440387683338
6.4049792,0.999476248768767,-174.8540886875544
6.408299008,0.9993891706519297,-175.0522774400853
6.411618304,0.9993395244664258,-175.24947136927992
6.4149376,0.9993304519389912,-175.44627039025454
6.418257408,0.999362283954864,-175.6432483896695
6.421576704,0.9994334668302787,-175.84092632824098
6.424896512,0.9995393379689426,-176.039884768463
6.428215808,0.9996735047563224,-176.24057124147103
6.431535104,0.9998278246728297,-176.44333978194885
6.434854912,0.9999925646729583,-176.6483872211536
6.438174208,1.0001579910869192,-176.85579001388038
6.441494016,1.0003136592396729,-177.06552205751652
6.444813312,1.0004501219783615,-177.2772977616918
6.448132608,1.0005589559478565,-177.49089215928308
6.451452416,1.0006336078233893,-177.7057216338878
6.454771712,1.0006692804992472,-177.92139591087437
6.45809152,1.0006639664190045,-178.1372635923381
6.461410816,1.0006177932899787,-178.3528250643537
6.464730112,1.0005337467542557,-178.56741717119337
6.46804992,1.0004168275794554,-178.78057215657105
6.471369216,1.0002741524676824,-178.9919018750986
6.474689024,1.0001146349649546,-179.2010542090099
6.47800832,0.9999479535720862,-179.4078961830099
6.481327616,0.9997842855352916,-179.6123488241841
6.484647424,0.9996337779138387,-179.81458848177593
6.48796672,0.9995056725103159,179.9851802899192
6.491286528,0.9994077877228116,179.7865745099861
6.494605824,0.9993462036828262,179.58911651033355
6.49792512,0.9993248165707873,179.39221258029906
6.501244928,0.9993446615265055,179.19537745806483
6.504564224,0.9994048658327165,178.9979315890089
6.507884032,0.999501562916604,178.7993595245329
6.511203328,0.999628904544207,178.5991976769878
6.514522624,0.9997790465356523,178.39703276120827
6.517842432,0.9999428418741112,178.19262412076154
6.521161728,1.0001102147371836,177.98588745297934
6.524481536,1.0002707621345612,177.77672536658812
6.527800832,1.0004148176692476,177.56544696331986
6.531120128,1.0005332993217069,177.35227471476912
6.534439936,1.0006191615278,177.1376244297797
6.537759232,1.0006670501840964,176.92202274125532
6.54107904,1.0006739985849087,176.70603092019732
6.544398336,1.0006396106719844,176.49023130171966
6.547717632,1.0005659042143717,176.27520394753
6.55103744,1.0004574497891974,176.06146486754506
6.554356736,1.0003206894197323,175.84945876287588
6.557676544,1.0001642194625786,175.63959261647355
6.56099584,0.9999976474194913,175.4319968856987
6.564315136,0.9998310542565193,175.2267931421832
6.567634944,0.9996745564208074,175.02387395167554
6.57095424,0.9995380808583405,174.82309051896453
6.574274048,0.999429872783321,174.62403863117433
6.577593344,0.9993565342560987,174.4262904179544
6.58091264,0.9993226668841451,174.22936095165974
6.584232448,0.9993303603520064,174.03253565481492
6.587551744,0.9993792026082307,173.83537633552007
6.590871552,0.9994660667606585,173.63720009797052
6.594190848,0.9995859208026171,173.43757784169466
6.597510144,0.9997311529195696,173.23604181435925
6.600829952,0.9998928066382903,173.03232683063567
6.604149248,1.0000611990374872,172.82622333174345
6.607469056,1.000225874714821,172.61774872202673
6.610788352,1.000376774892304,172.4070260033692
6.614107648,1.0005044776462084,172.19429422737616
6.617427456,1.0006014192984445,171.97998330878733
6.620746752,1.000661353479003,171.76452271453212
6.62406656,1.0006807488256408,171.54852310471608
6.627385856,1.0006583517657788,171.3325353855582
6.630705152,1.0005955937364652,171.1171320937724
6.63402496,1.0004962030123685,170.9028742619201
6.637344256,1.000366301749218,170.6902821432024
6.640664064,1.000213802299183,170.4796986762542
6.64398336,1.0000480326649104,170.27139616822328
6.647302656,0.999879276496482,170.06547913183303
6.650622464,0.9997177155077194,169.86191172386197
6.65394176,0.9995734394576724,169.66056642325015
6.657261568,0.9994551966815532,169.46109444977122
6.660580864,0.9993704962253126,169.26304191215664
6.66390016,0.9993241829445235,169.06597419008412
6.667219968,0.9993194827953529,168.86925532803193
6.670539264,0.9993565212208794,168.67229636042308
6.673859072,0.9994329064621332,168.474538476003
6.677178368,0.9995444127510907,168.27546150872394
6.680498176,0.999683803827675,168.0745680666004
6.683817472,0.9998426538186771,167.87156018888462
6.687136768,1.000011176029158,167.66620711711232
6.690456576,1.0001790785530824,167.45841688198578
6.693775872,1.0003360601803164,167.2483307722954
6.69709568,1.0004725110446284,167.03614484722385
6.700414976,1.0005799073378225,166.82221855040552
6.703734272,1.0006517786809015,166.60700633185584
6.70705408,1.000683563168611,166.3910715182101
6.710373376,1.000673607845948,166.17494678753567
6.713693184,1.0006221867571676,165.95925182365207
6.71701248,1.000532572785209,165.74461401080364
6.720331776,1.0004102433204294,165.53146546704662
6.723651584,1.0002625389304565,165.3202423311054
6.72697088,1.000098705747985,165.1112584559556
6.730290688,0.9999285826487126,164.90462795481716
6.733609984,0.9997627744047333,164.7004371705791
6.73692928,0.9996115225949221,164.49852056457237
6.740249088,0.9994839407654764,164.29856879624546
6.743568384,0.999387920704785,164.10026720776793
6.746888192,0.9993294647423044,163.9030575776924
6.750207488,0.9993121260953194,163.70638196965905
6.753526784,0.9993371223874064,163.50968237156943
6.756846592,0.9994025874493742,163.3123036447919
6.760165888,0.9995050166491687,163.11375277341517
6.763485696,0.9996377898880898,162.91352197118184
6.766804992,0.9997928509670896,162.71126032847016
6.770124288,0.999960602872819,162.50663502434642
6.773444096,1.000131036247523,162.29963163040205
6.776763392,1.0002933120613056,162.09022076935818
6.7800832,1.0004376676558033,161.87863869228084
6.783402496,1.000555304890874,161.66521853399462
6.786721792,1.0006387547583466,161.45029086184996
6.7900416,1.000683161847579,161.2345093047313
6.793360896,1.0006855567354715,161.01837930787553
6.796680704,1.00064601988508,160.80252306981708
6.8,1.0005667716039282,160.58750634680752
6.803319296,1.0004526945914105,160.37383139675484
6.806639104,1.000310770977126,160.16205313852436
6.8099584,1.0001495922685002,159.95240810378294
6.813278208,0.9999791937091396,159.7451341531688
6.816597504,0.9998099497326454,159.5403096205182
6.8199168,0.999652233647803,159.33780649787576
6.823236608,0.9995158534504096,159.13745181105622
6.826555904,0.9994090317403432,158.9388099025676
6.829875712,0.9993385719176716,158.7414410667867
6.833195008,0.9993085211110172,158.54481491187198
6.836514304,0.9993209603997965,158.34830854889103
6.839834112,0.9993750779950857,158.15136881624954
6.843153408,0.9994678262918594,157.95333176492605
6.846473216,0.9995931470928627,157.75375972433667
6.849792512,0.9997435321532437,157.55221246832832
6.853111808,0.9999097078699553,157.348404643139
6.856431616,1.0000814245092307,157.14218679965387
6.859750912,1.0002482518422602,156.93355332691021
6.86307072,1.0003999624908244,156.72267103805896
6.866390016,1.0005272799129485,156.5097557696024
6.869709312,1.0006220752463315,156.29527431698307
6.87302912,1.0006789010359591,156.07971968335318
6.876348416,1.0006940632213426,155.86365604047552
6.879668224,1.000666612614842,155.64766667328306
6.88298752,1.000598188844782,155.43237588215416
6.886306816,1.0004930867941704,155.21830382549447
6.889626624,1.0003577314617595,155.0059789100155
6.89294592,1.0002002597724113,154.79573459330393
6.896265728,1.0000303090597422,154.5878320792485
6.899585024,0.9998585094286908,154.38236750507244
6.90290432,0.9996951802862282,154.17933933940841
6.906224128,0.9995504690394623,153.97848724148815
6.909543424,0.9994333374090154,153.77954248791403
6.912863232,0.9993508882173052,153.5820280402597
6.916182528,0.9993082918645121,153.38539411871662
6.919501824,0.9993081344164987,153.18910024034338
6.922821632,0.9993505214924814,152.99251046167782
6.926140928,0.9994326503468028,152.7950467313763
6.929460736,0.9995498852181035,152.5961396982455
6.932780032,0.9996947249738551,152.39536953983895
6.93609984,0.9998583294675468,152.19236559690023
6.939419136,1.0000306183646537,151.98700360721972
6.942738432,1.0002014491836673,151.77919066732866
6.94605824,1.0003595876724742,151.5690157316831
6.949377536,1.0004958543870737,151.35676081823533
6.952697344,1.000601834248992,151.14274729826832
6.95601664,1.0006708495501146,150.9275086921547
6.959335936,1.000698759215233,150.7115779393146
6.962655744,1.0006838076717124,150.4955816196925
6.96597504,1.0006268868586528,150.28004809987632
6.969294848,1.0005314954308713,150.06565051668179
6.972614144,1.0004034576126104,149.8528389095616
6.97593344,1.0002504002781598,149.6420363911599
6.979253248,1.0000821307041006,149.43353845834474
6.982572544,0.9999085886521921,149.22748943771305
6.985892352,0.9997403875151192,149.0238752986251
6.989211648,0.9995881568388063,148.82257128672444
6.992530944,0.9994611634195752,148.62328418293717
6.995850752,0.9993672301189304,148.42560214776623
6.999170048,0.9993120057031311,148.22898608420724
7.002489856,0.9992990406832605,148.03284139298938
7.005809152,0.9993291036036694,147.83661192133468
7.009128448,0.9994004437992174,147.63963767041284
7.012448256,0.9995086753751349,147.44139440042326
7.015767552,0.9996470465156347,147.24141306555157
7.01908736,0.9998072572276114,147.03930429212397
7.022406656,0.9999792623004923,146.8348031595758
7.025725952,1.0001527296410002,146.62784807244185
7.02904576,1.0003169395759102,146.41847206996093
7.032365056,1.0004617422165338,146.20690158058457
7.035684864,1.0005781790898367,145.993467890999
7.03900416,1.0006593506701051,145.778635237045
7.042323456,1.0006999564660684,145.56292885197888
7.045643264,1.0006977048276824,145.3469562208806
7.04896256,1.000652753277706,145.1313228832963
7.052282368,1.0005675281705024,144.91663232292152
7.055601664,1.0004476340196191,144.7033916837661
7.05892096,1.0003001278445778,144.4920860425453
7.062240768,1.0001340368827443,144.28302850121403
7.065560064,0.9999597126225741,144.07640033893983
7.068879872,0.9997876313586853,143.87223391064174
7.072199168,0.9996285881326793,143.67049912306666
7.075518464,0.9994923655623378,143.47082919206062
7.078838272,0.9993869849920827,143.2729560536019
7.082157568,0.999319493576722,143.0762820796037
7.085477376,0.9992935849263472,142.88031584729995
7.088796672,0.9993111839423876,142.68443454241591
7.092115968,0.9993709790756042,142.48796687430843
7.095435776,0.9994696243655271,142.29039819383584
7.098755072,0.9996008176680302,142.09116055826095
7.10207488,0.9997566153627743,141.8899225945321
7.105394176,0.9999273733650774,141.68634435229635
7.108713472,1.0001028208333156,141.48027257902947
7.11203328,1.0002719829714901,141.27177376792375
7.115352576,1.0004244644931675,141.0609717893557
7.118672384,1.000551109212802,140.8481679609981
7.12199168,1.0006439903805449,140.63382240926683
7.125310976,1.0006973470968703,140.41843841835248
7.128630784,1.0007080477163963,140.2025745049584
7.13195008,1.0006751991543308,139.9869099100523
7.135269888,1.0006009947556245,139.77198641148982
7.138589184,1.0004898968698284,139.5584120096579
7.14190848,1.0003485890318418,139.34661925442737
7.145228288,1.0001858038610212,139.13701869496276
7.148547584,1.0000116268901154,138.92983436883677
7.151867392,0.9998365759426695,138.72516911459513
7.155186688,0.9996715399231729,138.52294938956823
7.158505984,0.9995263888454468,138.32295668366194
7.161825792,0.9994103412029747,138.12481063683143
7.165145088,0.9993304090592481,137.92811077321682
7.168464896,0.9992917477065275,137.7322905831025
7.171784192,0.9992964344430353,137.5366649269434
7.175103488,0.9993444242661219,137.34071283850164
7.178423296,0.9994327755557767,137.14380391333228
7.181742592,0.9995558421912754,136.9453911652527
7.1850624,0.9997064682251844,136.74499900184605
7.188381696,0.9998752234060526,136.54234116830412
7.191700992,1.0000516202814107,136.33723671797583
7.1950208,1.000224934695575,136.1296366027125
7.198340096,1.0003845972684933,135.91966608067497
7.201659904,1.0005208029615456,135.70759020516465
7.2049792,1.0006250069536595,135.49378754071242
7.208299008,1.000690983354903,135.27878969755182
7.211618304,1.000714600172808,135.06313426540996
7.2149376,1.000694525272373,134.84749531337545
7.218257408,1.000631703654934,134.63242592159847
7.221576704,1.0005301225696792,134.4185496430952
7.224896512,1.000395996435983,134.20636066571527
7.228215808,1.000237458344575,133.99627907173266
7.231535104,1.0000643253807031,133.7885631766263
7.234854912,0.9998869506434194,133.5833625098428
7.238174208,0.9997164886779274,133.38068220025485
7.241494016,0.999563517138673,133.1802913883208
7.244813312,0.9994370987167325,132.98192568980608
7.248132608,0.999345262776179,132.78514868834947
7.251452416,0.999293622079715,132.58940776886053
7.254771712,0.9992852608408689,132.3941087933634
7.25809152,0.9993209065688838,132.19862389373367
7.261410816,0.9993983600473755,132.00232391630897
7.264730112,0.9995128143250965,131.8046832219181
7.26804992,0.9996571972304464,131.60520340512053
7.271369216,0.999822806037411,131.40351981324704
7.274689024,0.9999993635161424,131.1993540544882
7.27800832,1.0001759828522037,130.99273873710126
7.281327616,1.000342030760518,130.78363061598878
7.284647424,1.0004871596424731,130.57231014076885
7.28796672,1.0006024912538165,130.35915725080656
7.291286528,1.0006808157203595,130.1446369918817
7.294605824,1.0007175434195854,129.9292675627535
7.29792512,1.0007102922756261,129.7137351342472
7.301244928,1.0006594021511672,129.49858208925198
7.304564224,1.0005680902782943,129.28448741452482
7.307884032,1.0004417740372937,129.0719654657959
7.311203328,1.0002883708760402,128.86139668006078
7.314522624,1.000117189887094,128.65318804573252
7.317842432,0.9999385831506962,128.44748055539796
7.321161728,0.9997638428873958,128.24432373996456
7.324481536,0.9996033809663223,128.04356843169865
7.327800832,0.999467166230704,127.84496557323625
7.331120128,0.9993636623527135,127.64808432544632
7.334439936,0.9992992422406786,127.45240303118338
