freq,mag,phase
6.0,0.9999945590968984,129.87736971165037
6.002288128,0.9999217215683335,129.70989630586396
6.004576768,0.9998552392461406,129.5434336306836
6.006864896,0.9997982999056663,129.37786171291626
6.009153536,0.9997546914142368,129.21304901481386
6.011441664,0.9997269523179494,129.0487762640421
6.013729792,0.9997169101370759,128.88479931457078
6.016018432,0.9997252128306874,128.72085287075106
6.01830656,0.9997514739503819,128.55664315696387
6.0205952,0.9997938232507673,128.39196807455545
6.022883328,0.9998496546339639,128.22658987967822
6.025171456,0.9999155317606242,128.0603433431942
6.027460096,0.9999872900293642,127.89309936906116
6.029748224,1.0000601396124968,127.72482844465333
6.032036864,1.000129879332371,127.55554111998124
6.034324992,1.0001917215931855,127.38531362684097
6.03661312,1.0002419566135548,127.21429561561501
6.03890176,1.000277452292994,127.04264625093931
6.041189888,1.0002959013784867,126.87062211454369
6.043478016,1.0002961464695246,126.69847352547546
6.045766656,1.0002779505741592,126.52648511805421
6.048054784,1.000242824766438,126.35488631446879
6.050343424,1.0001928845990629,126.18391833504201
6.052631552,1.0001311633384886,126.01376673583896
6.05491968,1.000061527831348,125.84461265133547
6.05720832,0.9999886257953265,125.67648860235302
6.059496448,0.9999167451709101,125.50944897658592
6.061785088,0.9998507071000563,125.34338245355758
6.064073216,0.9997944160896088,125.17822306936229
6.066361344,0.9997516927135871,125.01382795534352
6.068649984,0.9997251522884204,124.84993117065743
6.070938112,0.9997163707806965,124.6863159722188
6.073226752,0.9997259979373885,124.5227219596687
6.07551488,0.9997534523881013,124.35883602753076
6.077803008,0.9997968489772929,124.1944847082305
6.080091648,0.9998536833888044,124.02939505332469
6.082379776,0.999920258950566,123.86344338875732
6.084668416,0.999992376214582,123.69645817670649
6.086956544,1.0000653816256546,123.52848856372708
6.089244672,1.0001347393206406,123.35947354037349
6.091533312,1.000196083046472,123.18951858058348
6.09382144,1.0002454550951883,123.01880780141387
6.09611008,1.000279932157682,122.8474665597565
6.098398208,1.0002972458436574,122.67576747053265
6.100686336,1.0002961123680774,122.50397988455266
6.102974976,1.0002767366095575,122.33235254226975
6.105263104,1.000240387705469,122.16111426370176
6.107551232,1.0001893282514052,121.99055816130848
6.109839872,1.0001267793896191,121.82081415630267
6.112128,1.0000566891752356,121.65205203183068
6.11441664,0.9999833762502413,121.48435806051154
6.116704768,0.9999116715607469,121.31770710778258
6.118992896,0.9998460772838392,121.15212481952955
6.121281536,0.9997904863692679,120.98736981194595
6.123569664,0.9997486799640053,120.82338774018639
6.125858304,0.9997232880461202,120.65988030232435
6.128146432,0.9997157865730633,120.49660772517387
6.13043456,0.9997267313158021,120.3333715882562
6.1327232,0.9997554002826332,120.16984390568605
6.135011328,0.9998001315755902,120.00578085818103
6.137299968,0.9998578293494553,119.84101592009317
6.139588096,0.9999249677381742,119.67532697319689
6.141876224,0.999997521748452,119.50867017838503
6.144164864,1.0000705579986922,119.340954172896
6.146452992,1.000139619590959,119.17222219211843
6.148741632,1.000200446639423,119.00255667564613
6.15102976,1.0002490115559872,118.83212665271098
6.153317888,1.0002823979517679,118.66107600440128
6.155606528,1.0002984094862022,118.48971157112672
6.157894656,1.0002959473311428,118.31826781172907
6.160183296,1.0002753851269743,118.14701111862209
6.162471424,1.000237832727921,117.97619177074665
6.164759552,1.0001857368647271,117.80599959320168
6.167048192,1.0001223336264478,117.6367169399979
6.16933632,1.0000516640880177,117.46837571646682
6.17162496,0.9999783011049153,117.30109273874169
6.173913088,0.9999066612463505,117.13491321807092
6.176201216,0.9998413832114535,116.969700439019
6.178489856,0.9997866458152522,116.80538655138494
6.180777984,0.999745880177079,116.64179650353097
6.183066112,0.9997217153518101,116.47869168569153
6.185354752,0.9997153632071114,116.31582716399141
6.18764288,0.9997276393736794,116.15289901740037
6.18993152,0.9997576549166352,115.98971591975453
6.192219648,0.9998032935929978,115.82596743900929
6.194507776,0.9998620603096225,115.66149421902131
6.196796416,0.999929868341496,115.49613053779198
6.199084544,1.0000027335558985,115.32974019719809
6.201373184,1.0000758336071058,115.16227940503704
6.203661312,1.0001446956131552,114.9938559357111
6.20594944,1.0002047780834533,114.82446284577416
6.20823808,1.0002525894010732,114.6543517429323
6.210526208,1.0002847375044917,114.4836589581396
6.212814848,1.0002994035444772,114.3126136835903
6.215102976,1.0002957282133476,114.14150581885767
6.217391104,1.0002738982942867,113.97062445617352
6.219679744,1.0002350668074023,113.80016385173468
6.221967872,1.0001819274057893,113.63041550929805
6.224256512,1.0001177992160404,113.4614976243336
6.22654464,1.000046660278388,113.29362171864796
6.228832768,0.9999730493424567,113.12677011041737
6.231121408,0.9999016366210609,112.96100673395544
6.233409536,0.9998368735755072,112.79626472307972
6.235698176,0.9997827992626267,112.63236822353934
6.237986304,0.9997430082474236,112.46917571834781
6.240274432,0.999719946335132,112.30644646263558
6.242563072,0.9997151103527327,112.14392765509298
6.2448512,0.9997286661980143,111.9813994246506
6.24713984,0.9997598716816773,111.81853325764139
6.249427968,0.9998067728554915,111.65511199245036
6.251716096,0.999866449108082,111.49095659218493
6.254004736,0.9999348709946028,111.32584947956342
6.256292864,1.0000079967477289,111.15975120576526
6.258580992,1.0000811009221613,110.99260195337106
6.260869632,1.0001496191503285,110.8244377973403
6.26315776,1.0002091886184956,110.65536197288785
6.2654464,1.0002560388078248,110.48551984269818
6.267734528,1.0002870149492389,110.31514413992942
6.270022656,1.000300471187187,110.14445077739894
6.272311296,1.0002954695177155,109.97371324276837
6.274599424,1.0002721614493817,109.80317524340802
6.276888064,1.0002323364102594,109.63313853086663
6.279176192,1.0001781228063211,109.46377670159002
6.28146432,1.0001131907194316,109.2953164700194
6.28375296,1.0000414498884438,109.12782605628385
6.286041088,0.9999678133909778,108.96143041706884
6.288329728,0.9998964926018143,108.79610151858662
6.290617856,0.9998321654816512,108.63178544089847
6.292905984,0.9997790211848273,108.46832388502017
6.295194624,0.9997403406624461,108.30551792765262
6.297482752,0.9997183597887352,108.14318932807846
6.299771392,0.9997148828532355,107.98106760886665
6.30205952,0.9997298400434043,107.81886336194563
6.304347648,0.9997623070556064,107.65635937431088
6.306636288,0.9998103633021337,107.49325102053864
6.308924416,0.9998708402528661,107.32937042817292
6.311213056,0.9999399957126309,107.16458529551444
6.313501184,1.0000134139332912,106.99876962046365
6.315789312,1.0000865756021113,106.83188773451627
6.318077952,1.0001547174755525,106.66401930489862
6.32036608,1.0002134759039676,106.4952247627077
6.322654208,1.000259399537757,106.32569362024324
6.324942848,1.000289287435059,106.15565786798595
6.327230976,1.000301485810602,105.98526952143528
6.329519616,1.0002950528340535,105.81490505900582
6.331807744,1.0002705641888563,105.64476044799028
6.334095872,1.0002293217638156,105.47510138613482
6.336384512,1.0001741081207713,105.30616691586019
6.33867264,1.0001083414317438,105.13810787398648
6.34096128,1.0000362497092352,104.97108585308425
6.343249408,0.9999623377851211,104.80510528765032
6.345537536,0.9998912935246972,104.64022741491138
6.347826176,0.9998276179853965,104.47631373182857
6.350114304,0.9997751489971091,104.31325289212342
6.352402944,0.9997375507783028,104.15089131061148
6.354691072,0.9997168688570929,103.98896664384708
6.3569792,0.9997146493532967,103.82720363947868
6.35926784,0.9997309456663714,103.66536806566076
6.361555968,0.9997647487666472,103.50318042031982
6.363844608,0.9998138986097754,103.34039456963775
6.366132736,0.999875287380316,103.17681853661291
6.368420864,0.9999450729477185,103.01229404873692
6.370709504,1.0000188923865168,102.84678231514548
6.372997632,1.0000919212706836,102.68019959338635
6.375286272,1.0001596695020711,102.51260353825377
6.3775744,1.000217810522711,102.34411030192737
6.379862528,1.0002627451472903,102.17488658766554
6.382151168,1.0002915133865253,102.0051302094389
6.384439296,1.0003023315903838,101.83510333952034
6.386727936,1.0002944708762946,101.6650877212289
6.389016064,1.0002686131284146,101.4953161005203
6.391304192,1.0002261860052917,101.32604046074717
6.393592832,1.0001700217523521,101.15753130996633
6.39588096,1.0001034855427235,100.98989463975252
6.398169088,1.0000309278150448,100.82328602748557
6.400457728,0.9999568854800502,100.65778267097436
6.402745856,0.9998860530164301,100.49331193369348
6.405034496,0.9998229060399485,100.3298449330229
6.407322624,0.9997713055721563,100.16723457044907
6.409610752,0.9997347889738865,100.00524094402427
6.411899392,0.9997154528989359,99.84369407848844
6.41418752,0.9997145450400511,99.68233173081282
6.41647616,0.9997322326688461,99.52083580527355
6.418764288,0.9997672766455269,99.35896541773519
6.421052416,0.9998175662835797,99.19649526498927
6.423341056,0.999879983629252,99.03323255353239
6.425629184,0.9999503367990651,98.86901668462968
6.427917824,1.0000243805663802,98.70374213057825
6.430205952,1.0000972929153653,98.53746284190947
6.43249408,1.0001646300718323,98.37014598313559
6.43478272,1.0002221031119432,98.20193384311985
6.437070848,1.0002658798279864,98.03301607324264
6.439359488,1.0002935020940886,97.86359168187865
6.441647616,1.0003030393574444,97.69392067256689
6.443935744,1.0002939052138256,97.52424247210982
6.446224384,1.0002666584238806,97.35484663422626
6.448512512,1.0002230825257639,97.18597943873486
6.450801152,1.0001658796987818,97.01786485484543
6.45308928,1.0000985130418976,96.85065574862854
6.455377408,1.0000256237308327,96.6844825544968
6.457666048,0.9999513902764396,96.51941044610021
6.459954176,0.9998809177618029,96.35537343746134
6.462242816,0.9998182717546373,96.19235412090474
6.464530944,0.9997676004780411,96.03012001778616
6.466819072,0.99973216677648,95.86855624575561
6.469107712,0.9997141599733657,95.70740179084481
6.47139584,0.9997146604784239,95.5463833172178
6.473683968,0.9997336910197865,95.38524362925259
6.475972608,0.9997700425099547,95.22370914980837
6.478260736,0.9998214316913688,95.06154946931913
6.480549376,0.9998847181725953,94.89856849957614
6.482837504,0.9999556404298445,94.73463366824392
6.485125632,1.0000298898918296,94.56964168947036
6.487414272,1.0001028311974762,94.40362712219058
6.4897024,1.000169741190496,94.23660418645038
6.49199104,1.0002263942095706,94.06869735398539
6.494279168,1.0002692566180702,93.90007837134378
6.496567296,1.000295582678783,93.73095744171412
6.498855936,1.0003037101894834,93.561590941622
6.501144064,1.0002932481285765,93.39230265395881
6.503432704,1.0002646081635553,93.2232692296072
6.505720832,1.0002197788112344,93.05479861889032
6.50800896,1.0001614928265783,92.88710151567457
6.5102976,1.000093503975058,92.72030713203365
6.512585728,1.000020101611537,92.55457941989113
6.514874368,0.9999459471825681,92.38990402588709
6.517162496,0.9998756750439363,92.22631252655087
6.519450624,0.9998135881725929,92.06370054179095
6.521739264,0.999763920903459,91.90191346241144
6.524027392,0.9997295950776879,91.74073892526062
6.526316032,0.9997129763215611,91.5799610532727
6.52860416,0.9997148413501508,91.41931406753223
6.530892288,0.9997352947276156,91.25850776291662
6.533180928,0.9997729664139847,91.09730507941627
6.535469056,0.9998254541012359,90.93544448882957
6.537757184,0.999889475843355,90.77275407902867
6.540045824,0.9999610794607001,90.60911222990737
6.542333952,1.0000355655123578,90.44440968988083
6.544622592,1.0001082670108623,90.27864179512005
6.54691072,1.000174760496122,90.11188660393091
6.549198848,1.0002305472982858,89.94425733798397
6.551487488,1.0002724113858332,89.77595253708259
6.553775616,1.0002974558571411,89.60714970163642
6.556064256,1.0003042796583412,89.43812351473456
6.558352384,1.0002923783784095,89.26914633399693
6.560640512,1.000262375068857,89.10051820347006
6.562929152,1.000216407904273,88.93245422383188
6.56521728,1.0001571816677821,88.76513037944291
6.56750592,1.0000884763193043,88.59877439607571
6.569794048,1.0000146945952495,88.4334643018527
6.572082176,0.9999403730763293,88.26922438637948
6.574370816,0.9998704041158076,88.1060782958395
6.576658944,0.9998090663031034,87.94388417684902
6.578947584,0.9997603115896684,87.78249968482822
6.581235712,0.9997270991866655,87.62171311069937
6.58352384,0.9997117605092986,87.46133256444824
6.58581248,0.999715106993028,87.30103089474973
6.588100608,0.9997369427328539,87.14054745664357
6.590389248,0.9997758843061795,86.97967100644
6.592677376,0.9998295363913747,86.81810700360944
6.594965504,0.9998945237490128,86.65570010497646
6.597254144,0.9999665638250876,86.49233359726828
6.599542272,1.0000412340548501,86.32787499979193
6.601830912,1.0001139699083357,86.16238507639427
6.60411904,1.0001798030032258,85.99590066610118
6.606407168,1.0002349404690658,85.82855942246415
6.608695808,1.000275646840602,85.660522376394
6.610983936,1.000299410240765,85.49203407134685
6.613272064,1.0003048507469428,85.32334663906894
6.615560704,1.0002914728129462,85.154724760891
6.617848832,1.0002600945344098,84.98647650379924
6.620137472,1.0002128871834055,84.81877134994788
6.6224256,1.0001526583804605,84.65188210638048
6.624713728,1.0000831795355984,84.48594043653587
6.627002368,1.0000090011228886,84.32106506766577
6.629290496,0.9999347735122517,84.15724167340679
6.631579136,0.9998651186944005,83.99450907037877
6.633867264,0.9998045028166804,83.83273384438827
6.636155392,0.999756615444451,83.6717670230658
6.638444032,0.9997246562664143,83.51139153950827
6.64073216,0.9997106658809205,83.3513344346571
6.6430208,0.9997153874254229,83.19139649128783
6.645308928,0.999738582677435,83.03126642421722
6.647597056,0.9997789354898844,82.87065953206817
6.649885696,0.9998336980433133,82.70939178157252
6.652173824,0.9998994952060765,82.54727891873347
6.654462464,0.9999721248810202,82.3841443196083
6.656750592,1.0000471023353714,82.2199677421252
6.65903872,1.0001194245017186,82.05474334047959
6.66132736,1.000184845439652,81.88852152824667
6.663615488,1.000239065814949,81.72143827311591
6.665904128,1.000278787063215,81.55371811700596
6.668192256,1.000301176700852,81.38552640158188
6.670480384,1.0003052129036993,81.217169744734
6.672769024,1.0002904318013965,81.04890345906071
6.675057152,1.0002576297813537,80.88098770979958
6.677345792,1.000209224915964,80.71368857813242
6.67963392,1.0001479597076568,80.54718490086368
6.681922048,1.000077900063601,80.38164730013337
6.684210688,1.0000033666128831,80.21717324707714
6.686498816,0.9999291217198059,80.0538114521299
6.688786944,0.9998597516303326,79.89149240956405
6.691075584,0.9997997931279694,79.73013158423129
6.693363712,0.9997530260500391,79.56954887697025
6.695652352,0.9997222896203743,79.40955002393954
6.69794048,0.9997096442395219,79.2498780068042
6.700228608,0.9997158775640497,79.09025552093856
6.702517248,0.9997404846771922,78.9304446210752
6.704805376,0.9997820802733866,78.7701590896331
6.707094016,0.9998379373100151,78.60918112107004
6.709382144,0.9999045959544443,78.44732136020382
6.711670272,0.9999777639557107,78.28446077620431
6.713958912,1.0000528027902964,78.12052894118759
6.71624704,1.0001250753325068,77.95555433610897
6.71853568,1.0001898815441264,77.78959390453238
6.720823808,1.0002432449219965,77.6227805069244
6.723111936,1.000281743791332,77.45533032413374
6.725400576,1.0003029090224533,77.287436738602
6.727688704,1.000305484589364,77.11942160817226
6.729977344,1.0002892018377625,76.95148145250437
6.732265472,1.00025506909665,76.7839241631829
6.7345536,1.0002053781088989,76.61699952646629
6.73684224,1.0001432368807628,76.45091300325095
6.739130368,1.0000724037433784,76.28578175980891
6.741419008,0.9999976108076956,76.12172210197166
6.743707136,0.9999233434337997,75.9587640931489
6.745995264,0.9998544547390004,75.79685635334693
6.748283904,0.9997951905048093,75.63588252606247
6.750572032,0.9997494463618538,75.47571635664708
6.75286016,0.9997200192166811,75.3160891498046
6.7551488,0.9997088001904522,75.15676797760953
6.757436928,0.9997164215397738,74.99749663326084
6.759725568,0.9997425138038021,74.83796759123487
6.762013696,0.9997854278321228,74.67797252018205
6.764301824,0.9998423559909426,74.51726887498629
6.766590464,0.999909734540369,74.35567574095599
6.768878592,0.9999834414372168,74.19306775774743
6.771167232,1.0000586925680648,74.02939266238604
6.77345536,1.000130704459438,73.86464640465476
6.775743488,1.0001949779231925,73.69893673029601
6.778032128,1.0002474227802691,73.53239336535064
6.780320256,1.0002847119785092,73.36520656917892
6.782608896,1.0003045367506502,73.19762354123657
6.784897024,1.0003055934120715,73.02989044249534
6.787185152,1.0002879289491413,72.8622933467088
6.789473792,1.0002524376806994,72.69512382570502
6.79176192,1.0002015190454936,72.52854843316598
6.79405056,1.000138383873424,72.36284220169847
6.796338688,1.0000669574291496,72.19812266877756
6.798626816,0.9999917681894361,72.03447685358611
6.800915456,0.9999175843727555,71.87191700378146
6.803203584,0.9998490859944855,71.71041911644288
6.805492224,0.9997907048315162,71.54985475170291
6.807780352,0.9997459592860278,71.39004411414545
6.81006848,0.9997178032548468,71.23078348579502
6.81235712,0.9997079584861215,71.0718098648698
6.814645248,0.9997171044810076,70.91286493254077
6.816933888,0.9997446799391845,70.7536541171083
6.819222016,0.9997888463715007,70.59393526589294
6.821510144,0.9998468537380378,70.4334872700444
6.823798784,0.9999151451487444,70.2721424193947
6.826086912,0.9999892522236467,70.1097801771062
6.82837504,1.0000645323532795,69.94631841036913
6.83066368,1.0001363286294047,69.78183501669749
6.832951808,1.0002000056741098,69.61635997628682
6.835240448,1.0002514882096432,69.45006715520819
6.837528576,1.000287634908459,69.2831449030175
6.839816704,1.0003060372050065,69.11584552722283
6.842105344,1.0003056872905152,68.94843153108587
6.844393472,1.0002864302150973,68.78116290093855
6.846682112,1.0002495663976652,68.61433156061469
6.84897024,1.000197514353955,68.4481524182684
6.851258368,1.0001333781033328,68.28281097628214
6.853547008,1.0000613648527004,68.11846045897741
6.855835136,0.9999859189985613,67.95522820158229
6.858123776,0.9999117790702821,67.79308232211136
6.860411904,0.9998437619558181,67.63196619152927
6.862700032,0.9997861273023502,67.47179797033743
6.864988672,0.9997425126568351,67.31236473659214
6.8672768,0.9997156467081976,67.15345325817677
6.86956544,0.9997072296977553,66.99481295560962
6.871853568,0.9997179268428422,66.83616586569731
6.874141696,0.9997468364979464,66.67726880298139
6.876430336,0.9997923750148272,66.51781147069325
6.878718464,0.999851527975238,66.35763538399283
6.881007104,0.999920541543042,66.19651963463703
6.883295232,0.9999950952432085,66.03436182357659
6.88558336,1.0000705100533516,65.87115553258536
6.887872,1.0001419658150965,65.70687630017952
6.890160128,1.0002049757595988,65.54165313279258
6.892448768,1.0002555144323777,65.37560030527429
6.894736896,1.000290361381455,65.20895460902396
6.897025024,1.0003074985801415,65.04191799425472
6.899313664,1.0003055540339887,64.87479994410685
6.901601792,1.0002848571922622,64.70785480922216
6.90388992,1.00024665084721,64.5413559669891
6.90617856,1.0001933484852326,64.37553379054884
6.908466688,1.0001283162319121,64.21056462257427
6.910755328,1.0000556566061933,64.04662211023495
6.913043456,0.9999799560985555,63.88377558511265
6.915331584,0.999905953536171,63.72200882721926
6.917620224,0.9998384979303061,63.56129649802508
6.919908352,0.9997815791936512,63.401494153475085
6.922196992,0.9997390979058144,63.242435402155984
6.92448512,0.9997135990745926,63.08385649915447
6.926773248,0.9997066445635258,62.925551272775614
6.929061888,0.9997188301945477,62.76721759947357
6.931350016,0.9997491666937824,62.60857225979752
