freq,mag,phase
6.0,0.9999938425482517,74.17637400811338
6.008,0.9999940061257878,74.02234537481273
6.016,0.9999941664929454,73.86826826455818
6.024,0.9999943237064572,73.71414262087579
6.032,0.9999944778220526,73.559968387519
6.04,0.9999946288944694,73.4057455084689
6.048,0.9999947769774646,73.25147392793417
6.056,0.99999492212383,73.09715359035133
6.064,0.9999950643853999,72.94278444038467
6.072,0.9999952038130664,72.78836642292652
6.08,0.9999953404567892,72.63389948309721
6.088,0.9999954743656084,72.4793835662452
6.096,0.9999956055876569,72.32481861794722
6.104,0.9999957341701705,72.17020458400827
6.112,0.9999958601594999,72.0155414104618
6.12,0.9999959836011243,71.86082904356962
6.128,0.9999961045396599,71.7060674298222
6.136,0.9999962230188737,71.55125651593856
6.144,0.999996339081693,71.39639624886644
6.152,0.9999964527702188,71.24148657578239
6.16,0.9999965641257355,71.08652744409167
6.168,0.9999966731887225,70.9315188014286
6.176,0.9999967799988657,70.7764605956563
6.184,0.999996884595068,70.62135277486702
6.192,0.999996987015461,70.46619528738206
6.2,0.999997087297415,70.31098808175182
6.208,0.9999971854775511,70.15573110675591
6.216,0.9999972815917506,70.0004243114032
6.224,0.9999973756751674,69.8450676449318
6.232,0.999997467762237,69.6896610568092
6.24,0.9999975578866885,69.53420449673224
6.248,0.9999976460815542,69.37869791462718
6.256,0.9999977323791807,69.22314126064977
6.264,0.9999978168112387,69.06753448518522
6.272,0.9999978994087342,68.91187753884829
6.28,0.9999979802020182,68.75617037248331
6.288,0.9999980592207975,68.60041293716422
6.296,0.9999981364941434,68.44460518419457
6.304,0.9999982120505037,68.28874706510757
6.312,0.9999982859177118,68.13283853166611
6.32,0.9999983581229964,67.9768795358628
6.328,0.999998428692992,67.82087002991999
6.336,0.9999984976537488,67.66480996628972
6.344,0.9999985650307409,67.50869929765385
6.352,0.9999986308488787,67.35253797692397
6.36,0.9999986951325164,67.19632595724151
6.368,0.999998757905462,67.0400631919777
6.376,0.9999988191909879,66.88374963473353
6.384,0.9999988790118383,66.72738523933985
6.392,0.9999989373902404,66.57096995985738
6.4,0.9999989943479133,66.4145037505766
6.408,0.9999990499060764,66.25798656601785
6.416,0.999999104085459,66.10141836093129
6.424,0.9999991569063106,65.94479909029697
6.432,0.9999992083884071,65.78812870932471
6.44,0.9999992585510632,65.63140717345416
6.448,0.999999307413138,65.47463443835484
6.456,0.9999993549930469,65.31781045992601
6.464,0.9999994013087681,65.16093519429678
6.472,0.9999994463778518,65.00400859782603
6.48,0.9999994902174294,64.84703062710241
6.4879999999999995,0.9999995328442216,64.6900012389444
6.496,0.9999995742745473,64.53292039040007
6.504,0.9999996145243311,64.37578803874737
6.5120000000000005,0.9999996536091126,64.21860414149387
6.52,0.9999996915440543,64.06136865637691
6.5280000000000005,0.9999997283439498,63.90408154136335
6.536,0.9999997640232315,63.74674275464984
6.5440000000000005,0.99999979859598,63.589352254662494
6.552,0.9999998320759305,63.431910000057194
6.5600000000000005,0.9999998644764813,63.27441594971916
6.568,0.9999998958107027,63.116870062763354
6.5760000000000005,0.999999926091343,62.959272298534046
6.584,0.9999999553308376,62.801622616605115
6.592,0.999999983541316,62.64392097677974
6.6,1.0,62.486167339090564
6.608,1.0,62.32836166379958
6.616,1.0,62.170503911398065
6.624,1.0,62.01259404260659
6.632,0.9999999999999999,61.85463201837496
6.64,1.0,61.69661779988215
6.648,0.9999999999999999,61.53855134853629
6.656,1.0,61.380432625974635
6.664,1.0,61.22226159406345
6.672,1.0,61.06403821489804
6.68,0.9999999999999999,60.90576245080266
6.688,1.0,60.74743426433047
6.696,1.0,60.58905361826349
6.704,1.0,60.43062047561253
6.712,1.0,60.27213479961718
6.72,1.0,60.11359655374569
6.728,1.0,59.955005701694986
6.736,1.0,59.79636220739056
6.744,1.0,59.63766603498643
6.752,1.0,59.478917148865094
6.76,1.0,59.320115513637454
6.768,0.9999999999999999,59.16126109414276
6.776,1.0,59.00235385544851
6.784,1.0,58.8433937628505
6.792,0.9999999999999999,58.68438078187263
6.8,0.9999999999999999,58.52531487826691
6.808,1.0,58.36619601801337
6.816,0.9999999999999998,58.20702416732002
6.824,1.0,58.04779929262278
6.832,1.0,57.88852136058533
6.84,1.0,57.72919033809919
6.848,1.0,57.56980619228353
6.856,1.0,57.41036889048513
6.864,0.9999999999999999,57.25087840027834
6.872,1.0,57.09133468946498
6.88,1.0000000000000002,56.93173772607428
6.888,1.0,56.77208747836275
6.896,1.0,56.61238391481422
6.904,1.0,56.45262700413967
6.912,1.0,56.292816715277176
6.92,0.9999999999999999,56.13295301739187
6.928,0.9999999999999999,55.97303587987579
6.936,0.9999999999999999,55.81306527234789
6.944,1.0,55.6530411646539
6.952,1.0,55.49296352686629
6.96,0.9999999999999999,55.33283232928412
6.968,1.0,55.172647542433026
6.976,1.0,55.01240913706518
6.984,0.9999999999999999,54.85211708415903
6.992,1.0,54.691771354919474
7.0,1.0,54.531371920777524
7.008,1.0,54.37091875339042
7.016,1.0,54.210411824641454
7.024,1.0,54.049851106639856
7.032,0.9999999999999999,53.88923657172085
7.04,0.9999999999999999,53.72856819244536
7.048,1.0,53.56784594160013
7.056,1.0,53.40706979219751
7.064,0.9999999999999999,53.24623971747545
7.072,1.0,53.08535569089732
7.08,1.0,52.92441768615194
7.088,1.0,52.76342567715337
7.096,1.0,52.602379638040965
7.104,1.0,52.441279543179135
7.112,1.0,52.28012536715738
7.12,0.9999999965070708,52.11891708479015
7.128,0.9999999734970397,51.957654671116764
7.136,0.9999999499169326,51.796338101401304
7.144,0.9999999257722982,51.63496735113258
7.152,0.9999999010687433,51.47354239602398
7.16,0.9999998758119362,51.312063212013435
7.168,0.9999998500076079,51.15052977526327
7.176,0.9999998236615564,50.9889420621602
7.184,0.9999997967796485,50.82730004931514
7.192,0.9999997693678214,50.66560371356321
7.2,0.9999997414320883,50.50385303196359
7.208,0.9999997129785363,50.34204798179946
7.216,0.9999996840133325,50.180188540577866
7.224,0.9999996545427245,50.01827468602969
7.232,0.999999624573043,49.856306396109545
7.24,0.9999995941107043,49.694283648995636
7.248,0.9999995631622116,49.53220642308975
7.256,0.9999995317341575,49.37007469701711
7.264,0.9999994998332261,49.2078884496263
7.272,0.9999994674661947,49.04564765998919
7.28,0.9999994346399353,48.88335230740085
7.288,0.9999994013614176,48.721002371379406
7.296,0.9999993676377088,48.558597831666034
7.304,0.9999993334759769,48.39613866822483
7.312,0.9999992988834917,48.23362486124272
7.32,0.9999992638676259,48.07105639112935
7.328,0.9999992284358574,47.908433238517034
7.336,0.9999991925957701,47.74575538426072
7.344,0.9999991563550554,47.583022809437736
7.352,0.9999991197215131,47.420235495347875
7.36,0.9999990827030542,47.25739342351322
7.368,0.9999990453076995,47.09449657567808
7.376,0.9999990075435833,46.931544933808865
7.384,0.9999989694189523,46.76853848009408
7.392,0.9999989309421676,46.60547719694418
7.4,0.9999988921217067,46.44236106699147
7.4079999999999995,0.9999988529661619,46.279190073090085
7.416,0.9999988134842427,46.11596419831577
7.4239999999999995,0.999998773684777,45.95268342596606
7.432,0.9999987335767104,45.789347739559844
7.4399999999999995,0.9999986931691075,45.6259571228376
7.448,0.999998652471153,45.462511559761055
7.4559999999999995,0.9999986114921515,45.299011034513356
7.464,0.999998570241528,45.13545553149868
7.4719999999999995,0.9999985287288286,44.9718450353425
7.48,0.9999984869637213,44.808179530891145
7.4879999999999995,0.9999984449559947,44.64445900321206
7.496,0.9999984027155596,44.48068343759341
7.504,0.9999983602524499,44.316852819544316
7.5120000000000005,0.9999983175768206,44.152967134794416
7.52,0.9999982746989492,43.98902636929415
7.5280000000000005,0.9999982316292361,43.825030509214336
7.536,0.9999981883782029,43.660979540946435
7.5440000000000005,0.9999981449564952,43.49687345110215
7.552,0.9999981013748787,43.33271222651359
7.5600000000000005,0.999998057644242,43.16849585423303
7.568,0.9999980137755955,43.004224321532966
7.5760000000000005,0.9999979697800702,42.83989761590588
7.584,0.9999979256689191,42.67551572506438
7.5920000000000005,0.9999978814535153,42.51107863694084
7.6,0.9999978371453516,42.346586339687654
7.6080000000000005,0.9999977927560413,42.182038821676834
7.616,0.9999977482973161,42.01743607150023
7.6240000000000006,0.9999977037810268,41.85277807796919
7.632,0.9999976592191422,41.68806483011476
7.640000000000001,0.9999976146237469,41.52329631718729
7.648,0.9999975700070437,41.35847252865671
7.656000000000001,0.9999975253813502,41.19359345421217
7.664,0.9999974807590984,41.02865908376217
7.672,0.9999974361528351,40.86366940743432
7.68,0.9999973915752192,40.69862441557544
7.688,0.999997347039022,40.53352409875135
7.696,0.9999973025571255,40.3683684477469
7.704,0.9999972581425218,40.20315745356583
7.712,0.9999972138083117,40.03789110743076
7.72,0.9999971695677032,39.8725694007831
7.728,0.999997125434011,39.70719232528299
7.736,0.9999970814206544,39.54175987280918
7.744,0.9999970375411573,39.376272035459095
7.752,0.999996993809145,39.21072880554863
7.76,0.9999969502383442,39.04513017561216
7.768,0.999996906842582,38.87947613840251
7.776,0.9999968636357818,38.71376668689079
7.784,0.9999968206319652,38.548001814266456
7.792,0.9999967778452479,38.38218151393714
7.8,0.9999967352898395,38.21630577952866
7.808,0.9999966929800407,38.05037460488497
7.816,0.9999966509302429,37.88438798406803
7.824,0.999996609154926,37.71834591135781
7.832,0.9999965676686551,37.55224838125223
7.84,0.9999965264860814,37.38609538846708
7.848,0.9999964856219391,37.21988692793599
7.856,0.9999964450910417,37.053622994810354
7.864,0.9999964049082838,36.887303584459275
7.872,0.9999963650886357,36.720928692469585
7.88,0.9999963256471437,36.55449831464562
7.888,0.9999962865989267,36.38801244700941
7.896,0.999996247959175,36.2214710858004
7.904,0.999996209743147,36.05487422747556
7.912,0.9999961719661687,35.88822186870926
7.92,0.9999961346436302,35.72151400639324
7.928,0.9999960977909843,35.55475063763658
7.936,0.9999960614237435,35.38793175976561
7.944,0.9999960255574781,35.22105737032389
7.952,0.999995990207815,35.054127467072234
7.96,0.9999959553904323,34.8871420479885
7.968,0.9999959211210607,34.72010111126771
7.976,0.9999958874154784,34.553004655321956
7.984,0.9999958542895095,34.38585267878028
7.992,0.9999958217590217,34.218645180488785
8.0,0.9999957898399238,34.05138215951044
8.008,0.9999957585481628,33.88406361512518
8.016,0.9999957278997217,33.71668954682969
8.024000000000001,0.9999956979106165,33.54925995433759
8.032,0.9999956685968943,33.381774837579286
8.04,0.9999956399746295,33.21423419670185
8.048,0.9999956120599227,33.046638032069076
8.056000000000001,0.9999955848688964,32.8789863442615
8.064,0.9999955584176933,32.711279134076314
8.072,0.999995532722473,32.54351640252725
8.08,0.9999955077994097,32.375698150844606
8.088000000000001,0.9999954836646889,32.207824380475344
8.096,0.9999954603345054,32.0398950930829
8.104,0.9999954378250587,31.871910290547127
8.112,0.9999954161525529,31.70386997496438
8.120000000000001,0.9999953953331906,31.5357741486475
8.128,0.9999953753831727,31.367622814125735
8.136,0.9999953563186939,31.199415974144603
8.144,0.9999953381559399,31.03115363166601
8.152000000000001,0.9999953209110851,30.862835789868278
8.16,0.9999953046002895,30.694462452145988
8.168,0.9999952892396943,30.52603362210995
8.176,0.9999952748454207,30.357549303587245
8.184000000000001,0.9999952614335662,30.189009500621214
8.192,0.9999952490202008,30.020414217471476
8.2,0.9999952376213648,29.851763458613696
8.208,0.9999952272530654,29.68305722873974
8.216000000000001,0.9999952179312734,29.51429553275774
8.224,0.9999952096719205,29.34547837579189
8.232,0.9999952024908954,29.17660576318245
8.24,0.999995196404041,29.007677700485797
8.248000000000001,0.9999951914271524,28.838694193474435
8.256,0.9999951875759708,28.669655248136934
8.264,0.9999951848661836,28.500560870677873
8.272,0.9999951833134189,28.33141106751779
8.280000000000001,0.999995182933243,28.162205845293386
8.288,0.9999951837411576,27.992945210857325
8.296,0.9999951857525954,27.823629171278206
8.304,0.9999951889829183,27.65425773384059
8.312,0.9999951934474124,27.48483090604514
8.32,0.9999951991612865,27.315348695608304
8.328,0.9999952061396675,27.14581111046262
8.336,0.9999952143975978,26.976218158756435
8.344,0.9999952239500313,26.80656984885414
8.352,0.9999952348118315,26.636866189335905
8.36,0.9999952469977653,26.467107188997968
8.368,0.9999952605225035,26.297292856852295
8.376,0.9999952754006148,26.127423202126884
8.384,0.999995291646563,25.9574982342655
8.392,0.9999953092747036,25.787517962927904
8.4,0.9999953282992813,25.61748239798958
8.408,0.9999953487344257,25.44739154954204
8.416,0.9999953705941483,25.277245427892485
8.424,0.9999953938923394,25.10704404356413
8.432,0.9999954186427636,24.936787407295892
8.44,0.9999954448590583,24.766475530042673
8.448,0.9999954725547293,24.59610842297506
8.456,0.9999955017431466,24.425686097479648
8.464,0.9999955324375422,24.255208565158686
8.472,0.9999955646510078,24.08467583783042
8.48,0.9999955983964885,23.914087927528765
8.488,0.9999956336867815,23.743444846503635
8.496,0.9999956705345332,23.57274660722057
8.504,0.9999957089522338,23.401993222361124
8.512,0.999995748952216,23.23118470482251
8.52,0.9999957905466508,23.060321067717876
8.528,0.9999958337475433,22.8894023243761
8.536,0.9999958785667318,22.718428488341953
8.544,0.999995925015882,22.547399573375927
8.552,0.9999959731064848,22.37631559345445
8.56,0.9999960228498533,22.205176562769623
8.568,0.9999960742571186,22.033982495729497
8.576,0.9999961273392274,21.86273340695779
8.584,0.9999961821069385,21.691429311294193
8.592,0.999996238570819,21.520070223794054
8.6,0.9999962967412419,21.34865615972866
8.608,0.999996356628382,21.177187134585004
8.616,0.9999964182422141,21.00566316406598
8.624,0.9999964815925073,20.834084264090198
8.632,0.9999965466888249,20.662450450792168
8.64,0.9999966135405187,20.49076174052212
8.648,0.9999966821567272,20.31901814984621
8.656,0.999996752546372,20.147219695546237
8.664,0.9999968247181547,19.975366394619986
8.672,0.9999968986805537,19.80345826428087
8.68,0.9999969744418213,19.63149532195829
8.688,0.9999970520099811,19.45947758529725
8.696,0.9999971313928232,19.287405072158755
8.704,0.9999972125979035,19.1152778006194
8.712,0.9999972956325389,18.94309578897177
8.72,0.9999973805038053,18.770859055724085
8.728,0.9999974672185333,18.598567619600487
8.736,0.9999975557833078,18.426221499540762
8.744,0.9999976462044621,18.253820714700623
8.752,0.9999977384880766,18.081365284451426
8.76,0.9999978326399761,17.90885522838042
8.768,0.999997928665726,17.736290566290485
8.776,0.99999802657063,17.563671318200427
8.784,0.9999981263597274,17.390997504344615
8.792,0.9999982280377899,17.218269145173355
8.8,0.9999983316093191,17.04548626135252
8.808,0.9999984370785436,16.87264887376387
8.815999999999999,0.999998544449417,16.699757003504757
8.824,0.9999986537256133,16.52681067188828
8.832,0.9999987649105271,16.353809900443274
8.84,0.9999988780072676,16.18075471091429
8.847999999999999,0.9999989930186597,16.007645125261472
8.856,0.9999991099472383,15.834481165660632
8.864,0.9999992287952469,15.661262854503294
8.872,0.9999993495646364,15.487990214396644
8.879999999999999,0.9999994722570601,15.31466326816339
8.888,0.9999995968738725,15.141282038841865
8.896,0.9999997234161284,14.967846549686037
8.904,0.9999998518845775,14.794356824165474
8.911999999999999,0.9999999822796642,14.620812885965186
8.92,1.0,14.44721475898574
8.928,1.0,14.273562467343263
8.936,1.0,14.099856035369383
8.943999999999999,1.0,13.926095487611093
8.952,1.0,13.752280848830837
8.96,1.0,13.578412144006531
8.968,0.9999999999999999,13.404489398331473
8.975999999999999,1.0,13.230512637214249
8.984,0.9999999999999999,13.056481886278744
8.992,0.9999999999999998,12.882397171364216
9.0,0.9999999999999998,12.708258518525183
9.008,1.0,12.534065954031295
9.016,1.0,12.359819504367398
9.024000000000001,0.9999999999999999,12.185519196233548
9.032,1.0,12.011165056544915
9.04,1.0,11.836757112431654
9.048,1.0,11.662295391238938
9.056000000000001,1.0,11.487779920527004
9.064,1.0,11.313210728071008
9.072,1.0,11.138587841860918
9.08,0.9999999999999999,10.963911290101533
9.088000000000001,0.9999999999999999,10.789181101212515
9.096,1.0,10.614397303828245
9.104,1.0,10.439559926797704
9.112,0.9999999999999999,10.264668999184483
9.120000000000001,0.9999999999999999,10.08972455026681
9.128,0.9999999999999998,9.914726609537402
9.136,0.9999999999999999,9.73967520670333
9.144,0.9999999999999999,9.564570371686013
9.152000000000001,1.0,9.389412134621269
9.16,1.0,9.21420052585912
9.168,1.0,9.038935575963661
9.176,1.0,8.863617315713078
9.184000000000001,1.0,8.688245776099617
9.192,0.9999999999999999,8.512820988329452
9.2,0.9999999999999999,8.337342983822506
9.208,1.0,8.161811794212467
9.216000000000001,1.0,7.986227451346756
9.224,1.0,7.810589987286367
9.232,0.9999999999999999,7.634899434305698
9.24,1.0,7.45915582489254
9.248000000000001,0.9999999999999999,7.283359191748041
9.256,0.9999999999999999,7.107509567786531
9.264,0.9999999999999999,6.931606986135363
9.272,1.0,6.755651480134852
9.280000000000001,0.9999999999999999,6.579643083338259
9.288,0.9999999999999999,6.403581829511594
9.296,1.0,6.227467752633452
9.304,1.0,6.051300886894914
9.312000000000001,1.0,5.875081266699557
9.32,0.9999999999999999,5.698808926663234
9.328,0.9999999999999999,5.5224839016138505
9.336,0.9999999999999999,5.3461062265913375
9.344,1.0,5.169675936847618
9.352,1.0,4.993193067846193
9.36,1.0,4.81665765526234
9.368,0.9999999999999999,4.6400697349826
9.376,1.0,4.463429343105006
9.384,0.9999999999999999,4.286736515938578
9.392,1.0,4.109991290003481
9.4,1.0,3.933193702030577
9.408,1.0,3.7563437889615527
9.416,1.0,3.5794415879484363
9.424,1.0,3.402487136353771
9.432,1.0,3.22548047175009
9.44,0.9999999999999999,3.048421631920066
9.448,1.0,2.8713106548560354
9.456,0.9999999999999999,2.6941475787600826
9.464,0.9999999999999998,2.516932442043563
9.472,1.0,2.3396652833272453
9.48,1.0,2.1623461414407332
9.488,1.0,1.9849750554226382
9.496,0.9999999999999999,1.8075520645200276
9.504,0.9999999999999999,1.6300772081885337
9.512,1.0,1.4525505260918152
9.52,1.0,1.274972058101674
9.528,1.0,1.097341844297476
9.536,1.0,0.9196599249662886
9.544,0.9999999999999999,0.7419263406022599
9.552,1.0,0.5641411319067855
9.56,1.0,0.38630433978785395
9.568,1.0,0.20841600536018245
9.576,1.0,0.030476169944617743
9.584,1.0,-0.14751512493180294
9.592,0.9999999999999999,-0.3255578375364253
9.6,1.0,-0.5036519259309437
9.608,1.0,-0.6817973479719789
9.616,0.9999999999999999,-0.8599940613110375
9.624,1.0,-1.0382420233951373
9.632,0.9999999999999998,-1.2165411914667497
9.64,1.0,-1.394891522564433
9.648,1.0,-1.5732929735227994
9.656,0.9999999999999999,-1.7517455009731602
9.664,1.0,-1.930249061343494
9.672,0.9999999999999999,-2.1088036108590997
9.68,1.0,-2.287409105542587
9.688,1.0,-2.4660655012145476
9.696,0.9999999999999999,-2.644772753493527
9.704,1.0,-2.8235308177967364
9.712,1.0,-3.002339649340039
9.72,0.9999999999999998,-3.1811992031386334
9.728,1.0,-3.3601094340071054
9.736,1.0,-3.5390702965600807
9.744,1.0,-3.718081745212305
9.752,1.0,-3.8971437341793242
9.76,1.0,-4.0762562174775505
9.768,0.9999999999999999,-4.25541914892497
9.776,1.0,-4.434632482141219
9.784,1.0,-4.6138961705483
9.792,1.0,-4.793210167370678
9.8,1.0,-4.972574425636006
9.808,0.9999999999999999,-5.1519888981752375
9.816,0.9999999999999999,-5.331453537623355
9.824,0.9999999999999999,-5.510968296419508
9.832,0.9999999999999999,-5.690533126807745
9.84,1.0,-5.870147980837178
9.847999999999999,1.0,-6.0498128103626865
9.856,1.0,-6.229527567045268
9.864,1.0000000000000002,-6.409292202352431
9.872,0.9999999999999999,-6.589106667558745
9.879999999999999,1.0,-6.768970913746422
9.888,1.0,-6.948884891805692
9.896,1.0,-7.128848552435249
9.904,0.9999999999999998,-7.3088618461428325
9.911999999999999,0.9999999999999999,-7.48892472324581
9.92,1.0,-7.669037133871608
9.928,1.0,-7.849199027958197
9.936,1.0,-8.029410355254663
9.943999999999999,1.0,-8.209671065321862
