freq,mag,phase
6.0,0.9999981981442964,167.60460585872332
6.008,0.999996800384187,167.24464035437407
6.016,0.9999954375827007,166.88442921615507
6.024,0.9999941092348712,166.52396525288884
6.032,0.9999928148410413,166.16324125651676
6.04,0.9999915539068122,165.80225000190634
6.048,0.9999903259429929,165.44098424665881
6.056,0.9999891304655528,165.07943673091643
6.064,0.9999879669955686,164.71760017717003
6.072,0.9999868350591797,164.35546729006734
6.08,0.9999857341875354,163.9930307562208
6.088,0.9999846639167514,163.63028324401654
6.096,0.9999836237878557,163.2672174034235
6.104,0.9999826133467478,162.90382586580316
6.112,0.9999816321441433,162.54010124371987
6.12,0.9999806797355372,162.17603613075238
6.128,0.9999797556811458,161.8116231013055
6.136,0.9999788595458695,161.44685471042328
6.144,0.9999779908992441,161.08172349360285
6.152,0.9999771493153906,160.71622196660954
6.16,0.9999763343729768,160.35034262529325
6.168,0.9999755456551683,159.98407794540597
6.176,0.9999747827495855,159.61742038242065
6.184,0.9999740452482568,159.2503623713518
6.192,0.9999733327475794,158.88289632657757
6.2,0.9999726448482696,158.51501464166333
6.208,0.9999719811553254,158.1467096891874
6.216,0.9999713412779779,157.7779738205684
6.224,0.9999707248296562,157.40879936589477
6.232,0.9999701314279356,157.03917863375634
6.24,0.9999695606945055,156.6691039110782
6.248,0.9999690122551189,156.2985674629568
6.256,0.9999684857395599,155.92756153249874
6.264,0.9999679807815945,155.55607834066188
6.272,0.9999674970189367,155.18411008609928
6.28,0.9999670340932053,154.81164894500623
6.288,0.999966591649883,154.4386870709697
6.296,0.9999661693382791,154.06521659482135
6.304,0.9999657668114926,153.69122962449356
6.312,0.9999653837263653,153.31671824487887
6.32,0.9999650197434532,152.941674517693
6.328,0.9999646745269826,152.56609048134115
6.336,0.9999643477448118,152.1899581507887
6.344,0.9999640390683969,151.81326951743517
6.352,0.9999637481727539,151.43601654899282
6.36,0.9999634747364194,151.05819118936904
6.368,0.9999632184414191,150.6797853585535
6.376,0.999962978973227,150.30079095250946
6.384,0.9999627560207314,149.92119984307024
6.392,0.9999625492762008,149.54100387783996
6.4,0.9999623584352478,149.1601948801002
6.408,0.9999621831967931,148.7787646487207
6.416,0.9999620232630336,148.39670495807667
6.424,0.9999618783394073,148.01400755797067
6.432,0.9999617481345598,147.63066417356094
6.44,0.9999616323603091,147.24666650529517
6.448,0.9999615307316174,146.8620062288509
6.456,0.9999614429665517,146.47667499508154
6.464,0.9999613687862586,146.09066442996973
6.472,0.9999613079149262,145.70396613458678
6.48,0.999961260079756,145.31657168505933
6.4879999999999995,0.9999612250109318,144.92847263254316
6.496,0.9999612024415844,144.53966050320395
6.504,0.9999611921077672,144.15012679820666
6.5120000000000005,0.9999611937484219,143.75986299371107
6.52,0.9999612071053471,143.368860540877
6.5280000000000005,0.9999612319231732,142.9771108658765
6.536,0.9999612679493307,142.58460536991566
6.5440000000000005,0.999961314934019,142.1913354292637
6.552,0.999961372630182,141.79729239529277
6.5600000000000005,0.9999614407934763,141.40246759452543
6.568,0.9999615191822447,141.00685232869276
6.5760000000000005,0.9999616075574885,140.61043787480105
6.584,0.9999617056828378,140.21321548521
6.592,0.9999618133245298,139.81517638771953
6.6,0.9999619302513753,139.41631178566846
6.608,0.9999620562347364,139.01661285804323
6.616,0.9999621910485015,138.61607075959816
6.624,0.9999623344690547,138.21467662098672
6.632,0.9999624862752546,137.81242154890495
6.64,0.9999626462484079,137.4092966262463
6.648,0.9999628141722428,137.00529291226937
6.656,0.9999629898328882,136.60040144277784
6.664,0.9999631730188465,136.19461323031345
6.672,0.9999633635209692,135.7879192643621
6.68,0.9999635611324362,135.38031051157384
6.688,0.9999637656487318,134.97177791599628
6.696,0.9999639768676182,134.5623123993228
6.704,0.9999641945891189,134.15190486115466
6.712,0.9999644186154907,133.74054617927874
6.72,0.9999646487512056,133.3282272099599
6.728,0.9999648848029281,132.9149387882496
6.736,0.9999651265794924,132.50067172830995
6.744,0.9999653738918836,132.08541682375454
6.752,0.9999656265532147,131.66916484800586
6.76,0.9999658843787091,131.25190655466963
6.768,0.9999661471856776,130.83363267792734
6.776,0.9999664147935003,130.41433393294568
6.784,0.9999666870236069,129.99400101630516
6.792,0.9999669636994571,129.57262460644705
6.8,0.9999672446465228,129.1501953641394
6.808,0.9999675296922683,128.72670393296272
6.816,0.9999678186661329,128.3021409398156
6.824,0.9999681113995135,127.87649699544062
6.832,0.9999684077257454,127.44976269497116
6.84,0.9999687074800873,127.02192861849944
6.848,0.9999690104997025,126.59298533166617
6.856,0.9999693166236432,126.16292338627245
6.864,0.9999696256928347,125.73173332091412
6.872,0.9999699375500577,125.29940566163937
6.88,0.999970252039935,124.86593092262949
6.888,0.9999705690089142,124.43129960690398
6.896,0.9999708883052539,123.99550220704985
6.904,0.9999712097790082,123.55852920597599
6.912,0.9999715332820136,123.12037107769267
6.92,0.9999718586678732,122.68101828811734
6.928,0.9999721857919442,122.24046129590636
6.936,0.9999725145113249,121.79869055331386
6.944,0.9999728446848402,121.35569650707795
6.952,0.999973176173029,120.91146959933461
6.96,0.9999735088381347,120.46600026856008
6.968,0.9999738425440885,120.01927895054209
6.976,0.999974177156501,119.57129607938039
6.984,0.9999745125426486,119.12204208851728
6.992,0.999974848571465,118.67150741179846
7.0,0.9999751851135278,118.21968248456471
7.008,0.999975522041049,117.76655774477526
7.016,0.9999758592278648,117.31212363416269
7.024,0.9999761965494268,116.85637059942086
7.032,0.9999765338827904,116.39928909342512
7.04,0.9999768711066069,115.9408695764869
7.048,0.9999772081011152,115.48110251764133
7.056,0.9999775447481319,115.01997839597037
7.064,0.9999778809310442,114.5574877019602
7.072,0.9999782165348009,114.09362093889493
7.08,0.9999785514459064,113.6283686242858
7.088,0.9999788855524121,113.16172129133734
7.096,0.9999792187439109,112.69366949045067
7.104,0.9999795509115282,112.2242037907642
7.112,0.9999798819479184,111.75331478173278
7.12,0.9999802117472582,111.28099307474538
7.128,0.9999805402052394,110.80722930478179
7.136,0.9999808672190664,110.3320141321092
7.144,0.9999811926874486,109.8553382440187
7.152,0.9999815165105972,109.37719235660255
7.16,0.9999818385902208,108.89756721657243
7.168,0.9999821588295222,108.41645360311918
7.176,0.9999824771331939,107.93384232981467
7.184,0.9999827934074129,107.44972424655617
7.192,0.9999831075598415,106.96409024155325
7.2,0.9999834194996229,106.47693124335828
7.208,0.9999837291373775,105.98823822294071
7.216,0.9999840363852033,105.49800219580506
7.224,0.9999843411566737,105.0062142241539
7.232,0.9999846433668332,104.51286541909532
7.24,0.9999849429322011,104.0179469428958
7.248,0.9999852397707664,103.52145001127857
7.256,0.9999855338019901,103.02336589576792
7.264,0.999985824946805,102.52368592607964
7.272,0.9999861131276125,102.02240149255789
7.28,0.9999863982682885,101.51950404865896
7.288,0.9999866802941795,101.0149851134818
7.296,0.9999869591321064,100.50883627434587
7.304,0.9999872347103642,100.00104918941639
7.312,0.9999875069587246,99.49161559037698
7.32,0.9999877758084383,98.98052728515025
7.328,0.9999880411922345,98.46777616066593
7.336,0.9999883030443285,97.95335418567717
7.344,0.9999885613004196,97.43725341362459
7.352,0.9999888158976957,96.91946598554838
7.36,0.999989066774838,96.3999841330484
7.368,0.9999893138720221,95.87880018129226
7.376,0.999989557130924,95.35590655207108
7.384,0.999989796494723,94.8312957669032
7.392,0.9999900319081063,94.30496045018529
7.4,0.9999902633172728,93.77689333239118
7.4079999999999995,0.9999904906699393,93.24708725331746
7.416,0.9999907139153441,92.71553516537598
7.4239999999999995,0.9999909330042519,92.18223013693384
7.432,0.9999911478889615,91.64716535569777
7.4399999999999995,0.9999913585233086,91.11033413214656
7.448,0.999991564862673,90.57172990300671
7.4559999999999995,0.9999917668639837,90.03134623477465
7.464,0.9999919644857264,89.48917682728184
7.4719999999999995,0.9999921576879481,88.94521551730479
7.48,0.9999923464322638,88.39945628221689
7.4879999999999995,0.9999925306818643,87.85189324368358
7.496,0.9999927104015207,87.30252067139796
7.504,0.9999928855575937,86.75133298685842
7.5120000000000005,0.9999930561180373,86.19832476718418
7.52,0.9999932220524087,85.64349074897164
7.5280000000000005,0.9999933833318736,85.08682583218675
7.536,0.9999935399292134,84.52832508409546
7.5440000000000005,0.9999936918188321,83.96798374322832
7.552,0.9999938389767652,83.40579722338107
7.5600000000000005,0.9999939813806844,82.84176111764614
7.568,0.9999941190099054,82.27587120247809
7.5760000000000005,0.9999942518453963,81.708123441787
7.584,0.999994379869783,81.13851399106278
7.5920000000000005,0.9999945030673569,80.5670392015243
7.6,0.9999946214240826,79.99369562429644
7.6080000000000005,0.9999947349276028,79.41848001460838
7.616,0.999994843567248,78.84138933601619
7.6240000000000006,0.9999949473340395,78.26242076464332
7.632,0.999995046220699,77.68157169344114
7.640000000000001,0.9999951402216533,77.0988397364636
7.648,0.9999952293330416,76.51422273315768
7.656000000000001,0.9999953135527199,75.92771875266374
7.664,0.9999953928802667,75.339326098127
7.672,0.9999954673169916,74.74904331101439
7.68,0.9999955368659361,74.15686917543746
7.688,0.9999956015318823,73.56280272247642
7.696,0.9999956613213553,72.96684323450388
7.704,0.9999957162426263,72.3689902495054
7.712,0.9999957663057212,71.76924356539392
7.72,0.9999958115224197,71.16760324431533
7.728,0.9999958519062594,70.56406961694192
7.736,0.9999958874725401,69.95864328675135
7.744,0.999995918238325,69.35132513428734
7.752,0.9999959442224422,68.74211632139914
7.76,0.9999959654454857,68.13101829545656
7.768,0.9999959819298183,67.51803279353737
7.776,0.999995993699569,66.90316184658315
7.784,0.9999960007806349,66.28640778352046
7.792,0.9999960032006786,65.66777323534394
7.8,0.9999960009891278,65.04726113915704
7.808,0.9999959941771723,64.42487474216729
7.816,0.999995982797762,63.800617605632034
7.824,0.9999959668856023,63.174493608750716
7.832,0.9999959464771504,62.54650695250017
7.84,0.99999592161061,61.9166621634083
7.848,0.9999958923259257,61.28496409726284
7.856,0.9999958586647761,60.65141794275049
7.864,0.9999958206705672,60.01602922502276
7.872,0.999995778388422,59.37880380918391
7.88,0.9999957318651744,58.739747903697165
7.888,0.9999956811493567,58.098868063704614
7.896,0.9999956262911897,57.45617119425664
7.904,0.9999955673425706,56.811664553446484
7.912,0.9999955043570604,56.1653557554457
7.92,0.99999543738987,55.51725277343582
7.928,0.9999953664978455,54.86736394243225
7.936,0.9999952917394522,54.21569796199554
7.944,0.999995213174758,53.56226389882589
7.952,0.9999951308654156,52.90707118923648
7.96,0.999995044874643,52.250129641500926
7.968,0.9999949552672047,51.59144943807074
7.976,0.9999948621093897,50.93104113765831
7.984,0.9999947654689901,50.26891567718095
7.992,0.9999946654152762,49.605084373561816
8.0,0.9999945620189744,48.93955892538323
8.008,0.9999944553522401,48.272351414388325
8.016,0.9999943454886316,47.603474306826364
8.024000000000001,0.9999942325030823,46.932940454638754
8.032,0.9999941164718719,46.26076309648
8.04,0.9999939974725952,45.58695585857028
8.048,0.9999938755841332,44.91153275537662
8.056000000000001,0.9999937508866188,44.23450819011777
8.064,0.999993623461403,43.55589695508895
8.072,0.9999934933910218,42.87571423180284
8.08,0.99999336075916,42.19397559094429
8.088000000000001,0.9999932256506128,41.51069699213456
8.096,0.9999930881512495,40.825894783501106
8.104,0.9999929483479734,40.13958570105037
8.112,0.999992806328682,39.45178686784127
8.120000000000001,0.999992662182225,38.762515792955654
8.128,0.9999925159983625,38.07179037026259
8.136,0.999992367867721,37.379628876974245
8.144,0.9999922178817492,36.68604997199199
8.152000000000001,0.9999920661326721,35.99107269403927
8.16,0.9999919127134457,35.29471645957913
8.168,0.9999917577177071,34.59700106051498
8.176,0.9999916012397291,33.89794666167305
8.184000000000001,0.9999914433743682,33.19757379806547
8.192,0.9999912842170162,32.495903371931085
8.2,0.9999911238635483,31.792956649554018
8.208,0.999990962410272,31.08875525786006
8.216000000000001,0.9999907999538736,30.383321180788982
8.224,0.9999906365913654,29.67667675544237
8.232,0.9999904724200323,28.968844668007193
8.24,0.999990307537376,28.259847949456038
8.248000000000001,0.999990142041061,27.5497099710233
8.256,0.9999899760288575,26.838454439457895
8.264,0.9999898095985866,26.126105392053663
8.272,0.9999896428480634,25.412687191459
8.280000000000001,0.9999894758750386,24.698224520266923
8.288,0.999989308777142,23.982742375386273
8.296,0.9999891416518254,23.26626606219647
8.304,0.9999889745963035,22.548821188488958
8.312,0.9999888077074968,21.830433658196977
8.32,0.9999886410819725,21.111129664914618
8.328,0.9999884748158868,20.390935685212362
8.336,0.9999883090049264,19.66987847174692
8.344,0.9999881437442506,18.94798504617438
8.352,0.9999879791284326,18.2252826918649
8.36,0.9999878152514017,17.501798946428384
8.368,0.9999876522063864,16.77756159404995
8.376,0.9999874900858565,16.05259865764506
8.384,0.9999873289814667,15.32693839083371
8.392,0.9999871689839978,14.600609269743996
8.4,0.999987010183304,13.873639984644868
8.408,0.9999868526682559,13.146059431419019
8.416,0.999986696526685,12.41789670287602
8.424,0.9999865418453308,11.689181079917203
8.432,0.9999863887097863,10.9599420225528
8.44,0.9999862372044465,10.230209160783188
8.448,0.9999860874124566,9.500012285345324
8.456,0.9999859394156604,8.769381338336489
8.464,0.9999857932945506,8.038346403716696
8.472,0.9999856491282223,7.306937697702521
8.48,0.9999855069943225,6.5751855590537955
8.488,0.9999853669690058,5.843120439266304
8.496,0.9999852291268866,5.1107728926723395
8.504,0.9999850935410003,4.3781735664622135
8.512,0.9999849602827536,3.64535319062932
8.52,0.9999848294218914,2.912342567851649
8.528,0.9999847010264491,2.179172563312717
8.536,0.9999845751627209,1.4458740944750297
8.544,0.9999844518952189,0.7124781208091832
8.552,0.9999843312866394,-0.020984366508220453
8.56,0.9999842133978286,-0.7544823549244957
8.568,0.9999840982877529,-1.4879848208554027
8.576,0.999983986013465,-2.2214607400410507
8.584,0.9999838766300784,-2.954879097899634
8.592,0.9999837701907384,-3.688208899875842
8.6,0.9999836667465983,-4.42141918177057
8.608,0.9999835663467956,-5.154479020048633
8.616,0.9999834690384309,-5.887357542111219
8.624,0.9999833748665464,-6.620023936529852
8.632,0.9999832838741112,-7.35244746322874
8.64,0.9999831961020015,-8.084597463612505
8.648,0.9999831115889898,-8.816443370626109
8.656,0.9999830303717308,-9.547954718744338
8.664,0.9999829524847511,-10.279101153877802
8.672,0.9999828779604412,-11.00985244319303
8.68,0.9999828068290482,-11.740178484833924
8.688,0.9999827391186715,-12.470049317542346
8.696,0.9999826748552596,-13.199435130165442
8.704,0.9999826140626088,-13.928306271047791
8.712,0.9999825567623649,-14.6566332572963
8.72,0.9999825029740242,-15.384386783916357
8.728,0.9999824527149399,-16.11153773280733
8.736,0.9999824060003263,-16.83805718161654
8.744,0.9999823628432682,-17.5639164124402
8.752,0.9999823232547298,-18.28908692037056
8.76,0.9999822872435667,-19.013540421878577
8.768,0.999982254816539,-19.737248863031567
8.776,0.9999822259783254,-20.46018442753563
8.784,0.9999822007315406,-21.18231954460286
8.792,0.9999821790767521,-21.903626896633543
8.8,0.9999821610125017,-22.624079426713887
8.808,0.9999821465353242,-23.343650345919922
8.815999999999999,0.9999821356397721,-24.06231314042856
8.824,0.9999821283184385,-24.78004157842796
8.832,0.9999821245619822,-25.49680971682563
8.84,0.9999821243591555,-26.212591907751342
8.847999999999999,0.9999821276968311,-26.927362804851374
8.856,0.999982134560033,-27.641097369370677
8.864,0.9999821449319647,-28.353770876021215
8.872,0.9999821587940425,-29.065358918634878
8.879999999999999,0.9999821761259287,-29.77583741559843
8.888,0.9999821969055634,-30.48518261506828
8.896,0.9999822211092007,-31.19337109996422
8.904,0.9999822487114445,-31.900379792741635
8.911999999999999,0.9999822796852843,-32.60618595994079
8.92,0.9999823140021336,-33.31076721651182
8.928,0.9999823516318672,-34.014101529915614
8.936,0.999982392542861,-34.71616722400134
8.943999999999999,0.9999824367020306,-35.416942982659805
8.952,0.9999824840748728,-36.11640785325258
8.96,0.9999825346255058,-36.81454124981793
8.968,0.99998258831671,-37.511322956055125
8.975999999999999,0.999982645109971,-38.206733128087414
8.984,0.9999827049655207,-38.90075229700436
8.992,0.9999827678423799,-39.59336137118555
9.0,0.9999828336984022,-40.28454163840797
9.008,0.9999829024903164,-40.97427476773831
9.016,0.9999829741737689,-41.66254281121156
9.024000000000001,0.9999830487033686,-42.349328205298775
9.032,0.9999831260327297,-43.034613772167056
9.04,0.9999832061145156,-43.71838272073356
9.048,0.9999832889004815,-44.400618647515834
9.056000000000001,0.9999833743415204,-45.08130553728189
9.064,0.9999834623877025,-45.760427763503614
9.072,0.9999835529883229,-46.43797008861615
9.08,0.9999836460919421,-47.113917664085875
9.088000000000001,0.9999837416464288,-47.78825603029116
9.096,0.9999838395990046,-48.46097111621971
9.104,0.9999839398962846,-49.13204923898614
9.112,0.9999840424843204,-49.80147710317221
9.120000000000001,0.9999841473086404,-50.469241799994684
9.128,0.9999842543142926,-51.13533080630525
9.136,0.9999843634458859,-51.79973198342571
9.144,0.9999844746476284,-52.462433575822274
9.152000000000001,0.9999845878633695,-53.123424209623245
9.16,0.9999847030366368,-53.782692890985466
9.168,0.999984820110678,-54.44022900431261
9.176,0.9999849390284968,-55.09602231032946
9.184000000000001,0.999985059732891,-55.75006294401694
9.192,0.9999851821664912,-56.40234141241282
9.2,0.999985306271794,-57.05284859228194
9.208,0.9999854319912013,-57.70157572765981
9.216000000000001,0.9999855592670526,-58.34851442727457
9.224,0.9999856880416604,-58.99365666185224
9.232,0.9999858182573447,-59.63699476130931
9.24,0.9999859498564644,-60.27852141183625
9.248000000000001,0.9999860827814493,-60.91822965287705
9.256,0.9999862169748345,-61.556112874009855
9.264,0.9999863523792866,-62.19216481173233
9.272,0.9999864889376366,-62.82637954615564
9.280000000000001,0.9999866265929088,-63.45875149761176
9.288,0.9999867652883483,-64.08927542317925
9.296,0.9999869049674479,-64.71794641313082
9.304,0.9999870455739769,-65.34475988730668
9.312000000000001,0.9999871870520045,-65.96971159141798
9.32,0.9999873293459268,-66.59279759328544
9.328,0.9999874724004911,-67.2140142790162
9.336,0.9999876161608173,-67.83335834912275
9.344,0.9999877605724234,-68.45082681458786
9.352,0.9999879055812451,-69.06641699288133
9.36,0.9999880511336587,-69.68012650392856
9.368,0.9999881971765002,-70.29195326603896
9.376,0.9999883436570844,-70.90189549179381
9.384,0.9999884905232261,-71.50995168390105
9.392,0.9999886377232547,-72.11612063101657
9.4,0.9999887852060342,-72.72040140353944
9.408,0.9999889329209776,-73.32279334938039
9.416,0.9999890808180637,-73.92329608971089
9.424,0.9999892288478519,-74.52190951469214
9.432,0.9999893769614959,-75.11863377919059
9.44,0.9999895251107573,-75.71346929847981
9.448,0.9999896732480189,-76.306416743935
9.456,0.9999898213262957,-76.89747703871936
9.464,0.9999899692992463,-77.486651353469
9.472,0.9999901171211856,-78.0739411019752
9.48,0.9999902647470905,-78.6593479368704
9.488,0.9999904121326136,-79.24287374531688
9.496,0.9999905592340902,-79.82452064470421
9.504,0.9999907060085442,-80.40429097835388
9.512,0.9999908524136996,-80.98218731123798
9.52,0.9999909984079823,-81.55821242570903
9.528,0.9999911439505319,-82.13236931724836
9.536,0.9999912890012014,-82.70466119023011
9.544,0.9999914335205677,-83.27509145370745
9.552,0.9999915774699311,-83.84366371721842
9.56,0.9999917208113229,-84.41038178661775
9.568,0.9999918635075072,-84.97524965993183
