freq,mag,phase
6.0,0.9999973749129117,-127.15033561702283
6.008,0.9999953721413131,-127.48539097900394
6.016,0.999993451561297,-127.81981019844373
6.024,0.9999916113367586,-128.15359700812428
6.032,0.9999898496587065,-128.48675514436013
6.04,0.9999881647450076,-128.81928834674716
6.048,0.9999865548401295,-129.15120035791642
6.056,0.9999850182148835,-129.4824949232929
6.064,0.9999835531661676,-129.81317579085953
6.072,0.9999821580167099,-130.14324671092564
6.08,0.9999808311148132,-130.47271143590092
6.088,0.9999795708340987,-130.80157372007372
6.096,0.9999783755732506,-131.12983731939406
6.104,0.9999772437557611,-131.4575059912616
6.112,0.9999761738296757,-131.78458349431827
6.12,0.999975164267341,-132.11107358824518
6.128,0.9999742135651516,-132.43698003356428
6.136,0.9999733202432958,-132.7623065914445
6.144,0.9999724828455053,-133.0870570235122
6.152,0.9999716999388066,-133.41123509166596
6.16,0.9999709701132675,-133.7348445578961
6.168,0.9999702919817525,-134.05788918410772
6.176,0.9999696641796708,-134.38037273194854
6.184,0.9999690853647324,-134.7022989626408
6.192,0.9999685542167008,-135.02367163681694
6.2,0.9999680694371503,-135.34449451435967
6.208,0.9999676297492202,-135.66477135424591
6.216,0.9999672338973739,-135.98450591439465
6.224,0.9999668806471564,-136.3037019515187
6.232,0.9999665687849565,-136.62236322098028
6.24,0.9999662971177667,-136.9404934766505
6.248,0.9999660644729461,-137.2580964707724
6.256,0.9999658696979841,-137.57517595382777
6.264,0.999965711660266,-137.89173567440764
6.272,0.9999655892468419,-138.20777937908628
6.28,0.9999655013641907,-138.5233108122988
6.288,0.9999654469379925,-138.83833371622217
6.296,0.9999654249128996,-139.1528518306597
6.304,0.9999654342523081,-139.46686889292906
6.312,0.9999654739381328,-139.7803886377533
6.32,0.9999655429705816,-140.09341479715553
6.328,0.9999656403679338,-140.40595110035662
6.336,0.9999657651663189,-140.71800127367624
6.344,0.9999659164194943,-141.02956904043685
6.352,0.9999660931986306,-141.3406581208712
6.36,0.9999662945920942,-141.65127223203228
6.368,0.9999665197052292,-141.96141508770694
6.376,0.9999667676601485,-142.2710903983321
6.384,0.9999670375955192,-142.5803018709139
6.392,0.9999673286663536,-142.8890532089499
6.4,0.9999676400437997,-143.19734811235404
6.408,0.9999679709149368,-143.50519027738434
6.416,0.9999683204825685,-143.81258339657353
6.424,0.9999686879650183,-144.11953115866226
6.432,0.9999690725959318,-144.42603724853484
6.44,0.9999694736240734,-144.73210534715807
6.448,0.999969890313128,-145.03773913152224
6.456,0.9999703219415064,-145.34294227458489
6.464,0.9999707678021496,-145.64771844521684
6.472,0.9999712272023346,-145.95207130815123
6.48,0.9999716994634845,-146.2560045239343
6.4879999999999995,0.9999721839209772,-146.55952174887918
6.496,0.9999726799239589,-146.86262663502163
6.504,0.9999731868351565,-147.16532283007822
6.5120000000000005,0.9999737040306941,-147.46761397740713
6.52,0.9999742308999094,-147.76950371597042
6.5280000000000005,0.9999747668451731,-148.07099568029946
6.536,0.9999753112817081,-148.37209350046166
6.5440000000000005,0.9999758636374145,-148.6728008020302
6.552,0.9999764233526899,-148.97312120605494
6.5600000000000005,0.9999769898802584,-149.27305832903633
6.568,0.999977562684996,-149.57261578290053
6.5760000000000005,0.9999781412437604,-149.8717971749773
6.584,0.9999787250452217,-150.17060610797904
6.592,0.9999793135896948,-150.46904617998274
6.6,0.9999799063889736,-150.76712098441283
6.608,0.9999805029661666,-151.06483411002662
6.616,0.999981102855535,-151.36218914090142
6.624,0.9999817056023312,-151.65918965642322
6.632,0.99998231076264,-151.95583923127742
6.64,0.9999829179032208,-152.25214143544125
6.648,0.9999835266013521,-152.54809983417792
6.656,0.9999841364446768,-152.84371798803227
6.664,0.9999847470310506,-153.1389994528285
6.672,0.9999853579683894,-153.43394777966907
6.68,0.9999859688745217,-153.72856651493555
6.688,0.9999865793770393,-154.02285920029084
6.696,0.9999871891131525,-154.31682937268303
6.704,0.9999877977295447,-154.61048056435084
6.712,0.9999884048822294,-154.90381630283042
6.72,0.9999890102364096,-155.19684011096373
6.728,0.9999896134663369,-155.48955550690835
6.736,0.9999902142551736,-155.7819660041486
6.744,0.9999908122948574,-156.07407511150817
6.752,0.9999914072859634,-156.36588633316424
6.76,0.9999919989375725,-156.65740316866257
6.768,0.9999925869671389,-156.9486291129342
6.776,0.9999931711003588,-157.2395676563136
6.784,0.9999937510710419,-157.53022228455745
6.792,0.9999943266209838,-157.82059647886544
6.8,0.9999948974998384,-158.11069371590187
6.808,0.9999954634649951,-158.4005174678184
6.816,0.9999960242814546,-158.6900712022783
6.824,0.9999965797217066,-158.9793583824815
6.832,0.9999971295656102,-159.26838246719112
6.84,0.999997673600274,-159.55714691076074
6.848,0.9999982116199395,-159.8456551631632
6.856,0.9999987434258645,-160.13391067002007
6.864,0.9999992688262075,-160.4219168726324
6.872,0.9999997876359152,-160.70967720801255
6.88,0.9999999999999999,-160.99719510891677
6.888,1.0,-161.28447400387907
6.896,0.9999999999999999,-161.57151731724593
6.904,0.9999999999999999,-161.8583284692119
6.912,1.0,-162.1449108758563
6.92,1.0,-162.4312679491807
6.928,1.0,-162.7174030971474
6.936,1.0,-163.00331972371873
6.944,0.9999999999999999,-163.2890212288972
6.952,0.9999999999999999,-163.5745110087666
6.96,1.0,-163.85979245553386
6.968,0.9999999999999999,-164.14486895757162
6.976,1.0,-164.42974389946187
6.984,1.0,-164.7144206620401
6.992,1.0,-164.99890262244048
7.0,0.9999999999999998,-165.28319315414134
7.008,0.9999999999999999,-165.56729562701204
7.016,1.0,-165.85121340735992
7.024,1.0,-166.13494985797843
7.032,1.0,-166.41850833819558
7.04,1.0,-166.70189220392348
7.048,0.9999999999999999,-166.98510480770796
7.056,1.0,-167.26814949877954
7.064,1.0,-167.55102962310434
7.072,0.9999999999999999,-167.8337485234362
7.08,1.0,-168.11630953936898
7.088,1.0,-168.39871600738962
7.096,1.0,-168.6809712609318
7.104,1.0,-168.96307863043015
7.112,1.0,-169.2450414433749
7.12,0.9999999999999999,-169.52686302436726
7.128,1.0,-169.8085466951751
7.136,0.9999999999999999,-170.09009577478943
7.144,1.0,-170.37151357948102
7.152,1.0,-170.6528034228579
7.16,1.0,-170.93396861592294
7.168,0.9999999999999999,-171.21501246713223
7.176,0.9999999999999999,-171.4959382824538
7.184,1.0,-171.7767493654266
7.192,0.9999999999999999,-172.05744901722034
7.2,1.0,-172.3380405366951
7.208,1.0,-172.61852722046206
7.216,0.9999999999999999,-172.8989123629442
7.224,0.9999999999999999,-173.17919925643736
7.232,1.0,-173.459391191172
7.24,1.0,-173.7394914553749
7.248,1.0,-174.01950333533168
7.256,1.0,-174.29943011544918
7.264,0.9999999999999999,-174.5792750783186
7.272,1.0,-174.85904150477876
7.28,1.0,-175.13873267397946
7.288,1.0,-175.41835186344582
7.296,0.9999999999999999,-175.69790234914205
7.304,0.9999999999999999,-175.97738740553615
7.312,1.0,-176.25681030566471
7.32,0.9999999999999999,-176.53617432119776
7.328,1.0,-176.81548272250407
7.336,0.9999999999999999,-177.094738778717
7.344,0.9999999999999999,-177.3739457577997
7.352,1.0,-177.65310692661163
7.36,0.9999999999999999,-177.93222555097452
7.368,1.0,-178.21130489573886
7.376,1.0,-178.49034822485044
7.384,1.0,-178.76935880141733
7.392,1.0,-179.04833988777673
7.4,1.0,-179.32729474556234
7.4079999999999995,1.0,-179.60622663577158
7.416,1.0,-179.88513881883307
7.4239999999999995,0.9999999999999999,179.8359654453256
7.432,0.9999999999999998,179.55708289721005
7.4399999999999995,0.9999999999999999,179.27821027769144
7.448,1.0,178.9993443279379
7.4559999999999995,1.0,178.72048178934693
7.464,1.0,178.44161940347658
7.4719999999999995,0.9999999999999999,178.16275391197755
7.48,1.0,177.88388205652424
7.4879999999999995,0.9999999999999998,177.60500057874668
7.496,1.0,177.32610622016134
7.504,0.9999999999999999,177.04719572210297
7.5120000000000005,1.0,176.76826582565533
7.52,0.9999999999999999,176.4893132715829
7.5280000000000005,1.0,176.21033480026142
7.536,0.9999999999999999,175.9313271516097
7.5440000000000005,1.0,175.65228706502
7.552,0.9999999999999998,175.37321127928962
7.5600000000000005,0.9999999999999999,175.09409653255162
7.568,1.0,174.8149395622061
7.5760000000000005,0.9999999999999999,174.5357371048511
7.584,0.9999999999999999,174.2564858962139
7.5920000000000005,0.9999999999999999,173.97718267108172
7.6,0.9999999999999999,173.69782416323335
7.6080000000000005,0.9999999999999999,173.4184071053698
7.616,1.0,173.1389282290461
7.6240000000000006,0.9999999999999999,172.85938426460194
7.632,1.0,172.5797719410936
7.640000000000001,1.0,172.30008798622484
7.648,1.0,172.02032912627897
7.656000000000001,1.0,171.74049208604978
7.664,0.9999999999999999,171.46057358877385
7.672,1.0,171.18057035606185
7.68,0.9999999999999999,170.90047910783076
7.688,0.9999999999999999,170.62029656223584
7.696,1.0,170.34001943560264
7.704,0.9999999999999999,170.05964444235957
7.712,0.9999999999999999,169.7791682949701
7.72,0.9999999999999999,169.4985877038656
7.728,0.9999999999999999,169.21789937737805
7.736,0.9999999999999999,168.93710002167293
7.744,1.0,168.65618634068255
7.752,0.9999999999999999,168.37515503603925
7.76,0.9999999999999999,168.09400280700902
7.768,1.0,167.81272635042535
7.776,0.9999999999999999,167.53132236062316
7.784,1.0,167.24978752937307
7.792,0.9999999999999999,166.96811854581583
7.8,1.0,166.68631209639716
7.808,1.0,166.4043648648027
7.816,0.9999999999999998,166.12227353189326
7.824,1.0,165.8400347756405
7.832,1.0,165.5576452710627
7.84,0.9999999999999999,165.27510169016097
7.848,0.9999999999999998,164.9924007018557
7.856,0.9999999464279816,164.7095389719234
7.864,0.999999549832665,164.42651316293393
7.872,0.9999991507266097,164.14331993418782
7.88,0.999998749220746,163.85995594165433
7.888,0.9999983454258549,163.5764178379096
7.896,0.9999979394525482,163.2927022720752
7.904,0.9999975314112491,163.00880588975733
7.912,0.9999971214121752,162.72472533298603
7.92,0.9999967095653186,162.44045724015515
7.928,0.9999962959804275,162.15599824596265
7.936,0.999995880766989,161.87134498135117
7.944,0.9999954640342116,161.58649407344933
7.952,0.9999950458910075,161.30144214551333
7.96,0.9999946264459755,161.016185816869
7.968,0.9999942058073834,160.73072170285457
7.976,0.9999937840831534,160.44504641476362
7.984,0.9999933613808434,160.15915655978878
7.992,0.9999929378076312,159.8730487409659
8.0,0.999992513470301,159.58671955711884
8.008,0.9999920884752246,159.30016560280467
8.016,0.9999916629283478,159.0133834682594
8.024000000000001,0.9999912369351747,158.7263697393448
8.032,0.9999908106007521,158.43912099749508
8.04,0.9999903840296566,158.15163381966468
8.048,0.9999899573259777,157.86390477827658
8.056000000000001,0.9999895305933044,157.5759304411713
8.064,0.9999891039347125,157.28770737155654
8.072,0.9999886774527482,156.9992321279572
8.08,0.9999882512494161,156.71050126416668
8.088000000000001,0.9999878254261648,156.42151132919855
8.096,0.9999874000838748,156.13225886723885
8.104,0.9999869753228434,155.84274041759926
8.112,0.999986551242774,155.55295251467118
8.120000000000001,0.9999861279427618,155.26289168788034
8.128,0.9999857055212816,154.97255446164246
8.136,0.9999852840761762,154.68193735531932
8.144,0.9999848637046427,154.39103688317607
8.152000000000001,0.9999844445032224,154.09984955433944
8.16,0.9999840265677877,153.80837187275628
8.168,0.9999836099935309,153.51660033715353
8.176,0.9999831948749518,153.22453144099873
8.184000000000001,0.9999827813058483,152.93216167246192
8.192,0.9999823693793036,152.6394875143781
8.2,0.9999819591876763,152.34650544421035
8.208,0.9999815508225881,152.05321193401483
8.216000000000001,0.9999811443749151,151.7596034504062
8.224,0.9999807399347762,151.46567645452404
8.232,0.9999803375915227,151.1714274020004
8.24,0.9999799374337287,150.87685274292858
8.248000000000001,0.9999795395491804,150.58194892183283
8.256,0.9999791440248669,150.28671237763942
8.264,0.9999787509469695,149.9911395436482
8.272,0.9999783604008536,149.6952268475062
8.280000000000001,0.9999779724710582,149.3989707111818
8.288,0.9999775872412863,149.10236755094041
8.296,0.9999772047943968,148.80541377732106
8.304,0.999976825212395,148.50810579511455
8.312,0.999976448576423,148.21044000334294
8.32,0.9999760749667524,147.91241279523996
8.328,0.9999757044627746,147.61402055823316
8.336,0.9999753371429929,147.31525967392705
8.344,0.9999749730850129,147.01612651808804
8.352,0.9999746123655365,146.7166174606303
8.36,0.999974255060352,146.41672886560374
8.368,0.9999739012443263,146.1164570911824
8.376,0.9999735509913978,145.81579848965575
8.384,0.9999732043745685,145.51474940741994
8.392,0.9999728614658956,145.21330618497214
8.4,0.9999725223364853,144.91146515690502
8.408,0.9999721870564838,144.60922265190413
8.416,0.999971855695072,144.30657499274582
8.424,0.9999715283204568,144.00351849629783
8.432,0.9999712049998641,143.70004947352047
8.44,0.9999708857995332,143.39616422947083
8.448,0.9999705707847091,143.09185906330734
8.456,0.9999702600196353,142.78713026829757
8.464,0.999969953567548,142.48197413182646
8.472,0.9999696514906703,142.17638693540766
8.48,0.9999693538502036,141.87036495469562
8.488,0.9999690607063239,141.56390445950078
8.496,0.9999687721181735,141.25700171380552
8.504,0.9999684881438566,140.94965297578327
8.512,0.9999682088404326,140.64185449781846
8.52,0.9999679342639103,140.3336025265299
8.528,0.9999676644692421,140.02489330279462
8.536,0.9999673995103183,139.71572306177578
8.544,0.9999671394399624,139.40608803295072
8.552,0.9999668843099242,139.09598444014316
8.56,0.9999666341708763,138.78540850155588
8.568,0.9999663890724066,138.47435642980722
8.576,0.999966149063016,138.1628244319688
8.584,0.99996591419011,137.85080870960635
8.592,0.9999656844999977,137.53830545882224
8.6,0.999965460037883,137.22531087030143
8.608,0.9999652408478622,136.9118211293587
8.616,0.9999650269729198,136.59783241598976
8.624,0.9999648184549219,136.2833409049234
8.632,0.9999646153346139,135.968342765678
8.64,0.999964417651614,135.65283416261894
8.648,0.9999642254444112,135.33681125502034
8.656,0.9999640387503599,135.02027019712807
8.664,0.999963857605675,134.703207138227
8.672,0.9999636820454303,134.38561822270944
8.68,0.9999635121035525,134.0674995901484
8.688,0.9999633478128187,133.74884737537178
8.696,0.9999631892048518,133.42965770854133
8.704,0.9999630363101176,133.10992671523323
8.712,0.9999628891579218,132.7896505165226
8.72,0.9999627477764047,132.46882522907075
8.728,0.99996261219254,132.14744696521592
8.736,0.9999624824321309,131.82551183306654
8.744,0.9999623585198065,131.50301593659884
8.752,0.99996224047902,131.17995537575666
8.76,0.9999621283320442,130.85632624655557
8.768,0.9999620220999703,130.5321246411894
8.776,0.9999619218027044,130.20734664814154
8.784,0.9999618274589644,129.88198835229838
8.792,0.9999617390862796,129.55604583506752
8.8,0.999961656700986,129.22951517449852
8.808,0.9999615803182247,128.90239244540842
8.815999999999999,0.999961509951941,128.57467371951012
8.824,0.9999614456148805,128.24635506554472
8.832,0.9999613873185887,127.91743254941849
8.84,0.999961335073408,127.58790223434254
8.847999999999999,0.9999612888884765,127.25776018097707
8.856,0.9999612487717268,126.92700244757977
8.864,0.9999612147298833,126.59562509015801
8.872,0.9999611867684626,126.26362416262533
8.879999999999999,0.9999611648917697,125.93099571696175
8.888,0.9999611491028996,125.59773580337867
8.896,0.9999611394037339,125.26384047048825
8.904,0.9999611357949415,124.92930576547653
8.911999999999999,0.999961138275977,124.59412773428134
8.92,0.9999611468450799,124.25830242177474
8.928,0.9999611614992747,123.92182587195
8.936,0.9999611822343695,123.5846941281128
8.943999999999999,0.9999612090449561,123.24690323307749
8.952,0.9999612419244105,122.9084492293678
8.96,0.9999612808648916,122.56932815942262
8.968,0.9999613258573415,122.22953606580641
8.975999999999999,0.9999613768914869,121.8890689914242
8.984,0.9999614339558369,121.54792297974214
8.992,0.9999614970376872,121.20609407501289
9.0,0.9999615661231163,120.86357832250579
9.008,0.9999616411969894,120.52037176874231
9.016,0.9999617222429578,120.17647046173681
9.024000000000001,0.9999618092434611,119.83187045124274
9.032,0.9999619021797264,119.4865677890037
9.04,0.999962001031771,119.14055852901012
9.048,0.9999621057784043,118.7938387277613
9.056000000000001,0.9999622163972275,118.4464044445335
9.064,0.9999623328646369,118.0982517416528
9.072,0.9999624551558248,117.74937668477386
9.08,0.9999625832447832,117.39977534316462
9.088000000000001,0.9999627171043034,117.04944378999697
9.096,0.9999628567059803,116.69837810264234
9.104,0.9999630020202144,116.34657436297397
9.112,0.9999631530162142,115.99402865767487
9.120000000000001,0.9999633096619998,115.64073707855196
9.128,0.9999634719244046,115.28669572285605
9.136,0.9999636397690794,114.93190069360779
9.144,0.9999638131604968,114.57634809993037
9.152000000000001,0.9999639920619515,114.22003405738812
9.16,0.999964176435568,113.8629546883315
9.168,0.9999643662423011,113.50510612224824
9.176,0.9999645614419428,113.14648449612113
9.184000000000001,0.9999647619931242,112.78708595479267
9.192,0.9999649678533217,112.42690665133556
9.2,0.9999651789788608,112.06594274743007
9.208,0.999965395324921,111.70419041374821
9.216000000000001,0.9999656168455411,111.34164583034482
9.224,0.9999658434936245,110.97830518705491
9.232,0.9999660752209444,110.61416468389807
9.24,0.9999663119781498,110.24922053148973
9.248000000000001,0.9999665537147712,109.88346895145986
9.256,0.9999668003792265,109.51690617687795
9.264,0.9999670519188283,109.1495284526851
9.272,0.9999673082797884,108.78133203613376
9.280000000000001,0.9999675694072273,108.41231319723431
9.288,0.9999678352451788,108.04246821920874
9.296,0.9999681057365989,107.6717933989515
9.304,0.999968380823372,107.30028504749792
9.312000000000001,0.9999686604463193,106.92793949050002
9.32,0.9999689445452072,106.55475306870943
9.328,0.9999692330587536,106.18072213846756
9.336,0.9999695259246394,105.80584307220373
9.344,0.9999698230795138,105.43011225894082
9.352,0.9999701244590055,105.05352610480763
9.36,0.9999704299977318,104.67608103356004
9.368,0.9999707396293059,104.29777348710854
9.376,0.9999710532863498,103.91859992605458
9.384,0.9999713709005017,103.53855683023347
9.392,0.999971692402427,103.15764069926608
9.4,0.99997201772183,102.7758480531171
9.408,0.9999723467874625,102.39317543266242
9.416,0.9999726795271369,102.00961940026272
9.424,0.9999730158677361,101.62517654034646
9.432,0.9999733557352257,101.2398434599992
9.44,0.9999736990546662,100.8536167895621
9.448,0.999974045750225,100.46649318323698
9.456,0.999974395745188,100.0784693197005
9.464,0.9999747489619742,99.6895419027249
9.472,0.9999751053221471,99.29970766180797
9.48,0.9999754647464291,98.90896335280948
9.488,0.9999758271547137,98.51730575859686
9.496,0.9999761924660823,98.12473168969747
9.504,0.9999765605988166,97.73123798495983
9.512,0.9999769314704119,97.33682151222173
9.52,0.9999773049975946,96.94147916898712
9.528,0.9999776810963376,96.54520788310975
9.536,0.9999780596818721,96.1480046134859
9.544,0.9999784406687084,95.7498663507533
9.552,0.9999788239706485,95.35079011799958
9.56,0.9999792095008045,94.95077297147668
9.568,0.9999795971716142,94.54981200132453
9.576,0.9999799868948592,94.14790433230083
9.584,0.9999803785816834,93.74504712451999
9.592,0.9999807721426075,93.34123757419819
9.6,0.999981167487551,92.93647291440708
9.608,0.9999815645258487,92.53075041583398
9.616,0.9999819631662692,92.12406738755045
9.624,0.9999823633170353,91.716421177787
9.632,0.9999827648858431,91.30780917471637
9.64,0.9999831677798822,90.89822880724266
9.648,0.9999835719058542,90.48767754579882
9.656,0.9999839771699962,90.07615290314989
9.664,0.9999843834780993,89.6636524352045
9.672,0.9999847907355303,89.2501737418318
9.68,0.9999851988472545,88.8357144676866
9.688,0.9999856077178563,88.42027230303952
9.696,0.9999860172515619,88.00384498461537
9.704,0.9999864273522614,87.58643029643626
9.712,0.9999868379235345,87.16802607067257
9.72,0.9999872488686683,86.74863018849848
