freq,mag,phase
6.0,0.999603737760225,16.229661931534473
6.01059584,0.9995734991904969,15.941263719044183
6.021192192,0.9995651176740458,15.653108011103907
6.031788032,0.999579207777649,15.364922855634825
6.042383872,0.9996149921640449,15.076343314555022
6.052980224,0.9996706954959605,14.787186800850725
6.063576064,0.9997435348239315,14.497180570824577
6.074172416,0.999829780747749,14.206090337064154
6.084768256,0.9999250952544481,13.913800856349875
6.095364096,1.000024576951922,13.620222160363607
6.105960448,1.0001231799035464,13.325318754096875
6.116556288,1.0002158167571211,13.029125976418298
6.127152128,1.0002977264465875,12.731805011098194
6.13774848,1.000364867291895,12.433443543150194
6.14834432,1.000413467775359,12.134318557231415
6.15894016,1.0004414003127715,11.834680360138007
6.169536512,1.0004469020928377,11.534785905611214
6.180132352,1.000429672346471,11.234919121375215
6.190728704,1.0003906780877467,10.93539349856236
6.201324544,1.0003318400012888,10.636480951528
6.211920384,1.0002561003535975,10.338447575304013
6.222516736,1.0001671481521943,10.041406389116837
6.233112576,1.0000696723656162,9.74556093508316
6.243708416,0.9999687648598581,9.450993998463941
6.254304768,0.9998693105916773,9.157689005862192
6.264900608,0.9997764789063109,8.865626778734399
6.275496448,0.9996950511820134,8.57468979569355
6.2860928,0.9996292403402988,8.28466773076103
6.29668864,0.99958250495276,7.995360158208147
6.307284992,0.9995571073796163,7.706491753394605
6.317880832,0.9995544718248184,7.417826983752626
6.328476672,0.9995748740182422,7.128979450679883
6.339073024,0.9996171558894036,6.839729677036805
6.349668864,0.9996794277379535,6.549781015991807
6.360264704,0.9997582423203565,6.258841761518913
6.370861056,0.999849785085408,5.966849219547418
6.381456896,0.9999493983893457,5.673511622553657
6.392052736,1.0000519736898086,5.378884218811256
6.402649088,1.000152191793859,5.0828914671913905
6.413244928,1.0002450576047217,4.785612253368316
6.42384128,1.0003257045333163,4.4871459190655525
6.43443712,1.0003901668292696,4.18771095704061
6.44503296,1.0004348190837447,3.8875738584491555
6.455629312,1.000457666899175,3.586941071898667
6.466225152,1.0004572068900606,3.286108793898568
6.476820992,1.000433686410716,2.9854513758973997
6.487417344,1.0003880458704892,2.6851241975557247
6.498013184,1.0003226057345835,2.385543305012393
6.508609024,1.0002407095124972,2.0869185760623283
6.519205376,1.000146643080175,1.7893701924602923
6.529801216,1.0000449055809728,1.4930697663682666
6.540397568,0.9999409237389295,1.1981331482249857
6.550993408,0.999839770494376,0.904417230163811
6.561589248,0.999746843142101,0.6119698663753982
6.5721856,0.9996669064744139,0.32063639269201544
6.58278144,0.9996039470605401,0.03023018846345171
6.59337728,0.9995611905606352,-0.2594995690387303
6.603973632,0.9995410742263262,-0.5488886192637984
6.614569472,0.9995445842089608,-0.8381832914458738
6.625165312,0.9995714879684165,-1.1276382493602035
6.635761664,0.9996205186346927,-1.4176597378778428
6.646357504,0.9996892926788207,-1.7085194021578967
6.656953856,0.9997741899461805,-2.000354000401313
6.667549696,0.9998710780139412,-2.293350551268255
6.678145536,0.9999748679503943,-2.587761035145682
6.688741888,1.000080347836238,-2.883529167406041
6.699337728,1.000182064499942,-3.1806822817757046
6.709933568,1.0002749900431618,-3.4791377489492588
6.72052992,1.0003542310774483,-3.7787023139798652
6.73112576,1.000415559057911,-4.079252042972074
6.7417216,1.0004561387728945,-4.380493906681103
6.752317952,1.0004734515092986,-4.682186272054839
6.762913792,1.0004668849022142,-4.983949717673066
6.773510144,1.0004366547934447,-5.2854888018885395
6.784105984,1.000384221001423,-5.5865310665613395
6.794701824,1.0003122434546179,-5.8868279214658985
6.805298176,1.0002241819168445,-6.186061704418269
6.815894016,1.0001248089144046,-6.484178483970196
6.826489856,1.0000188233738538,-6.780948905543974
6.837086208,0.9999119381959719,-7.0763673666845
6.847682048,0.9998095172343933,-7.370480668467471
6.8582784,0.9997167882391952,-7.66328937098461
6.86887424,0.9996383371569472,-7.95501756555712
6.87947008,0.9995785087638704,-8.245875389093207
6.890066432,0.9995402568485067,-8.536128881725155
6.900662272,0.9995255584462118,-8.826067468800977
6.911258112,0.9995353068654448,-9.116006479567693
6.921854464,0.9995689989360982,-9.406218212991927
6.932450304,0.9996249955040565,-9.697068156367196
6.943046144,0.9997004600359584,-9.988786114964043
6.953642496,0.9997915031217735,-10.281590052869959
6.964238336,0.9998937241471005,-10.575725276991792
6.974834688,1.0000016454112712,-10.871220364415914
6.985430528,1.0001099405000837,-11.168168116813009
6.996026368,1.000212959012804,-11.466531775662089
7.00662272,1.0003055391970466,-11.76620153294675
7.01721856,1.0003830047303937,-12.06701881508274
7.0278144,1.0004411210673338,-12.368706812203708
7.038410752,1.0004770084293055,-12.671085625764865
7.049006592,1.000488765067632,-12.97381379881224
7.059602432,1.0004758845133375,-13.276536165792864
7.070198784,1.000438651344501,-13.579016245279362
7.080794624,1.0003792535428377,-13.880853538196277
7.091390976,1.0003005454380587,-14.181844161193244
7.101986816,1.0002063040664755,-14.481756907558536
7.112582656,1.0001015374645459,-14.780401126650965
7.123179008,0.9999915604848281,-15.077712832658557
7.133774848,0.9998818861146123,-15.37359047427988
7.144370688,0.9997781493113631,-15.668084575908955
7.15496704,0.9996858655911278,-15.96137257898834
7.16556288,0.999609323320865,-16.253554423670522
7.17615872,0.9995529505458272,-16.54492460656124
7.186755072,0.9995193951124369,-16.835698078204352
7.197350912,0.9995105129424056,-17.12626116695498
7.207947264,0.9995267897285818,-17.416881905816442
7.218543104,0.9995675824041148,-17.707877052941978
7.229138944,0.9996306948084799,-17.999568150276723
7.239735296,0.999712909765639,-18.29224499131445
7.250331136,0.9998103132614512,-18.58613904103178
7.260926976,0.9999177024131305,-18.881350833115288
7.271523328,1.0000296277386211,-19.17809585443276
7.282119168,1.0001407635045299,-19.476254793705333
7.292715008,1.0002448355591778,-19.77589332334248
7.30331136,1.0003369320959148,-20.076816998153973
7.3139072,1.0004121868003935,-20.378875272504494
7.324503552,1.0004667193975199,-20.68182104754738
7.335099392,1.0004977787868197,-20.985347050294354
7.345695232,1.0005037234896796,-21.289160732825216
7.356291584,1.0004839088177704,-21.592928216299782
7.366887424,1.0004396310573411,-21.896309289053512
7.377483264,1.000372958716293,-22.199016557101498
7.388079616,1.000287268307694,-22.500768754209144
7.398675456,1.0001868256625808,-22.801354392586493
7.409271296,1.0000768365281132,-23.100589125747934
7.419867648,0.9999628239453123,-23.398393385485416
7.430463488,0.9998505714072515,-23.694761082317285
7.44105984,0.999745837145773,-23.98977683927232
7.45165568,0.999653973012659,-24.283495918436806
7.46225152,0.9995799581055247,-24.576155968370298
7.472847872,0.9995270958381391,-24.86807137701152
7.483443712,0.9994987170126082,-25.159413438949183
7.494039552,0.9994959290464474,-25.45064654768347
7.504635904,0.9995191207845052,-25.74199461091965
7.515231744,0.9995670183703641,-26.033842066254355
7.525827584,0.9996374837014557,-26.326458350971308
7.536423936,0.9997267206563807,-26.620204002167178
7.547019776,0.9998303974706948,-26.915172199637055
7.557616128,0.9999429944160878,-27.211601048570497
7.568211968,1.0000591802639145,-27.509568608659293
7.578807808,1.0001725686330762,-27.809070678702113
7.58940416,1.0002776601076453,-28.110010317714195
7.6,1.0003689902112411,-28.412254662422587
7.61059584,1.0004417344433827,-28.715650394998196
7.621192192,1.0004924338831582,-29.019831513696396
7.631788032,1.0005182932123111,-29.32458112691417
7.642383872,1.000517805424108,-29.62954116459822
7.652980224,1.000491203182151,-29.934350762926776
7.663576064,1.0004394117372126,-30.238723748520865
7.674172416,1.0003654431461881,-30.542290490126085
7.684768256,1.0002725868318518,-30.844824168727108
7.695364096,1.0001658027052964,-31.14608865863551
7.705960448,1.0000505691644948,-31.44594427157585
7.716556288,0.9999325843911951,-31.744315062050024
7.727152128,0.9998177784659272,-32.04119327674571
7.73774848,0.9997123441583281,-32.33668365161009
7.74834432,0.9996214090735351,-32.630923984830254
7.75894016,0.9995497496546979,-32.92414230872545
7.769536512,0.9995011156275431,-33.21658228837373
7.780132352,0.9994779856911944,-33.5085758073668
7.790728704,0.9994817533408246,-33.80046522375349
7.801324544,0.9995120264447618,-34.092648836220555
7.811920384,0.9995676983799129,-34.38536857682119
7.822516736,0.9996455277096317,-34.679001507043644
7.833112576,0.999741870590891,-34.973812468226704
7.843708416,0.9998518318813138,-35.26997881499637
7.854304768,0.9999698294689546,-35.567693633053054
7.864900608,1.0000898003666805,-35.86694369780032
7.875496448,1.0002056136978839,-36.167810633260686
7.8860928,1.0003114626762872,-36.47014207043051
7.89668864,1.0004017961814435,-36.77377125854568
7.907284992,1.0004719649063962,-37.07850973985806
7.917880832,1.000518477004162,-37.38403114043024
7.928476672,1.000538618417096,-37.69004713850023
7.939073024,1.0005315830063786,-37.99618264550445
7.949668864,1.0004975054273224,-38.30209287289316
7.960264704,1.0004382476668914,-38.60745693284399
7.970861056,1.0003565404427162,-38.911918728660744
7.981456896,1.000256555616128,-39.21525630690396
7.992052736,1.000143361970995,-39.51726225785455
8.002649088,1.000022819523873,-39.8177611315111
8.013244928,0.9999007835595781,-40.11672790386038
8.02384128,0.9997837841207088,-40.41415520488625
8.03443712,0.9996776434518063,-40.71017966066051
8.04503296,0.9995879141810242,-41.004951386319185
8.055629312,0.9995191874428848,-41.29869241834348
8.066225152,0.9994748428748242,-41.5917674375679
8.076820992,0.9994575193352677,-41.884435212955886
8.087417344,0.9994679536558007,-42.17711508357642
8.098013184,0.9995058066875789,-42.47012317413387
8.108609024,0.9995690672838502,-42.7638009155463
8.119205376,0.9996548309626828,-43.058504483911896
8.129801216,0.9997584479618303,-43.35446940664875
8.140397568,0.999874876143072,-43.651878004867356
8.150993408,0.9999982611574988,-43.950910416401385
8.161589248,1.0001220556795536,-44.251586647842345
8.1721856,1.000240157109958,-44.55384326013924
8.18278144,1.000346568288789,-44.85762213797296
8.19337728,1.000435431778587,-45.16270384412305
8.203973632,1.0005027021985318,-45.468858781316804
8.214569472,1.000544557195853,-45.77575147020563
8.225165312,1.000558956804716,-46.08309530146748
8.235761664,1.0005449556888442,-46.39046954892827
8.246357504,1.0005033365242526,-46.697523989281386
8.256953856,1.000436031770222,-47.00387339771988
8.267549696,1.0003464460173943,-47.3092760017024
8.278145536,1.0002390125019125,-47.61346570189825
8.288741888,1.000119323610616,-47.916212869689325
8.299337728,0.9999934493189899,-48.21738287011835
8.309933568,0.9998676589371841,-48.51698735835929
8.32052992,0.9997484730318575,-48.81498809934252
8.33112576,0.9996418880375552,-49.11157104027285
8.3417216,0.9995535301047467,-49.406902312931344
8.352317952,0.9994879618601797,-49.70127028821114
8.362913792,0.9994485235016641,-49.994974312195204
8.373510144,0.9994372791063408,-50.288394799756084
8.384105984,0.9994547694712638,-50.58185346698768
8.394701824,0.9995004819867408,-50.87579724636774
8.405298176,0.9995719638276449,-51.17050187994177
8.415894016,0.9996656021617328,-51.466314863333274
8.426489856,0.9997768017336506,-51.76348104412432
8.437086208,0.9998998432139549,-52.062217917198076
8.447682048,1.0000283518762108,-52.362648131126384
8.4582784,1.0001560552786684,-52.66477988865215
8.46887424,1.00027617905564,-52.968543117482795
8.47947008,1.000382806353824,-53.27385437674029
8.490066432,1.0004702772315235,-53.580471846830086
8.500662272,1.000534051923397,-53.888089235333645
8.511258112,1.0005710574023636,-54.1964380690236
8.521854464,1.0005791877814108,-54.50510915547398
8.532450304,1.000557888689777,-54.813752681559556
8.543046144,1.0005082154055833,-55.1219894635661
8.553642496,1.0004327109533988,-55.42944130055872
8.564238336,1.0003349490816291,-55.73579734640522
8.574834688,1.0002199417507858,-56.04088446539903
8.585430528,1.0000937227613957,-56.344392274960974
8.596026368,0.9999623705375155,-56.64628670933355
8.60662272,0.9998328853714151,-56.94648751687424
8.617218048,0.9997115715412228,-57.24511671018714
8.6278144,0.9996048480975323,-57.54229514546416
8.638410752,0.9995181332564523,-57.83823139029955
8.649007104,0.9994559493115345,-58.133249755313734
8.659602432,0.9994215286901212,-58.42766366517678
8.670198784,0.9994168128780145,-58.72184967635168
8.680795136,0.9994418682150232,-59.016188414405505
8.691390464,0.9994957867621737,-59.31105418632363
8.701986816,0.9995756784449541,-59.606853903398374
8.712583168,0.9996775621930698,-59.90386167008146
8.723178496,0.9997964743707624,-60.20234808291519
8.733774848,0.99992600790416,-60.50246879017119
8.7443712,1.0000600440294523,-60.804370945051
8.754966528,1.0001914448273803,-61.10801719648539
8.76556288,1.0003136327839581,-61.41336200634252
8.776159232,1.000420291493306,-61.72027404149127
8.78675456,1.000505943821758,-62.02842531406315
8.797350912,1.0005661214994073,-62.33761394145188
8.807947264,1.0005977907769519,-62.6474467472749
8.818542592,1.00059932470943,-62.95753238930465
8.829138944,1.0005701672268565,-63.267517064260765
8.839735296,1.000512191255243,-63.576966418668235
8.850330624,1.0004280724770844,-63.885539365022126
8.860926976,1.0003219755767332,-64.19293425503477
8.871523328,1.0001993079803826,-64.49888675051935
8.88211968,1.000066276501406,-64.80320821465827
8.892715008,0.9999295159033756,-65.1058188239158
8.90331136,0.999796186604745,-65.40673318626517
8.913907712,0.9996731121291947,-65.70600060707463
8.92450304,0.9995664147500984,-66.00378013098354
8.935099392,0.9994816186159383,-66.30038596129125
8.945695744,0.9994234171739987,-66.59607058095183
8.956291072,0.9993943600004732,-66.89122492856578
8.966887424,0.9993964701950828,-67.18622259112956
8.977483776,0.9994295495361646,-67.4814932991326
8.988079104,0.9994919044952488,-67.77741891878117
8.998675456,0.999580523553591,-68.07436235421089
9.009271808,0.999691034395944,-68.37263750711607
9.019867136,0.9998177568026603,-68.67249106729082
9.030463488,0.9999543355076463,-68.97410094415743
9.04105984,1.0000936585014264,-69.2775271142919
9.051655168,1.000228799078358,-69.5827944089378
9.06225152,1.0003528384113516,-69.88979817893514
9.072847872,1.0004593747678323,-70.19833443841806
9.0834432,1.0005428533256748,-70.50815032721451
9.094039552,1.0005990834226681,-70.81895724261737
9.104635904,1.0006250581782081,-71.13036058295792
9.115232256,1.0006193139948538,-71.44192689765389
9.125827584,1.000582207845934,-71.75327131756723
9.136423936,1.0005154562215413,-72.06397375320343
9.147020288,1.0004223266782366,-72.37373075578105
9.157615616,1.0003074787801796,-72.68216314593944
9.168211968,1.0001768278724765,-72.98905471009738
9.17880832,1.0000368934763835,-73.29421648938265
9.189403648,0.999894782363657,-73.59760105418067
9.2,0.9997577198529404,-73.8992235547472
9.210596352,0.9996327452489961,-74.19916690697661
9.22119168,0.9995262775472077,-74.49764040430374
9.231788032,0.9994439037880889,-74.79490755046398
9.242384384,0.9993896903745142,-75.0913083333833
9.252979712,0.9993666369518723,-75.38726426983095
9.263576064,0.9993760300792927,-75.68315713784116
9.274172416,0.9994173900580937,-75.97939615557182
9.284767744,0.9994888711144583,-76.27638729932826
9.295364096,0.9995866368440689,-76.57458211415667
9.305960448,0.9997059941881101,-76.87417721548009
9.3165568,0.9998409028321601,-77.17547176712294
9.327152128,0.9999843935228786,-77.47861625204327
9.33774848,1.000129226264668,-77.78367996434002
9.348344832,1.0002681366972084,-78.0906734281689
9.35894016,1.0003938251103983,-78.39940772113319
9.369536512,1.000499951086445,-78.70966999873697
9.380132864,1.00058098938807,-79.0212423416149
9.390728192,1.0006329683980422,-79.33372963164102
9.401324544,1.000652857930207,-79.64672159948981
9.411920896,1.0006396322349704,-79.95983580594887
9.422516224,1.0005940148401054,-80.27262160629866
9.433112576,1.000517976491772,-80.58463573648109
9.443708928,1.0004154709138253,-80.89563177549292
9.454304256,1.000291683853358,-81.20513315506949
9.464900608,1.0001526811536283,-81.51298821038942
9.47549696,1.0000056302124882,-81.81905462876662
9.486092288,0.9998578964388792,-82.12325094748824
9.49668864,0.9997171670148854,-82.42559413492975
9.507284992,0.999590555694468,-82.72624491241056
9.51788032,0.9994846417707549,-83.02540965890887
9.528476672,0.9994046640223923,-83.32342353253179
9.539073024,0.999355102806375,-83.62057670181767
9.549669376,0.9993383242891901,-83.91738272520438
9.560264704,0.9993554825672941,-84.21419647154814
9.570861056,0.9994056992160459,-84.51148430059195
9.581457408,0.9994864941088367,-84.80966301821499
9.592052736,0.9995939394031638,-85.10910486519133
9.602649088,0.9997225295776391,-85.41013324553897
9.61324544,0.9998658309672379,-85.7129690267943
9.623840768,1.0000164800480869,-86.01774390734931
9.63443712,1.0001669920950458,-86.32454242320398
9.645033472,1.000309496480739,-86.63328847442676
9.6556288,1.0004367848686504,-86.94381910749918
9.666225152,1.000542404776093,-87.25593294512079
9.676821504,1.0006208625039492,-87.56932769830053
9.687416832,1.0006678836801917,-87.88357735401156
9.698013184,1.0006814069513932,-88.19827034294494
9.708609536,1.0006601675575915,-88.51298353989381
9.719204864,1.0006053597523914,-88.8272814225934
9.729801216,1.0005197401583432,-89.14069745918636
9.740397568,1.0004075260264973,-89.45290245647323
9.750992896,1.0002741159762352,-89.76355014035842
9.761589248,1.0001265652026656,-90.07244240240223
9.7721856,0.999972334642572,-90.37942088672634
9.782781952,0.9998189694014982,-90.68443511368505
9.79337728,0.9996744584777139,-90.98757134364165
9.803973632,0.999546305178823,-91.28894802955318
9.814569984,0.9994409547127492,-91.58885524753775
9.825165312,0.9993639727820035,-91.88761764925928
9.835761664,0.9993192992856378,-92.18561522725398
9.846358016,0.9993093291354845,-92.48327986927019
9.856953344,0.999334639440986,-92.7810995424422
9.867549696,0.999394143376235,-93.07950270946476
9.878146048,0.9994849568148335,-93.37893070032655
9.888741376,0.9996024497433175,-93.6797204050881
9.899337728,0.999740716205648,-93.9822374389332
9.90993408,0.9998927566762031,-94.28668712008735
9.920529408,1.0000508755369006,-94.59319692195086
9.93112576,1.000206985594495,-94.90180626985305
9.941722112,1.0003532710796414,-95.212422170763
9.95231744,1.0004820092045066,-95.52489386404211
9.962913792,1.0005868733406018,-95.83892096160125
9.973510144,1.00066219146703,-96.15420695619888
9.984105472,1.0007041989652692,-96.47030399186497
9.994701824,1.000710588605367,-96.78677639101797
10.005298176,1.000680919186188,-97.10316337663781
10.015894528,1.0006165870310075,-97.41902197621664
10.026489856,1.0005207744436586,-97.73387305469367
10.037086208,1.0003982064387127,-98.04739873273404
10.04768256,1.0002550564906434,-98.35923122680335
10.058277888,1.0000985261450426,-98.66918539020809
10.06887424,0.9999366757729957,-98.97711951887953
10.079470592,0.9997775371948613,-99.2830170898907
10.09006592,0.9996293869044564,-99.58695638202671
10.100662272,0.9994996917788349,-99.88912652456447
10.111258624,0.9993952902419688,-100.1898119896979
10.121853952,0.9993214003284602,-100.48935431016533
10.132450304,0.9992820702447576,-100.78822737776088
10.143046656,0.9992793917283461,-101.08686241815872
10.153641984,0.9993135529895101,-101.38572328143192
10.164238336,0.9993829840794385,-101.68529461272838
10.174834688,0.9994841903997502,-101.98602022729621
10.185430016,0.9996122520855905,-102.2882654893735
10.196026368,0.9997606214290572,-102.59235498112679
10.20662272,0.999921738464371,-102.898519516573
10.217218048,1.0000875510029616,-103.20684127790491
10.2278144,1.0002495802358646,-103.51737507735108
10.238410752,1.0003995282818903,-103.82996557709167
10.249007104,1.0005298320762666,-104.14443853606971
