freq,mag,phase
6.0,0.9999978002917085,-168.01603373310488
6.008,0.9999956005519866,-168.39189621343905
6.016,0.9999934968876496,-168.7676172413562
6.024,0.999991487228177,-169.14320079603866
6.032,0.9999895695303698,-169.5186508616433
6.04,0.9999877417781263,-169.89397142722223
6.048,0.99998600198222,-170.26916648664545
6.056,0.9999843481800764,-170.64424003852523
6.064,0.9999827784355502,-171.0191960861417
6.072,0.9999812908387035,-171.39403863737044
6.08,0.9999798835055841,-171.76877170461128
6.088,0.9999785545780047,-172.14339930471888
6.096,0.9999773022233218,-172.5179254589345
6.104,0.9999761246342175,-172.89235419281957
6.112,0.9999750200284773,-173.26668953619026
6.12,0.9999739866487746,-173.64093552305366
6.128,0.9999730227624494,-174.0150961915455
6.136,0.9999721266612953,-174.38917558386854
6.144,0.9999712966613375,-174.76317774623308
6.152,0.9999705311026222,-175.13710672879805
6.16,0.9999698283489983,-175.51096658561374
6.168,0.9999691867879038,-175.88476137456544
6.176,0.9999686048301516,-176.2584951573183
6.184,0.99996808090972,-176.63217199926336
6.192,0.9999676134835392,-177.00579596946503
6.2,0.9999672010312765,-177.37937114060864
6.208,0.9999668420551356,-177.75290158895012
6.216,0.9999665350796375,-178.12639139426616
6.224,0.9999662786514205,-178.49984463980508
6.232,0.9999660713390287,-178.87326541223916
6.24,0.9999659117327051,-179.2466578016177
6.248,0.9999657984441935,-179.62002590132076
6.256,0.999965730106525,-179.99337380801379
6.264,0.9999657053738241,179.63329437839676
6.272,0.9999657229210972,179.25997455480697
6.28,0.9999657814440426,178.8866626149589
6.288,0.999965879658842,178.51335444948245
6.296,0.9999660163019662,178.14004594593712
6.304,0.9999661901299759,177.766732988853
6.312,0.9999663999193268,177.3934114597709
6.32,0.9999666444661726,177.0200772372824
6.328,0.9999669225861721,176.6467261970688
6.336,0.9999672331142946,176.27335421194
6.344,0.9999675749046332,175.8999571518726
6.352,0.9999679468302044,175.52653088404753
6.36,0.9999683477827693,175.15307127288773
6.368,0.999968776672638,174.7795741800948
6.376,0.9999692324284866,174.4060354646857
6.384,0.999969713997167,174.0324509830288
6.392,0.999970220343529,173.65881658888028
6.4,0.999970750450228,173.28512813341948
6.408,0.9999713033175507,172.91138146528442
6.416,0.9999718779632294,172.53757243060727
6.424,0.9999724734222635,172.16369687304928
6.432,0.9999730887467417,171.7897506338359
6.44,0.999973723005663,171.4157295517916
6.448,0.9999743752847617,171.0416294633748
6.456,0.9999750446863311,170.66744620271248
6.464,0.9999757303290514,170.29317560163517
6.472,0.9999764313478178,169.91881348971174
6.48,0.9999771468935671,169.54435569428423
6.4879999999999995,0.9999778761331074,169.169798040503
6.496,0.9999786182489537,168.79513635136152
6.504,0.9999793724391547,168.42036644773222
6.5120000000000005,0.9999801379171309,168.04548414840139
6.52,0.9999809139115072,167.67048527010544
6.5280000000000005,0.9999816996659495,167.29536562756635
6.536,0.9999824944390041,166.9201210335287
6.5440000000000005,0.9999832975039326,166.54474729879533
6.552,0.9999841081485549,166.1692402322653
6.5600000000000005,0.99998492567509,165.79359564097058
6.568,0.9999857493999973,165.41780933011435
6.5760000000000005,0.9999865786538201,165.04187710310882
6.584,0.9999874127810319,164.6657947616146
6.592,0.9999882511398803,164.28955810557952
6.6,0.9999890931022374,163.91316293327884
6.608,0.9999899380534442,163.5366050413557
6.616,0.9999907853921631,163.15988022486215
6.624,0.9999916345302289,162.78298427730118
6.632,0.9999924848924985,162.40591299066915
6.64,0.9999933359167065,162.02866215549898
6.648,0.9999941870533186,161.65122756090443
6.656,0.9999950377653875,161.27360499462483
6.664,0.9999958875284085,160.89579024307082
6.672,0.9999967358301803,160.517779091371
6.68,0.9999975821706606,160.13956732341956
6.688,0.9999984260618295,159.76115072192448
6.696,0.9999992670275487,159.38252506845743
6.704,1.0,159.00368614350393
6.712,1.0,158.62462972651528
6.72,0.9999999999999999,158.2453515959609
6.728,1.0,157.86584752938242
6.736,1.0,157.4861133034486
6.744,1.0,157.1061446940116
6.752,0.9999999999999999,156.7259374761643
6.76,1.0,156.3454874242993
6.768,1.0,155.96479031216893
6.776,1.0,155.5838419129465
6.784,1.0,155.2026379992895
6.792,0.9999999999999999,154.8211743434036
6.8,0.9999999999999999,154.43944671710867
6.808,1.0,154.05745089190572
6.816,1.0,153.67518263904626
6.824,1.0,153.2926377296022
6.832,1.0,152.90981193453823
6.84,1.0,152.52670102478555
6.848,1.0,152.1433007713172
6.856,1.0,151.75960694522533
6.864,0.9999999999999999,151.37561531780014
6.872,1.0,150.99132166061077
6.88,1.0,150.60672174558798
6.888,1.0,150.22181134510865
6.896,1.0,149.8365862320824
6.904,0.9999999999999999,149.45104218004013
6.912,0.9999999999999999,149.0651749632246
6.92,1.0,148.6789803566829
6.928,1.0,148.2924541363615
6.936,1.0,147.90559207920288
6.944,1.0,147.5183899632447
6.952,0.9999999999999999,147.13084356772126
6.96,0.9999999999999999,146.7429486731669
6.968,0.9999999999999999,146.35470106152204
6.976,0.9999999999999999,145.96609651624155
6.984,1.0,145.57713082240522
6.992,1.0,145.18779976683103
7.0,0.9999999999999999,144.7980991381909
7.008,1.0,144.40802472712855
7.016,1.0,144.01757232638042
7.024,1.0,143.62673773089907
7.032,0.9999999999999999,143.2355167379789
7.04,0.9999999999999999,142.84390514738521
7.048,1.0,142.4518987614853
7.056,0.9999999999999999,142.059493385383
7.064,1.0,141.66668482705546
7.072,0.9999999999999999,141.2734688974933
7.08,1.0,140.87984141084334
7.088,1.0,140.4857981845545
7.096,1.0,140.0913350395264
7.104,1.0,139.69644780026158
7.112,1.0,139.30113229502018
7.12,0.9999999999999999,138.905384355978
7.128,1.0,138.50919981938802
7.136,0.9999999999999999,138.11257452574472
7.144,1.0,137.71550431995192
7.152,1.0,137.31798505149354
7.16,1.0,136.9200125746086
7.168,1.0,136.52158274846855
7.176,1.0000000000000002,136.12269143735864
7.184,0.9999999999999999,135.72333451086294
7.192,0.9999999999999999,135.32350784405222
7.2,1.0,134.92320731767603
7.208,0.9999999999999999,134.5224288183582
7.216,0.9999999999999999,134.12116823879572
7.224,1.0,133.71942147796196
7.232,0.9999999999999999,133.3171844413128
7.24,1.0,132.9144530409974
7.248,0.9999999999999999,132.511223196072
7.256,0.9999999999999999,132.1074908327184
7.264,1.0,131.70325188446571
7.272,1.0000000000000002,131.29850229241626
7.28,1.0,130.89323800547567
7.288,1.0,130.48745498058676
7.296,1.0,130.08114918296778
7.304,1.0,129.67431658635434
7.312,1.0,129.2669531732461
7.32,0.9999999999999999,128.8590549351571
7.328,1.0,128.4506178728707
7.336,1.0,128.04163799669877
7.344,1.0,127.63211132674495
7.352,1.0,127.2220338931726
7.36,1.0,126.81140173647697
7.368,1.0,126.4002109077619
7.376,1.0,125.98845746902093
7.384,1.0,125.576137493423
7.392,0.9999999999999998,125.16324706560265
7.4,1.0,124.74978228195475
7.4079999999999995,0.9999999999999999,124.33573925093427
7.416,1.0,123.92111409335972
7.4239999999999995,0.9999999999999999,123.50590294272288
7.432,0.9999999999999999,123.09010194550135
7.4399999999999995,0.9999999999999999,122.67370726147773
7.448,0.9999999999999999,122.25671506406196
7.4559999999999995,1.0,121.83912154061986
7.464,1.0,121.42092289280538
7.4719999999999995,1.0,121.00211533689878
7.48,1.0,120.58269510414864
7.4879999999999995,1.0,120.16265844112002
7.496,1.0,119.74200161004624
7.504,1.0,119.3207208891872
7.5120000000000005,1.0,118.89881257319094
7.52,1.0,118.47627297346222
7.5280000000000005,0.9999999999999999,118.0530984185342
7.536,0.9999999999999998,117.629285254447
7.5440000000000005,1.0,117.20482984512977
7.552,0.9999999999999999,116.77972857278932
7.5600000000000005,1.0,116.35397783830268
7.568,1.0,115.92757406161589
7.5760000000000005,0.9999999999999999,115.50051368214683
7.584,0.9999999999999999,115.07279315919469
7.5920000000000005,1.0,114.64440897235293
7.6,1.0,114.21535762192923
7.6080000000000005,0.9999999999999999,113.78563562936897
7.616,1.0,113.35523953768562
7.6240000000000006,1.0,112.9241659118946
7.632,0.9999999999999999,112.49241133945432
7.640000000000001,1.0,112.05997243071047
7.648,1.0,111.62684581934754
7.656000000000001,0.9999999999999999,111.19302816284359
7.664,0.9999999999999999,110.75851614293236
7.672,0.9999999999999999,110.32330646606863
7.68,1.0,109.88739586390032
7.688,0.9999999999999999,109.45078109374504
7.696,1.0,109.01345893907215
7.704,0.9999999999999999,108.57542620998991
7.712,1.0,108.13667974373786
7.72,0.9999999999999999,107.69721640518439
7.728,1.0,107.25703308732957
7.736,1.0000000000000002,106.81612671181288
7.744,0.9999999999999999,106.37449422942632
7.752,1.0,105.93213262063236
7.76,1.0,105.48903889608718
7.768,0.9999999999999999,105.04521009716885
7.776,1.0,104.60064329651038
7.784,1.0,104.15533559853804
7.792,0.9999999999999999,103.70928414001425
7.8,0.9999999999999999,103.26248609058555
7.808,1.0,102.8149386533355
7.816,1.0,102.36663906534208
7.824,0.9999999999999999,101.91758459824014
7.832,0.9999999999999999,101.46777255878833
7.84,1.0,101.01720028944068
7.848,0.9999999999999999,100.56586516892295
7.856,1.0,100.11376461281326
7.864,1.0,99.66089607412725
7.872,1.0,99.20725704390765
7.88,1.0,98.75284505181816
7.888,0.9999999999999999,98.29765766674144
7.896,0.9999999999999999,97.84169249738153
7.904,1.0,97.38494719286996
7.912,1.0,96.92741944337615
7.92,1.0000000000000002,96.46910698072165
7.928,0.9999999999999999,96.01000757899806
7.936,0.9999999999999999,95.55011905518877
7.944,0.9999997111374604,95.08943926979434
7.952,0.999999141032631,94.62796612746124
7.96,0.9999985729211799,94.16569757761418
7.968,0.9999980070051968,93.70263161509155
7.976,0.9999974434854334,93.23876628078418
7.984,0.9999968825612451,92.77409966227705
7.992,0.9999963244305351,92.30862989449399
8.0,0.9999957692896957,91.84235516034519
8.008,0.9999952173335537,91.37527369137742
8.016,0.9999946687553116,90.90738376842643
8.024000000000001,0.9999941237464938,90.4386837222726
8.032,0.9999935824968879,89.969171934298
8.04,0.9999930451944918,89.49884683714573
8.048,0.9999925120254555,89.02770691538147
8.056000000000001,0.9999919831740292,88.55575070615708
8.064,0.9999914588225047,88.08297679987514
8.072,0.9999909391511651,87.60938384085527
8.08,0.9999904243382272,87.13497052800192
8.088000000000001,0.9999899145597883,86.65973561547347
8.096,0.9999894099897754,86.1836779133518
8.104,0.9999889107998892,85.70679628831272
8.112,0.999988417159552,85.22908966429726
8.120000000000001,0.9999879292358564,84.75055702318359
8.128,0.9999874471935132,84.2711974054585
8.136,0.9999869711947985,83.7910099108891
8.144,0.9999865013995053,83.3099936991946
8.152000000000001,0.99998603796489,82.82814799071781
8.16,0.9999855810456245,82.34547206709546
8.168,0.9999851307937468,81.86196527192793
8.176,0.9999846873586098,81.3776270114481
8.184000000000001,0.9999842508868336,80.89245675518909
8.192,0.9999838215222597,80.40645403665009
8.2,0.9999833994059011,79.91961845396034
8.208,0.9999829846758949,79.43194967054166
8.216000000000001,0.9999825774674584,78.94344741576872
8.224,0.9999821779128422,78.4541114856265
8.232,0.9999817861412847,77.96394174336496
8.24,0.999981402278968,77.47293812015116
8.248000000000001,0.9999810264489756,76.98110061571828
8.256,0.9999806587712468,76.48842929901059
8.264,0.9999802993625356,75.99492430882479
8.272,0.9999799483363707,75.50058585444769
8.280000000000001,0.9999796058030113,75.00541421628951
8.288,0.9999792718694104,74.50940974651243
8.296,0.9999789466391727,74.01257286965402
8.304,0.9999786302125183,73.5149040832461
8.312,0.9999783226862432,73.01640395842824
8.32,0.9999780241536833,72.51707314055452
8.328,0.9999777347046799,72.01691234979576
8.336,0.9999774544255411,71.51592238173382
8.344,0.9999771833990119,71.01410410795104
8.352,0.9999769217042371,70.51145847661084
8.36,0.9999766694167319,70.00798651303309
8.368,0.9999764266083496,69.50368932025987
8.376,0.9999761933472505,68.99856807961551
8.384,0.9999759696978743,68.49262405125633
8.392,0.9999757557209106,67.9858585747139
8.4,0.9999755514732727,67.47827306942763
8.408,0.9999753570080702,66.96986903526992
8.416,0.9999751723745866,66.46064805306025
8.424,0.999974997618252,65.95061178507109
8.432,0.9999748327806237,65.439761975522
8.44,0.9999746778993629,64.9281004510651
8.448,0.9999745330082148,64.41562912125781
8.456,0.9999743981369906,63.90234997902644
8.464,0.9999742733115476,63.388265101116396
8.472,0.9999741585537745,62.87337664853268
8.48,0.9999740538815752,62.357686866965935
8.488,0.999973959308856,61.841198087208454
8.496,0.9999738748455114,61.323912725555154
8.504,0.9999738004974136,60.80583328419342
8.512,0.9999737362664034,60.28696235157757
8.52,0.9999736821502798,59.767302602791524
8.528,0.9999736381427945,59.24685679989524
8.536,0.9999736042336462,58.72562779225875
8.544,0.9999735804084751,58.203618516879395
8.552,0.9999735666488606,57.68083199868584
8.56,0.9999735629323215,57.157271350824786
8.568,0.9999735692323137,56.63293977493366
8.576,0.9999735855182339,56.10784056139542
8.584,0.9999736117554217,55.58197708957866
8.592,0.9999736479051647,55.05535282805918
8.6,0.9999736939247057,54.527971334826255
8.608,0.9999737497672486,53.9998362574697
8.616,0.9999738153819703,53.470951333350996
8.624,0.9999738907140298,52.94132038975453
8.632,0.9999739757045819,52.41094734402244
8.64,0.999974070290792,51.87983620366886
8.648,0.9999741744058505,51.34799106647713
8.656,0.9999742879789922,50.815416120575875
8.664,0.9999744109355144,50.28211564449749
8.672,0.9999745431967988,49.748094007214846
8.68,0.9999746846803327,49.213355668159906
8.688,0.9999748352997347,48.677905177219955
8.696,0.9999749949647809,48.14174717471528
8.704,0.9999751635814303,47.604886391353844
8.712,0.999975341051857,47.06732764816691
8.72,0.9999755272744798,46.5290758564213
8.728,0.9999757221439951,45.99013601751191
8.736,0.9999759255514115,45.45051322283044
8.744,0.9999761373840865,44.91021265361406
8.752,0.9999763575257636,44.3692395807697
8.76,0.9999765858566121,43.82759936467788
8.768,0.9999768222532691,43.28529745497184
8.776,0.999977066588882,42.742339390295655
8.784,0.999977318733152,42.19873079803742
8.792,0.9999775785523836,41.654477394040995
8.8,0.9999778459095293,41.109584982292525
8.808,0.9999781206642412,40.56405945458509
8.815999999999999,0.9999784026729216,40.017906790158115
8.824,0.9999786917887773,39.47113305531379
8.832,0.9999789878618724,38.9237444030097
8.84,0.9999792907391862,38.375747072426535
8.847999999999999,0.9999796002646701,37.827147388511975
8.856,0.9999799162793074,37.277951761500375
8.864,0.9999802386211747,36.72816668640831
8.872,0.9999805671255045,36.17779874250519
8.879999999999999,0.9999809016247484,35.62685459275922
8.888,0.9999812419486447,35.07534098325942
8.896,0.999981587924283,34.523264742613016
8.904,0.9999819393761761,33.97063278131772
8.911999999999999,0.9999822961263266,33.417452091109475
8.92,0.9999826579943012,32.86372974428598
8.928,0.9999830247973029,32.309472893005676
8.936,0.9999833963502444,31.7546887685617
8.943999999999999,0.9999837724658245,31.199384680631226
8.952,0.9999841529546052,30.643568016501025
8.96,0.9999845376250898,30.087246240268318
8.968,0.9999849262838022,29.53042689201723
8.975999999999999,0.9999853187353674,28.973117586970655
8.984,0.9999857147825942,28.415326014618742
8.992,0.9999861142265577,27.857059937823326
9.0,0.9999865168666833,27.298327191898043
9.008,0.9999869225008317,26.7391356836647
9.016,0.9999873309253857,26.179493390486694
9.024000000000001,0.9999877419353379,25.619408359279046
9.032,0.9999881553243768,25.05888870549478
9.04,0.999988570884978,24.497942612088345
9.048,0.9999889884084927,23.9365783284569
9.056000000000001,0.9999894076852394,23.37480416935891
9.064,0.9999898285045953,22.812628513810274
9.072,0.9999902506550864,22.250059803958216
9.08,0.9999906739244839,21.687106543934146
9.088000000000001,0.9999910980998954,21.123777298684995
9.096,0.9999915229678585,20.560080692783046
9.104,0.9999919483144377,19.996025409214848
9.112,0.999992373925317,19.431620188150234
9.120000000000001,0.999992799585897,18.86687382569126
9.128,0.9999932250813899,18.30179517260075
9.136,0.9999936501969162,17.736393133011582
9.144,0.9999940747176012,17.170676663117327
9.152000000000001,0.9999944984286708,16.60465476984437
9.16,0.9999949211155494,16.038336509505246
9.168,0.9999953425639558,15.47173098643427
9.176,0.9999957625600006,14.90484735160615
9.184000000000001,0.9999961808902842,14.337694801237765
9.192,0.9999965973419921,13.77028257537304
9.2,0.9999970117029917,13.20261995645166
9.208,0.9999974237619305,12.63471626786285
9.216000000000001,0.9999978333083306,12.066580872484122
9.224,0.9999982401326863,11.498223171204877
9.232,0.9999986440265587,10.929652601436084
9.24,0.9999990447826714,10.360878635606829
9.248000000000001,0.9999994421950062,9.791910779647976
9.256,0.9999998360588959,9.222758571462688
9.264,1.0,8.653431579385236
9.272,0.9999999999999999,8.083939400628788
9.280000000000001,0.9999999999999999,7.514291659722438
9.288,0.9999999999999999,6.94449800693749
9.296,1.0,6.374568116704077
9.304,1.0000000000000002,5.804511686019173
9.312000000000001,0.9999999999999999,5.23433843284614
9.32,1.0,4.664058094505843
9.328,0.9999999999999999,4.093680426060457
9.336,0.9999999999999999,3.5232151986911138
9.344,1.0,2.9526721980695187
9.352,1.0,2.3820612227229123
9.36,0.9999999999999999,1.8113920823959613
9.368,1.0,1.240674596406552
9.376,1.0,0.669918591999792
9.384,1.0,0.09913390269717026
9.392,1.0,-0.4716696333546845
9.4,1.0,-1.0424821750390394
9.408,1.0,-1.6132938799230052
9.416,0.9999999999999998,-2.1840949059141783
9.424,0.9999999999999999,-2.754875412914914
9.432,0.9999999999999999,-3.3256255644779205
9.44,1.0,-3.896335529458304
9.448,1.0,-4.466995483665679
9.456,1.0,-5.0375956115114136
9.464,1.0,-5.608126107654678
9.472,1.0,-6.178577178642491
9.48,1.0,-6.748939044547173
9.488,1.0,-7.31920194059663
9.496,1.0,-7.889356118800806
9.504,1.0,-8.459391849569693
9.512,1.0,-9.029299423326348
9.52,1.0,-9.599069152110273
9.528,1.0,-10.16869137117452
9.536,0.9999999999999999,-10.738156440572022
9.544,1.0,-11.307454746734473
9.552,1.0,-11.876576704039282
9.56,0.9999999999999999,-12.445512756367938
9.568,0.9999999999999999,-13.01425337865121
9.576,1.0,-13.582789078404812
9.584,0.9999999999999999,-14.151110397250656
9.592,0.9999999999999999,-14.719207912427537
9.6,1.0,-15.287072238286354
9.608,1.0,-15.854694027773737
9.616,1.0,-16.422063973899075
9.624,1.0,-16.989172811188975
9.632,1.0,-17.55601131712428
9.64,0.9999999999999999,-18.12257031356331
9.648,1.0,-18.688840668146895
9.656,1.0,-19.254813295688578
9.664,1.0,-19.820479159545766
9.672,1.0000000000000002,-20.385829272975247
9.68,1.0,-20.950854700468625
9.688,0.9999999999999999,-21.515546559071392
9.696,1.0,-22.07989601968108
9.704,1.0,-22.643894308328328
9.712,1.0,-23.20753270743617
9.72,0.9999999999999999,-23.77080255706148
9.728,1.0,-24.333695256114076
9.736,1.0,-24.89620226355724
9.744,1.0,-25.458315099585132
9.752,1.0,-26.020025346781047
9.76,1.0,-26.581324651252125
9.768,0.9999999999999999,-27.142204723744015
9.776,0.9999999999999999,-27.70265734073173
9.784,1.0,-28.262674345489792
9.792,1.0,-28.82224764913803
9.8,0.9999999999999999,-29.38136923166638
9.808,0.9999999999999999,-29.94003114293469
9.816,1.0,-30.49822550365125
9.824,0.9999999999999999,-31.05594450632593
9.832,1.0,-31.613180416201594
9.84,1.0,-32.169925572159954
9.847999999999999,0.9999999999999999,-32.7261723876051
9.856,0.9999999999999999,-33.28191335132196
9.864,1.0,-33.837141028310754
9.872,1.0,-34.391848060597454
9.879999999999999,1.0,-34.94602716802011
9.888,0.9999999999999999,-35.499671148990195
9.896,0.9999999999999999,-36.052772881229416
9.904,1.0,-36.605325322482514
9.911999999999999,1.0,-37.15732151120554
9.92,1.0,-37.708754567228986
9.928,0.9999999999999999,-38.25961769239631
9.936,0.9999999999999999,-38.80990417117841
9.943999999999999,1.0,-39.35960737126343
9.952,0.9999999999999999,-39.90872074412167
9.96,1.0000000000000002,-40.45723782554569
9.968,0.9999999999999999,-41.00515223616679
9.975999999999999,1.0,-41.55245768194689
