freq,mag,phase
6.0,0.9999945400683399,-143.19640956825916
6.008,0.9999943188038259,-143.61295949700954
6.016,0.9999941143608341,-144.0293317212887
6.024,0.999993926220815,-144.44552740016812
6.032,0.9999937538733551,-144.86154770135687
6.04,0.9999935968161177,-145.27739380109333
6.048,0.9999934545547879,-145.69306688403717
6.056,0.9999933266030173,-146.10856814316207
6.064,0.9999932124823643,-146.52389877964876
6.072,0.999993111722239,-146.93906000277883
6.08,0.9999930238598466,-147.35405302982852
6.088,0.9999929484401247,-147.76887908596385
6.096,0.9999928850156916,-148.18353940413556
6.104,0.999992833146783,-148.59803522497484
6.112,0.9999927924011939,-149.0123677966899
6.12,0.9999927623542234,-149.4265383749623
6.128,0.9999927425886099,-149.8405482228448
6.136,0.9999927326944763,-150.25439861065888
6.144,0.9999927322692681,-150.66809081589318
6.152,0.9999927409176955,-151.08162612310272
6.16,0.9999927582516687,-151.49500582380801
6.168,0.999992783890245,-151.9082312163954
6.176,0.9999928174595621,-152.3213036060174
6.184,0.9999928585927804,-152.73422430449406
6.192,0.9999929069300223,-153.14699463021424
6.2,0.9999929621183137,-153.5596159080382
6.208,0.9999930238115177,-153.9720894692
6.216,0.9999930916702774,-154.38441665121104
6.224,0.9999931653619547,-154.7965987977636
6.232,0.9999932445605703,-155.20863725863552
6.24,0.999993328946739,-155.6205333895948
6.248,0.9999934182076118,-156.03228855230512
6.256,0.9999935120368133,-156.44390411423177
6.264,0.9999936101343819,-156.85538144854834
6.272,0.9999937122067041,-157.26672193404366
6.28,0.9999938179664596,-157.67792695502916
6.288,0.9999939271325562,-158.0889979012473
6.296,0.9999940394300685,-158.4999361677802
6.304,0.9999941545901782,-158.9107431549583
6.312,0.9999942723501081,-159.321420268271
6.32,0.9999943924530718,-159.7319689182759
6.328,0.9999945146481994,-160.14239052051033
6.336,0.999994638690485,-160.5526864954022
6.344,0.9999947643407233,-160.9628582681819
6.352,0.999994891365447,-161.37290726879468
6.36,0.9999950195368672,-161.78283493181354
6.368,0.9999951486328159,-162.19264269635244
6.376,0.9999952784366792,-162.6023320059802
6.384,0.9999954087373395,-163.01190430863514
6.392,0.999995539329117,-163.4213610565394
6.4,0.9999956700117042,-163.83070370611532
6.408,0.9999958005901124,-164.23993371789996
6.416,0.9999959308746048,-164.64905255646286
6.424,0.9999960606806427,-165.058061690322
6.432,0.9999961898288184,-165.46696259186177
6.44,0.9999963181448028,-165.87575673725036
6.448,0.9999964454592817,-166.28444560635867
6.456,0.999996571607897,-166.69303068267854
6.464,0.9999966964311877,-167.1015134532427
6.472,0.9999968197745319,-167.5098954085441
6.48,0.999996941488086,-167.91817804245656
6.4879999999999995,0.9999970614267278,-168.32636285215523
6.496,0.999997179449994,-168.73445133803807
6.504,0.9999972954220293,-169.1424450036472
6.5120000000000005,0.9999974092115198,-169.55034535559156
6.52,0.9999975206916429,-169.95815390346894
6.5280000000000005,0.9999976297400032,-170.36587215978952
6.536,0.9999977362385811,-170.77350163989885
6.5440000000000005,0.9999978400736674,-171.18104386190254
6.552,0.9999979411358142,-171.5885003465899
6.5600000000000005,0.999998039319775,-171.99587261735925
6.568,0.9999981345244454,-172.4031622001429
6.5760000000000005,0.999998226652813,-172.81037062333297
6.584,0.9999983156118952,-173.21749941770747
6.592,0.9999984013126869,-173.62455011635697
6.6,0.9999984836701031,-174.0315242546112
6.608,0.9999985626029249,-174.43842336996678
6.616,0.999998638033743,-174.84524900201473
6.624,0.999998709888905,-175.2520026923687
6.632,0.9999987780984574,-175.65868598459366
6.64,0.9999988425960965,-176.06530042413462
6.648,0.999998903319107,-176.4718475582462
6.656,0.9999989602083171,-176.87832893592218
6.664,0.9999990132080362,-177.28474610782575
6.672,0.9999990622660088,-177.69110062621996
6.68,0.9999991073333578,-178.0973940448985
6.688,0.9999991483645327,-178.5036279191169
6.696,0.9999991853172562,-178.90980380552432
6.704,0.9999992181524746,-179.31592326209534
6.712,0.9999992468343039,-179.72198784806213
6.72,0.9999992713299793,179.87200087615267
6.728,0.9999992916098045,179.4660413490031
6.736,0.9999993076470982,179.0601320078866
6.744,0.9999993194181466,178.65427128921021
6.752,0.9999993269021519,178.24845762845672
6.76,0.9999993300811826,177.84268946025045
6.768,0.9999993289401224,177.4369652184224
6.776,0.9999993234666229,177.0312833360754
6.784,0.9999993136510532,176.62564224564903
6.792,0.9999992994864518,176.22004037898387
6.8,0.9999992809684781,175.81447616738578
6.808,0.9999992580953633,175.40894804168963
6.816,0.9999992308678642,175.0034544323231
6.824,0.9999991992892149,174.59799376936974
6.832,0.9999991633650789,174.19256448263215
6.84,0.9999991231035034,173.78716500169455
6.848,0.9999990785148725,173.38179375598543
6.856,0.9999990296118606,172.97644917483962
6.864,0.9999989764093871,172.57112968756033
6.872,0.9999989189245697,172.1658337234808
6.88,0.9999988571766804,171.7605597120256
6.888,0.9999987911871,171.35530608277216
6.896,0.9999987209792736,170.9500712655114
6.904,0.9999986465786659,170.54485369030866
6.912,0.9999985680127182,170.13965178756405
6.92,0.999998485310804,169.7344639880728
6.928,0.9999983985041858,169.32928872308537
6.936,0.999998307625972,168.9241244243671
6.944,0.9999982127110754,168.51896952425804
6.952,0.9999981137961687,168.1138224557322
6.96,0.9999980109196448,167.70868165245685
6.968,0.9999979041215737,167.3035455488516
6.976,0.9999977934436612,166.89841258014704
6.984,0.9999976789292094,166.49328118244364
6.992,0.999997560623074,166.08814979277
7.0,0.9999974385716254,165.6830168491413
7.008,0.999997312822707,165.27788079061725
7.016,0.9999971834255982,164.8727400573602
7.024,0.9999970504309726,164.46759309069282
7.032,0.9999969138908604,164.06243833315588
7.04,0.9999967738586083,163.65727422856548
7.048,0.9999966303888436,163.25209922207065
7.056,0.9999964835374319,162.8469117602103
7.064,0.9999963333614452,162.44171029097052
7.072,0.999996179919119,162.03649326384124
7.08,0.9999960232698191,161.63125912987323
7.088,0.9999958634740022,161.22600634173466
7.096,0.9999957005931811,160.82073335376754
7.104,0.9999955346898886,160.41543862204446
7.112,0.9999953658276406,160.01012060442454
7.12,0.9999951940709021,159.6047777606099
7.128,0.9999950194850508,159.1994085522016
7.136,0.9999948421363434,158.79401144275576
7.144,0.9999946620918806,158.38858489783945
7.152,0.999994479419572,157.9831273850865
7.16,0.999994294188106,157.5776373742532
7.168,0.9999941064669106,157.172113337274
7.176,0.9999939163261252,156.76655374831716
7.184,0.9999937238365652,156.36095708384013
7.192,0.9999935290696904,155.9553218226451
7.2,0.9999933320975728,155.5496464459343
7.208,0.999993132992864,155.14392943736536
7.216,0.9999929318287643,154.73816928310663
7.224,0.9999927286789919,154.33236447189225
7.232,0.9999925236177506,153.9265134950775
7.24,0.9999923167197002,153.52061484669372
7.248,0.999992108059927,153.11466702350347
7.256,0.9999918977139113,152.70866852505577
7.264,0.9999916857575006,152.30261785374074
7.272,0.9999914722668782,151.89651351484488
7.28,0.9999912573185357,151.49035401660583
7.288,0.9999910409892433,151.0841378702676
7.296,0.9999908233560216,150.67786359013502
7.304,0.9999906044961134,150.27152969362913
7.312,0.9999903844869565,149.86513470134182
7.32,0.9999901634061561,149.4586771370907
7.328,0.9999899413314568,149.0521555279741
7.336,0.9999897183407167,148.6455684044259
7.344,0.9999894945118808,148.2389143002704
7.352,0.9999892699229552,147.8321917527773
7.36,0.9999890446519785,147.42539930271647
7.368,0.9999888187769999,147.01853549441296
7.376,0.9999885923760525,146.61159887580192
7.384,0.9999883655271267,146.20458799848348
7.392,0.9999881383081481,145.79750141777797
7.4,0.999987910796951,145.3903376927806
7.4079999999999995,0.9999876830712555,144.98309538641672
7.416,0.9999874552086431,144.57577306549655
7.4239999999999995,0.9999872272865339,144.16836930077088
7.432,0.9999869993821628,143.76088266698557
7.4399999999999995,0.9999867715725564,143.3533117429372
7.448,0.9999865439345124,142.9456551115278
7.4559999999999995,0.9999863165445733,142.53791135982064
7.464,0.9999860894790086,142.13007907909505
7.4719999999999995,0.9999858628137899,141.72215686490222
7.48,0.9999856366245736,141.3141433171201
7.4879999999999995,0.9999854109866738,140.9060370400095
7.496,0.9999851859750462,140.49783664226874
7.504,0.9999849616642666,140.08954073709032
7.5120000000000005,0.9999847381285092,139.6811479422154
7.52,0.9999845154415289,139.2726568799905
7.5280000000000005,0.999984293676639,138.86406617742247
7.536,0.9999840729066939,138.45537446623499
7.5440000000000005,0.9999838532040698,138.04658038292376
7.552,0.9999836346406447,137.6376825688134
7.5600000000000005,0.9999834172877807,137.22867967011237
7.568,0.9999832012163065,136.81957033797008
7.5760000000000005,0.9999829864964972,136.4103532285324
7.584,0.9999827731980596,136.00102700299837
7.5920000000000005,0.9999825613901127,135.59159032767627
7.6,0.9999823511411715,135.1820418740403
7.6080000000000005,0.9999821425191301,134.77238031878656
7.616,0.9999819355912443,134.36260434389044
7.6240000000000006,0.999981730424117,133.95271263666254
7.632,0.999981527083681,133.54270388980603
7.640000000000001,0.9999813256351838,133.1325768014729
7.648,0.9999811261431721,132.7223300753216
7.656000000000001,0.9999809286714765,132.3119624205731
7.664,0.9999807332831971,131.90147255206918
7.672,0.999980540040688,131.49085919032854
7.68,0.9999803490055449,131.08012106160467
7.688,0.9999801602385884,130.66925689794326
7.696,0.9999799737998526,130.25826543723926
7.704,0.9999797897485707,129.8471454232948
7.712,0.9999796081431614,129.43589560587674
7.72,0.9999794290412172,129.02451474077426
7.728,0.9999792524994894,128.6130015898569
7.736,0.9999790785738792,128.2013549211324
7.744,0.9999789073194222,127.78957350880466
7.752,0.999978738790279,127.37765613333187
7.76,0.9999785730397218,126.96560158148473
7.768,0.9999784101201245,126.55340864640472
7.776,0.9999782500829504,126.14107612766253
7.784,0.9999780929787437,125.72860283131637
7.792,0.9999779388571154,125.31598756997072
7.8,0.9999777877667367,124.90322916283485
7.808,0.9999776397553263,124.49032643578154
7.816,0.9999774948696423,124.07727822140603
7.824,0.9999773531554725,123.66408335908476
7.832,0.9999772146576246,123.2507406950345
7.84,0.9999770794199172,122.8372490823712
7.848,0.999976947485173,122.42360738116953
7.856,0.9999768188952074,122.00981445852179
7.864,0.9999766936908231,121.59586918859725
7.872,0.9999765719118004,121.18177045270173
7.88,0.9999764535968907,120.76751713933697
7.888,0.9999763387838086,120.35310814426013
7.896,0.9999762275092243,119.93854237054349
7.904,0.9999761198087588,119.52381872863407
7.912,0.9999760157169745,119.10893613641349
7.92,0.9999759152673708,118.69389351925778
7.928,0.9999758184923775,118.27868981009713
7.936,0.9999757254233488,117.86332394947611
7.944,0.9999756360905582,117.44779488561342
7.952,0.9999755505231928,117.03210157446217
7.96,0.999975468749348,116.61624297976992
7.968,0.9999753907960234,116.20021807313886
7.976,0.9999753166891179,115.7840258340861
7.984,0.9999752464534254,115.36766525010394
7.992,0.9999751801126304,114.95113531672013
8.0,0.9999751176893052,114.53443503755838
8.008,0.999975059204905,114.11756342439867
8.016,0.9999750046797659,113.70051949723754
8.024000000000001,0.9999749541331009,113.28330228434893
8.032,0.9999749075829975,112.86591082234455
8.04,0.9999748650464152,112.44834415623411
8.048,0.9999748265391832,112.03060133948613
8.056000000000001,0.9999747920759982,111.61268143408857
8.064,0.9999747616704223,111.19458351060942
8.072,0.9999747353348825,110.7763066482569
8.08,0.999974713080668,110.35784993494038
8.088000000000001,0.9999746949179298,109.93921246733103
8.096,0.9999746808556806,109.52039335092232
8.104,0.999974670901792,109.10139170009039
8.112,0.999974665062997,108.68220663815475
8.120000000000001,0.9999746633448879,108.26283729743905
8.128,0.9999746657519167,107.84328281933144
8.136,0.9999746722873963,107.42354235434479
8.144,0.9999746829535,107.00361506217747
8.152000000000001,0.9999746977512634,106.58350011177384
8.16,0.9999747166805851,106.16319668138455
8.168,0.9999747397402271,105.74270395862656
8.176,0.9999747669278182,105.32202114054374
8.184000000000001,0.999974798239854,104.90114743366719
8.192,0.9999748336717001,104.48008205407525
8.2,0.999974873217594,104.05882422745336
8.208,0.9999749168706471,103.63737318915435
8.216000000000001,0.9999749646228483,103.21572818425838
8.224,0.9999750164650661,102.7938884676328
8.232,0.9999750723870529,102.37185330399151
8.24,0.9999751323774472,101.94962196795495
8.248000000000001,0.9999751964237775,101.52719374410972
8.256,0.9999752645124673,101.10456792706783
8.264,0.9999753366288378,100.68174382152584
8.272,0.9999754127571128,100.25872074232423
8.280000000000001,0.9999754928804229,99.8354980145065
8.288,0.9999755769808116,99.41207497337811
8.296,0.9999756650392383,98.98845096456479
8.304,0.9999757570355856,98.56462534407152
8.312,0.9999758529486623,98.14059747834108
8.32,0.9999759527562115,97.71636674431178
8.328,0.9999760564349149,97.29193252947624
8.336,0.9999761639603999,96.86729423193849
8.344,0.999976275307245,96.4424512604725
8.352,0.9999763904489869,96.01740303457886
8.36,0.9999765093581277,95.59214898454296
8.368,0.99997663200614,95.16668855149108
8.376,0.999976758363477,94.74102118744821
8.384,0.9999768883995774,94.31514635539385
8.392,0.999977022082874,93.88906352931907
8.4,0.9999771593808012,93.462772194282
8.408,0.9999773002598038,93.03627184646436
8.416,0.999977444685344,92.60956199322634
8.424,0.9999775926219112,92.18264215316269
8.432,0.9999777440330289,91.75551185615703
8.44,0.9999778988812656,91.32817064343728
8.448,0.9999780571282425,90.90061806762945
8.456,0.9999782187346428,90.47285369281245
8.464,0.9999783836602217,90.04487709457119
8.472,0.9999785518638158,89.61668786005083
8.48,0.999978723303352,89.18828558800914
8.488,0.9999788979358596,88.75966988887009
8.496,0.9999790757174786,88.33084038477548
8.504,0.9999792566034711,87.90179670963788
8.512,0.9999794405482321,87.47253850919141
8.52,0.9999796275052986,87.04306544104398
8.528,0.9999798174273627,86.61337717472733
8.536,0.9999800102662822,86.18347339174828
8.544,0.9999802059730908,85.7533537856382
8.552,0.9999804044980108,85.32301806200327
8.56,0.9999806057904648,84.89246593857305
8.568,0.9999808097990869,84.46169714524997
8.576,0.9999810164717352,84.03071142415693
8.584,0.9999812257555036,83.59950852968588
8.592,0.9999814375967353,83.16808822854446
8.6,0.999981651941034,82.73645029980362
8.608,0.9999818687332781,82.3045945349433
8.616,0.9999820879176315,81.87252073789901
8.624,0.999982309437559,81.44022872510641
8.632,0.9999825332358387,81.00771832554705
8.64,0.9999827592545747,80.57498938079166
8.648,0.9999829874352106,80.14204174504486
8.656,0.9999832177185454,79.70887528518742
8.664,0.999983450044744,79.27548988081968
8.672,0.9999836843533547,78.84188542430276
8.68,0.9999839205833201,78.40806182080077
8.688,0.999984158672994,77.97401898832086
8.696,0.9999843985601546,77.5397568577541
8.704,0.999984640182019,77.1052753729143
8.712,0.9999848834752588,76.67057449057772
8.72,0.9999851283760139,76.2356541805205
8.728,0.9999853748199088,75.8005144255571
8.736,0.9999856227420658,75.36515522157637
8.744,0.9999858720771228,74.92957657757859
8.752,0.999986122759247,74.49377851571023
8.76,0.9999863747221496,74.05776107129955
8.768,0.999986627899105,73.62152429288994
8.776,0.9999868822229623,73.18506824227404
8.784,0.9999871376261636,72.74839299452556
8.792,0.9999873940407595,72.31149863803203
8.8,0.9999876513984256,71.87438527452507
8.808,0.999987909630478,71.43705301911142
8.815999999999999,0.9999881686678901,70.99950200030196
8.824,0.999988428441308,70.5617323600406
8.832,0.9999886888810692,70.12374425373245
8.84,0.9999889499172172,69.68553785027075
8.847999999999999,0.9999892114795187,69.24711333206287
8.856,0.9999894734974804,68.808470895056
8.864,0.9999897359003673,68.36961074876186
8.872,0.9999899986172169,67.93053311628024
8.879999999999999,0.9999902615768584,67.4912382343215
8.888,0.9999905247079294,67.05172635322883
8.896,0.9999907879388923,66.61199773699937
8.904,0.9999910511980528,66.17205266330417
8.911999999999999,0.9999913144135758,65.73189142350707
8.92,0.9999915775135043,65.29151432268323
8.928,0.9999918404257754,64.85092167963656
8.936,0.9999921030782387,64.41011382691586
8.943999999999999,0.9999923653986744,63.969091110830036
8.952,0.9999926273148089,63.52785389146257
8.96,0.9999928887543345,63.08640254268517
8.968,0.9999931496449264,62.64473745216994
8.975999999999999,0.9999934099142599,62.202859021400506
8.984,0.9999936694900287,61.760767665682636
8.992,0.9999939282999628,61.318463814153645
9.0,0.9999941862718467,60.87594790979056
9.008,0.9999944433335355,60.43322040941702
9.016,0.9999946994129744,59.99028178370963
9.024000000000001,0.9999949544382168,59.54713251720332
9.032,0.9999952083374407,59.10377310829493
9.04,0.9999954610389681,58.66020406924606
9.048,0.9999957124712816,58.216425926184954
9.056000000000001,0.9999959625630439,57.77243921910726
9.064,0.9999962112431138,57.32824450187551
9.072,0.9999964584405656,56.883842342217164
9.08,0.9999967040847068,56.43923332172211
9.088000000000001,0.9999969481050947,55.99441803583891
9.096,0.9999971904315561,55.54939709386953
9.104,0.9999974309942036,55.104171118962796
9.112,0.9999976697234552,54.65874074810726
9.120000000000001,0.9999979065500488,54.213106632122674
9.128,0.999998141405064,53.76726943564989
9.136,0.999998374219937,53.32122983713973
9.144,0.9999986049264794,52.874988528840845
9.152000000000001,0.9999988334568949,52.4285462167863
9.16,0.9999990597437981,51.9819036207788
9.168,0.9999992837202305,51.53506147437439
9.176,0.99999950531968,51.088020524865385
9.184000000000001,0.999999724476096,50.64078153326218
9.192,0.9999999411239079,50.19334527427314
9.2,1.0,49.745712536283456
9.208,1.0,49.29788412133292
9.216000000000001,0.9999999999999999,48.84986084509256
9.224,1.0,48.40164353683948
9.232,0.9999999999999999,47.95323303943045
9.24,1.0,47.504630209274595
9.248000000000001,0.9999999999999999,47.05583591630465
9.256,1.0,46.60685104394664
9.264,1.0,46.1576764890882
9.272,1.0,45.70831316204586
9.280000000000001,0.9999999999999999,45.25876198653109
9.288,0.9999999999999999,44.80902389961458
9.296,0.9999999999999999,44.3590998516891
9.304,0.9999999999999999,43.90899080643157
9.312000000000001,1.0,43.4586977407635
9.32,1.0,43.008221644809964
9.328,1.0,42.557563521856956
9.336,1.0,42.10672438830799
9.344,0.9999999999999999,41.65570527363916
9.352,1.0,41.20450722035209
9.36,1.0,40.753131283926855
9.368,0.9999999999999999,40.30157853277182
9.376,1.0,39.849850048174005
9.384,0.9999999999999999,39.39794692424608
9.392,1.0,38.94587026787381
9.4,1.0,38.49362119866044
9.408,1.0,38.041200848871235
9.416,1.0,37.58861036337508
9.424,0.9999999999999999,37.13585089958621
9.432,0.9999999999999999,36.68292362740303
9.44,1.0,36.2298297291471
9.448,1.0,35.776570399498944
9.456,1.0,35.32314684543438
9.464,1.0,34.869560286157565
9.472,1.0,34.41581195303435
9.48,1.0,33.961903089522636
9.488,1.0,33.50783495110291
9.496,1.0,33.0536088052057
9.504,1.0,32.59922593113942
9.512,1.0,32.14468762001501
9.52,1.0,31.68999517467093
9.528,1.0,31.235149909595023
9.536,1.0000000000000002,30.780153150846687
9.544,1.0,30.325006235976105
9.552,1.0,29.869710513943456
9.56,1.0,29.414267345035483
9.568,0.9999999999999999,28.958678100781917
9.576,1.0,28.502944163869255
9.584,1.0000000000000002,28.047066928054498
9.592,1.0,27.591047798076154
9.6,1.0,27.13488818956524
9.608,1.0,26.678589528953626
9.616,1.0,26.222153253382285
9.624,1.0,25.765580810606856
9.632,1.0,25.308873658903398
9.64,1.0,24.85203326697117
9.648,0.9999999999999999,24.39506111383571
9.656,1.0,23.937958688749017
9.664,0.9999999999999999,23.480727491090015
9.672,1.0,23.023369030262053
9.68,0.9999999999999998,22.5658848255908
9.688,1.0,22.10827640621925
9.696,1.0,21.650545311002936
9.704,1.0,21.19269308840241
