freq,mag,phase
6.0,1.0005701262030218,-143.66250932701695
6.002287104,1.0004724934751166,-143.81998300002576
6.004574208,1.000344940827903,-143.9757944375425
6.006861312,1.0001952119780693,-144.12954725051907
6.009147904,1.0000327896309897,-144.28104050605796
6.011435008,0.9998681544920798,-144.43014297058977
6.013722112,0.9997115928019706,-144.57686067388525
6.016009216,0.9995729634050451,-144.7214061772187
6.01829632,0.9994613152906274,-144.86415690660996
6.020583424,0.9993834379571792,-145.0054795853622
6.022870016,0.9993445923535108,-145.14589862529374
6.02515712,0.9993470431442657,-145.28608330042155
6.027444224,0.9993907335207985,-145.42654312347415
6.029731328,0.9994728501254,-145.56794082819337
6.032018432,0.999588435030941,-145.7107362117606
6.034305536,0.9997297911573703,-145.85535606865224
6.036592128,0.9998882491228341,-146.00216169374383
6.038879232,1.000053583445544,-146.15129623196944
6.041166336,1.0002154684275528,-146.30277241284617
6.04345344,1.0003635165939397,-146.45652883622458
6.045740544,1.0004884140800527,-146.6122122199275
6.048027648,1.0005822860900992,-146.76946260419976
6.05031424,1.000639064348917,-146.92777949845618
6.052601344,1.000655224654898,-147.08664666465393
6.054888448,1.0006296781174555,-147.24540030399288
6.057175552,1.0005641238828233,-147.40345175195344
6.059462656,1.000462551166943,-147.5602742794263
6.06174976,1.0003314122654692,-147.7154188767323
6.064036352,1.0001791082071103,-147.86846479011368
6.066323456,1.00001517833052,-148.01919001830785
6.06861056,0.9998500257069367,-148.16755521538482
6.070897664,0.9996940433513657,-148.3135023622009
6.073184768,0.9995572904172875,-148.45732457456918
6.075471872,0.9994483903988318,-148.59930527969146
6.077758464,0.9993742079052482,-148.7399800724207
6.080045568,0.9993394677808869,-148.87979572036716
6.082332672,0.9993465393211619,-149.01937587735335
6.084619776,0.9993947928438219,-149.15936792087086
6.08690688,0.9994813530428204,-149.30033914737604
6.089193984,0.9996005345876955,-149.44272393540035
6.091481088,0.9997450486041103,-149.5870494428996
6.09376768,0.99990557598142,-149.73355390923865
6.096054784,1.000071931845193,-149.88238718905095
6.098341888,1.0002336501591305,-150.03364739419084
6.100628992,1.0003803847900827,-150.1870860922338
6.102916096,1.0005029464689466,-150.34249282741598
6.1052032,1.0005935070738918,-150.49936937917593
6.107489792,1.0006462492578418,-150.65732205421685
6.109776896,1.0006580302136168,-150.81565829095373
6.112064,1.0006278376720605,-150.97390415640547
6.114351104,1.0005577033950728,-151.13137358559587
6.116638208,1.000452083981513,-151.28756620221955
6.118925312,1.0003175328458347,-151.4419689853307
6.121211904,1.0001626510299781,-151.59426069494094
6.123499008,0.9999971866574142,-151.74420954500985
6.125786112,0.9998316683632332,-151.8917071002255
6.128073216,0.999676565299869,-152.0368691932916
6.13036032,0.999541701750975,-152.1798858046871
6.132647424,0.999435667249806,-152.32111740246944
6.134934016,0.9993652568657964,-152.4610358382777
6.13722112,0.9993348957065733,-152.60021750923676
6.139508224,0.9993465355648461,-152.73923936851
6.141795328,0.9993993866505586,-152.87868795378895
6.144082432,0.9994902812135446,-153.01915054622964
6.146369536,0.9996133744658193,-153.1611447681766
6.148656128,0.9997608518290915,-153.30510677480098
6.150943232,0.99992335272158,-153.45129651897355
6.153230336,1.0000906276036492,-153.5998265400012
6.15551744,1.0002520634493044,-153.7507834218838
6.157804544,1.0003973530217876,-153.90391658103425
6.160091648,1.0005173812807906,-154.058953915671
6.162378752,1.000604529475199,-154.21545423886272
6.164665344,1.000653159351137,-154.37292477546865
6.166952448,1.0006603313168325,-154.53077900879532
6.169239552,1.0006254752075276,-154.68844311412468
6.171526656,1.0005508418774356,-154.8452508769798
6.17381376,1.0004410461085373,-155.00072895276608
6.176100864,1.000303115582644,-155.15434286663424
6.178387456,1.000145742181623,-155.30581572672082
6.18067456,0.9999789170617397,-155.45490950443218
6.182961664,0.9998131675007097,-155.6016047859812
6.185248768,0.9996589448456807,-155.74586072215507
6.187535872,0.9995261355093686,-155.88803710260132
6.189822976,0.9994231861845463,-156.02848927296697
6.192109568,0.9993566571443728,-156.16766073946383
6.194396672,0.9993307418716607,-156.30614103424261
6.196683776,0.9993470495475573,-156.44452873561363
6.19897088,0.999404670226492,-156.58341602421578
6.201257984,0.9994998960791411,-156.72339267061264
6.203545088,0.9996268424324055,-156.8649385482859
6.20583168,0.999777193250752,-157.00851783052408
6.208118784,0.9999415569043115,-157.15435225887546
6.210405888,1.0001096744360283,-157.30256362027333
6.212692992,1.0002706199688622,-157.45317074748937
6.214980096,1.000414356543416,-157.60592457877908
6.2172672,1.0005317018680766,-157.7605833200262
6.219553792,1.0006152478811996,-157.9166367870165
6.221840896,1.0006597132835513,-158.07363855042107
6.224128,1.0006622414513275,-158.2309331827311
6.226415104,1.0006226094407926,-158.3879500549558
6.228702208,1.0005433571947626,-158.54408241726787
6.230989312,1.0004294649810026,-158.69879700080114
6.233275904,1.0002881647402113,-158.85158707986045
6.235563008,1.0001283552848412,-159.0022118115351
6.237850112,0.9999601830327254,-159.15040328523148
6.240137216,0.9997943188539566,-159.29619706754025
6.24242432,0.9996412182707454,-159.43957922134902
6.244711424,0.9995106748814242,-159.58089664441272
6.246998528,0.9994109297386624,-159.72046587988532
6.24928512,0.9993483636441608,-159.85887920279112
6.251572224,0.9993269907351425,-159.99664507848144
6.253859328,0.999348077962801,-160.13432750571513
6.256146432,0.9994104330832513,-160.2726350884872
6.258433536,0.9995100603681653,-160.41209565821154
6.26072064,0.9996406922383296,-160.5532018882971
6.263007232,0.9997940386323961,-160.69634015454898
6.265294336,0.9999602505659693,-160.84177464234932
6.26758144,1.000128887625208,-160.9896304205675
6.269868544,1.0002893374746495,-161.13983990800833
6.272155648,1.0004313382656966,-161.29223910961315
6.274442752,1.0005459116773612,-161.4464258157597
6.276729344,1.0006256847245067,-161.60205025804362
6.279016448,1.0006658627192755,-161.75852656668383
6.281303552,1.0006636040641117,-161.91519600255646
6.283590656,1.0006190755354034,-162.0715674570058
6.28587776,1.00053530221614,-162.22693500725998
6.288164864,1.0004172829016942,-162.38080787023003
6.290451456,1.0002726781496531,-162.5327931715325
6.29273856,1.0001104338451354,-162.6825188150407
6.295025664,0.9999411407711258,-162.82978717395946
6.297312768,0.9997751921661735,-162.9745768502199
6.299599872,0.9996233756588125,-163.11703316127017
6.301886976,0.9994951346724118,-163.25742691743883
6.304173568,0.9993987318119684,-163.3961651173331
6.306460672,0.9993402955248775,-163.5337289745945
6.308747776,0.9993235966530174,-163.67074617402977
6.31103488,0.9993496294248145,-163.80775002522924
6.313321984,0.9994167216364448,-163.94545178957824
6.315609088,0.9995207574737452,-164.0843437694189
6.317896192,0.9996551720016359,-164.2249820397536
6.320182784,0.9998112553636106,-164.36766282086256
6.322469888,0.999979246678069,-164.51267285982468
6.324756992,1.0001484422658802,-164.6601256706911
6.327044096,1.0003082206591791,-164.80992078756447
6.3293312,1.0004482835282829,-164.96190589716036
6.331618304,1.0005598716549287,-165.11567836102623
6.333904896,1.0006358881997792,-165.27077233059435
6.336192,1.00067143242947,-165.4266444944881
6.338479104,1.0006643398625616,-165.58269809763513
6.340766208,1.0006149993967806,-165.73831859062832
6.343053312,1.000526564584259,-165.8929342728905
6.345340416,1.000404465270611,-166.04597337551013
6.347627008,1.0002565246595925,-166.19705007556303
6.349914112,1.0000921166478058,-166.34578171478825
6.352201216,0.9999216029157443,-166.49208376105844
6.35448832,0.9997558589443531,-166.63590143183964
6.356775424,0.9996053716295047,-166.77741669189567
6.359062528,0.9994796736995293,-166.91685393192907
6.36134912,0.9993868779721681,-167.05467534267706
6.363636224,0.9993327096453216,-167.19140674457148
6.365923328,0.9993207472781964,-167.32764301787526
6.368210432,0.9993517251715832,-167.4639335769943
6.370497536,0.9994236290561059,-167.60099536429095
6.37278464,0.9995321892524145,-167.7393364075353
6.375071232,0.9996701837858045,-167.87939952197868
6.377358336,0.9998291036933303,-168.02163802598199
6.37964544,0.9999986831833203,-168.166230137277
6.381932544,1.0001683615503354,-168.31324949247312
6.384219648,1.000327154636722,-168.46262701878743
6.386506752,1.0004652295872383,-168.6141266465271
6.388793344,1.0005738105621282,-168.76741287330546
6.391080448,1.0006457334597083,-168.92195141268047
6.393367552,1.0006766952311545,-169.07721697316825
6.395654656,1.0006646537793717,-169.2325974722517
6.39794176,1.000610309930013,-169.38747902193506
6.400228864,1.0005171594583957,-169.54126488045947
6.402515968,1.0003909281561096,-169.6934191465263
6.40480256,1.000239865263959,-169.84351198340653
6.407089664,1.000073166189841,-169.99130642665256
6.409376768,0.9999017744041959,-170.1365886618224
6.411663872,0.9997362979595409,-170.27940118548497
6.413950976,0.999587436908228,-170.41989723370884
6.41623808,0.9994643953602298,-170.55839669140582
6.418524672,0.9993752110596321,-170.6952629205001
6.420811776,0.9993254419321348,-170.83111556836707
6.42309888,0.9993183889685167,-170.96653102852972
6.425385984,0.9993544378959739,-171.10214866108876
6.427673088,0.9994313356821947,-171.23852965503522
6.429960192,0.9995442763374119,-171.37625715457384
6.432246784,0.9996859141738579,-171.51579630440386
6.434533888,0.9998474220736692,-171.65749738576346
6.436820992,1.0000186495818977,-171.80162096950673
6.439108096,1.000188563736453,-171.9482264761853
6.4413952,1.0003463982228649,-172.09715259524785
6.443682304,1.0004822167900194,-172.24813858252097
6.445968896,1.00058732332629,-172.40089521506943
6.448256,1.0006552925485437,-172.5548854275422
6.450543104,1.0006814819179681,-172.7095138704173
6.452830208,1.000664293625099,-172.86417275868084
6.455117312,1.000604964122082,-173.0182515400836
6.457404416,1.000507099926253,-173.1711552938184
6.459691008,1.0003768856885735,-173.3223796397884
6.461978112,1.0002225510492524,-173.47151706070807
6.464265216,1.000053849000864,-173.6182897181425
6.46655232,0.9998815796657042,-173.76253205197182
6.468839424,0.9997165739527629,-173.9042998957016
6.471126528,0.9995692952776151,-174.04375443064424
6.473413632,0.9994491774280375,-174.18121071588675
6.475700224,0.9993638986190241,-174.31719529434045
6.477987328,0.9993186464130409,-174.45212858888095
6.480274432,0.9993166450886585,-174.5867178214552
6.482561536,0.9993577771267299,-174.72154944944432
6.48484864,0.9994396233954305,-174.857251522491
6.487135744,0.9995569776605318,-174.99438835345939
6.489422336,0.9997022846054651,-175.1333612337385
6.49170944,0.9998664331007523,-175.27458415626094
6.493996544,1.000038932875776,-175.4182339900101
6.496283648,1.000208984822091,-175.56430738316445
6.498570752,1.0003657649402637,-175.71273919820618
6.500857856,1.000499157087466,-175.86328401480628
6.503144448,1.0006008329101574,-176.01547677943523
6.505431552,1.0006644224834391,-176.16884839834657
6.507718656,1.000685767669243,-176.3228015564471
6.51000576,1.000663545782405,-176.47672099007312
6.512292864,1.0005990201126163,-176.62997638621312
6.514579968,1.000496405413011,-176.78197042086373
6.51686656,1.000362131406518,-176.93223184342682
6.519153664,1.0002046791885288,-177.08036488629722
6.521440768,1.0000341176575311,-177.22605521655956
6.523727872,0.9998610304551501,-177.36924303093232
6.526014976,0.9996966061581781,-177.5099229556883
6.52830208,0.9995512767095129,-177.64831338746725
6.530588672,0.9994341660667883,-177.7847718852881
6.532875776,0.9993527976485678,-177.91973685534182
6.53516288,0.9993123248054047,-178.05374427075216
6.537449984,0.9993153328713563,-178.18749718838572
6.539737088,0.9993617729470463,-178.32159508762535
6.542024192,0.9994486171054476,-178.45659014740744
6.544310784,0.9995703446113418,-178.59308664813392
6.546597888,0.9997192215433133,-178.73151509160542
6.548884992,0.9998858471858562,-178.87217934490405
6.551172096,1.0000596475269212,-179.01531768175388
6.5534592,1.0002296822893766,-179.1609282536486
6.555746304,1.0003851053544814,-179.3088794977501
6.558033408,1.0005159813481517,-179.4588345615173
6.56032,1.0006140446265763,-179.61047232033877
6.562607104,1.0006731386130454,-179.76319318663303
6.564894208,1.0006894976266874,-179.91644842626638
6.567181312,1.0006618727914938,179.93041057610034
6.569468416,1.0005922299265482,179.77803631814845
6.57175552,1.0004849339551696,179.62692031600076
6.574042112,1.0003466240747145,179.47767496046808
6.576329216,1.0001861544784023,179.330621652616
6.57861632,1.0000136049583943,179.18597198916856
6.580903424,0.9998400410463968,179.0439249887151
6.583190528,0.9996764343841715,178.90434476954331
6.585477632,0.9995330945672568,178.7670362975414
6.587764224,0.9994192466139823,178.63164231646763
6.590051328,0.9993419795235416,178.4976652095235
6.592338432,0.9993064039704566,178.3645621875262
6.594625536,0.9993146956971289,178.23165218203224
6.59691264,0.9993664441180786,178.0983831237005
6.599199744,0.9994581738438042,177.96409838017294
6.601486336,0.9995844142396823,177.8282558256893
6.60377344,0.9997368084251538,177.6903906622439
6.606060544,0.9999058600783811,177.55023252251223
6.608347648,1.0000810166996088,177.4076245660733
6.610634752,1.000250777550895,177.26250780076828
6.612921856,1.0004045945196076,177.11510929462665
6.615208448,1.000532807264426,176.96568369390286
6.617495552,1.0006271050803035,176.81464382199928
6.619782656,1.0006814576100953,176.66260604685323
6.62206976,1.0006926928497502,176.5100829199579
6.624356864,1.000659761413259,176.35773760929206
6.626643968,1.0005848264050101,176.20623937678846
6.628931072,1.0004726951672485,176.0561424170297
6.631217664,1.0003304170433354,175.90789802641655
6.633504768,1.00016706399039,175.76190747484998
6.635791872,0.9999929013894285,175.61839426495902
6.638078976,0.9998188028119893,175.47746908542518
6.64036608,0.9996561353859887,175.33901869929412
6.642653184,0.9995150332737849,175.20281473297783
6.644939776,0.9994045042452807,175.06845719946753
6.64722688,0.9993316282796173,174.93552666422346
6.649513984,0.999301000827206,174.80336940916231
6.651801088,0.9993147575560547,174.67132959253962
6.654088192,0.9993718339880135,174.53883262073717
6.656375296,0.9994687192575784,174.4052832708866
6.658661888,0.9995993564541659,174.2700559270991
6.660948992,0.9997552346383629,174.13281413324893
6.663236096,0.999926588742809,173.99321531613774
6.6655232,1.0001026131210786,173.851116701001
6.667810304,1.0002720010113026,173.70655248992244
6.670097408,1.0004242218699246,173.55970421596155
6.672384,1.0005494003033701,173.4107951556249
6.674671104,1.0006397595186909,173.26043253472758
6.676958208,1.0006894309351066,173.10903028411835
6.679245312,1.0006952439164525,172.95729910043875
6.681532416,1.0006568627723298,172.80580043640907
6.68381952,1.0005767108039842,172.6552380692819
6.686106112,1.0004598454416438,172.50608239662205
6.688393216,1.000313683021295,172.35889332597736
6.69068032,1.0001472533723548,172.21404764371735
6.692967424,0.9999713471968936,172.07167273431284
6.695254528,0.9997970871934129,171.9318829100996
6.697541632,0.9996355531771787,171.79459501650325
6.699828224,0.9994968259367751,171.65951785437863
6.702115328,0.999389914151669,171.52626503431793
6.704402432,0.9993214934357326,171.39433608588973
6.706689536,0.9992961043237278,171.26311644536892
6.70897664,0.9993154131012799,171.1319783288481
6.711263744,0.9993779161016048,171.0003213440761
6.713550848,0.9994798569853801,170.8674355040655
6.71583744,0.9996148467402838,170.73287526390695
6.718124544,0.9997740924793012,170.59625604634684
6.720411648,0.9999477774161383,170.45719056970432
6.722698752,1.0001247073364499,170.31563089712395
6.724985856,1.0002935915116686,170.17161958661086
6.72727296,1.0004438350639122,170.02526105566523
6.729559552,1.0005659908227464,169.87701867041127
6.731846656,1.0006520525545932,169.7272708458428
6.73413376,1.000696756759756,169.57659116668964
6.736420864,1.000697087064588,169.4256277019845
6.738707968,1.0006532068396246,169.27498242541776
6.740995072,1.0005677012156093,169.12537055477316
6.743281664,1.0004460871025398,168.97725134755444
6.745568768,1.0002958913357978,168.8311681094913
6.747855872,1.0001268633467435,168.6874233332157
6.750142976,0.9999494581849583,168.54623253066427
6.75243008,0.9997750554783844,168.40763525120482
6.754717184,0.9996146727345943,168.2715083212199
6.757003776,0.9994787262913378,168.1375732497648
6.75929088,0.9993755488510567,168.00539279116867
6.761577984,0.999311897178787,167.87451857971976
6.763865088,0.9992918009875505,167.74424670077462
6.766152192,0.9993166589255492,167.6140181331509
6.768439296,0.9993846393632039,167.48312295769577
6.770725888,0.99949177055564,167.35098968640963
6.773012992,0.9996311003053101,167.2170963098483
6.775300096,0.9997937079960584,167.08106498140995
6.7775872,0.9999694572690196,166.94257357990242
6.779874304,1.0001471014741599,166.8015508375172
6.782161408,1.0003153982867294,166.6580558365769
6.784448512,1.0004636695202043,166.51229799001223
6.786735104,1.0005822434985014,166.3646402218847
6.789022208,1.0006640050078368,166.215558529807
6.791309312,1.0007036290148317,166.0656298655897
6.793596416,1.0006985034033624,165.91544344703718
6.79588352,1.0006489334919808,165.76573636936504
6.798170624,1.0005580315173996,165.61702856854663
6.800457216,1.0004315780223425,165.4699934647287
6.80274432,1.0002775826154602,165.32501029575295
6.805031424,1.0001058772238776,165.1824153623512
6.807318528,0.9999270617755224,165.04241439740295
6.809605632,0.9997527417739487,164.90501257446635
6.811892736,0.9995939123758333,164.77006498627654
6.814179328,0.9994606748367536,164.63730277466618
6.816466432,0.9993615372854682,164.50625159721812
6.818753536,0.9993027742605548,164.37639515314353
6.82104064,0.9992881603651127,164.24712851997973
6.823327744,0.9993187487817066,164.1177421557623
6.825614848,0.9993923051717539,163.98767383526746
6.82790144,0.9995045305811779,163.85625889719745
6.830188544,0.99964822511599,163.72304396056757
6.832475648,0.9998141419715351,163.58759881712987
6.834762752,0.9999917891859854,163.4496836197178
6.837049856,1.000170033875959,163.30923195007588
6.83933696,1.00033736930432,163.1662571110374
6.841623552,1.0004832953093172,163.02109187224528
6.843910656,1.0005985856265065,162.8740358060384
6.84619776,1.0006757345179595,162.72561955079058
6.848484864,1.0007099402791912,162.5764279565013
6.850771968,1.0006991534397625,162.4270908943581
6.853059072,1.000643944957727,162.27829593784682
6.855345664,1.0005475550360092,162.13060172895206
6.857632768,1.0004163623627789,161.98462783728888
6.859919872,1.000258604706512,161.84076395312246
6.862206976,1.0000840712735601,161.69932071268934
6.86449408,0.9999041698674626,161.56054412327885
6.866781184,0.9997302210482251,161.42434178362666
6.869068288,0.9995729744709514,161.29061055195007
6.87135488,0.9994427697289274,161.15901874747746
6.873641984,0.9993478514181248,161.0290943051526
6.875929088,0.9992941686220795,160.90027122108566
6.878216192,0.9992852705278306,160.77195989969218
6.880503296,0.9993214617471631,160.64347799634427
6.8827904,0.9994008793454889,160.51421506945888
6.885076992,0.9995182755548425,160.3835197390152
6.887364096,0.999666182968854,160.25096826399212
6.8896512,0.9998352710977895,160.11611879886482
6.891938304,1.0000147671907165,159.9787640622123
6.894225408,1.000193355470713,159.8388516169657
6.896512512,1.0003596806758444,159.69646894494608
6.898799104,1.000503028756549,159.55185092640605
6.901086208,1.000614474355004,159.40543274350134
6.903373312,1.0006869936313443,159.25773038241186
6.905660416,1.000715740689989,159.10929743990428
6.90794752,1.0006991002009307,158.96082530093412
6.910234624,1.0006379486179366,158.8129196919423
6.912521216,1.0005361293963364,158.6662705902827
6.91480832,1.0004002298206773,158.52135843686682
