freq,mag,phase
6.0,0.9999961402409805,-149.94972032698703
6.008,0.9999958191584374,-150.3398052969729
6.016,0.999995510927691,-150.72963212393836
6.024,0.9999952152470774,-151.11920338461601
6.032,0.9999949318192005,-151.50852166465287
6.04,0.9999946603509036,-151.89758955845863
6.048,0.9999944005532374,-152.2864096690557
6.056,0.9999941521414263,-152.6749846079311
6.064,0.9999939148348393,-153.06331699488993
6.072,0.9999936883569573,-153.45140945791036
6.08,0.9999934724353422,-153.8392646330007
6.088,0.9999932668016044,-154.22688516405768
6.096,0.9999930711913703,-154.61427370272654
6.104,0.9999928853442509,-155.00143290826279
6.112,0.9999927090038114,-155.38836544739547
6.12,0.9999925419175362,-155.77507399419218
6.128,0.9999923838367977,-156.1615612299254
6.136,0.9999922345168262,-156.54782984294064
6.144,0.9999920937166737,-156.93388252852617
6.152,0.9999919611991869,-157.31972198878393
6.16,0.9999918367309695,-157.70535093250243
6.168,0.9999917200823542,-158.09077207503088
6.176,0.9999916110273668,-158.47598813815486
6.184,0.999991509343699,-158.8610018499735
6.192,0.9999914148126694,-159.24581594477831
6.2,0.9999913272191963,-159.63043316293306
6.208,0.9999912463517644,-160.01485625075534
6.216,0.9999911720023938,-160.39908796039987
6.224,0.9999911039666015,-160.78313104974248
6.232,0.9999910420433785,-161.16698828226615
6.24,0.9999909860351525,-161.55066242694812
6.248,0.9999909357477539,-161.93415625814836
6.256,0.9999908909903896,-162.31747255549962
6.264,0.9999908515756063,-162.70061410379847
6.272,0.999990817319262,-163.08358369289797
6.28,0.9999907880404898,-163.46638411760145
6.288,0.9999907635616715,-163.84901817755758
6.296,0.9999907437084031,-164.23148867715705
6.304,0.9999907283094603,-164.61379842542993
6.312,0.9999907171967743,-164.99595023594463
6.32,0.9999907102053954,-165.37794692670812
6.328,0.9999907071734607,-165.75979132006717
6.336,0.9999907079421664,-166.14148624261097
6.344,0.9999907123557333,-166.52303452507462
6.352,0.9999907202613812,-166.9044390022443
6.36,0.9999907315092902,-167.28570251286285
6.368,0.9999907459525776,-167.66682789953737
6.376,0.9999907634472608,-168.04781800864689
6.384,0.9999907838522313,-168.42867569025216
6.392,0.9999908070292244,-168.8094037980058
6.4,0.9999908328427819,-169.19000518906378
6.408,0.9999908611602318,-169.57048272399788
6.416,0.9999908918516511,-169.95083926670944
6.424,0.9999909247898418,-170.33107768434328
6.432,0.999990959850292,-170.7112008472039
6.44,0.9999909969111572,-171.09121162867163
6.448,0.9999910358532219,-171.47111290511992
6.456,0.9999910765598741,-171.850907555834
6.464,0.9999911189170785,-172.23059846292992
6.472,0.9999911628133398,-172.61018851127506
6.48,0.9999912081396838,-172.98968058840885
6.4879999999999995,0.9999912547896193,-173.36907758446486
6.496,0.9999913026591152,-173.74838239209393
6.504,0.99999135164657,-174.12759790638714
6.5120000000000005,0.9999914016527826,-174.506727024801
6.52,0.9999914525809263,-174.88577264708204
6.5280000000000005,0.9999915043365192,-175.2647376751935
6.536,0.9999915568273964,-175.64362501324152
6.5440000000000005,0.9999916099636843,-176.02243756740327
6.552,0.9999916636577668,-176.40117824585482
6.5600000000000005,0.9999917178242669,-176.77984995870042
6.568,0.9999917723800137,-177.15845561790195
6.5760000000000005,0.9999918272440137,-177.5369981372097
6.584,0.9999918823374299,-177.91548043209286
6.592,0.9999919375835504,-178.2939054196719
6.6,0.9999919929077633,-178.67227601865022
6.608,0.9999920482375294,-179.05059514924756
6.616,0.9999921035023582,-179.4288657331334
6.624,0.9999921586337777,-179.807090693361
6.632,0.9999922135653129,179.81472704569794
6.64,0.999992268232457,179.43658455841785
6.648,0.999992322572648,179.05847891798388
6.656,0.9999923765252404,178.6804071964554
6.664,0.9999924300314826,178.30236646482933
6.672,0.9999924830344904,177.92435379310302
6.68,0.9999925354792227,177.5463662503365
6.688,0.9999925873124563,177.16840090471433
6.696,0.9999926384827621,176.79045482360718
6.704,0.9999926889404793,176.41252507363285
6.712,0.9999927386376908,176.03460872071685
6.72,0.9999927875282026,175.65670283015294
6.728,0.9999928355675162,175.27880446666285
6.736,0.9999928827128055,174.90091069445606
6.744,0.9999929289228947,174.52301857728898
6.752,0.9999929741582343,174.14512517852404
6.76,0.9999930183808758,173.76722756118835
6.768,0.9999930615544524,173.38932278803216
6.776,0.9999931036441534,173.0114079215871
6.784,0.9999931446167014,172.63348002422399
6.792,0.9999931844403309,172.2555361582108
6.8,0.9999932230847662,171.87757338577
6.808,0.999993260521197,171.49958876913604
6.816,0.9999932967222589,171.1215793706125
6.824,0.99999333166201,170.74354225262908
6.832,0.9999933653159088,170.36547447779867
6.84,0.9999933976607943,169.987373108974
6.848,0.9999934286748628,169.6092352093044
6.856,0.9999934583376484,169.2310578422923
6.864,0.99999348663,168.85283807185007
6.872,0.9999935135340619,168.47457296235626
6.88,0.999993539033252,168.0962595787122
6.888,0.9999935631122426,167.71789498639836
6.896,0.999993585756938,167.33947625153095
6.904,0.9999936069544563,166.96100044091827
6.912,0.9999936266931073,166.5824646221174
6.92,0.999993644962374,166.2038658634906
6.928,0.9999936617528924,165.82520123426198
6.936,0.9999936770564318,165.44646780457438
6.944,0.9999936908658751,165.06766264554608
6.952,0.9999937031751992,164.68878282932766
6.96,0.9999937139794578,164.30982542915945
6.968,0.9999937232747589,163.93078751942824
6.976,0.9999937310582495,163.55166617572516
6.984,0.9999937373280946,163.17245847490307
6.992,0.9999937420834594,162.79316149513434
7.0,0.9999937453244908,162.41377231596897
7.008,0.9999937470522987,162.03428801839283
7.016,0.9999937472689397,161.654705684886
7.024,0.9999937459773965,161.27502239948188
7.032,0.9999937431815618,160.89523524782595
7.04,0.9999937388862198,160.51534131723523
7.048,0.9999937330970299,160.13533769675803
7.056,0.9999937258205076,159.75522147723385
7.064,0.9999937170640094,159.37498975135392
7.072,0.9999937068357123,158.99463961372172
7.08,0.999993695144601,158.61416816091423
7.088,0.9999936820004488,158.2335724915435
7.096,0.9999936674137996,157.85284970631835
7.104,0.9999936513959549,157.471996908107
7.112,0.9999936339589545,157.09101120199972
7.12,0.9999936151155611,156.7098896953722
7.128,0.9999935948792452,156.32862949794924
7.136,0.9999935732641666,155.94722772186896
7.144,0.999993550285162,155.5656814817477
7.152,0.9999935259577255,155.18398789474523
7.16,0.9999935002979965,154.8021440806305
7.168,0.9999934733227418,154.42014716184826
7.176,0.9999934450493412,154.0379942635858
7.184,0.9999934154957723,153.6556825138407
7.192,0.999993384680595,153.2732090434888
7.2,0.9999933526229375,152.89057098635323
7.208,0.9999933193424805,152.50776547927364
7.216,0.9999932848594427,152.1247896621764
7.224,0.9999932491945663,151.74164067814527
7.232,0.999993212369103,151.358315673493
7.24,0.9999931744047991,150.9748117978333
7.248,0.9999931353238812,150.59112620415377
7.256,0.9999930951490432,150.20725604888958
7.264,0.99999305390343,149.8231984919976
7.272,0.9999930116106267,149.43895069703177
7.28,0.9999929682946427,149.05450983121875
7.288,0.9999929239798979,148.66987306553474
7.296,0.9999928786912116,148.2850375747829
7.304,0.9999928324537857,147.90000053767162
7.312,0.9999927852931955,147.5147591368938
7.32,0.9999927372353714,147.12931055920674
7.328,0.9999926883065907,146.74365199551303
7.336,0.9999926385334623,146.35778064094237
7.344,0.9999925879429142,145.97169369493398
7.352,0.99999253656218,145.58538836132053
7.36,0.9999924844187881,145.1988618484124
7.368,0.9999924315405475,144.81211136908306
7.376,0.999992377955537,144.42513414085568
7.384,0.9999923236920901,144.0379273859902
7.392,0.9999922687787866,143.65048833157203
7.4,0.9999922132444379,143.26281420960098
7.4079999999999995,0.9999921571180754,142.8749022570821
7.416,0.9999921004289393,142.48674971611644
7.4239999999999995,0.999992043206466,142.09835383399417
7.432,0.9999919854802769,141.70971186328748
7.4399999999999995,0.9999919272801678,141.32082106194562
7.448,0.9999918686360955,140.93167869338996
7.4559999999999995,0.9999918095781666,140.54228202661133
7.464,0.9999917501366286,140.15262833626736
7.4719999999999995,0.9999916903418556,139.76271490278185
7.48,0.9999916302243393,139.37253901244432
7.4879999999999995,0.9999915698146778,138.982097957512
7.496,0.9999915091435629,138.59138903631145
7.504,0.9999914482417717,138.20040955334292
7.5120000000000005,0.9999913871401547,137.8091568193842
7.52,0.9999913258696248,137.41762815159765
7.5280000000000005,0.9999912644611486,137.02582087363638
7.536,0.9999912029457326,136.63373231575335
7.5440000000000005,0.9999911413544165,136.2413598149106
7.552,0.999991079718261,135.84870071489044
7.5600000000000005,0.9999910180683373,135.4557523664073
7.568,0.9999909564357189,135.06251212722142
7.5760000000000005,0.9999908948514692,134.66897736225326
7.584,0.9999908333466339,134.27514544369993
7.5920000000000005,0.999990771952229,133.88101375115184
7.6,0.9999907106992332,133.48657967171212
7.6080000000000005,0.9999906496185769,133.09184060011566
7.616,0.999990588741133,132.69679393885139
7.6240000000000006,0.9999905280977077,132.30143709828383
7.632,0.99999046771903,131.90576749677814
7.640000000000001,0.9999904076357448,131.50978256082448
7.648,0.9999903478784009,131.1134797251657
7.656000000000001,0.9999902884774435,130.71685643292446
7.664,0.9999902294632057,130.31991013573375
7.672,0.9999901708658973,129.92263829386687
7.68,0.9999901127155983,129.52503837637053
7.688,0.999990055042249,129.1271078611981
7.696,0.9999899978756412,128.72884423534504
7.704,0.9999899412454101,128.33024499498538
7.712,0.9999898851810252,127.93130764560989
7.72,0.9999898297117825,127.53202970216557
7.728,0.9999897748667953,127.1324086891967
7.736,0.9999897206749874,126.73244214098712
7.744,0.9999896671650819,126.33212760170427
7.752,0.9999896143655974,125.93146262554464
7.76,0.9999895623048366,125.53044477688064
7.768,0.9999895110108787,125.1290716304088
7.776,0.9999894605115736,124.72734077129999
7.784,0.9999894108345312,124.32524979535057
7.792,0.9999893620071165,123.92279630913532
7.8,0.9999893140564395,123.51997793016193
7.808,0.9999892670093496,123.11679228702683
7.816,0.999989220892427,122.71323701957273
7.824,0.9999891757319758,122.30930977904755
7.832,0.9999891315540161,121.9050082282649
7.84,0.9999890883842776,121.50033004176616
7.848,0.9999890462481924,121.09527290598393
7.856,0.9999890051708866,120.68983451940733
7.864,0.9999889651771752,120.28401259274844
7.872,0.999988926291554,119.87780484911053
7.88,0.9999888885381926,119.47120902415782
7.888,0.9999888519409289,119.06422286628664
7.896,0.9999888165232615,118.65684413679828
7.904,0.9999887823083434,118.24907061007325
7.912,0.9999887493189751,117.84090007374718
7.92,0.9999887175775989,117.43233032888823
7.928,0.9999886871062919,117.0233591901759
7.936,0.9999886579267604,116.61398448608165
7.944,0.9999886300603337,116.20420405905074
7.952,0.9999886035279569,115.79401576568576
7.96,0.999988578350187,115.38341747693175
7.968,0.9999885545471845,114.97240707826259
7.976,0.99998853213871,114.5609824698692
7.984,0.9999885111441167,114.14914156684895
7.992,0.9999884915823458,113.73688229939688
8.0,0.9999884734719205,113.3242026129981
8.008,0.9999884568309407,112.91110046862197
8.016,0.9999884416770772,112.49757384291729
8.024000000000001,0.9999884280275674,112.0836207284098
8.032,0.9999884158992087,111.66923913370033
8.04,0.999988405308355,111.25442708366457
8.048,0.9999883962709101,110.8391826196545
8.056000000000001,0.9999883888023243,110.42350379970142
8.064,0.9999883829175881,110.00738869871995
8.072,0.9999883786312284,109.59083540871345
8.08,0.9999883759573037,109.17384203898115
8.088000000000001,0.9999883749093997,108.75640671632681
8.096,0.9999883755006241,108.33852758526815
8.104,0.9999883777436033,107.92020280824791
8.112,0.9999883816504767,107.50143056584642
8.120000000000001,0.9999883872328943,107.08220905699554
8.128,0.9999883945020113,106.66253649919358
8.136,0.9999884034684846,106.24241112872149
8.144,0.9999884141424688,105.82183120086064
8.152000000000001,0.9999884265336128,105.40079499011202
8.16,0.9999884406510552,104.97930079041605
8.168,0.9999884565034222,104.5573469153738
8.176,0.9999884740988222,104.1349316984698
8.184000000000001,0.9999884934448443,103.7120534932958
8.192,0.9999885145485536,103.2887106737756
8.2,0.9999885374164897,102.86490163439076
8.208,0.9999885620546616,102.44062479040795
8.216000000000001,0.9999885884685453,102.0158785781073
8.224,0.9999886166630831,101.59066145501144
8.232,0.9999886466426774,101.16497190011567
8.24,0.9999886784111911,100.73880841411923
8.248000000000001,0.9999887119719428,100.31216951965801
8.256,0.9999887473277062,99.8850537615373
8.264,0.9999887844807062,99.45745970696589
8.272,0.9999888234326189,99.02938594579113
8.280000000000001,0.9999888641845657,98.6008310907351
8.288,0.999988906737117,98.17179377763095
8.296,0.9999889510902845,97.74227266566034
8.304,0.9999889972435232,97.31226643759173
8.312,0.9999890451957291,96.88177380001969
8.32,0.9999890949452361,96.45079348360383
8.328,0.9999891464898174,96.01932424330992
8.336,0.9999891998266823,95.58736485864993
8.344,0.9999892549524744,95.15491413392438
8.352,0.999989311863273,94.72197089846354
8.36,0.9999893705545905,94.2885340068707
8.368,0.9999894310213719,93.8546023392645
8.376,0.9999894932579955,93.42017480152292
8.384,0.9999895572582695,92.98525032552644
8.392,0.9999896230154345,92.5498278694028
8.4,0.9999896905221626,92.11390641777069
8.408,0.9999897597705556,91.67748498198512
8.416,0.9999898307521473,91.24056260038145
8.424,0.9999899034579025,90.80313833852128
8.432,0.9999899778782168,90.36521128943656
8.44,0.9999900540029186,89.92678057387555
8.448,0.9999901318212683,89.48784534054732
8.456,0.9999902113219593,89.04840476636744
8.464,0.9999902924931191,88.60845805670228
8.472,0.9999903753223098,88.16800444561456
8.48,0.9999904597965303,87.7270431961073
8.488,0.9999905459022158,87.28557360036888
8.496,0.9999906336252412,86.8435949800163
8.504,0.9999907229509206,86.40110668633984
8.512,0.9999908138640106,85.95810810054526
8.52,0.9999909063487114,85.51459863399757
8.528,0.9999910003886687,85.07057772846234
8.536,0.9999910959669759,84.62604485634826
8.544,0.9999911930661769,84.18099952094718
8.552,0.9999912916682674,83.7354412566752
8.56,0.9999913917546989,83.28936962931134
8.568,0.9999914933063789,82.8427842362369
8.576,0.9999915963036775,82.39568470667237
8.584,0.9999917007264268,81.94807070191492
8.592,0.9999918065539262,81.49994191557329
8.6,0.9999919137649449,81.05129807380314
8.608,0.9999920223377254,80.60213893553954
8.616,0.9999921322499872,80.15246429273
8.624,0.9999922434789312,79.70227397056445
8.632,0.9999923560012415,79.2515678277054
8.64,0.999992469793092,78.80034575651511
8.648,0.9999925848301495,78.34860768328292
8.656,0.9999927010875778,77.89635356844924
8.664,0.9999928185400424,77.4435834068294
8.672,0.9999929371617156,76.99029722783443
8.68,0.9999930569262809,76.53649509569136
8.688,0.9999931778069381,76.08217710966018
8.696,0.9999932997764082,75.62734340425025
8.704,0.9999934228069397,75.17199414943335
8.712,0.9999935468703128,74.71612955085585
8.72,0.999993671937845,74.25974985004743
8.728,0.9999937979803987,73.80285532462885
8.736,0.9999939249683851,73.34544628851593
8.744,0.9999940528717705,72.88752309212252
8.752,0.9999941816600839,72.4290861225596
8.76,0.9999943113024227,71.97013580383312
8.768,0.999994441767458,71.51067259703774
8.776,0.9999945730234437,71.05069700054933
8.784,0.9999947050382211,70.5902095502131
8.792,0.9999948377792276,70.12921081953026
8.8,0.9999949712135028,69.66770141984024
8.808,0.9999951053076961,69.20568200050127
8.815999999999999,0.9999952400280742,68.7431532490665
8.824,0.9999953753405298,68.2801158914576
8.832,0.999995511210587,67.81657069213506
8.84,0.9999956476034114,67.35251845426474
8.847999999999999,0.9999957844838175,66.88796001988074
8.856,0.9999959218162763,66.42289627004519
8.864,0.9999960595649244,65.95732812500432
8.872,0.999996197693573,65.49125654434043
8.879999999999999,0.9999963361657145,65.0246825271199
8.888,0.9999964749445346,64.55760711203774
8.896,0.999996613992918,64.09003137755819
8.904,0.9999967532734594,63.62195644205064
8.911999999999999,0.9999968927484721,63.15338346392153
8.92,0.9999970323799978,62.6843136417423
8.928,0.9999971721298158,62.21474821437297
8.936,0.9999973119594526,61.744688461081005
8.943999999999999,0.9999974518301921,61.27413570165542
8.952,0.999997591703085,60.803091296516925
8.96,0.999997731538959,60.33155664682318
8.968,0.9999978712984299,59.859533194569096
8.975999999999999,0.99999801094191,59.38702242268198
8.984,0.9999981504296206,58.91402585511243
8.992,0.9999982897216014,58.44054505692
9.0,0.9999984287777213,57.96658163435352
9.008,0.9999985675576891,57.49213723492603
9.016,0.9999987060210657,57.01721354748509
9.024000000000001,0.9999988441272728,56.54181230227752
9.032,0.999998981835606,56.065935271008556
9.04,0.9999991191052453,55.589584266895145
9.048,0.9999992558952673,55.11276114471446
9.056000000000001,0.9999993921646547,54.635467800846484
9.064,0.9999995278723098,54.157706173310565
9.072,0.9999996629770654,53.679478241796104
9.08,0.999999797437697,53.20078602768786
9.088000000000001,0.9999999312129333,52.72163159408517
9.096,1.0,52.24201704581479
9.104,1.0,51.76194452943772
9.112,0.9999999999999999,51.28141623325006
9.120000000000001,1.0,50.80043438727791
9.128,1.0,50.319001263265186
9.136,0.9999999999999999,49.83711917465545
9.144,0.9999999999999999,49.3547904765674
9.152000000000001,1.0,48.8720175657641
9.16,1.0,48.38880288061503
9.168,1.0,47.905148901051554
9.176,0.9999999999999999,47.42105814851626
9.184000000000001,1.0,46.93653318590544
9.192,0.9999999999999999,46.451576617504266
9.2,1.0,45.966191088915316
9.208,1.0,45.480379286980416
9.216000000000001,1.0,44.9941439396957
9.224,0.9999999999999999,44.507487816119074
9.232,1.0000000000000002,44.02041372627077
9.24,1.0,43.532924521027084
9.248000000000001,1.0,43.045023092007035
9.256,1.0,42.55671237145155
9.264,0.9999999999999999,42.067995332095066
9.272,0.9999999999999999,41.5788749870307
9.280000000000001,1.0,41.08935438956783
9.288,1.0,40.59943663308204
9.296,1.0,40.10912485085771
9.304,1.0,39.61842221592351
9.312000000000001,1.0,39.12733194088067
9.32,1.0,38.63585727772323
9.328,0.9999999999999998,38.144001517650864
9.336,1.0,37.65176799087456
9.344,1.0,37.15916006641514
9.352,1.0,36.66618115189291
9.36,1.0,36.172834693311565
9.368,1.0,35.67912417483269
9.376,1.0,35.185053118544594
9.384,1.0,34.6906250842218
9.392,1.0,34.195843669078506
9.4,0.9999999999999999,33.70071250751318
9.408,1.0,33.20523527084686
9.416,1.0,32.70941566705257
9.424,1.0,32.21325744047852
9.432,1.0,31.716764371562547
9.44,0.9999999999999999,31.219940276540306
9.448,1.0,30.72278900714444
9.456,1.0,30.22531445029797
9.464,1.0,29.72752052779854
9.472,1.0,29.22941119599681
9.48,1.0,28.73099044546592
9.488,0.9999999999999999,28.232262300665095
9.496,0.9999999999999999,27.733230819594304
9.504,0.9999999999999999,27.233900093443314
9.512,1.0,26.734274246231713
9.52,0.9999999999999999,26.234357434443464
9.528,0.9999999999999999,25.734153846652543
9.536,1.0,25.23366770314313
9.544,1.0,24.732903255521038
9.552,1.0,24.23186478631984
9.56,1.0,23.730556608598167
9.568,1.0,23.228983065532066
9.576,1.0,22.727148529998477
9.584,1.0,22.22505740415387
9.592,1.0,21.722714119004326
9.6,1.0,21.220123133970738
9.608,1.0,20.717288936445666
9.616,1.0,20.214216041345406
9.624,1.0,19.710908990654
9.632,0.9999999999999998,19.207372352962523
9.64,1.0,18.703610723000423
9.648,1.0,18.199628721162387
9.656,1.0,17.69543099302752
9.664,1.0,17.191022208874074
9.672,1.0,16.6864070631867
9.68,1.0,16.181590274159536
9.688,1.0,15.676576583191991
9.696,0.9999999999999999,15.171370754380497
9.704,1.0,14.665977574003204
9.712,0.9999999999999999,14.160401850000913
9.72,1.0,13.654648411451054
9.728,1.0,13.148722108038262
9.736,0.9999999999999999,12.642627809518086
9.744,1.0,12.136370405177667
