freq,mag,phase
6.0,1.0,-7.859912324469646
6.008,0.9999999999999999,-8.1618633522189
6.016,1.0,-8.463893745903393
6.024,1.0,-8.766002757654002
6.032,1.0,-9.06818963787847
6.04,1.0,-9.370453635284568
6.048,0.9999999999999999,-9.672793996903476
6.056,1.0,-9.975209968113298
6.064,0.9999999999999999,-10.27770079266271
6.072,0.9999999999999999,-10.580265712694802
6.08,1.0,-10.88290396877096
6.088,1.0,-11.185614799895056
6.096,1.0,-11.488397443537608
6.104,1.0,-11.791251135660207
6.112,0.9999999999999999,-12.094175110740018
6.12,1.0,-12.397168601794425
6.128,1.0,-12.700230840405862
6.136,1.0,-13.003361056746675
6.144,1.0,-13.306558479604236
6.152,1.0,-13.609822336406092
6.16,0.9999999999999998,-13.9131518532453
6.168,0.9999999999999999,-14.216546254905856
6.176,0.9999999999999999,-14.520004764888252
6.184,0.9999999999999999,-14.823526605435188
6.192,0.9999999848228349,-15.127110997557384
6.2,0.9999995750354911,-15.430757161059445
6.208,0.9999991597148239,-15.734464314566004
6.216,0.999998739234926,-16.038231675547806
6.224,0.9999983139629157,-16.342058460347996
6.232,0.9999978842589898,-16.645943884208528
6.24,0.9999974504764749,-16.94988716129665
6.248,0.9999970129618803,-17.25388750473148
6.256,0.9999965720549504,-17.55794412661075
6.264,0.9999961280887179,-17.862056238037603
6.272,0.999995681389556,-18.166223049147455
6.28,0.9999952322772317,-18.470443769135112
6.288,0.9999947810649598,-18.774717606281794
6.296,0.9999943280594554,-19.079043767982338
6.304,0.9999938735609883,-19.383421460772553
6.312,0.9999934178634365,-19.687849890356542
6.32,0.9999929612543401,-19.99232826163422
6.328,0.9999925040149558,-20.296855778728897
6.336,0.9999920464203109,-20.601431645014866
6.344,0.9999915887392575,-20.906055063145153
6.352,0.999991131234528,-21.21072523507939
6.36,0.9999906741627882,-21.51544136211158
6.368,0.9999902177746943,-21.82020264489822
6.376,0.9999897623149452,-22.125008283486217
6.384,0.99998930802234,-22.42985747734103
6.392,0.9999888551298315,-22.734749425374908
6.4,0.9999884038645823,-23.039683325975066
6.408,0.9999879544480198,-23.344658377032026
6.416,0.999987507095892,-23.649673775968022
6.424,0.9999870620183223,-23.954728719765406
6.432,0.9999866194198658,-24.259822404995138
6.44,0.999986179499564,-24.56495402784539
6.448,0.9999857424510029,-24.870122784150066
6.456,0.9999853084623656,-25.17532786941756
6.464,0.9999848777164901,-25.480568478859418
6.472,0.9999844503909251,-25.78584380741905
6.48,0.9999840266579851,-26.09115304980062
6.4879999999999995,0.999983606684807,-26.396495400497802
6.496,0.9999831906334067,-26.70187005382281
6.504,0.9999827786607335,-27.007276203935024
6.5120000000000005,0.9999823709187268,-27.312713044870396
6.52,0.9999819675543737,-27.618179770569903
6.5280000000000005,0.9999815687097625,-27.923675574909133
6.536,0.9999811745221407,-28.229199651726802
6.5440000000000005,0.9999807851239697,-28.534751194854326
6.552,0.9999804006429825,-28.840329398144448
6.5600000000000005,0.9999800212022383,-29.145933455500828
6.568,0.9999796469201779,-29.451562560906748
6.5760000000000005,0.9999792779106823,-29.75721590845469
6.584,0.9999789142831261,-30.06289269237508
6.592,0.9999785561424346,-30.36859210706591
6.6,0.9999782035891396,-30.674313347121604
6.608,0.9999778567194342,-30.980055607362395
6.616,0.9999775156252303,-31.28581808286347
6.624,0.999977180394213,-31.591599968984248
6.632,0.999976851109896,-31.897400461397506
6.64,0.9999765278516783,-32.203218756118666
6.648,0.9999762106948987,-32.50905404953502
6.656,0.9999758997108911,-32.81490553843485
6.664,0.9999755949670408,-33.1207724200367
6.672,0.9999752965268389,-33.42665389201854
6.68,0.9999750044499373,-33.73254915254695
6.688,0.9999747187922031,-34.038457400306235
6.696,0.9999744396057759,-34.34437783452761
6.704,0.9999741669391193,-34.65030965501834
6.712,0.9999739008370778,-34.95625206219075
6.72,0.9999736413409301,-35.26220425709139
6.728,0.9999733884884442,-35.56816544143003
6.736,0.9999731423139306,-35.8741348176087
6.744,0.9999729028482979,-36.18011158875064
6.752,0.9999726701191051,-36.4860949587293
6.76,0.9999724441506163,-36.792084132197246
6.768,0.9999722249638536,-37.098078314615
6.776,0.9999720125766515,-37.40407671227988
6.784,0.9999718070037089,-37.71007853235486
6.792,0.9999716082566434,-38.01608298289724
6.8,0.9999714163440434,-38.322089272887375
6.808,0.9999712312715205,-38.62809661225733
6.816,0.9999710530417629,-38.9341042119195
6.824,0.9999708816545875,-39.24011128379508
6.832,0.9999707171069906,-39.54611704084267
6.84,0.9999705593932022,-39.85212069708653
6.848,0.9999704085047361,-40.158121467645174
6.856,0.9999702644304409,-40.464118568759474
6.864,0.9999701271565528,-40.77011121782101
6.872,0.999969996666745,-41.0760986334002
6.88,0.9999698729421805,-41.38208003527443
6.888,0.9999697559615599,-41.688054644456074
6.896,0.9999696457011744,-41.994021683220396
6.904,0.9999695421349538,-42.29998037513355
6.912,0.9999694452345174,-42.60592994508028
6.92,0.9999693549692233,-42.911869619291664
6.928,0.9999692713062179,-43.21779862537278
6.936,0.9999691942104841,-43.52371619233026
6.944,0.9999691236448911,-43.8296215505997
6.952,0.9999690595702425,-44.13551393207314
6.96,0.999969001945324,-44.44139257012626
6.968,0.9999689507269521,-44.74725669964564
6.976,0.9999689058700213,-45.053105557055794
6.984,0.9999688673275511,-45.35893838034627
6.992,0.9999688350507349,-45.66475440909846
7.0,0.9999688089889834,-45.970552884512436
7.008,0.9999687890899748,-46.276333049433724
7.016,0.9999687752996987,-46.58209414837979
7.024,0.9999687675625019,-46.887835427566614
7.032,0.9999687658211356,-47.193556134935
7.04,0.9999687700167983,-47.499255520176916
7.048,0.999968780089183,-47.80493283476163
7.056,0.9999687959765209,-48.110587331961725
7.064,0.9999688176156246,-48.4162182668791
7.072,0.9999688449419338,-48.721824896470665
7.08,0.9999688778895585,-49.027406479574175
7.088,0.9999689163913207,-49.332962276933685
7.096,0.999968960378799,-49.63849155122505
7.104,0.9999690097823716,-49.94399356708123
7.112,0.9999690645312564,-50.2494675911175
7.12,0.9999691245535556,-50.554912891956505
7.128,0.9999691897762949,-50.86032874025318
7.136,0.9999692601254658,-51.165714408719595
7.144,0.9999693355260666,-51.47106917214955
7.152,0.9999694159021424,-51.7763923074432
7.16,0.9999695011768264,-52.08168309363144
7.168,0.9999695912723768,-52.38694081190004
7.176,0.9999696861102204,-52.69216474561391
7.184,0.9999697856109878,-52.99735418034101
7.192,0.9999698896945544,-53.302508403876246
7.2,0.9999699982800779,-53.60762670626501
7.208,0.9999701112860357,-53.912708379826896
7.216,0.9999702286302642,-54.217752719178975
7.224,0.9999703502299933,-54.52275902125907
7.232,0.9999704760018856,-54.82772658534888
7.24,0.999970605862072,-55.1326547130969
7.248,0.9999707397261869,-55.43754270854115
7.256,0.9999708775094054,-55.742389878131895
7.264,0.9999710191264763,-56.04719553075412
7.272,0.9999711644917599,-56.351958977749725
7.28,0.9999713135192594,-56.65667953293982
7.288,0.9999714661226571,-56.961356512646624
7.296,0.9999716222153471,-57.26598923571538
7.304,0.9999717817104693,-57.57057702353595
7.312,0.9999719445209413,-57.8751192000644
7.32,0.9999721105594912,-58.17961509184421
7.328,0.9999722797386907,-58.48406402802763
7.336,0.9999724519709844,-58.78846534039652
7.344,0.9999726271687238,-59.09281836338326
7.352,0.9999728052441967,-59.39712243409144
7.36,0.9999729861096569,-59.70137689231627
7.368,0.9999731696773568,-60.00558108056498
7.376,0.9999733558595739,-60.309734344076944
7.384,0.9999735445686421,-60.61383603084363
7.392,0.9999737357169802,-60.91788549162838
7.4,0.9999739292171198,-61.221882079986095
7.4079999999999995,0.9999741249817332,-61.5258251522826
7.416,0.9999743229236624,-61.82971406771407
7.4239999999999995,0.9999745229559439,-62.13354818832573
7.432,0.9999747249918379,-62.43732687903132
7.4399999999999995,0.9999749289448526,-62.74104950763119
7.448,0.9999751347287721,-63.04471544483146
7.4559999999999995,0.9999753422576801,-63.348324064261774
7.464,0.9999755514459857,-63.65187474249403
7.4719999999999995,0.999975762208449,-63.95536685905983
7.48,0.999975974460204,-64.25879979646881
7.4879999999999995,0.9999761881167832,-64.56217294022571
7.496,0.9999764030941412,-64.86548567884832
7.504,0.9999766193086771,-65.16873740388422
7.5120000000000005,0.9999768366772573,-65.47192750992836
7.52,0.9999770551172389,-65.7750553946393
7.5280000000000005,0.9999772745464898,-66.07812045875653
7.536,0.9999774948834108,-66.38112210611632
7.5440000000000005,0.9999777160469574,-66.68405974366861
7.552,0.999977937956659,-66.98693278149251
7.5600000000000005,0.9999781605326398,-67.28974063281275
7.568,0.9999783836956384,-67.59248271401489
7.5760000000000005,0.9999786073670275,-67.89515844466132
7.584,0.9999788314688323,-68.19776724750605
7.5920000000000005,0.9999790559237498,-68.50030854851046
7.6,0.9999792806551656,-68.80278177685749
7.6080000000000005,0.9999795055871732,-69.1051863649672
7.616,0.9999797306445904,-69.40752174851048
7.6240000000000006,0.9999799557529764,-69.70978736642417
7.632,0.999980180838648,-70.01198266092442
7.640000000000001,0.9999804058286965,-70.3141070775215
7.648,0.9999806306510027,-70.61616006503272
7.656000000000001,0.9999808552342531,-70.91814107559665
7.664,0.999981079507953,-71.22004956468597
7.672,0.9999813034024435,-71.52188499112106
7.68,0.9999815268489135,-71.82364681708258
7.688,0.9999817497794148,-72.12533450812454
7.696,0.9999819721268747,-72.42694753318666
7.704,0.9999821938251093,-72.72848536460683
7.712,0.9999824148088367,-73.02994747813325
7.72,0.9999826350136867,-73.33133335293641
7.728,0.9999828543762161,-73.63264247162083
7.736,0.999983072833918,-73.93387432023667
7.744,0.9999832903252326,-74.23502838829108
7.752,0.9999835067895589,-74.53610416875934
7.76,0.9999837221672652,-74.83710115809589
7.768,0.9999839363996972,-75.13801885624505
7.776,0.9999841494291892,-75.43885676665165
7.784,0.9999843611990734,-75.73961439627134
7.792,0.9999845716536869,-76.04029125558075
7.8,0.9999847807383826,-76.34088685858762
7.808,0.9999849883995348,-76.64140072284036
7.816,0.9999851945845482,-76.94183236943778
7.824,0.999985399241866,-77.24218132303842
7.832,0.9999856023209748,-77.54244711186973
7.84,0.9999858037724133,-77.84262926773705
7.848,0.9999860035477769,-78.1427273260324
7.856,0.999986201599725,-78.44274082574306
7.864,0.9999863978819854,-78.74266930946
7.872,0.9999865923493602,-79.04251232338599
7.88,0.9999867849577307,-79.34226941734367
7.888,0.9999869756640622,-79.64194014478333
7.896,0.9999871644264067,-79.94152406279049
7.904,0.9999873512039082,-80.2410207320933
7.912,0.9999875359568067,-80.5404297170698
7.92,0.9999877186464392,-80.83975058575489
7.928,0.9999878992352451,-81.13898290984714
7.936,0.999988077686767,-81.43812626471549
7.944,0.9999882539656538,-81.73718022940562
7.952,0.9999884280376621,-82.03614438664616
7.96,0.9999885998696578,-82.33501832285481
7.968,0.9999887694296181,-82.63380162814416
7.976,0.9999889366866319,-82.93249389632733
7.984,0.9999891016108999,-83.23109472492347
7.992,0.9999892641737361,-83.52960371516299
8.0,0.9999894243475672,-83.82802047199273
8.008,0.9999895821059325,-84.12634460408077
8.016,0.9999897374234828,-84.42457572382128
8.024000000000001,0.9999898902759812,-84.72271344733878
8.032,0.9999900406402995,-85.02075739449263
8.04,0.999990188494419,-85.31870718888135
8.048,0.9999903338174282,-85.61656245784631
8.056000000000001,0.9999904765895193,-85.91432283247552
8.064,0.9999906167919885,-86.21198794760727
8.072,0.999990754407232,-86.50955744183369
8.08,0.999990889418742,-86.80703095750378
8.088000000000001,0.9999910218111072,-87.10440814072638
8.096,0.9999911515700058,-87.40168864137314
8.104,0.9999912786822034,-87.69887211308128
8.112,0.99999140313555,-87.99595821325597
8.120000000000001,0.9999915249189749,-88.29294660307255
8.128,0.9999916440224811,-88.58983694747869
8.136,0.9999917604371438,-88.88662891519654
8.144,0.9999918741551027,-89.18332217872435
8.152000000000001,0.999991985169559,-89.47991641433799
8.16,0.9999920934747685,-89.77641130209237
8.168,0.9999921990660362,-90.07280652582294
8.176,0.9999923019397126,-90.36910177314655
8.184000000000001,0.9999924020931841,-90.66529673546226
8.192,0.99999249952487,-90.96139110795215
8.2,0.9999925942342139,-91.25738458958203
8.208,0.9999926862216789,-91.55327688310167
8.216000000000001,0.9999927754887386,-91.84906769504491
8.224,0.9999928620378716,-92.14475673572976
8.232,0.999992945872553,-92.4403437192585
8.24,0.9999930269972487,-92.73582836351716
8.248000000000001,0.9999931054174055,-93.03121039017496
8.256,0.9999931811394446,-93.32648952468388
8.264,0.9999932541707526,-93.62166549627787
8.272,0.9999933245196743,-93.91673803797185
8.280000000000001,0.9999933921955032,-94.21170688656046
8.288,0.9999934572084731,-94.50657178261687
8.296,0.9999935195697499,-94.80133247049154
8.304,0.9999935792914216,-95.09598869831039
8.312,0.9999936363864895,-95.39054021797295
8.32,0.999993690868859,-95.68498678515084
8.328,0.9999937427533299,-95.97932815928516
8.336,0.9999937920555867,-96.27356410358489
8.344,0.9999938387921893,-96.56769438502387
8.352,0.9999938829805614,-96.86171877433888
8.36,0.9999939246389824,-97.15563704602636
8.368,0.9999939637865755,-97.44944897834016
8.376,0.9999940004432982,-97.74315435328799
8.384,0.9999940346299314,-98.03675295662886
8.392,0.9999940663680682,-98.3302445778692
8.4,0.9999940956801039,-98.62362901026003
8.408,0.9999941225892239,-98.91690605079286
8.416,0.999994147119394,-99.21007550019644
8.424,0.999994169295348,-99.50313716293243
8.432,0.9999941891425761,-99.79609084719192
8.44,0.9999942066873153,-100.08893636489076
8.448,0.9999942219565354,-100.38167353166575
8.456,0.9999942349779284,-100.67430216686985
8.464,0.9999942457798968,-100.96682209356796
8.472,0.9999942543915419,-101.25923313853183
8.48,0.9999942608426513,-101.55153513223571
8.488,0.9999942651636858,-101.84372790885092
8.496,0.9999942673857695,-102.13581130624118
8.504,0.9999942675406753,-102.42778516595699
8.512,0.9999942656608141,-102.71964933323069
8.52,0.9999942617792209,-103.01140365697053
8.528,0.9999942559295433,-103.30304798975557
8.536,0.9999942481460282,-103.59458218782939
8.544,0.99999423846351,-103.88600611109476
8.552,0.9999942269173964,-104.1773196231072
8.56,0.9999942135436567,-104.46852259106926
8.568,0.9999941983788082,-104.75961488582394
8.576,0.999994181459904,-105.05059638184872
8.584,0.9999941628245185,-105.34146695724864
8.592,0.9999941425107363,-105.63222649375021
8.6,0.9999941205571373,-105.92287487669422
8.608,0.9999940970027837,-106.21341199502938
8.616,0.9999940718872087,-106.50383774130496
8.624,0.9999940452504,-106.79415201166418
8.632,0.9999940171327892,-107.08435470583655
8.64,0.9999939875752374,-107.37444572713117
8.648,0.999993956619021,-107.6644249824288
8.656,0.9999939243058198,-107.95429238217483
8.664,0.9999938906777025,-108.24404784037132
8.672,0.9999938557771133,-108.53369127456968
8.68,0.9999938196468589,-108.82322260586241
8.688,0.9999937823300944,-109.11264175887574
8.696,0.9999937438703101,-109.40194866176105
8.704,0.9999937043113175,-109.69114324618728
8.712,0.9999936636972363,-109.98022544733226
8.72,0.9999936220724808,-110.26919520387484
8.728,0.9999935794817453,-110.55805245798608
8.736,0.9999935359699921,-110.84679715532116
8.744,0.999993491582436,-111.13542924501036
8.752,0.9999934463645331,-111.42394867965075
8.76,0.9999934003619649,-111.71235541529713
8.768,0.9999933536206264,-112.0006494114534
8.776,0.999993306186611,-112.2888306310633
8.784,0.9999932581061988,-112.57689904050181
8.792,0.9999932094258408,-112.86485460956546
8.8,0.9999931601921485,-113.15269731146358
8.808,0.9999931104518766,-113.44042712280869
8.815999999999999,0.999993060251913,-113.7280440236073
8.824,0.999993009639263,-114.01554799725045
8.832,0.999992958661037,-114.30293903050386
8.84,0.9999929073644369,-114.59021711349862
8.847999999999999,0.9999928557967428,-114.87738223972137
8.856,0.9999928040052996,-115.16443440600456
8.864,0.9999927520375034,-115.45137361251639
8.872,0.9999926999407891,-115.73819986275106
8.879999999999999,0.9999926477626163,-116.02491316351872
8.888,0.9999925955504572,-116.31151352493545
8.896,0.9999925433517821,-116.59800096041285
8.904,0.999992491214048,-116.8843754866479
8.911999999999999,0.9999924391846841,-117.17063712361299
8.92,0.99999238731108,-117.45678589454518
8.928,0.9999923356405722,-117.74282182593576
8.936,0.9999922842204316,-118.02874494751991
8.943999999999999,0.9999922330978502,-118.31455529226618
8.952,0.9999921823199297,-118.6002528963657
8.96,0.9999921319336671,-118.88583779922149
8.968,0.9999920819859438,-119.17131004343778
8.975999999999999,0.9999920325235118,-119.45666967480926
8.984,0.9999919835929822,-119.74191674231014
8.992,0.9999919352408128,-120.02705129808307
9.0,0.9999918875132952,-120.31207339742832
9.008,0.999991840456543,-120.59698309879278
9.016,0.9999917941164801,-120.88178046375882
9.024000000000001,0.9999917485388276,-121.16646555703299
9.032,0.9999917037690936,-121.45103844643488
9.04,0.9999916598525593,-121.73549920288607
9.048,0.9999916168342695,-122.01984790039872
9.056000000000001,0.9999915747590181,-122.30408461606389
9.064,0.9999915336713397,-122.5882094300406
9.072,0.9999914936154956,-122.87222242554422
9.08,0.9999914546354632,-123.15612368883488
9.088000000000001,0.999991416774926,-123.43991330920602
9.096,0.9999913800772603,-123.72359137897267
9.104,0.9999913445855255,-124.00715799346015
9.112,0.9999913103424521,-124.29061325099211
9.120000000000001,0.9999912773904327,-124.57395725287881
9.128,0.9999912457715084,-124.85719010340551
9.136,0.999991215527361,-125.14031190982068
9.144,0.9999911866993,-125.4233227823242
9.152000000000001,0.9999911593282537,-125.7062228340553
9.16,0.9999911334547588,-125.98901218108074
9.168,0.9999911091189491,-126.27169094238319
9.176,0.9999910863605462,-126.55425923984888
9.184000000000001,0.9999910652188495,-126.83671719825567
9.192,0.9999910457327258,-127.11906494526116
9.2,0.9999910279406005,-127.40130261139055
9.208,0.9999910118804464,-127.68343033002473
9.216000000000001,0.9999909975897759,-127.96544823738776
9.224,0.9999909851056301,-128.247356472535
9.232,0.9999909744645706,-128.5291551773411
9.24,0.9999909657026702,-128.8108444964875
9.248000000000001,0.9999909588555025,-129.09242457745032
9.256,0.9999909539581349,-129.37389557048806
9.264,0.9999909510451191,-129.6552576286295
9.272,0.9999909501504819,-129.93651090766141
9.280000000000001,0.9999909513077168,-130.2176555661159
9.288,0.9999909545497767,-130.49869176525837
9.296,0.9999909599090642,-130.7796196690753
9.304,0.9999909674174248,-131.0604394442616
9.312000000000001,0.9999909771061369,-131.3411512602083
9.32,0.9999909890059069,-131.62175528899013
9.328,0.9999910031468582,-131.90225170535336
9.336,0.999991019558527,-132.18264068670302
9.344,0.9999910382698514,-132.46292241309055
9.352,0.9999910593091664,-132.74309706720155
9.36,0.9999910827041967,-133.02316483434296
9.368,0.9999911084820482,-133.30312590243096
9.376,0.9999911366692025,-133.58298046197808
9.384,0.999991167291509,-133.86272870608116
9.392,0.9999912003741798,-134.14237083040828
9.4,0.9999912359417816,-134.42190703318687
9.408,0.9999912740182307,-134.70133751519057
9.416,0.9999913146267855,-134.98066247972721
9.424,0.9999913577900417,-135.25988213262588
9.432,0.9999914035299261,-135.5389966822247
9.44,0.9999914518676906,-135.81800633935796
9.448,0.9999915028239061,-136.09691131734394
9.456,0.9999915564184587,-136.37571183197193
9.464,0.9999916126705422,-136.65440810149016
9.472,0.9999916715986551,-136.93300034659273
9.48,0.999991733220594,-137.21148879040751
9.488,0.9999917975534496,-137.48987365848308
9.496,0.9999918646136018,-137.768155178777
9.504,0.9999919344167151,-138.04633358164207
9.512,0.9999920069777338,-138.324409099815
9.52,0.9999920823108792,-138.60238196840294
9.528,0.9999921604296432,-138.88025242487154
9.536,0.9999922413467867,-139.15802070903194
9.544,0.999992325074334,-139.43568706302875
9.552,0.9999924116235702,-139.71325173132686
