freq,mag,phase
6.0,1.000269312073917,-165.4102136027407
6.002287104,1.000310860950755,-165.56168762291603
6.004574208,1.0003324841157075,-165.7135577499683
6.006861312,1.0003336163434828,-165.86558396883748
6.009147904,1.0003141737163928,-166.01746204406865
6.011435008,1.000275283063579,-166.16887840411854
6.013722112,1.0002195470820128,-166.31960510895982
6.016009216,1.000150424990711,-166.46935905956502
6.01829632,1.000072152525842,-166.61803907034462
6.020583424,0.9999898416414386,-166.7655323001901
6.022870016,0.9999086706097153,-166.9118071963583
6.02515712,0.9998336336744895,-167.05691962494365
6.027444224,0.9997697713581154,-167.20100620365324
6.029731328,0.9997207969050877,-167.3442340531215
6.032018432,0.9996900049382688,-167.48685262756362
6.034305536,0.9996794749360495,-167.62913570285005
6.036592128,0.9996895770370419,-167.77140136119795
6.038879232,0.9997199441119407,-167.91393501878798
6.041166336,0.9997684852578218,-168.05700771871244
6.04345344,0.999832393626279,-168.2009007767294
6.045740544,0.9999073260695133,-168.3457291628513
6.048027648,0.9999887816633042,-168.49167790271002
6.05031424,1.0000713261321055,-168.63877714202945
6.052601344,1.0001500433287638,-168.78705298906505
6.054888448,1.0002198289129838,-168.93636013333082
6.057175552,1.0002761912489722,-169.0865652344252
6.059462656,1.00031569603214,-169.23744965205296
6.06174976,1.0003357272211781,-169.388738444485
6.064036352,1.0003350694457374,-169.54012163853034
6.066323456,1.000313648825824,-169.6913320325525
6.06861056,1.0002729981715897,-169.84207609134276
6.070897664,1.0002155304155516,-169.99205050964449
6.073184768,1.0001448565241482,-170.141095430481
6.075471872,1.0000655477101204,-170.2890211508315
6.077758464,0.9999824388453918,-170.43576005675013
6.080045568,0.9999010615968247,-170.58124745702077
6.082332672,0.9998263321709754,-170.7255853522024
6.084619776,0.9997630895904227,-170.86886424663572
6.08690688,0.9997153670991135,-171.01136072447952
6.089193984,0.9996860725671854,-171.15322631359967
6.091481088,0.9996772755315552,-171.2947994820354
6.09376768,0.9996893685236734,-171.436367162477
6.096054784,0.9997215233533718,-171.57821821490975
6.098341888,0.9997720477383902,-171.7206463584413
6.100628992,0.9998374047700521,-171.86390993025236
6.102916096,0.9999136659295218,-172.0081285581681
6.1052032,0.9999959479974694,-172.1535301118451
6.107489792,1.0000790444716234,-172.30006670924615
6.109776896,1.0001576719887573,-172.4477757002023
6.112064,1.0002269473648855,-172.59649824809333
6.114351104,1.0002823995223877,-172.74612393026055
6.116638208,1.000320516357884,-172.89639902241342
6.118925312,1.0003389103267373,-173.04705788488383
6.121211904,1.0003362884780571,-173.1978059850119
6.123499008,1.0003129842917833,-173.3483195941078
6.125786112,1.0002703992032513,-173.49837102395517
6.128073216,1.0002111358792793,-173.6476163382337
6.13036032,1.0001389429252616,-173.79589429733096
6.132647424,1.000058564746377,-173.94303807125812
6.134934016,0.9999748629226369,-174.0889293977812
6.13722112,0.9998932752394778,-174.23365261716935
6.139508224,0.9998188902428701,-174.37718773409608
6.141795328,0.9997564417834031,-174.51968660922614
6.144082432,0.9997099068548113,-174.66137574561017
6.146369536,0.9996822017878285,-174.80249431089058
6.148656128,0.9996750741256903,-174.94332776307482
6.150943232,0.9996891187708148,-175.08416453460848
6.153230336,0.9997233718557504,-175.22537069994402
6.15551744,0.9997757439671536,-175.3671389160803
6.157804544,0.9998427530753661,-175.50974431385293
6.160091648,0.9999203404878183,-175.65339479598146
6.162378752,1.000003524604696,-175.7981641854815
6.164665344,1.000086983789246,-175.94412600448607
6.166952448,1.0001655425674187,-176.09124659713515
6.169239552,1.0002341639550179,-176.23937065302383
6.171526656,1.0002886207485842,-176.3883994715096
6.17381376,1.0003251493140854,-176.53806424087801
6.176100864,1.0003418751040296,-176.68807120807872
6.178387456,1.0003374104881817,-176.8381237868701
6.18067456,1.0003120228857385,-176.987948929327
6.182961664,1.0002675042857374,-177.13724627990732
6.185248768,1.0002065311852388,-177.2857322391353
6.187535872,1.0001328957544913,-177.4332308430846
6.189822976,1.0000513703419731,-177.5795670362606
6.192109568,0.999967027157543,-177.72468831958477
6.194396672,0.9998852986742026,-177.86852263771803
6.196683776,0.9998112809699827,-178.01123590841044
6.19897088,0.9997496527550911,-178.1529386588205
6.201257984,0.9997044179857212,-178.29381409719304
6.203545088,0.9996783707883026,-178.43414777657813
6.20583168,0.9996731527390439,-178.57424637877864
6.208118784,0.9996892271902953,-178.71436284978253
6.210405888,0.999725458731367,-178.85484449633645
6.212692992,0.9997796017085673,-178.99596796794532
6.214980096,0.9998482307499846,-179.1379214095373
6.2172672,0.9999271120253148,-179.28092990756497
6.219553792,1.0000111795872333,-179.42509917090723
6.221840896,1.0000949825313734,-179.57044530449747
6.224128,1.0001734937650837,-179.71696227939273
6.226415104,1.0002414539500215,-179.86450357403982
6.228702208,1.000294710715142,179.98710045527253
6.230989312,1.0003299122761384,179.83808971191488
6.233275904,1.0003447316149814,179.68874887199715
6.235563008,1.0003382179217866,179.5393752209178
6.237850112,1.000310916434118,179.39025903506734
6.240137216,1.000264383345432,179.24172723470724
6.24242432,1.000201577406232,179.0939928472373
6.244711424,1.0001265929426886,178.94732694374036
6.246998528,1.0000439664001162,178.8018029938565
6.24928512,0.999959035000748,178.65754978251147
6.251572224,0.9998772509040758,178.51452930083738
6.253859328,0.9998036215383962,178.37265746901778
6.256146432,0.9997429184101435,178.2317669279775
6.258433536,0.9996989590732406,178.09174404335658
6.26072064,0.9996745660011297,177.9521931552382
6.263007232,0.9996713312697444,177.8128785888182
6.265294336,0.9996894620955648,177.67347278810576
6.26758144,0.9997276962850837,177.53369394487282
6.269868544,0.9997837880633299,177.3932823602551
6.272155648,0.9998540506433032,177.2519707428144
6.274442752,0.9999342097847777,177.10960064517812
6.276729344,1.000019068854056,176.96607186452027
6.279016448,1.0001032141718211,176.82134013838404
6.281303552,1.0001814146241137,176.67542275553265
6.283590656,1.0002487371627913,176.52850187635374
6.28587776,1.0003007601408405,176.38075151951674
6.288164864,1.0003344196686503,176.23238196422062
6.290451456,1.0003473875359692,176.08375385125527
6.29273856,1.000338936342999,175.93508702880777
6.295025664,1.000309487524975,175.78669834064445
6.297312768,1.000260959152332,175.63894939097395
6.299599872,1.0001964619750934,175.4920272117594
6.301886976,1.0001199606258115,175.34616948887918
6.304173568,1.0000362435717918,175.20147449046343
6.306460672,0.9999507765782865,175.05805925346948
6.308747776,0.9998689264035026,174.9159026348919
6.31103488,0.9997958196226219,174.7748776694078
6.313321984,0.9997361759360585,174.63486693872215
6.315609088,0.999693508254411,174.495631281422
6.317896192,0.9996710087019163,174.35690046347926
6.320182784,0.9996697713330641,174.21836518872618
6.322469888,0.9996898521778237,174.0797235750704
6.324756992,0.9997302661335374,173.94068132884686
6.327044096,0.999788240748118,173.80096446351365
6.3293312,0.9998601922761177,173.66030755517002
6.331618304,0.9999415947218853,173.5185790735078
6.333904896,1.0000271473258502,173.37568394676123
6.336192,1.0001116660242597,173.23156346265313
6.338479104,1.0001895858486736,173.08628473324222
6.340766208,1.0002561110522676,172.93999533467098
6.343053312,1.0003070421663427,172.79288482801252
6.345340416,1.0003389974459103,172.6452157185493
6.347627008,1.000350050355367,172.49724852085276
6.349914112,1.000339409341289,172.34930243250955
6.352201216,1.000307875922996,172.20170998566033
6.35448832,1.0002574457936206,172.05470914309672
6.356775424,1.0001910523411062,171.90862905683352
6.359062528,1.0001129916006144,171.7635719094855
6.36134912,1.000028362448042,171.61976853603508
6.363636224,0.9999423112179602,171.47723519523183
6.365923328,0.9998603916874031,171.33595067808378
6.368210432,0.9997878655320216,171.19578369219505
6.370497536,0.9997291878803974,171.05662257080644
6.37278464,0.999688212233396,170.91823474581966
6.375071232,0.9996673862662865,170.7803459639454
6.377358336,0.9996682585585749,170.6425920976566
6.37964544,0.9996905668905852,170.50471313887363
6.381932544,0.9997329940589765,170.36639150028034
6.384219648,0.9997929492739573,170.22738857044862
6.386506752,0.9998665615479345,170.08740176323997
6.388793344,0.9999491367380701,169.94631180820576
6.391080448,1.000035506369456,169.8040585353035
6.393367552,1.0001201835712648,169.6605684568948
6.395654656,1.0001978569163592,169.51594024613985
6.39794176,1.000263601551033,169.3702945613767
6.400228864,1.000313116303484,169.223829056292
6.402515968,1.0003434721842603,169.07682553763095
6.40480256,1.000352491244179,168.92957815505716
6.407089664,1.000339736174958,168.7823704942247
6.409376768,1.000306058146304,168.6355544119173
6.411663872,1.0002534182003626,168.48935753287844
6.413950976,1.00018530684669,168.3440796080942
6.41623808,1.0001057965122537,168.19989851196053
6.418524672,1.0000202001105705,168.0569637935439
6.420811776,0.9999337081652159,167.91530736862507
6.42309888,0.9998519073722486,167.77489050993825
6.425385984,0.9997799186677512,167.6356419672456
6.427673088,0.9997224165368358,167.49737549735823
6.429960192,0.9996828541086238,167.35980634599957
6.432246784,0.9996640156800536,167.22269391584808
6.434533888,0.999666897442044,167.08576715914288
6.436820992,0.9996913826814474,166.94866389297673
6.439108096,0.9997360345051188,166.81107529586694
6.4413952,0.9997978736204732,166.67273689721418
6.443682304,0.9998731522188952,166.53346020821422
6.445968896,0.9999570501253476,166.39308422764108
6.448256,1.000044103965478,166.25144469870986
6.450543104,1.0001290132582472,166.10859956924716
6.452830208,1.0002062919236434,165.96460203367724
6.455117312,1.0002710996711595,165.81959072136925
6.457404416,1.0003192310194362,165.67381576398205
6.459691008,1.0003477469588196,165.52750703006717
6.461978112,1.0003547818817786,165.38098593121455
6.464265216,1.0003398603979767,165.23451249113478
6.46655232,1.0003038734046867,165.0884536911666
6.468839424,1.0002492347537189,164.94308846683575
6.471126528,1.0001792748915075,164.7986628086278
6.473413632,1.0000983728321493,164.65535167813317
6.475700224,1.0000118213461078,164.51329100055003
6.477987328,0.9999248074469591,164.37252276305685
6.480274432,0.9998431215664737,164.23300598313418
6.482561536,0.9997718330308879,164.09463772870768
6.48484864,0.9997155001306591,163.95723800852522
6.487135744,0.9996776293666753,163.8205489960837
6.489422336,0.9996607485220703,163.6843082194893
6.49170944,0.9996657900566593,163.54816266089006
6.493996544,0.9996925947013401,163.41182570636147
6.496283648,0.9997394732983671,163.2749674749859
6.498570752,0.999803257481222,163.13735909719023
6.500857856,0.9998801256696261,162.9987597232475
6.503144448,0.9999651275123647,162.8589933838251
6.505431552,1.0000529597716963,162.71802121049845
6.507718656,1.0001378736552706,162.5758271877118
6.51000576,1.0002147877311292,162.43247563746513
6.512292864,1.0002785685161963,162.28813640218553
6.514579968,1.000325327439648,162.14303916508146
6.51686656,1.0003519199046012,161.99742758662208
6.519153664,1.000356870007474,161.85161683111156
6.521440768,1.0003395688599037,161.70592424249688
6.523727872,1.0003015274221632,161.5606382213489
6.526014976,1.0002447012885898,161.4161135247647
6.52830208,1.0001729952783713,161.2725469874976
6.530588672,1.0000906417002184,161.13010885587855
6.532875776,1.0000030560672684,160.9889380928559
6.53516288,0.9999157842654827,160.84907867792887
6.537449984,0.9998342914235577,160.7104658972929
6.539737088,0.9997636877879329,160.57297449939554
6.542024192,0.9997087390610305,160.4364799558439
6.544310784,0.9996725297635768,160.30065658774217
6.546597888,0.9996575908274242,160.16523672330646
6.548884992,0.9996649142687075,160.02991375529234
6.551172096,0.9996940328623047,159.8943299153208
6.5534592,0.999743018272783,159.75823527740465
6.555746304,0.9998088470994115,159.62130920021133
6.558033408,0.9998873807637876,159.48340866821135
6.56032,0.9999735451476155,159.34433122322974
6.562607104,1.0000620283402188,159.20398992450149
6.564894208,1.0001471308273637,159.06244138921505
6.567181312,1.000223401522549,158.919748258148
6.569468416,1.000286050161492,158.77606910242173
6.57175552,1.000331332218951,158.6316367800561
6.574042112,1.000356105915335,158.4867000238642
6.576329216,1.0003587293251024,158.3416344080198
6.57861632,1.0003392754482605,158.19672479273675
6.580903424,1.0002988408358364,158.05223121698108
6.583190528,1.0002399464832592,157.9085518155182
6.585477632,1.000166285776322,157.7658129688349
6.587764224,1.0000825677494645,157.62428596295865
6.590051328,0.9999942002062066,157.48402604110592
6.592338432,0.9999065667281702,157.34506715826095
6.594625536,0.9998252653779242,157.20738120424838
6.59691264,0.9997555223817348,157.07081901272423
6.599199744,0.9997018132624044,156.93518183199973
6.601486336,0.999667430627788,156.80024521494985
6.60377344,0.9996546705435355,156.66563061373938
6.606060544,0.9996642486113423,156.5311004072532
6.608347648,0.9996957230702501,156.39631841429264
6.610634752,0.9997470135657546,156.26094848804016
6.612921856,0.9998148041113264,156.12477011956986
6.615208448,0.9998948245881863,155.98752083597506
6.617495552,0.9999822057728426,155.84909343884772
6.619782656,1.000071301086711,155.70942117630736
6.62206976,1.0001563491133552,155.56852458201095
6.624356864,1.0002321222534594,155.4264686997033
6.626643968,1.0002938181929828,155.28344911152666
6.628931072,1.0003372779611466,155.13972911969356
6.631217664,1.0003600445762588,154.9955163443518
6.633504768,1.000360546741157,154.85117745045267
6.635791872,1.0003386438719133,154.70701667906147
6.638078976,1.0002958428403175,154.56336378658864
6.64036608,1.000234723865549,154.42050104767097
6.642653184,1.0001593145015901,154.27867598647978
6.644939776,1.000074288530273,154.13799455273687
6.64722688,0.9999850338549318,153.99863531972065
6.649513984,0.9998970590080591,153.86059970605496
6.651801088,0.9998161619312518,153.72383562085645
6.654088192,0.9997473450259813,153.58816440835187
6.656375296,0.9996950552873693,153.45342381456882
6.658661888,0.9996624912785743,153.31936361265096
6.660948992,0.9996517973492738,153.18560201445672
6.663236096,0.9996637815803759,153.05187085963934
6.6655232,0.9996975587208541,152.91784958614983
6.667810304,0.9997511365568537,152.783219528393
6.670097408,0.9998209704410276,152.64774230209937
6.672384,0.9999027567272611,152.51117699151084
6.674671104,0.9999911707548063,152.37343361710035
6.676958208,1.00008076589878,152.2343977672766
6.679245312,1.000165810942786,152.0941455999869
6.681532416,1.000240819108224,151.95274423646563
6.68381952,1.00030122441217,151.81039655494183
6.686106112,1.0003432657520368,151.66732858597507
6.688393216,1.0003637545151611,151.523835489371
6.69068032,1.000361928373723,151.38023542998974
6.692967424,1.0003376139989535,151.23687806588438
6.695254528,1.0002924517098046,151.09404556886858
6.697541632,1.0002292361549951,150.95201650811399
6.699828224,1.000152087515892,150.8110213115625
6.702115328,1.0000655944863928,150.67127597281805
6.704402432,0.999975530935196,150.53284067990512
6.706689536,0.9998873048377999,150.39573195256534
6.70897664,0.9998067662786269,150.2598697633182
6.711263744,0.9997390938977286,150.12514283343614
6.713550848,0.9996881231318251,149.99129098166824
6.71583744,0.9996576000667245,149.8580555044158
6.718124544,0.999649323167065,149.72514465981791
6.720411648,0.9996636604685311,149.59222977447254
6.722698752,0.9996998036761353,149.45899433451942
6.724985856,0.9997556046942057,149.32510195641683
6.72727296,0.9998276064283779,149.1903197203736
6.729559552,0.9999107559079873,149.05443643345336
6.731846656,1.000000329601481,148.91733612147428
6.73413376,1.0000904665405252,148.77894390615617
6.736420864,1.0001752412719047,148.63932686606188
6.738707968,1.0002497217289015,148.49853984786034
6.740995072,1.0003088202245338,148.3569022929234
6.743281664,1.0003489407005917,148.2145163539064
6.745568768,1.0003673156078043,148.0717334363148
6.747855872,1.0003631441567993,147.92889143604964
6.750142976,1.0003364964169523,147.78630080818598
6.75243008,1.0002888412544257,147.6442682608583
6.754717184,1.0002233904686324,147.5030860546741
6.757003776,1.0001444179691747,147.36301222314827
6.75929088,1.0000566035944738,147.22414121517025
6.761577984,0.9999657509658861,147.0866328079478
6.763865088,0.9998774323650317,146.95044276973974
6.766152192,0.9997973939110357,146.81552795385232
6.768439296,0.9997307090786018,146.6816713780327
6.770725888,0.9996814180861976,146.54872052904864
6.773012992,0.9996529200887735,146.41634784544823
6.775300096,0.9996468657155464,146.28427765403677
6.7775872,0.9996637632494025,146.1521771329194
6.779874304,0.999702392636895,146.01968196989733
6.782161408,0.9997605253158409,145.88650548530134
6.784448512,0.9998344141652138,145.7524310670007
6.786735104,0.9999192950109304,145.61721959686042
6.789022208,1.000009784256125,145.48075684597998
6.791309312,1.000100395648998,145.34300799316284
6.793596416,1.0001849876970008,145.2040376890972
6.79588352,1.000258591544985,145.06392938497325
6.798170624,1.0003163485661275,144.9229020701582
6.800457216,1.0003544973661602,144.78122185649417
6.80274432,1.0003708252409378,144.63917133403163
6.805031424,1.0003640612273677,144.49706384256993
6.807318528,1.0003348113921504,144.35524511563824
6.809605632,1.0002848422890485,144.21404015891784
6.811892736,1.000217387366687,144.0737245002684
6.814179328,1.0001363743464946,143.93448832649872
6.816466432,1.0000472697743124,143.79656890935527
6.818753536,0.999955805870139,143.6599524620203
6.82104064,0.9998673472713356,143.5247146255551
6.823327744,0.999787871257999,143.39067970162913
6.825614848,0.9997222920762974,143.25776477839884
6.82790144,0.9996747284593488,143.12571799565427
6.830188544,0.9996482951404912,142.99421016648836
6.832475648,0.999644643188003,142.862954936587
6.834762752,0.9996640430455337,142.73163888960772
6.837049856,0.9997053731775261,142.59987695805464
6.83933696,0.9997657302847555,142.4674436092901
6.841623552,0.9998416541687719,142.33405539090825
6.843910656,0.9999279824218148,142.19950067568897
6.84619776,1.000019534268293,142.06369696507485
6.848484864,1.0001104483559082,141.92657113037254
6.850771968,1.000194948068991,141.7882238341693
6.853059072,1.0002676522682754,141.64876669924644
6.855345664,1.0003237897404327,141.5083891402715
6.857632768,1.000360047898305,141.36741150391447
6.859919872,1.0003740493350264,141.22604878937767
6.862206976,1.0003647993148483,141.08468553103634
6.86449408,1.0003328805915268,140.94365461209014
6.866781184,1.0002805498199707,140.80328650989884
6.869068288,1.0002107628564532,140.66381177129497
6.87135488,1.0001280871534148,140.52548757861726
6.873641984,1.0000377961656566,140.38846307758712
6.875929088,0.9999455113515733,140.25277937490526
6.878216192,0.9998571174487662,140.11840901850036
6.880503296,0.9997782679090682,139.98533862513864
6.8827904,0.9997137352927195,139.85333180593796
6.885076992,0.9996680202764411,139.72214394581397
6.887364096,0.999643786439465,139.59149044060717
6.8896512,0.9996426057885338,139.46109066814827
6.891938304,0.9996646566409703,139.3305353809553
6.894225408,0.9997084817796951,139.19953889351
6.896512512,0.9997713522044646,139.06780811563343
6.898799104,0.9998492210487229,138.93510730164974
6.901086208,0.999937138984449,138.80118776068946
6.903373312,1.0000296450772626,138.66602051516608
6.905660416,1.0001208435564866,138.52955586038078
6.90794752,1.000204903525406,138.39179387799388
6.910234624,1.0002765221957948,138.25296419082073
6.912521216,1.0003312527895205,138.11325666148173
6.91480832,1.0003654841115097,137.97293085408091
6.917095424,1.0003770608808475,137.83227132393023
6.919382528,1.0003652687298585,137.69168055450004
