freq,mag,phase
6.0,0.999996723031362,-165.63693353281587
6.008,0.9999970119803012,-166.0202785649858
6.016,0.9999972880165963,-166.4034086725765
6.024,0.9999975513870275,-166.78632796578714
6.032,0.99999780233578,-167.16904056376987
6.04,0.9999980411044559,-167.55155059449183
6.048,0.9999982679320891,-167.93386219459998
6.056,0.9999984830551568,-168.31597950928838
6.064,0.9999986867075933,-168.6979066921678
6.072,0.999998879120806,-169.07964790513842
6.08,0.9999990605236845,-169.46120731826426
6.088,0.9999992311426192,-169.8425891096504
6.096,0.9999993912015122,-170.22379746532263
6.104,0.9999995409217931,-170.60483657910925
6.112,0.9999996805224328,-170.98571065252537
6.12,0.9999998102199568,-171.36642389465922
6.128,0.9999999302284609,-171.74698052206102
6.136,0.9999999999999999,-172.12738475863384
6.144,0.9999999999999999,-172.50764083552664
6.152,1.0000000000000002,-172.88775299102954
6.16,1.0,-173.26772547047113
6.168,0.9999999999999999,-173.64756252611784
6.176,1.0,-174.02726841707516
6.184,1.0,-174.40684740919136
6.192,0.9999999999999999,-174.78630377496242
6.2,0.9999999999999999,-175.16564179343965
6.208,1.0,-175.54486575013846
6.216,0.9999999999999999,-175.92397993694954
6.224,1.0,-176.30298865205154
6.232,1.0,-176.68189619982556
6.24,1.0,-177.0607068907716
6.248,0.9999999999999999,-177.4394250414262
6.256,1.0,-177.81805497428232
6.264,0.9999999999999999,-178.19660101771044
6.272,0.9999999999999999,-178.57506750588138
6.28,1.0,-178.95345877869073
6.288,0.9999999999999999,-179.3317791816846
6.296,0.9999999999999999,-179.7100330659872
6.304,0.9999999999999999,179.91177521177073
6.312,0.9999999999999999,179.5336412895214
6.32,1.0,179.15556079982866
6.328,1.0,178.777529369955
6.336,1.0,178.39954262192742
6.344,1.0,178.02159617260216
6.352,0.9999999999999999,177.64368563372778
6.36,1.0,177.2658066120077
6.368,0.9999999916822127,176.88795470916102
6.376,0.9999999049525988,176.51012552198264
6.384,0.9999998141911631,176.13231464240206
6.392,0.9999997195402148,175.75451765754124
6.4,0.999999621140145,175.37673014977167
6.408,0.9999995191294382,174.99894769677002
6.416,0.9999994136446944,174.62116587157337
6.424,0.9999993048206348,174.24338024263326
6.432,0.9999991927901247,173.86558637386906
6.44,0.999999077684183,173.4877798247204
6.448,0.9999989596319995,173.10995615019897
6.456,0.9999988387609469,172.7321109009395
6.464,0.9999987151965979,172.35423962325004
6.472,0.9999985890627386,171.9763378591618
6.48,0.999998460481383,171.59840114647807
6.4879999999999995,0.9999983295727856,171.22042501882285
6.496,0.9999981964554581,170.84240500568853
6.504,0.9999980612461824,170.46433663248388
6.5120000000000005,0.9999979240600252,170.0862154205804
6.52,0.9999977850103502,169.70803688735955
6.5280000000000005,0.9999976442088356,169.3297965462585
6.536,0.9999975017654841,168.95148990681636
6.5440000000000005,0.9999973577886393,168.57311247471924
6.552,0.999997212384998,168.19465975184633
6.5600000000000005,0.9999970656596247,167.81612723631412
6.568,0.9999969177159644,167.43751042252205
6.5760000000000005,0.9999967686558572,167.05880480119666
6.584,0.9999966185795504,166.68000585943673
6.592,0.9999964675857127,166.3011090807575
6.6,0.9999963157714468,165.9221099451354
6.608,0.999996163232303,165.54300392905256
6.616,0.9999960100622927,165.16378650554145
6.624,0.9999958563539002,164.78445314422962
6.632,0.9999957021980964,164.40499931138442
6.64,0.9999955476843512,164.02542046995814
6.648,0.9999953929006468,163.6457120796332
6.656,0.9999952379334895,163.26586959686756
6.664,0.9999950828679234,162.88588847494069
6.672,0.9999949277875416,162.5057641639994
6.68,0.9999947727744991,162.1254921111046
6.688,0.999994617909525,161.74506776027795
6.696,0.9999944632719359,161.36448655254947
6.704,0.9999943089396449,160.98374392600527
6.712,0.999994154989177,160.60283531583596
6.72,0.9999940014956792,160.22175615438562
6.728,0.9999938485329322,159.8405018712015
6.736,0.9999936961733639,159.45906789308424
6.744,0.9999935444880578,159.0774496441389
6.752,0.9999933935467681,158.69564254582667
6.76,0.9999932434179287,158.31364201701743
6.768,0.9999930941686656,157.93144347404322
6.776,0.9999929458648077,157.54904233075226
6.784,0.9999927985708984,157.16643399856443
6.792,0.9999926523502064,156.78361388652732
6.8,0.999992507264737,156.40057740137334
6.808,0.9999923633752424,156.01731994757796
6.816,0.9999922207412328,155.63383692741914
6.824,0.9999920794209878,155.25012374103784
6.832,0.999991939471565,154.86617578649935
6.84,0.9999918009488133,154.48198845985675
6.848,0.9999916639073813,154.09755715521456
6.856,0.9999915284007284,153.7128772647945
6.864,0.9999913944811345,153.32794417900251
6.872,0.9999912621997108,152.9427532864967
6.88,0.9999911316064098,152.55729997425743
6.888,0.999991002750035,152.1715796276584
6.896,0.9999908756782507,151.78558763053948
6.904,0.9999907504375919,151.3993193652813
6.912,0.999990627073475,151.01277021288112
6.92,0.9999905056302046,150.6259355530308
6.928,0.9999903861509869,150.2388107641962
6.936,0.9999902686779364,149.85139122369844
6.944,0.999990153252085,149.46367230779728
6.952,0.9999900399133942,149.075649391776
6.96,0.9999899287007608,148.6873178500283
6.968,0.9999898196520282,148.29867305614752
6.976,0.9999897128039943,147.90971038301743
6.984,0.9999896081924224,147.52042520290541
6.992,0.9999895058520458,147.13081288755762
7.0,0.9999894058165821,146.74086880829654
7.008,0.9999893081187372,146.3505883361203
7.016,0.9999892127902154,145.95996684180503
7.024,0.9999891198617307,145.56899969600872
7.032,0.9999890293630097,145.17768226937815
7.04,0.9999889413228057,144.78600993265778
7.048,0.999988855768902,144.39397805680142
7.056,0.9999887727281231,144.00158201308628
7.064,0.999988692226344,143.60881717322965
7.072,0.9999886142884931,143.21567890950837
7.08,0.9999885389385649,142.8221625948806
7.088,0.999988466199627,142.42826360311093
7.096,0.9999883960938261,142.03397730889762
7.104,0.9999883286423965,141.63929908800327
7.112,0.9999882638656704,141.24422431738807
7.12,0.9999882017830803,140.84874837534608
7.128,0.9999881424131709,140.45286664164448
7.136,0.9999880857736055,140.05657449766613
7.144,0.9999880318811725,139.65986732655483
7.152,0.9999879807517922,139.26274051336412
7.16,0.9999879324005251,138.86518944520924
7.168,0.9999878868415808,138.4672095114219
7.176,0.9999878440883208,138.06879610370945
7.184,0.9999878041532697,137.66994461631614
7.192,0.9999877670481194,137.27065044618888
7.2,0.9999877327837379,136.8709089931459
7.208,0.9999877013701739,136.47071566004917
7.216,0.9999876728166671,136.0700658529805
7.224,0.9999876471316496,135.66895498142102
7.232,0.9999876243227602,135.267378458435
7.24,0.9999876043968426,134.8653317008564
7.248,0.9999875873599579,134.46281012948043
7.256,0.999987573217388,134.05980916925824
7.264,0.999987561973645,133.6563242494957
7.272,0.9999875536324732,133.2523508040564
7.28,0.9999875481968601,132.84788427156838
7.288,0.9999875456690399,132.44292009563523
7.296,0.9999875460505012,132.03745372505145
7.304,0.9999875493419903,131.63148061402137
7.312,0.9999875555435213,131.22499622238337
7.32,0.99998756465438,130.81799601583748
7.328,0.9999875766731309,130.41047546617807
7.336,0.9999875915976205,130.00243005153052
7.344,0.9999876094249872,129.59385525659266
7.352,0.9999876301516664,129.18474657288058
7.36,0.999987653773392,128.77509949897933
7.368,0.9999876802852093,128.36490954079778
7.376,0.9999877096814751,127.9541722118289
7.384,0.9999877419558654,127.54288303341416
7.392,0.9999877771013829,127.13103753501309
7.4,0.9999878151103597,126.71863125447771
7.4079999999999995,0.9999878559744644,126.30565973833187
7.416,0.9999878996847085,125.89211854205536
7.4239999999999995,0.9999879462314509,125.47800323037366
7.432,0.9999879956044038,125.06330937755175
7.4399999999999995,0.999988047792638,124.64803256769463
7.448,0.9999881027845886,124.23216839505092
7.4559999999999995,0.9999881605680621,123.8157124643241
7.464,0.999988221130239,123.3986603909868
7.4719999999999995,0.9999882844576805,122.98100780160242
7.48,0.9999883505363356,122.56275033415027
7.4879999999999995,0.9999884193515445,122.14388363835803
7.496,0.9999884908880442,121.72440337603798
7.504,0.999988565129974,121.30430522143031
7.5120000000000005,0.9999886420608829,120.88358486155039
7.52,0.9999887216637329,120.4622379965437
7.5280000000000005,0.9999888039209031,120.04026034004417
7.536,0.9999888888141986,119.61764761954029
7.5440000000000005,0.9999889763248535,119.19439557674552
7.552,0.9999890664335371,118.77049996797548
7.5600000000000005,0.9999891591203584,118.34595656453024
7.568,0.9999892543648726,117.9207611530833
7.5760000000000005,0.9999893521460858,117.49490953607558
7.584,0.9999894524424602,117.0683975321165
7.5920000000000005,0.99998955523192,116.64122097638975
7.6,0.9999896604918566,116.21337572106657
7.6080000000000005,0.9999897681991333,115.78485763572357
7.616,0.9999898783300915,115.35566260776835
7.6240000000000006,0.9999899908605567,114.92578654286957
7.632,0.9999901057658415,114.4952253653947
7.640000000000001,0.9999902230207535,114.06397501885266
7.648,0.9999903425995997,113.6320314663441
7.656000000000001,0.9999904644761921,113.19939069101646
7.664,0.999990588623853,112.7660486965267
7.672,0.9999907150154205,112.3320015075092
7.68,0.9999908436232541,111.89724517005097
7.688,0.9999909744192401,111.46177575217241
7.696,0.9999911073747982,111.02558934431514
7.704,0.9999912424608853,110.58868205983565
7.712,0.999991379648002,110.15105003550569
7.72,0.999991518906198,109.71268943201912
7.728,0.9999916602050793,109.27359643450497
7.736,0.9999918035138112,108.83376725304709
7.744,0.9999919488011265,108.39319812321025
7.752,0.9999920960353298,107.95188530657266
7.76,0.9999922451843034,107.50982509126504
7.768,0.9999923962155143,107.06701379251588
7.776,0.999992549096019,106.62344775320359
7.784,0.9999927037924695,106.17912334441465
7.792,0.9999928602711204,105.73403696600855
7.8,0.9999930184978332,105.28818504718892
7.808,0.999993178438084,104.84156404708129
7.816,0.9999933400569688,104.39417045531704
7.824,0.9999935033192096,103.9460007926239
7.832,0.9999936681891611,103.49705161142275
7.84,0.9999938346308173,103.04731949643076
7.848,0.9999940026078163,102.59680106527077
7.856,0.9999941720834488,102.14549296908717
7.864,0.9999943430206631,101.69339189316774
7.872,0.9999945153820727,101.2404945575719
7.88,0.999994689129961,100.78679771776508
7.888,0.9999948642262905,100.33229816525915
7.896,0.9999950406327086,99.87699272825901
7.904,0.999995218310553,99.42087827231515
7.912,0.9999953972208605,98.96395170098226
7.92,0.9999955773243728,98.50620995648362
7.928,0.9999957585815443,98.04765002038144
7.936,0.9999959409525484,97.58826891425298
7.944,0.9999961243972852,97.12806370037235
7.952,0.9999963088753889,96.66703148239797
7.96,0.999996494346234,96.20516940606554
7.968,0.9999966807689448,95.7424746598866
7.976,0.9999968681024001,95.27894447585237
7.984,0.9999970563052436,94.81457613014292
7.992,0.9999972453358892,94.34936694384167
8.0,0.9999974351525306,93.88331428365471
8.008,0.9999976257131477,93.41641556263552
8.016,0.9999978169755148,92.948668240914
8.024000000000001,0.9999980088972101,92.48006982643119
8.032,0.9999982014356209,92.01061787567772
8.04,0.9999983945479551,91.54030999443714
8.048,0.9999985881912458,91.06914383853376
8.056000000000001,0.9999987823223628,90.59711711458503
8.064,0.9999989768980201,90.12422758075745
8.072,0.9999991718747834,89.65047304752657
8.08,0.9999993672090797,89.17585137844132
8.088000000000001,0.9999995628572053,88.70036049089184
8.096,0.9999997587753364,88.22399835688059
8.104,0.9999999549195353,87.7467630037968
8.112,1.0,87.26865251519456
8.120000000000001,0.9999999999999999,86.78966503157379
8.128,1.0,86.30979875116388
8.136,1.0,85.8290519307098
8.144,1.0,85.34742288626117
8.152000000000001,1.0,84.86490999396366
8.16,0.9999999999999999,84.38151169085192
8.168,0.9999999999999999,83.89722647564449
8.176,1.0,83.41205290954073
8.184000000000001,1.0,82.92598961701914
8.192,1.0,82.43903528663662
8.2,1.0,81.95118867182852
8.208,1.0,81.46244859170996
8.216000000000001,1.0,80.97281393187761
8.224,1.0,80.48228364521142
8.232,1.0,79.99085675267608
8.24,0.9999999999999998,79.4985323441229
8.248000000000001,0.9999999999999999,79.00530957909112
8.256,1.0,78.5111876876078
8.264,0.9999999999999999,78.01616597098693
8.272,1.0,77.5202438026273
8.280000000000001,1.0,77.02342062880913
8.288,0.9999999999999999,76.52569596948778
8.296,1.0,76.02706941908578
8.304,1.0,75.52754064728231
8.312,1.0,75.02710939980028
8.32,1.0,74.52577549918891
8.328,1.0,74.02353884560442
8.336,1.0,73.5203994175855
8.344,1.0,73.01635727282594
8.352,0.9999999999999999,72.5114125489413
8.36,0.9999999999999999,72.00556546423242
8.368,1.0,71.49881631844192
8.376,0.9999999999999999,70.99116549350707
8.384,0.9999999999999999,70.4826134543049
8.392,0.9999999999999999,69.97316074939278
8.4,1.0,69.46280801174075
8.408,1.0000000000000002,68.95155595945855
8.416,1.0,68.43940539651335
8.424,1.0,67.92635721344182
8.432,0.9999999999999999,67.41241238805205
8.44,1.0,66.89757198611869
8.448,0.9999999999999999,66.38183716206761
8.456,1.0,65.86520915965276
8.464,0.9999999999999999,65.34768931262171
8.472,1.0,64.82927904537279
8.48,0.9999999999999999,64.30997987359986
8.488,1.0,63.78979340492803
8.496,1.0,63.2687213395361
8.504,0.9999999999999999,62.74676547076919
8.512,1.0,62.22392768573719
8.52,1.0,61.70020996590253
8.528,1.0,61.17561438765308
8.536,1.0,60.65014312286341
8.544,0.9999999999999999,60.123798439440286
8.552,1.0,59.596582701855766
8.56,1.0,59.068498371663644
8.568,0.9999999999999999,58.53954800800265
8.576,1.0,58.00973426808212
8.584,0.9999999999999999,57.479059907653486
8.592,1.0,56.947527781463656
8.6,1.0,56.41514084369293
8.608,0.9999999999999998,55.88190214837429
8.616,1.0000000000000002,55.347814849796336
8.624,1.0,54.81288220288643
8.632,1.0,54.27710756357711
8.64,1.0,53.74049438915153
8.648,0.9999999999999999,53.20304623857132
8.656,1.0,52.66476677278282
8.664,0.9999999999999999,52.1256597550049
8.672,0.9999999999999999,51.58572905099408
8.68,1.0,51.044978629290625
8.688,1.0,50.503412561441095
8.696,1.0,49.961035022201024
8.704,1.0,49.41785028971332
8.712,1.0,48.87386274566587
8.72,1.0,48.3290768754243
8.728,0.9999999999999999,47.78349726814303
8.736,1.0,47.23712861685067
8.744,1.0,46.689975718513196
8.752,0.9999999999999999,46.14204347407055
8.76,0.9999999999999999,45.59333688845032
8.768,0.9999999999999999,45.04386107055422
8.776,0.9999999999999999,44.493621233221
8.784,0.9999999999999999,43.94262269316138
8.792,1.0,43.39087087086872
8.8,1.0,42.83837129050131
8.808,0.9999999999999999,42.28512957973964
8.815999999999999,1.0,41.73115146961472
8.824,1.0,41.17644279431027
8.832,1.0,40.62100949093698
8.84,0.9999999999999999,40.06485759927851
8.847999999999999,0.9999999999999999,39.50799326150908
8.856,1.0,38.95042272188321
8.864,1.0,38.392152326396904
8.872,0.9999999999999999,37.83318852241928
8.879999999999999,1.0,37.27353785829524
8.888,1.0,36.71320698291942
8.896,1.0,36.15220264528048
8.904,1.0,35.590531693975656
8.911999999999999,0.9999999999999999,35.02820107669526
8.92,1.0,34.46521783967799
8.928,1.0,33.9015891271362
8.936,1.0,33.33732218065062
8.943999999999999,1.0,32.77242433853483
8.952,1.0,32.206903035170114
8.96,0.9999999999999999,31.640765800309897
8.968,0.9999999999999999,31.074020258353485
8.975999999999999,1.0,30.50667412758927
8.984,1.0,29.93873521940832
8.992,0.9999999999999999,29.370211437487377
9.0,1.0,28.801110776941258
9.008,0.9999999999999999,28.231441323444724
9.016,1.0,27.66121125232499
9.024000000000001,1.0,27.090428827623764
9.032,0.9999999999999999,26.519102401129004
9.04,0.9999999999999999,25.947240411376583
9.048,1.0,25.37485138262285
9.056000000000001,1.0,24.801943923787416
9.064,1.0,24.228526727366066
9.072,1.0,23.654608568314387
9.08,0.9999999999999999,23.080198302902836
9.088000000000001,1.0,22.505304867542986
9.096,0.9999999999999999,21.929937277584642
9.104,1.0,21.354104626084702
9.112,1.0,20.777816082548366
9.120000000000001,1.0,20.20108089164271
9.128,0.9999999999999999,19.623908371882305
9.136,1.0,19.04630791428756
9.144,0.9999999999999999,18.468288981017167
9.152000000000001,1.0,17.889861103973836
9.16,1.0,17.311033883383736
9.168,1.0,16.731816986350314
9.176,1.0,16.152220145383478
9.184000000000001,1.0,15.572253156903974
9.192,1.0,14.991925879723171
9.2,1.0,14.411248233498933
9.208,0.9999999999999999,13.830230197168785
9.216000000000001,1.0,13.248881807360272
9.224,0.9999999999999999,12.667213156778558
9.232,1.0,12.085234392572362
9.24,0.9999999999999999,11.50295571467916
9.248000000000001,0.9999999999999999,10.920387374149964
9.256,0.9999999999999999,10.337539671453413
9.264,1.0,9.754422954760575
9.272,1.0,9.171047618211517
9.280000000000001,0.9999999999999999,8.587424100163647
9.288,0.9999999999999999,8.003562881422067
9.296,1.0,7.419474483453103
9.304,0.9999999999999999,6.835169466582185
9.312000000000001,0.9999999999999999,6.250658428176178
9.32,1.0,5.665952000810354
9.328,1.0,5.081060850421461
9.336,0.9999999999999999,4.495995674447632
9.344,0.9999999999999999,3.9107671999560294
9.352,1.0,3.3253861817570427
9.36,0.9999999999999999,2.7398634005094213
9.368,1.0,2.1542096608127763
9.376,0.9999999999999999,1.568435789292522
9.384,1.0,0.9825526326738319
9.392,1.0,0.39657105584951835
9.4,1.0000000000000002,-0.18949806006150288
9.408,1.0,-0.7756438196602452
9.416,0.9999999999999999,-1.3618553152216153
9.424,0.9999999999999998,-1.9481216286511176
9.432,1.0,-2.53443183344807
9.44,0.9999999999999999,-3.120774996669897
9.448,1.0,-3.707140180901216
9.456,0.9999999999999999,-4.293516446222637
9.464,0.9999999999999999,-4.87989285218244
9.472,0.9999999999999999,-5.466258459766669
9.48,1.0,-6.05260233337023
9.488,1.0,-6.638913542764817
9.496,0.9999999999999999,-7.2251811650664886
9.504,1.0,-7.811394286698069
9.512,0.9999999999999999,-8.397542005349887
9.52,1.0,-8.983613431933653
9.528,0.9999999999999999,-9.569597692532986
9.536,0.9999999999999999,-10.155483930345632
9.544,1.0,-10.74126130762069
9.552,0.9999999999999999,-11.32691900758589
9.56,1.0,-11.91244623636845
9.568,0.9999999999999999,-12.497832224904428
9.576,1.0,-13.083066230839988
9.584,1.0,-13.668137540419732
9.592,0.9999999999999999,-14.253035470365523
9.6,1.0,-14.837749369740774
9.608,0.9999999999999998,-15.422268621803784
9.616,1.0000000000000002,-16.006582645845146
9.624,0.9999999999999999,-16.59068089901278
9.632,0.9999999999999999,-17.174552878119542
9.64,0.9999999999999999,-17.758188121437104
9.648,0.9999999999999999,-18.34157621047125
9.656,1.0,-18.92470677172182
9.664,1.0,-19.507569478422845
9.672,0.9999999999999998,-20.090154052266218
9.68,1.0,-20.672450265104125
9.688,0.9999999999999999,-21.25444794063383
9.696,1.0,-21.836136956059978
9.704,1.0,-22.417507243738207
9.712,1.0,-22.998548792795088
9.72,0.9999999999999998,-23.57925165072813
9.728,1.0,-24.159605924981168
9.736,0.9999999999999999,-24.739601784498873
9.744,0.9999999999999999,-25.31922946125537
9.752,0.9999999999999998,-25.898479251761174
9.76,0.9999999999999999,-26.477341518543312
9.768,1.0,-27.05580669160266
9.776,1.0,-27.633865269843817
9.784,1.0,-28.21150782248124
9.792,1.0,-28.788724990417098
9.8,1.0,-29.36550748759459
9.808,1.0,-29.94184610232234
9.816,1.0,-30.517731698573545
9.824,1.0,-31.093155217255383
9.832,0.9999999999999999,-31.66810767745277
9.84,0.9999999999999999,-32.242580177641564
9.847999999999999,1.0,-32.81656389687562
9.856,1.0,-33.390050095943494
9.864,0.9999999999999999,-33.96303011849656
9.872,1.0,-34.53549539214841
9.879999999999999,0.9999999999999999,-35.10743742954487
9.888,0.9999999999999999,-35.67884782940407
9.896,1.0,-36.249718277526746
9.904,0.9999999999999999,-36.82004054777726
9.911999999999999,1.0,-37.38980650303468
9.92,1.0,-37.959008096113216
9.928,0.9999999999999999,-38.52763737065275
9.936,1.0,-39.095686461979334
9.943999999999999,1.0,-39.66314759793566
9.952,0.9999999999999999,-40.230013099680704
9.96,0.9999999999999999,-40.796275382458965
9.968,0.9999999999999999,-41.361926956339936
