freq,mag,phase
6.0,0.9999960180144336,96.33716240130782
6.008,0.9999965541429066,96.20541916311844
6.016,0.9999970750364839,96.07359233346439
6.024,0.9999975808947158,95.94168180115116
6.032,0.9999980719160052,95.80968745505109
6.04,0.9999985482976091,95.67760918410471
6.048,0.999999010235637,95.54544687732214
6.056,0.9999994579250526,95.4132004237845
6.064,0.9999998915596757,95.2808697126453
6.072,0.9999999999999998,95.14845463313178
6.08,1.0,95.0159550745464
6.088,0.9999999999999999,94.8833709262682
6.096,1.0,94.7507020777542
6.104,1.0,94.61794841854089
6.112,0.9999999999999999,94.48510983824555
6.12,0.9999999999999999,94.35218622656782
6.128,0.9999999999999998,94.21917747329098
6.136,1.0,94.08608346828353
6.144,1.0,93.95290410150054
6.152,1.0,93.81963926298515
6.16,1.0,93.68628884287004
6.168,1.0,93.55285273137889
6.176,1.0,93.41933081882777
6.184,0.9999999999999999,93.28572299562674
6.192,1.0,93.15202915228124
6.2,0.9999999999999999,93.01824917939362
6.208,0.9999999999999999,92.88438296766462
6.216,1.0,92.75043040789488
6.224,0.9999999999999999,92.61639139098637
6.232,1.0,92.48226580794405
6.24,1.0,92.34805354987716
6.248,1.0,92.21375450800103
6.256,0.9999999999999999,92.07936857363832
6.264,1.0,91.94489563822074
6.272,1.0,91.81033559329049
6.28,1.0,91.67568833050186
6.288,1.0,91.54095374162269
6.296,1.0,91.40613171853609
6.304,0.9999999999999999,91.27122215324177
6.312,1.0,91.1362249378578
6.32,1.0,91.0011399646221
6.328,1.0,90.86596712589397
6.336,0.9999999999999999,90.73070631415578
6.344,1.0,90.59535742201446
6.352,1.0,90.45992034220312
6.36,0.9999999999999999,90.32439496758265
6.368,0.9999999999999999,90.18878119114335
6.376,1.0,90.05307890600649
6.384,0.9999999999999999,89.91728800542599
6.392,1.0,89.78140838278992
6.4,0.9999999999999999,89.64543993162226
6.408,0.9999999999999998,89.50938254558447
6.416,1.0,89.37323611847707
6.424,1.0,89.23700054424143
6.432,0.9999999999999999,89.10067571696123
6.44,0.9999999999999999,88.96426153086428
6.448,0.9999999999999999,88.82775788032406
6.456,0.9999999999999999,88.69116465986146
6.464,0.9999999999999999,88.55448176414639
6.472,1.0,88.41770908799951
6.48,1.0,88.28084652639386
6.4879999999999995,0.9999999999999999,88.1438939744566
6.496,1.0,88.00685132747063
6.504,0.9999999999999999,87.86971848087637
6.5120000000000005,0.9999999999999999,87.73249533027337
6.52,1.0,87.59518177142213
6.5280000000000005,1.0,87.4577777002457
6.536,1.0,87.32028301283148
6.5440000000000005,0.9999999999999999,87.18269760543286
6.552,0.9999999999999999,87.04502137447115
6.5600000000000005,0.9999999999999999,86.90725421653693
6.568,0.9999999999999999,86.7693960283923
6.5760000000000005,0.9999999999999998,86.63144670697211
6.584,1.0,86.49340614938619
6.592,0.9999999999999999,86.35527425292068
6.6,0.9999999999999998,86.21705091504012
6.608,1.0,86.07873603338902
6.616,1.0,85.94032950579374
6.624,0.9999999999999999,85.80183123026421
6.632,0.9999999999999999,85.66324110499576
6.64,1.0,85.52455902837087
6.648,1.0,85.38578489896098
6.656,1.0,85.2469186155283
6.664,1.0,85.10796007702761
6.672,1.0,84.96890918260809
6.68,1.0,84.82976583161506
6.688,1.0,84.69052992359197
6.696,0.9999999999999999,84.551201358282
6.704,0.9999999999999999,84.41178003563012
6.712,1.0,84.27226585578475
6.72,0.9999999999999999,84.1326587190997
6.728,1.0,83.99295852613602
6.736,1.0,83.8531651776638
6.744,1.0,83.71327857466406
6.752,1.0,83.57329861833067
6.76,1.0,83.43322521007212
6.768,1.0,83.29305825151347
6.776,0.9999999999999999,83.15279764449816
6.784,0.9999999999999999,83.01244329109002
6.792,0.9999999999999999,82.87199509357504
6.8,0.9999999999999999,82.7314529544633
6.808,1.0,82.59081677649088
6.816,0.9999999999999999,82.45008646262187
6.824,0.9999999999999999,82.30926191605005
6.832,0.9999999999999999,82.16834304020104
6.84,1.0,82.02732973873407
6.848,0.9999999999999999,81.88622191554398
6.856,1.0,81.74501947476321
6.864,1.0,81.60372232076352
6.872,1.0,81.46233035815824
6.88,1.0,81.32084349180394
6.888,1.0,81.17926162680259
6.896,0.999999827462635,81.03758466850334
6.904,0.9999996415618474,80.89581252250467
6.912,0.999999455863292,80.75394509465623
6.92,0.9999992704450213,80.61198229106081
6.928,0.9999990853841054,80.46992401807644
6.936,0.9999989007566336,80.32777018231822
6.944,0.9999987166377158,80.1855206906604
6.952,0.9999985331014878,80.04317545023838
6.96,0.9999983502211114,79.90073436845068
6.968,0.9999981680687778,79.75819735296093
6.976,0.9999979867157113,79.61556431169988
6.984,0.9999978062321697,79.47283515286749
6.992,0.9999976266874487,79.33000978493482
7.0,0.999997448149885,79.18708811664617
7.008,0.9999972706868564,79.04407005702102
7.016,0.9999970943647873,78.90095551535613
7.024,0.9999969192491506,78.75774440122754
7.032,0.9999967454044696,78.61443662449261
7.04,0.9999965728943213,78.47103209529209
7.048,0.9999964017813399,78.32753072405215
7.056,0.9999962321272186,78.18393242148645
7.064,0.9999960639927129,78.04023709859815
7.072,0.9999958974376438,77.89644466668211
7.08,0.9999957325208998,77.75255503732676
7.088,0.9999955693004408,77.60856812241639
7.096,0.9999954078332998,77.46448383413302
7.104,0.9999952481755877,77.32030208495866
7.112,0.9999950903824941,77.17602278767728
7.12,0.999994934508292,77.03164585537696
7.128,0.99999478060634,76.88717120145198
7.136,0.9999946287290847,76.74259873960487
7.144,0.9999944789280656,76.59792838384861
7.152,0.9999943312539169,76.45316004850864
7.16,0.99999418575637,76.30829364822503
7.168,0.9999940424842582,76.16332909795462
7.176,0.9999939014855183,76.01826631297305
7.184,0.9999937628071951,75.87310520887699
7.192,0.9999936264954438,75.7278457015862
7.2,0.9999934925955327,75.58248770734572
7.208,0.9999933611518476,75.43703114272795
7.216,0.9999932322078944,75.29147592463482
7.224,0.9999931058063017,75.14582197029996
7.232,0.9999929819888261,75.00006919729081
7.24,0.9999928607963529,74.85421752351078
7.248,0.9999927422689011,74.70826686720149
7.256,0.9999926264456266,74.56221714694476
7.264,0.9999925133648248,74.41606828166495
7.272,0.9999924030639346,74.26982019063107
7.28,0.9999922955795418,74.12347279345884
7.288,0.999992190947382,73.97702601011315
7.296,0.9999920892023445,73.8304797609099
7.304,0.9999919903784759,73.6838339665184
7.312,0.9999918945089825,73.53708854796356
7.32,0.9999918016262359,73.39024342662796
7.328,0.9999917117617735,73.24329852425412
7.336,0.9999916249463057,73.09625376294673
7.344,0.9999915412097157,72.94910906517478
7.352,0.999991460581066,72.80186435377382
7.36,0.9999913830886007,72.65451955194816
7.368,0.9999913087597486,72.50707458327304
7.376,0.9999912376211288,72.35952937169694
7.384,0.9999911696985521,72.21188384154365
7.392,0.9999911050170256,72.06413791751464
7.4,0.9999910436007574,71.91629152469125
7.4079999999999995,0.9999909854731582,71.76834458853683
7.416,0.9999909306568475,71.62029703489907
7.4239999999999995,0.999990879173655,71.47214879001223
7.432,0.999990831044626,71.32389978049927
7.4399999999999995,0.9999907862900248,71.17554993337433
7.448,0.9999907449293379,71.02709917604459
7.4559999999999995,0.9999907069812786,70.87854743631291
7.464,0.9999906724637911,70.72989464237986
7.4719999999999995,0.9999906413940529,70.58114072284604
7.48,0.9999906137884804,70.43228560671425
7.4879999999999995,0.9999905896627317,70.28332922339193
7.496,0.9999905690317112,70.13427150269315
7.504,0.9999905519095733,69.98511237484121
7.5120000000000005,0.9999905383097263,69.83585177047055
7.52,0.9999905282448363,69.68648962062935
7.5280000000000005,0.9999905217268317,69.53702585678144
7.536,0.9999905187669066,69.387460410809
7.5440000000000005,0.9999905193755257,69.23779321501439
7.552,0.9999905235624276,69.08802420212285
7.5600000000000005,0.9999905313366289,68.93815330528436
7.568,0.9999905427064287,68.78818045807633
7.5760000000000005,0.9999905576794134,68.6381055945055
7.584,0.999990576262459,68.4879286490106
7.5920000000000005,0.9999905984617373,68.33764955646427
7.6,0.999990624282718,68.18726825217566
7.6080000000000005,0.9999906537301755,68.03678467189248
7.616,0.9999906868081906,67.8861987518035
7.6240000000000006,0.9999907235201566,67.73551042854065
7.632,0.9999907638687822,67.58471963918153
7.640000000000001,0.9999908078560966,67.4338263212514
7.648,0.9999908554834543,67.28283041272587
7.656000000000001,0.9999909067515381,67.13173185203284
7.664,0.9999909616603639,66.9805305780551
7.672,0.999991020209286,66.82922653013232
7.68,0.9999910823970004,66.67781964806366
7.688,0.9999911482215496,66.52630987210989
7.696,0.999991217680327,66.37469714299577
7.704,0.9999912907700815,66.22298140191232
7.712,0.9999913674869216,66.07116259051917
7.72,0.99999144782632,65.91924065094676
7.728,0.9999915317831186,65.76721552579889
7.736,0.9999916193515322,65.61508715815472
7.744,0.9999917105251538,65.46285549157136
7.752,0.9999918052969581,65.31052047008599
7.76,0.9999919036593077,65.15808203821827
7.768,0.9999920056039563,65.00554014097267
7.776,0.999992111122053,64.85289472384069
7.784,0.9999922202041494,64.70014573280325
7.792,0.9999923328402004,64.54729311433303
7.8,0.9999924490195728,64.39433681539667
7.808,0.9999925687310474,64.24127678345725
7.816,0.9999926919628241,64.08811296647644
7.824,0.9999928187025279,63.93484531291693
7.832,0.9999929489372111,63.78147377174471
7.84,0.9999930826533615,63.62799829243138
7.848,0.9999932198369039,63.47441882495646
7.856,0.999993360473207,63.320735319809756
7.864,0.9999935045470871,63.166947727993616
7.872,0.9999936520428132,63.01305600102524
7.88,0.9999938029441124,62.859060090939074
7.888,0.9999939572341735,62.704959950289066
7.896,0.9999941148956535,62.550755532150916
7.904,0.9999942759106809,62.39644679012457
7.912,0.9999944402608616,62.242033678336334
7.92,0.9999946079272831,62.0875161514413
7.928,0.9999947788905202,61.93289416462566
7.936,0.9999949531306397,61.77816767360894
7.944,0.9999951306272046,61.62333663464637
7.952,0.99999531135928,61.46840100453119
7.96,0.9999954953054382,61.31336074059691
7.968,0.9999956824437622,61.158215800719645
7.976,0.9999958727518534,61.002966143320485
7.984,0.9999960662068331,60.847611727367614
7.992,0.999996262785351,60.69215251237881
8.0,0.9999964624635882,60.53658845842366
8.008,0.9999966652172625,60.38091952612581
8.016,0.9999968710216345,60.22514567666528
8.024000000000001,0.9999970798515113,60.06926687178087
8.032,0.9999972916812524,59.913283073772334
8.04,0.9999975064847754,59.75719424550264
8.048,0.9999977242355599,59.601000350400305
8.056000000000001,0.9999979449066536,59.44470135246176
8.064,0.9999981684706769,59.288297216253596
8.072,0.9999983948998281,59.13178790691465
8.08,0.9999986241658895,58.975173390158496
8.088000000000001,0.9999988562402317,58.81845363227572
8.096,0.9999990910938187,58.66162860013609
8.104,0.999999328697214,58.50469826119087
8.112,0.9999995690205844,58.347662583475
8.120000000000001,0.999999812033708,58.190521535609534
8.128,0.9999999999999998,58.03327508680381
8.136,1.0,57.875923206857614
8.144,0.9999999999999999,57.718465866163534
8.152000000000001,1.0,57.560903035709224
8.16,1.0,57.403234687079646
8.168,1.0,57.24546079245916
8.176,0.9999999999999999,57.08758132463396
8.184000000000001,0.9999999999999999,56.92959625699424
8.192,1.0,56.771505563536415
8.2,1.0,56.613309218865325
8.208,1.0,56.4550071981964
8.216000000000001,1.0,56.29659947735808
8.224,1.0,56.1380860327939
8.232,1.0,55.97946684156461
8.24,1.0,55.820741881350465
8.248000000000001,1.0,55.661911130453525
8.256,0.9999999999999998,55.50297456779975
8.264,1.0,55.34393217294109
8.272,1.0,55.18478392605781
8.280000000000001,0.9999999999999999,55.0255298079607
8.288,1.0000000000000002,54.86616980009318
8.296,0.9999999999999999,54.706703884533376
8.304,1.0,54.5471320439964
8.312,1.0,54.3874542618366
8.32,0.9999999999999999,54.227670522049436
8.328,1.0,54.06778080927398
8.336,1.0,53.90778510879465
8.344,1.0,53.74768340654376
8.352,1.0,53.587475689103265
8.36,0.9999999999999999,53.42716194370728
8.368,1.0,53.266742158243794
8.376,1.0,53.1062163212571
8.384,1.0,52.945584421949654
8.392,0.9999999999999999,52.78484645018443
8.4,1.0,52.6240023964867
8.408,0.9999999999999999,52.46305225204643
8.416,1.0,52.30199600872008
8.424,1.0,52.14083365903294
8.432,1.0,51.97956519618091
8.44,1.0,51.81819061403282
8.448,1.0,51.65670990713224
8.456,1.0,51.49512307069972
8.464,1.0,51.33343010063465
8.472,0.9999999999999999,51.171630993517475
8.48,1.0,51.009725746611466
8.488,1.0,50.84771435786497
8.496,1.0,50.685596825913215
8.504,1.0,50.52337315008046
8.512,1.0,50.361043330381825
8.52,0.9999999999999999,50.198607367525426
8.528,1.0,50.03606526291416
8.536,1.0,49.87341701864785
8.544,1.0,49.710662637524955
8.552,0.9999999999999998,49.54780212304484
8.56,1.0,49.38483547940932
8.568,1.0,49.22176271152492
8.576,1.0,49.05858382500451
8.584,1.0,48.895298826169466
8.592,0.9999999999999999,48.731907722051254
8.6,1.0,48.56841052039364
8.608,1.0000000000000002,48.404807229654274
8.616,0.9999999999999999,48.24109785900678
8.624,0.9999999999999999,48.077282418342385
8.632,1.0,47.913360918272005
8.64,0.9999999999999999,47.74933337012777
8.648,0.9999999999999999,47.585199785965195
8.656,1.0,47.420960178564634
8.664,1.0,47.25661456143341
8.672,0.9999999999999999,47.09216294880726
8.68,1.0000000000000002,46.92760535565244
8.688,1.0,46.76294179766719
8.696,1.0,46.59817229128378
8.704,1.0,46.43329685366991
8.712,1.0,46.26831550273078
8.72,1.0,46.10322825711052
8.728,1.0,45.938035136194166
8.736,0.9999999999999999,45.772736160108984
8.744,1.0,45.60733134972659
8.752,1.0,45.441820726664226
8.76,1.0,45.27620431328671
8.768,0.9999999999999999,45.1104821327078
8.776,1.0,44.944654208792116
8.784,1.0,44.77872056615647
8.792,0.9999999999999998,44.612681230171724
8.8,0.9999999999999999,44.44653622696411
8.808,1.0,44.280285583417154
8.815999999999999,0.9999999999999999,44.11392932717282
8.824,1.0,43.94746748663335
8.832,1.0,43.78090009096276
8.84,0.9999999999999999,43.61422717008831
8.847999999999999,1.0,43.44744875470196
8.856,1.0,43.28056487626186
8.864,1.0,43.11357556699403
8.872,1.0,42.94648085989359
8.879999999999999,0.9999999999999999,42.77928078872628
8.888,0.9999999999999999,42.61197538802987
8.896,1.0,42.44456469311563
8.904,1.0,42.27704874006978
8.911999999999999,1.0,42.10942756575468
8.92,1.0,41.94170120781029
8.928,1.0,41.773869704655716
8.936,1.0,41.60593309549029
8.943999999999999,1.0,41.437891420294974
8.952,0.9999999999999999,41.26974471983362
8.96,0.9999999999999999,41.10149303565444
8.968,1.0,40.93313641009116
8.975999999999999,0.9999999999999999,40.764674886264174
8.984,1.0,40.596108508081855
8.992,0.9999999999999999,40.42743732024194
9.0,0.9999999999999998,40.25866136823258
9.008,1.0,40.08978069833345
9.016,1.0,39.92079535761704
9.024000000000001,0.9999999999999999,39.751705393949884
9.032,1.0,39.58251085599352
9.04,0.9999999999999999,39.41321179320571
9.048,0.9999999999999999,39.24380825584146
9.056000000000001,1.0,39.07430029495425
9.064,0.9999999999999998,38.904687962397
9.072,0.9999999999999999,38.73497131082306
9.08,1.0000000000000002,38.565150393687254
9.088000000000001,1.0,38.39522526524709
9.096,0.9999999999999999,38.22519598056349
9.104,1.0,38.05506259550186
9.112,0.9999999999999999,37.88482516673298
9.120000000000001,0.9999999999999999,37.71448375173412
9.128,1.0,37.54403840878979
9.136,1.0,37.3734891969926
9.144,0.9999999999999998,37.2028361762442
9.152000000000001,1.0,37.03207940725619
9.16,1.0,36.86121895155089
9.168,1.0,36.6902548714621
9.176,1.0,36.51918723013593
9.184000000000001,1.0,36.34801609153163
9.192,1.0,36.176741520422304
9.2,1.0,36.00536358239554
9.208,0.9999999999999999,35.833882343854214
9.216000000000001,0.9999999999999999,35.66229787201722
9.224,1.0,35.490610234920084
9.232,0.9999999999999999,35.31881950141549
9.24,1.0,35.14692574117404
9.248000000000001,1.0,34.97492902468486
9.256,0.9999999999999999,34.80282942325616
9.264,1.0,34.63062700901567
9.272,0.9999999999999999,34.45832185491125
9.280000000000001,1.0000000000000002,34.285914034711496
9.288,1.0,34.11340362300615
9.296,0.9999999999999999,33.940790695206445
9.304,1.0,33.76807532754569
9.312000000000001,1.0,33.59525759707966
9.32,1.0,33.422337581687074
9.328,1.0,33.24931536006969
9.336,1.0,33.07619101175286
9.344,1.0,32.90296461708598
9.352,0.9999999999999999,32.729636257242404
9.36,1.0,32.55620601422014
9.368,1.0,32.382673970841694
9.376,1.0,32.2090402107547
9.384,0.9999999999999999,32.03530481843173
9.392,1.0,31.861467879170842
9.4,1.0,31.687529479095367
9.408,1.0,31.513489705154345
9.416,0.9999999999999999,31.339348645122364
9.424,1.0,31.165106387599874
9.432,1.0,30.99076302201302
9.44,1.0,30.816318638613847
9.448,0.9999999999999999,30.641773328480134
9.456,1.0,30.4671271835155
9.464,1.0,30.2923802964492
9.472,1.0,30.117532760836244
9.48,1.0,29.94258467105703
9.488,1.0,29.76753612231752
9.496,0.9999999999999999,29.592387210648706
9.504,1.0,29.41713803290677
9.512,1.0,29.241788686772615
9.52,0.9999999999999999,29.066339270751786
9.528,0.9999999999999999,28.890789884174005
9.536,0.9999999999999999,28.715140627193172
9.544,0.9999999999999998,28.53939160078665
9.552,0.9999999999999999,28.36354290675527
9.56,1.0,28.187594647722648
9.568,1.0,28.01154692713503
9.576,0.9999999999999999,27.83539984926059
9.584,1.0,27.65915351918923
9.592,1.0,27.482808042831795
9.6,1.0,27.306363526919835
9.608,1.0,27.12982007900474
9.616,1.0,26.953177807457465
9.624,1.0,26.77643682146759
9.632,0.9999999999999999,26.599597231043
9.64,0.9999999999999998,26.422659147008876
9.648,1.0,26.245622681007305
9.656,0.9999999999999999,26.068487945496244
9.664,1.0,25.89125505374905
9.672,1.0,25.713924119853345
9.68,0.9999999999999999,25.53649525871053
9.688,1.0,25.35896858603461
9.696,1.0,25.181344218351594
9.704,1.0,25.003622272998285
9.712,0.9999999999999999,24.82580286812159
9.72,0.9999999999999999,24.647886122677267
9.728,1.0,24.46987215642922
9.736,0.9999999999999998,24.291761089948082
9.744,1.0,24.113553044610523
9.752,1.0,23.93524814259773
9.76,0.9999999999999999,23.756846506894686
9.768,0.9999999999999999,23.57834826128857
9.776,1.0,23.399753530367917
9.784,1.0,23.22106243952104
9.792,1.0,23.042275114935084
9.8,0.9999999999999999,22.86339168359437
9.808,0.9999999999999999,22.684412273279392
9.816,1.0,22.505337012565125
9.824,1.0,22.32616603081989
9.832,0.9999999999999999,22.146899458203663
9.84,1.0,21.96753742566682
9.847999999999999,0.9999999999999999,21.78808006494845
9.856,0.9999999999999999,21.608527508574824
9.864,0.9999999999999999,21.428879889857967
9.872,1.0,21.249137342893945
9.879999999999999,0.9999999999999999,21.0693000025611
9.888,0.9999999999999999,20.889368004518495
9.896,1.0,20.709341485204234
9.904,1.0000000000000002,20.529220581833634
9.911999999999999,0.9999999999999999,20.349005432397373
9.92,1.0,20.168696175659704
9.928,0.9999999999999998,19.988292951156748
9.936,1.0,19.807795899194392
9.943999999999999,1.0,19.627205160846415
9.952,1.0,19.44652087795248
9.96,1.0,19.265743193116297
9.968,1.0,19.084872249703434
9.975999999999999,0.9999999999999999,18.9039081918392
9.984,1.0,18.722851164406578
9.992,1.0,18.541701313044175
10.0,1.0,18.36045878414397
10.008,1.0,18.179123724848928
10.016,1.0,17.997696283050917
10.024000000000001,1.0,17.816176607388414
10.032,0.9999999999999999,17.634564847244125
10.04,0.9999999999999999,17.4528611527425
10.048,0.9999999999999998,17.271065674747422
10.056000000000001,0.9999999999999998,17.08917856485981
10.064,1.0,16.907199975415082
10.072,1.0,16.725130059480517
10.08,0.9999999999999999,16.542968970852773
10.088000000000001,1.0,16.360716864055366
10.096,1.0,16.178373894335945
10.104,1.0,15.995940217663515
10.112,1.0,15.813415990725835
10.120000000000001,1.0,15.630801370926662
10.128,1.0,15.448096516382952
10.136,0.9999999999999999,15.265301585921884
10.144,0.9999999999999999,15.082416739078088
10.152000000000001,1.0,14.899442136090757
10.16,0.9999999999999999,14.716377937900692
10.168,1.0,14.533224306147149
10.176,1.0,14.3499814031649
10.184000000000001,1.0,14.166649391981235
10.192,1.0,13.983228436312775
10.2,1.0,13.799718700562194
10.208,1.0,13.616120349815139
