freq,mag,phase
6.0,1.0,32.58979454914912
6.008,1.0,32.35664283944621
6.016,1.0,32.123392329212756
6.024,1.0,31.890043285643536
6.032,1.0,31.65659597740279
6.04,1.0,31.423050674623443
6.048,1.0,31.189407648906176
6.056,1.0000000000000002,30.95566717331864
6.064,1.0,30.721829522394373
6.072,1.0,30.487894972131873
6.08,0.99999929899354,30.253863799993407
6.088,0.9999984867132582,30.01973628490402
6.096,0.9999976904573495,29.78551270725023
6.104,0.9999969100545645,29.55119334887881
6.112,0.9999961453344712,29.31677849309548
6.12,0.9999953961274576,29.08226842466356
6.128,0.9999946622647368,28.84766342980249
6.136,0.9999939435783466,28.61296379618646
6.144,0.9999932399011551,28.378169812942723
6.152,0.9999925510668624,28.143281770650095
6.16,0.9999918769100038,27.90829996133727
6.168,0.9999912172659521,27.673224678481116
6.176,0.9999905719709211,27.43805621700486
6.184,0.9999899408619679,27.202794873276297
6.192,0.9999893237769948,26.96744094510587
6.2,0.9999887205547537,26.73199473174471
6.208,0.999988131034847,26.49645653388266
6.216,0.9999875550577314,26.260826653646166
6.224,0.9999869924647196,26.02510539459613
6.232,0.9999864430979829,25.78929306172578
6.24,0.9999859068005545,25.553389961458326
6.248,0.9999853834163313,25.317396401644725
6.256,0.9999848727900746,25.081312691561262
6.264,0.9999843747674161,24.845139141907143
6.272,0.999983889194857,24.608876064801944
6.28,0.9999834159197719,24.37252377378312
6.288,0.9999829547904101,24.136082583803354
6.296,0.9999825056558985,23.89955281122786
6.304,0.9999820683662433,23.66293477383169
6.312,0.9999816427723317,23.426228790796856
6.32,0.9999812287259354,23.189435182709577
6.328,0.9999808260797107,22.952554271557247
6.336,0.9999804346872023,22.715586380725462
6.344,0.9999800544028437,22.47853183499507
6.352,0.9999796850819598,22.241390960538936
6.36,0.9999793265807683,22.004164084918838
6.368,0.999978978756383,21.766851537082204
6.376,0.999978641466813,21.529453647358853
6.384,0.9999783145709668,21.291970747457576
6.392,0.999977997928652,21.054403170462784
6.4,0.9999776914005792,20.816751250830947
6.408,0.999977394848361,20.579015324387143
6.416,0.9999771081345155,20.341195728321342
6.424,0.9999768311224666,20.103292801184832
6.432,0.9999765636765466,19.865306882886433
6.44,0.9999763056619961,19.627238314688697
6.448,0.9999760569449669,19.389087439204083
6.456,0.9999758173925223,19.150854600391025
6.464,0.9999755868726384,18.912540143549908
6.472,0.9999753652542062,18.674144415319102
6.48,0.9999751524070314,18.435667763670775
6.4879999999999995,0.999974948201837,18.197110537906802
6.496,0.9999747525102632,17.958473088654355
6.504,0.999974565204869,17.719755767861948
6.5120000000000005,0.9999743861591336,17.480958928794625
6.52,0.9999742152474558,17.242082926030008
6.5280000000000005,0.9999740523451566,17.00312811545337
6.536,0.9999738973284801,16.764094854253507
6.5440000000000005,0.999973750074592,16.524983500917696
6.552,0.9999736104615832,16.285794415227482
6.5600000000000005,0.9999734783684688,16.04652795825347
6.568,0.9999733536751897,15.807184492351016
6.5760000000000005,0.999973236262612,15.567764381154857
6.584,0.999973126012529,15.32826798957469
6.592,0.9999730228076606,15.088695683789734
6.6,0.9999729265316546,14.849047831244025
6.608,0.9999728370690865,14.609324800641128
6.616,0.9999727543054604,14.369526961939009
6.624,0.9999726781272084,14.129654686344804
6.632,0.9999726084216926,13.889708346309519
6.64,0.9999725450772035,13.649688315522663
6.648,0.999972487982961,13.409594968906854
6.656,0.9999724370291152,13.16942868261229
6.664,0.9999723921067447,12.929189834011257
6.672,0.9999723531078588,12.688878801692477
6.68,0.9999723199253957,12.448495965455466
6.688,0.9999722924532234,12.208041706304801
6.696,0.9999722705861397,11.96751640644432
6.704,0.9999722542198712,11.726920449271283
6.712,0.9999722432510739,11.486254219370444
6.72,0.9999722375773323,11.245518102508083
6.728,0.9999722370971601,11.004712485625975
6.736,0.9999722417099984,10.763837756835272
6.744,0.9999722513162167,10.522894305410386
6.752,0.9999722658171117,10.281882521782727
6.76,0.9999722851149064,10.04080279753445
6.768,0.9999723091127513,9.799655525392113
6.776,0.999972337714721,9.558441099220275
6.784,0.9999723708258165,9.317159914015033
6.792,0.9999724083519624,9.075812365897507
6.8,0.999972450200007,8.834398852107272
6.808,0.9999724962777217,8.59291977099569
6.816,0.9999725464937992,8.351375522019262
6.824,0.9999726007578538,8.109766505732823
6.832,0.9999726589804198,7.868093123782744
6.84,0.9999727210729498,7.626355778900082
6.848,0.9999727869478159,7.384554874893597
6.856,0.9999728565183063,7.142690816642813
6.864,0.9999729296986241,6.90076401009094
6.872,0.9999730064038888,6.658774862237769
6.88,0.9999730865501317,6.416723781132517
6.888,0.9999731700542975,6.174611175866594
6.896,0.9999732568342397,5.932437456566337
6.904,0.999973346808723,5.690203034385662
6.912,0.9999734398974185,5.447908321498674
6.92,0.9999735360209053,5.2055537310922135
6.928,0.999973635100665,4.9631396773583685
6.936,0.9999737370590841,4.720666575486886
6.944,0.9999738418194501,4.4781348416575755
6.952,0.9999739493059504,4.235544893032619
6.96,0.99997405944367,3.9928971477488604
6.968,0.9999741721585914,3.7501920249100036
6.976,0.9999742873775902,3.507429944578783
6.984,0.9999744050284348,3.264611327769082
6.992,0.9999745250397849,3.021736596437954
7.0,0.9999746473411882,2.778806173477653
7.008,0.999974771863079,2.5358204827075723
7.016,0.9999748985367763,2.292779948866127
7.024,0.9999750272944811,2.0496849976025944
7.032,0.9999751580692746,1.8065360554689058
7.04,0.9999752907951159,1.5633335499113874
7.048,0.9999754254068393,1.3200779092624328
7.056,0.9999755618401531,1.0767695627321254
7.064,0.9999757000316356,0.8334089403998354
7.072,0.9999758399187341,0.5899964732057403
7.08,0.9999759814397623,0.34653259294230904
7.088,0.9999761245338952,0.10301773224570021
7.096,0.999976269141171,-0.14054767541282034
7.104,0.999976415202484,-0.3841631957355715
7.112,0.9999765626595861,-0.6278283936071871
7.12,0.99997671145508,-0.8715428331033787
7.128,0.9999768615324192,-1.1153060774997465
7.136,0.9999770128359046,-1.3591176892806625
7.144,0.9999771653106806,-1.6029772301481784
7.152,0.9999773189027337,-1.8468842610309906
7.16,0.9999774735588884,-2.0908383420934458
7.168,0.9999776292268042,-2.3348390327446067
7.176,0.9999777858549739,-2.578885891647353
7.184,0.999977943392718,-2.822978476727527
7.192,0.9999781017901844,-3.0671163451831194
7.2,0.9999782609983434,-3.311299053493539
7.208,0.9999784209689843,-3.55552615742887
7.216,0.9999785816547131,-3.7997972120592163
7.224,0.9999787430089486,-4.04411177176404
7.232,0.9999789049859197,-4.288469390241649
7.24,0.9999790675406608,-4.532869620518582
7.248,0.9999792306290081,-4.777312014959159
7.256,0.9999793942075988,-5.0217961252750065
7.264,0.9999795582338641,-5.266321502534629
7.272,0.9999797226660274,-5.510887697173082
7.28,0.9999798874631011,-5.755494259001595
7.288,0.999980052584881,-6.000140737217289
7.296,0.9999802179919444,-6.244826680412958
7.304,0.9999803836456445,-6.489551636586824
7.312,0.9999805495081096,-6.734315153152363
7.32,0.9999807155422353,-6.979116776948182
7.328,0.9999808817116834,-7.223956054247947
7.336,0.9999810479808766,-7.4688325307702685
7.344,0.9999812143149956,-7.713745751688734
7.352,0.9999813806799737,-7.958695261641892
7.36,0.9999815470424932,-8.20368060474333
7.368,0.9999817133699819,-8.448701324591719
7.376,0.9999818796306084,-8.693756964280988
7.384,0.9999820457932772,-8.938847066410469
7.392,0.9999822118276256,-9.183971173095022
7.4,0.9999823777040187,-9.429128825975377
7.4079999999999995,0.9999825433935452,-9.674319566228288
7.416,0.9999827088680132,-9.919542934576963
7.4239999999999995,0.9999828740999456,-10.164798471301115
7.432,0.9999830390625742,-10.41008571624773
7.4399999999999995,0.999983203729839,-10.655404208840954
7.448,0.9999833680763788,-10.900753488093075
7.4559999999999995,0.9999835320775302,-11.146133092614383
7.464,0.9999836957093217,-11.391542560624202
7.4719999999999995,0.9999838589484679,-11.636981429960903
7.48,0.9999840217723673,-11.882449238092875
7.4879999999999995,0.9999841841590954,-12.127945522128684
7.496,0.9999843460874004,-12.373469818828083
7.504,0.9999845075366989,-12.619021664612168
7.5120000000000005,0.9999846684870701,-12.864600595574506
7.52,0.9999848289192518,-13.110206147491356
7.5280000000000005,0.9999849888146356,-13.355837855832752
7.536,0.9999851481552601,-13.601495255772859
7.5440000000000005,0.9999853069238076,-13.847177882201118
7.552,0.9999854651035986,-14.09288526973257
7.5600000000000005,0.9999856226785868,-14.338616952719093
7.568,0.9999857796333531,-14.584372465259799
7.5760000000000005,0.9999859359531011,-14.830151341212279
7.584,0.9999860916236519,-15.075953114203019
7.5920000000000005,0.9999862466314388,-15.321777317638766
7.6,0.9999864009635016,-15.56762348471692
7.6080000000000005,0.9999865546074813,-15.81349114843695
7.616,0.9999867075516153,-16.059379841610845
7.6240000000000006,0.9999868597847313,-16.30528909687454
7.632,0.9999870112962425,-16.551218446698456
7.640000000000001,0.9999871620761409,-16.797167423398896
7.648,0.9999873121149934,-17.04313555914864
7.656000000000001,0.9999874614039346,-17.28912238598842
7.664,0.9999876099346631,-17.53512743583747
7.672,0.9999877576994332,-17.781150240505077
7.68,0.9999879046910516,-18.027190331701252
7.688,0.999988050902871,-18.273247241048033
7.696,0.9999881963287838,-18.5193205000905
7.704,0.9999883409632166,-18.7654096403079
7.712,0.9999884848011245,-19.01151419312479
7.72,0.9999886278379851,-19.257633689922148
7.728,0.9999887700697925,-19.503767662048524
7.736,0.9999889114930521,-19.74991564083118
7.744,0.9999890521047731,-19.996077157587273
7.752,0.9999891919024642,-20.24225174363503
7.76,0.9999893308841263,-20.488438930304905
7.768,0.9999894690482476,-20.734638248950787
7.776,0.9999896063937953,-20.980849230961216
7.784,0.9999897429202127,-21.227071407770524
7.792,0.9999898786274096,-21.47330431087011
7.8,0.9999900135157591,-21.719547471819627
7.808,0.9999901475860885,-21.96580042225819
7.816,0.9999902808396759,-22.21206269391562
7.824,0.9999904132782412,-22.45833381862366
7.832,0.9999905449039412,-22.704613328327202
7.84,0.9999906757193635,-22.95090075509554
7.848,0.9999908057275189,-23.197195631133567
7.856,0.9999909349318348,-23.443497488793057
7.864,0.9999910633361514,-23.689805860583842
7.872,0.9999911909447109,-23.9361202791851
7.88,0.9999913177621542,-24.18244027745658
7.888,0.9999914437935129,-24.428765388449783
7.896,0.9999915690442033,-24.67509514541929
7.904,0.9999916935200183,-24.921429081833896
7.912,0.9999918172271228,-25.16776673138787
7.92,0.9999919401720445,-25.414107628012204
7.928,0.9999920623616697,-25.660451305885783
7.936,0.9999921838032334,-25.906797299446634
7.944,0.9999923045043156,-26.15314514340311
7.952,0.9999924244728317,-26.39949437274508
7.96,0.999992543717027,-26.64584452275516
7.968,0.9999926622454692,-26.892195129019843
7.976,0.9999927800670413,-27.138545727440736
7.984,0.9999928971909343,-27.384895854245688
7.992,0.999993013626641,-27.631245045999933
8.0,0.9999931293839471,-27.877592839617286
8.008,0.9999932444729257,-28.123938772371208
8.016,0.9999933589039286,-28.370282381906097
8.024000000000001,0.99999347268758,-28.616623206248157
8.032,0.9999935858347684,-28.862960783816582
8.04,0.9999936983566391,-29.10929465343484
8.048,0.999993810264588,-29.35562435434155
8.056000000000001,0.999993921570252,-29.601949426201482
8.064,0.9999940322855025,-29.848269409116728
8.072,0.9999941424224388,-30.094583843637768
8.08,0.9999942519933778,-30.340892270774436
8.088000000000001,0.9999943610108493,-30.58719423200678
8.096,0.9999944694875849,-30.833489269296134
8.104,0.999994577436513,-31.079776925096237
8.112,0.9999946848707493,-31.326056742363996
8.120000000000001,0.999994791803589,-31.572328264570327
8.128,0.9999948982484996,-31.81859103571122
8.136,0.9999950042191112,-32.064844600318615
8.144,0.99999510972921,-32.311088503471225
8.152000000000001,0.9999952147927286,-32.557322290805246
8.16,0.9999953194237383,-32.80354550852528
8.168,0.9999954236364412,-33.049757703415246
8.176,0.9999955274451607,-33.295958422849026
8.184000000000001,0.9999956308643336,-33.54214721480108
8.192,0.999995733908502,-33.78832362785731
8.2,0.9999958365923028,-34.034487211225816
8.208,0.9999959389304601,-34.280637514747504
8.216000000000001,0.9999960409377773,-34.52677408890657
8.224,0.9999961426291258,-34.77289648484121
8.232,0.9999962440194382,-35.01900425435442
8.24,0.9999963451236971,-35.26509694992427
8.248000000000001,0.9999964459569278,-35.51117412471448
8.256,0.9999965465341873,-35.757235332584905
8.264,0.9999966468705561,-36.003280128102205
8.272,0.9999967469811276,-36.24930806655009
8.280000000000001,0.9999968468809992,-36.49531870393966
8.288,0.999996946585262,-36.74131159701987
8.296,0.999997046108991,-36.987286303288016
8.304,0.9999971454672354,-37.233242380999826
8.312,0.9999972446750082,-37.47917938917972
8.32,0.9999973437472753,-37.72509688763127
8.328,0.9999974426989464,-37.970994436947066
8.336,0.9999975415448636,-38.21687159851933
8.344,0.9999976402997898,-38.46272793454954
8.352,0.9999977389783998,-38.70856300805899
8.36,0.9999978375952681,-38.95437638289843
8.368,0.999997936164857,-39.2001676237585
8.376,0.9999980347015074,-39.445936296179276
8.384,0.9999981332194249,-39.691681966560644
8.392,0.999998231732669,-39.937404202171805
8.4,0.9999983302551423,-40.18310257116152
8.408,0.9999984288005771,-40.428776642567534
8.416,0.9999985273825226,-40.674425986326774
8.424,0.9999986260143344,-40.920050173284665
8.432,0.9999987247091596,-41.165648775205256
8.44,0.9999988234799249,-41.41122136478045
8.448,0.9999989223393242,-41.65676751564007
8.456,0.9999990212998027,-41.902286802360955
8.464,0.9999991203735459,-42.14777880047692
8.472,0.9999992195724651,-42.3932430864879
8.48,0.9999993189081805,-42.63867923786967
8.488,0.9999994183920108,-42.88408683308294
8.496,0.999999518034955,-43.12946545158306
8.504,0.9999996178476798,-43.37481467382893
8.512,0.9999997178405016,-43.620134081292655
8.52,0.9999998180233733,-43.86542325646831
8.528,0.9999999184058664,-44.11068178288167
8.536,0.9999999999999999,-44.35590924509869
8.544,0.9999999999999999,-44.60110522873513
8.552,0.9999999999999999,-44.84626932046515
8.56,1.0,-45.09140110803064
8.568,1.0,-45.336500180249764
8.576,1.0,-45.5815661270263
8.584,1.0,-45.82659853935797
8.592,1.0,-46.071597009345645
8.6,1.0,-46.316561130201684
8.608,1.0,-46.56149049625905
8.616,1.0,-46.80638470297946
8.624,1.0,-47.0512433469624
8.632,1.0,-47.29606602595333
8.64,0.9999999999999999,-47.5408523388524
8.648,1.0,-47.78560188572263
8.656,0.9999999999999999,-48.0303142677986
8.664,0.9999999999999998,-48.27498908749444
8.672,1.0,-48.519625948412454
8.68,1.0000000000000002,-48.764224455350984
8.688,0.9999999999999999,-49.008784214313
8.696,1.0,-49.25330483251379
8.704,1.0000000000000002,-49.49778591838949
8.712,0.9999999999999999,-49.74222708160471
8.72,1.0,-49.98662793306087
8.728,1.0,-50.23098808490385
8.736,1.0,-50.47530715053217
8.744,1.0,-50.71958474460449
8.752,1.0,-50.96382048304778
8.76,1.0,-51.20801398306479
8.768,0.9999999999999998,-51.45216486314201
8.776,1.0,-51.696272743057015
8.784,1.0,-51.94033724388653
8.792,1.0,-52.18435798801356
8.8,1.0,-52.4283345991354
8.808,0.9999999999999999,-52.672266702270655
8.815999999999999,1.0,-52.91615392376721
8.824,0.9999999999999998,-53.159995891309386
8.832,0.9999999999999999,-53.40379223392541
8.84,1.0,-53.647542581994706
8.847999999999999,0.9999999999999999,-53.89124656725552
8.856,0.9999999999999999,-54.13490382281214
8.864,0.9999999999999999,-54.37851398314197
8.872,1.0,-54.6220766841031
8.879999999999999,1.0,-54.86559156294156
8.888,1.0,-55.10905825829854
8.896,1.0,-55.35247641021762
8.904,1.0,-55.59584566015195
8.911999999999999,1.0,-55.83916565097176
8.92,0.9999999999999999,-56.0824360269715
8.928,0.9999999999999998,-56.3256564338769
8.936,1.0,-56.568826518852546
8.943999999999999,1.0,-56.81194593050911
8.952,1.0,-57.055014318910715
8.96,1.0,-57.298031335582145
8.968,0.9999999999999999,-57.54099663351639
8.975999999999999,1.0,-57.783909867182224
8.984,1.0000000000000002,-58.02677069253154
8.992,1.0,-58.26957876700702
9.0,1.0,-58.51233374954977
9.008,1.0,-58.7550353006072
9.016,1.0,-58.99768308214082
9.024000000000001,1.0,-59.24027675763417
9.032,0.9999999999999999,-59.48281599210088
9.04,1.0,-59.72530045209313
9.048,0.9999999999999999,-59.96772980570991
9.056000000000001,0.9999999999999999,-60.21010372260544
9.064,0.9999999999999999,-60.452421873998134
9.072,0.9999999999999999,-60.69468393267952
9.08,1.0000000000000002,-60.93688957302345
9.088000000000001,0.9999999999999999,-61.179038470995366
9.096,1.0,-61.42113030416208
9.104,0.9999999999999999,-61.66316475170196
9.112,0.9999999999999999,-61.90514149441503
9.120000000000001,1.0,-62.147060214733614
9.128,1.0,-62.38892059673345
9.136,0.9999999999999999,-62.630722326145225
9.144,1.0,-62.87246509036636
9.152000000000001,1.0,-63.11414857847328
9.16,1.0,-63.35577248123436
9.168,1.0,-63.597336491123556
9.176,1.0000000000000002,-63.83884030233422
9.184000000000001,1.0,-64.08028361079374
9.192,0.9999999999999999,-64.32166611417898
9.2,1.0,-64.56298751193255
9.208,1.0,-64.80424750527959
9.216000000000001,1.0,-65.04544579724546
9.224,0.9999999999999999,-65.28658209267456
9.232,1.0,-65.52765609825015
9.24,0.9999999999999999,-65.76866752251495
9.248000000000001,0.9999999999999999,-66.00961607589302
9.256,1.0,-66.25050147071296
9.264,1.0,-66.49132342123237
9.272,1.0,-66.73208164366366
9.280000000000001,1.0,-66.9727758562012
9.288,0.9999999999999999,-67.21340577905022
9.296,1.0,-67.45397113445763
9.304,0.9999999999999999,-67.69447164674415
9.312000000000001,0.9999999999999999,-67.93490704233847
9.32,0.9999999999999999,-68.17527704981373
9.328,1.0,-68.415581399926
9.336,1.0,-68.65581982565487
9.344,1.0,-68.89599206224652
9.352,1.0,-69.13609784725969
9.36,1.0,-69.37613692061363
9.368,1.0,-69.61610902463984
9.376,0.9999999999999999,-69.85601390413579
9.384,0.9999999999999999,-70.0958513064227
9.392,1.0,-70.33562098140585
9.4,1.0,-70.57532268163902
9.408,1.0,-70.81495616239187
9.416,1.0,-71.05452118172175
9.424,1.0,-71.29401750054878
9.432,0.9999999999999999,-71.53344488273552
9.44,0.9999999999999999,-71.77280309517032
9.448,0.9999999999999999,-72.01209190785546
9.456,1.0,-72.25131109399915
9.464,1.0,-72.49046043011248
9.472,0.9999999999999999,-72.72953969611041
9.48,0.9999999999999999,-72.96854867541796
9.488,1.0,-73.2074871550801
9.496,0.9999999999999999,-73.44635492587703
9.504,1.0,-73.68515178244292
9.512,1.0,-73.92387752338973
9.52,1.0,-74.16253195143429
9.528,1.0,-74.40111487352968
9.536,0.9999999999999999,-74.63962610099928
9.544,1.0,-74.87806544967415
9.552,1.0,-75.11643274003207
9.56,1.0,-75.3547277973385
9.568,1.0,-75.59295045178742
9.576,0.9999999999999999,-75.8311005386424
9.584,0.9999999999999999,-76.06917789837514
9.592,0.9999995690437853,-76.30718237680148
9.6,0.99999898036606,-76.545113825212
9.608,0.999998365971221,-76.78297210049654
9.616,0.9999977253739414,-77.02075706525923
9.624,0.9999970581232148,-77.25846858792318
9.632,0.999996363807978,-77.49610654282044
9.64,0.9999956420631784,-77.7336708102662
9.648,0.9999948925762886,-77.97116127661211
9.656,0.9999941150942752,-78.208577834277
9.664,0.9999933094310112,-78.44592038174956
9.672,0.9999924754751309,-78.68318882356056
9.68,0.9999916131983018,-78.92038307021849
9.688,0.9999907226638901,-79.1575030381059
9.696,0.9999898040359798,-79.39454864932982
9.704,0.9999888575886997,-79.63151983152345
9.712,0.9999878837157905,-79.86841651759183
9.72,0.9999868829403411,-80.10523864539903
9.728,0.9999858559245985,-80.34198615738973
9.736,0.9999848034797459,-80.5786590001428
9.744,0.9999837265755207,-80.81525712385086
9.752,0.9999826263495354,-81.05178048172384
9.76,0.999981504116136,-81.28822902931229
9.768,0.9999803613746233,-81.52460272375002
9.776,0.9999791998166473,-81.76090152291363
9.784,0.9999780213325634,-81.99712538450127
