freq,mag,phase
6.0,0.9999911257930892,-109.62389242557352
6.008,0.9999951792672158,-109.9825693974714
6.016,0.9999990327094355,-110.3408887369588
6.024,1.0,-110.69885147911941
6.032,0.9999999999999999,-111.05645867248622
6.04,0.9999999999999999,-111.4137113788874
6.048,1.0,-111.77061067329296
6.056,1.0,-112.12715764366257
6.064,0.9999999999999999,-112.48335339079392
6.072,1.0,-112.83919902817244
6.08,0.9999999999999999,-113.1946956818217
6.088,0.9999999999999999,-113.5498444901548
6.096,1.0,-113.90464660382675
6.104,1.0,-114.25910318558785
6.112,0.9999999999999999,-114.61321541013801
6.12,0.9999999999999999,-114.96698446398202
6.128,1.0,-115.32041154528585
6.136,1.0,-115.67349786373391
6.144,1.0,-116.02624464038743
6.152,0.9999999999999999,-116.3786531075437
6.16,1.0,-116.73072450859627
6.168,1.0,-117.0824600978965
6.176,1.0,-117.43386114061576
6.184,1.0,-117.78492891260879
6.192,1.0,-118.13566470027818
6.2,0.9999999999999999,-118.48606980043975
6.208,1.0,-118.83614552018912
6.216,1.0,-119.18589317676913
6.224,0.9999999999999999,-119.53531409743844
6.232,0.9999999999999998,-119.88440961934123
6.24,1.0,-120.23318108937767
6.248,1.0,-120.58162986407582
6.256,1.0,-120.92975730946445
6.264,1.0,-121.27756480094654
6.272,1.0000000000000002,-121.62505372317457
6.28,0.9999999999999999,-121.97222546992619
6.288,0.9999999999999999,-122.31908144398139
6.296,0.9999999999999999,-122.66562305700037
6.304,1.0,-123.01185172940296
6.312,1.0,-123.35776889024852
6.32,0.9999999999999998,-123.70337597711732
6.328,0.9999999999999998,-124.0486744359929
6.336,1.0,-124.39366572114537
6.344,1.0,-124.7383512950158
6.352,1.0,-125.08273262810191
6.36,1.0,-125.42681119884436
6.368,1.0,-125.77058849351451
6.376,0.9999999999999999,-126.11406600610314
6.384,0.9999999999999999,-126.45724523821002
6.392,0.9999999999999999,-126.80012769893483
6.4,1.0,-127.14271490476882
6.408,1.0,-127.48500837948787
6.416,0.9999999999999999,-127.82700965404634
6.424,1.0,-128.16872026647187
6.432,0.9999999999999999,-128.51014176176176
6.44,1.0,-128.85127569177962
6.448,0.9999999999999999,-129.19212361515372
6.456,0.9999999999999999,-129.532687097176
6.464,1.0000000000000002,-129.87296770970215
6.472,1.0,-130.212967031053
6.48,0.9999999999999999,-130.55268664591654
6.4879999999999995,0.9999999999999999,-130.89212814525112
6.496,1.0,-131.23129312618988
6.504,1.0,-131.57018319194566
6.5120000000000005,0.9999999999999999,-131.9087999517177
6.52,1.0,-132.24714502059834
6.5280000000000005,0.9999999999999999,-132.58522001948194
6.536,1.0,-132.92302657497348
6.5440000000000005,0.9999999999999999,-133.2605663192993
6.552,0.9999994186544008,-133.59784089021792
6.5600000000000005,0.9999977779893208,-133.9348519309328
6.568,0.9999961343984586,-134.2716010900048
6.5760000000000005,0.9999944891468387,-134.60809002126706
6.584,0.9999928434655555,-134.94432038373947
6.592,0.9999911985522278,-135.2802938415455
6.6,0.9999895555714534,-135.6160120638285
6.608,0.9999879156552576,-135.95147672467013
6.616,0.9999862799035424,-136.28668950300926
6.624,0.9999846493845311,-136.6216520825618
6.632,0.9999830251352111,-136.95636615174146
6.64,0.9999814081617727,-137.2908334035816
6.648,0.9999797994400469,-137.62505553565794
6.656,0.9999781999159393,-137.95903425001197
6.664,0.9999766105058608,-138.29277125307564
6.672,0.9999750320971575,-138.62626825559678
6.68,0.9999734655485347,-138.95952697256516
6.688,0.9999719116904803,-139.29254912314008
6.696,0.9999703713256853,-139.62533643057816
6.704,0.9999688452294601,-139.9578906221624
6.712,0.9999673341501479,-140.29021342913225
6.72,0.9999658388095375,-140.62230658661397
6.728,0.9999643599032693,-140.9541718335525
6.736,0.9999628981012415,-141.2858109126438
6.744,0.9999614540480127,-141.6172255702683
6.752,0.9999600283631997,-141.94841755642472
6.76,0.9999586216418743,-142.27938862466547
6.768,0.9999572344549568,-142.61014053203218
6.776,0.9999558673496044,-142.94067503899242
6.784,0.9999545208495992,-143.2709939093772
6.792,0.9999531954557326,-143.60109891031928
6.8,0.9999518916461845,-143.93099181219213
6.808,0.9999506098769024,-144.26067438854994
6.816,0.9999493505819752,-144.5901484160682
6.824,0.9999481141740048,-144.9194156744852
6.832,0.9999469010444749,-145.2484779465444
6.84,0.9999457115641156,-145.57733701793717
6.848,0.999944546083267,-145.90599467724684
6.856,0.9999434049322358,-146.234452715893
6.864,0.9999422884216538,-146.56271292807713
6.872,0.9999411968428297,-146.89077711072824
6.88,0.9999401304680988,-147.21864706344982
6.888,0.9999390895511694,-147.54632458846754
6.896,0.9999380743274673,-147.87381149057714
6.904,0.999937085014475,-148.2011095770936
6.912,0.9999361218120704,-148.52822065780074
6.92,0.9999351849028592,-148.85514654490163
6.928,0.9999342744525078,-149.18188905296955
6.936,0.9999333906100709,-149.5084499988998
6.944,0.9999325335083153,-149.83483120186222
6.952,0.999931703264043,-150.1610344832541
6.96,0.9999308999784092,-150.48706166665426
6.968,0.9999301237372383,-150.81291457777712
6.976,0.9999293746113367,-151.13859504442814
6.984,0.9999286526568022,-151.46410489645936
6.992,0.9999279579153297,-151.78944596572583
7.0,0.9999272904145162,-152.11462008604272
7.008,0.9999266501681596,-152.43962909314286
7.016,0.9999260371765569,-152.764474824635
7.024,0.9999254514267986,-153.08915911996286
7.032,0.9999248928930595,-153.4136838203644
7.04,0.9999243615368872,-153.73805076883218
7.048,0.9999238573074882,-154.06226181007366
7.056,0.9999233801420087,-154.38631879047279
7.064,0.999922929965815,-154.71022355805175
7.072,0.9999225066927702,-155.03397796243337
7.08,0.9999221102255063,-155.35758385480412
7.088,0.9999217404556957,-155.68104308787758
7.096,0.9999213972643187,-156.0043575158587
7.104,0.9999210805219283,-156.32752899440814
7.112,0.9999207900889109,-156.65055938060783
7.12,0.9999205258157465,-156.97345053292636
7.128,0.9999202875432629,-157.2962043111853
7.136,0.9999200751028914,-157.618822576526
7.144,0.9999198883169147,-157.94130719137672
7.152,0.9999197269987157,-158.2636600194205
7.16,0.9999195909530202,-158.5858829255634
7.168,0.9999194799761421,-158.90797777590313
7.176,0.9999193938562182,-159.22994643769835
7.184,0.9999193323734481,-159.55179077933838
7.192,0.9999192953003249,-159.87351267031326
7.2,0.9999192824018669,-160.19511398118456
7.208,0.9999192934358466,-160.51659658355624
7.216,0.9999193281530141,-160.8379623500463
7.224,0.9999193862973202,-161.15921315425877
7.232,0.9999194676061369,-161.48035087075607
7.24,0.9999195718104729,-161.8013773750318
7.248,0.9999196986351905,-162.12229454348406
7.256,0.9999198477992146,-162.44310425338907
7.264,0.999920019015745,-162.76380838287528
7.272,0.9999202119924593,-163.08440881089786
7.28,0.9999204264317201,-163.40490741721342
7.288,0.9999206620307743,-163.7253060823556
7.296,0.9999209184819534,-164.04560668761025
7.304,0.9999211954728687,-164.36581111499189
7.312,0.9999214926866054,-164.68592124721974
7.32,0.9999218098019129,-165.0059389676947
7.328,0.999922146493396,-165.3258661604764
7.336,0.9999225024316984,-165.64570471026047
7.344,0.9999228772836876,-165.96545650235663
7.352,0.9999232707126363,-166.28512342266654
7.36,0.9999236823784007,-166.60470735766245
7.368,0.9999241119375979,-166.92421019436583
7.376,0.9999245590437786,-167.24363382032655
7.384,0.9999250233476004,-167.5629801236023
7.392,0.9999255044969949,-167.88225099273822
7.4,0.9999260021373371,-168.201448316747
7.4079999999999995,0.999926515911608,-168.520573985089
7.416,0.9999270454605578,-168.8396298876531
7.4239999999999995,0.9999275904228658,-169.15861791473725
7.432,0.9999281504352981,-169.47753995703
7.4399999999999995,0.9999287251328624,-169.79639790559125
7.448,0.9999293141489612,-170.1151936518347
7.4559999999999995,0.9999299171155452,-170.43392908750906
7.464,0.9999305336632572,-170.7526061046808
7.4719999999999995,0.9999311634215834,-171.07122659571584
7.48,0.9999318060189942,-171.38979245326303
7.4879999999999995,0.9999324610830883,-171.70830557023612
7.496,0.9999331282407331,-172.0267678397977
7.504,0.9999338071181997,-172.34518115534163
7.5120000000000005,0.9999344973413018,-172.66354741047743
7.52,0.9999351985355271,-172.98186849901307
7.5280000000000005,0.999935910326171,-173.30014631493978
7.536,0.9999366323384637,-173.6183827524153
7.5440000000000005,0.9999373641976985,-173.93657970574893
7.552,0.9999381055293584,-174.25473906938524
7.5600000000000005,0.9999388559592371,-174.57286273788947
7.568,0.9999396151135629,-174.8909526059316
7.5760000000000005,0.999940382619115,-175.2090105682719
7.584,0.9999411581033442,-175.5270385197456
7.5920000000000005,0.9999419411944853,-175.8450383552485
7.6,0.9999427315216731,-176.16301196972208
7.6080000000000005,0.9999435287150512,-176.4809612581393
7.616,0.999944332405885,-176.79888811549
7.6240000000000006,0.9999451422266652,-177.11679443676712
7.632,0.999945957811218,-177.434682116952
7.640000000000001,0.9999467787948052,-177.75255305100106
7.648,0.9999476048142295,-178.07040913383142
7.656000000000001,0.9999484355079324,-178.38825226030755
7.664,0.9999492705160937,-178.70608432522718
7.672,0.9999501094807279,-179.02390722330819
7.68,0.9999509520457799,-179.34172284917474
7.688,0.9999517978572153,-179.65953309734402
7.696,0.9999526465631161,-179.97733986221283
7.704,0.9999534978137656,179.70485496195553
7.712,0.9999543512617398,179.38704948104467
7.72,0.9999552065619915,179.06924180109823
7.728,0.9999560633719354,178.75143002833283
7.736,0.9999569213515302,178.43361226915144
7.744,0.9999577801633611,178.11578663015615
7.752,0.9999586394727169,177.79795121816124
7.76,0.99995949894767,177.48010414020627
7.768,0.99996035825915,177.16224350356887
7.776,0.9999612170810213,176.84436741577784
7.784,0.9999620750901527,176.52647398462594
7.792,0.9999629319664904,176.20856131818297
7.8,0.9999637873931285,175.89062752480856
7.808,0.9999646410563743,175.57267071316522
7.816,0.9999654926458174,175.25468899223128
7.824,0.9999663418543937,174.93668047131382
7.832,0.9999671883784487,174.61864326006167
7.84,0.9999680319178001,174.3005754684786
7.848,0.9999688721757974,173.9824752069362
7.856,0.999969708859382,173.66434058618705
7.864,0.9999705416791431,173.34616971737802
7.872,0.9999713703493756,173.0279607120633
7.88,0.9999721945881326,172.70971168221777
7.888,0.9999730141172805,172.39142074025042
7.896,0.9999738286625491,172.07308599901756
7.904,0.9999746379535837,171.75470557183658
7.912,0.9999754417239911,171.43627757249934
7.92,0.9999762397113903,171.11780011528586
7.928,0.9999770316574572,170.79927131497817
7.936,0.9999778173079674,170.48068928687405
7.944,0.9999785964128443,170.1620521468011
7.952,0.9999793687261954,169.8433580111307
7.96,0.9999801340063579,169.52460499679242
7.968,0.9999808920159354,169.20579122128805
7.976,0.9999816425218362,168.88691480270623
7.984,0.9999823852953107,168.5679738597369
7.992,0.999983120111987,168.2489665116862
8.0,0.999983846751904,167.92989087849116
8.008,0.9999845649995457,167.61074508073483
8.016,0.9999852746438715,167.29152723966115
8.024000000000001,0.9999859754783481,166.97223547719074
8.032,0.9999866673009771,166.65286791593618
8.04,0.9999873499143238,166.33342267921745
8.048,0.9999880231255444,166.01389789107805
8.056000000000001,0.9999886867464101,165.69429167630096
8.064,0.9999893405933329,165.37460216042496
8.072,0.999989984487388,165.0548274697607
8.08,0.9999906182543356,164.73496573140764
8.088000000000001,0.999991241724642,164.4150150732708
8.096,0.9999918547334999,164.0949736240778
8.104,0.9999924571208448,163.77483951339585
8.112,0.9999930487313746,163.4546108716495
8.120000000000001,0.9999936294145648,163.1342858301384
8.128,0.9999941990246837,162.813862521055
8.136,0.9999947574208063,162.49333907750278
8.144,0.9999953044668273,162.1727136335146
8.152000000000001,0.999995840031473,161.85198432407168
8.16,0.9999963639883114,161.53114928512224
8.168,0.9999968762157624,161.2102066536006
8.176,0.9999973765971071,160.88915456744687
8.184000000000001,0.9999978650204929,160.5679911656266
8.192,0.9999983413789423,160.24671458815087
8.2,0.9999988055703577,159.9253229760962
8.208,0.9999992574975252,159.60381447162553
8.216000000000001,0.999999697068118,159.28218721800903
8.224,1.0,158.9604393596452
8.232,0.9999999999999999,158.6385690420822
8.24,1.0,158.31657441203984
8.248000000000001,1.0,157.9944536174317
8.256,1.0,157.6722048073876
8.264,1.0,157.349826132276
8.272,1.0,157.02731574372746
8.280000000000001,1.0,156.704671794658
8.288,1.0,156.38189243929295
8.296,1.0,156.05897583319077
8.304,1.0,155.7359201332678
8.312,1.0,155.41272349782315
8.32,1.0,155.08938408656368
8.328,0.9999999999999999,154.76590006062992
8.336,1.0,154.44226958262158
8.344,0.9999999999999999,154.11849081662442
8.352,1.0,153.79456192823656
8.36,1.0,153.47048108459597
8.368,0.9999999999999999,153.14624645440762
8.376,0.9999999999999999,152.82185620797185
8.384,1.0,152.4973085172123
8.392,1.0,152.1726015557052
8.4,1.0,151.84773349870787
8.408,1.0,151.52270252318914
8.416,1.0,151.19750680785867
8.424,1.0,150.8721445331981
8.432,1.0,150.54661388149137
8.44,1.0,150.2209130368567
8.448,0.9999999999999999,149.89504018527788
8.456,1.0,149.5689935146372
8.464,1.0,149.2427712147475
8.472,1.0,148.91637147738624
8.48,0.9999999999999999,148.58979249632833
8.488,1.0,148.26303246738124
8.496,1.0,147.93608958841884
8.504,1.0,147.60896205941745
8.512,1.0,147.28164808249068
8.52,0.9999999999999999,146.9541458619263
8.528,1.0,146.62645360422258
8.536,0.9999999999999999,146.29856951812567
8.544,1.0,145.97049181466713
8.552,1.0,145.6422187072026
8.56,1.0,145.31374841145006
8.568,1.0,144.9850791455297
8.576,0.9999999999999999,144.6562091300033
8.584,1.0,144.3271365879151
8.592,1.0000000000000002,143.9978597448324
8.6,0.9999999999999999,143.66837682888743
8.608,1.0,143.338686070819
8.616,0.9999999999999999,143.00878570401574
8.624,1.0000000000000002,142.67867396455878
8.632,1.0,142.34834909126602
8.64,0.9999999999999999,142.01780932573598
8.648,1.0,141.68705291239354
8.656,0.9999999999999999,141.35607809853462
8.664,1.0,141.02488313437323
8.672,1.0,140.69346627308744
8.68,1.0,140.36182577086748
8.688,1.0,140.02995988696316
8.696,1.0,139.6978668837329
8.704,1.0,139.36554502669262
8.712,1.0,139.03299258456596
8.72,1.0,138.70020782933437
8.728,0.9999999999999999,138.36718903628866
8.736,1.0,138.03393448408036
8.744,1.0,137.70044245477453
8.752,0.9999999999999999,137.36671123390244
8.76,1.0,137.03273911051568
8.768,0.9999998124675171,136.69852437724012
8.776,0.9999994377306798,136.36406533033147
8.784,0.999999055727465,136.02936026973035
8.792,0.9999986666684023,135.69440749911945
8.8,0.9999982707668511,135.35920532597967
8.808,0.9999978682389459,135.02375206164885
8.815999999999999,0.9999974593035429,134.6880460213794
8.824,0.999997044182163,134.35208552439772
8.832,0.9999966230989374,134.01586889396424
8.84,0.9999961962805516,133.67939445743363
8.847999999999999,0.9999957639561872,133.34266054631598
8.856,0.9999953263574655,133.0056654963388
8.864,0.99999488371839,132.66840764750984
8.872,0.9999944362752872,132.3308853441803
8.879999999999999,0.999993984266748,131.99309693510864
8.888,0.9999935279335685,131.6550407735255
8.896,0.9999930675186908,131.3167152171996
8.904,0.9999926032671407,130.97811862850344
8.911999999999999,0.9999921354259692,130.63924937448036
8.92,0.9999916642441892,130.30010582691236
8.928,0.9999911899727155,129.96068636238854
8.936,0.9999907128643012,129.6209893623743
8.943999999999999,0.9999902331734751,129.28101321328097
8.952,0.9999897511564794,128.94075630653674
8.96,0.9999892670712058,128.600217038658
8.968,0.9999887811771311,128.25939381132164
8.975999999999999,0.9999882937352526,127.91828503143762
8.984,0.9999878050080242,127.57688911122284
8.992,0.9999873152592901,127.23520446827581
9.0,0.9999868247542195,126.89322952565153
9.008,0.9999863337592412,126.55096271193747
9.016,0.9999858425419749,126.20840246133038
9.024000000000001,0.9999853513711674,125.8655472137139
9.032,0.9999848605166232,125.52239541473675
9.04,0.999984370249137,125.17894551589161
9.048,0.9999838808404267,124.83519597459511
9.056000000000001,0.9999833925630646,124.49114525426845
9.064,0.9999829056904086,124.14679182441886
9.072,0.9999824204965331,123.8021341607214
9.08,0.9999819372561596,123.45717074510215
9.088000000000001,0.9999814562445879,123.11190006582201
9.096,0.9999809777376252,122.76632061756125
9.104,0.9999805020115154,122.42043090150432
9.112,0.9999800293428702,122.07422942542638
9.120000000000001,0.9999795600085961,121.72771470378014
9.128,0.9999790942858255,121.38088525778346
9.136,0.9999786324518435,121.03373961550754
9.144,0.9999781747840172,120.68627631196634
9.152000000000001,0.9999777215597226,120.33849388920682
9.16,0.9999772730562747,119.99039089639942
9.168,0.9999768295508523,119.64196588992968
9.176,0.9999763913204277,119.2932174334906
9.184000000000001,0.9999759586416926,118.94414409817607
9.192,0.9999755317909854,118.59474446257461
9.2,0.9999751110442178,118.24501711286396
9.208,0.999974696676802,117.89496064290678
9.216000000000001,0.9999742889635762,117.54457365434705
9.224,0.9999738881787318,117.19385475670704
9.232,0.999973494595739,116.842802567485
9.24,0.9999731084872722,116.49141571225393
9.248000000000001,0.9999727301251371,116.1396928247612
9.256,0.9999723597801957,115.78763254702861
9.264,0.9999719977222922,115.43523352945307
9.272,0.999971644220178,115.08249443090865
9.280000000000001,0.9999712995414369,114.72941391884915
9.288,0.9999709639524127,114.37599066941122
9.296,0.9999706377181313,114.02222336751824
9.304,0.9999703211022279,113.66811070698529
9.312000000000001,0.9999700143668729,113.31365139062476
9.32,0.9999697177726944,112.95884413035265
9.328,0.999969431578706,112.60368764729532
9.336,0.9999691560422308,112.24818067189744
9.344,0.9999688914188272,111.89232194403088
9.352,0.999968637962213,111.53611021310327
9.36,0.9999683959241921,111.17954423816866
9.368,0.9999681655545785,110.82262278803769
9.376,0.9999679471011237,110.46534464138958
9.384,0.9999677408094394,110.10770858688366
9.392,0.9999675469229253,109.74971342327291
9.4,0.9999673656826937,109.39135795951681
9.408,0.9999671973274956,109.03264101489634
9.416,0.9999670420936471,108.67356141912825
9.424,0.9999669002149547,108.31411801248127
9.432,0.9999667719226417,107.95430964589197
9.44,0.999966657445275,107.59413518108215
9.448,0.9999665570086923,107.23359349067606
9.456,0.9999664708359272,106.87268345831924
9.464,0.9999663991471375,106.51140397879686
9.472,0.9999663421595334,106.14975395815394
9.48,0.9999663000873023,105.78773231381496
9.488,0.9999662731415402,105.42533797470533
9.496,0.9999662615301766,105.06256988137223
9.504,0.9999662654579051,104.69942698610733
9.512,0.9999662851261114,104.33590825306868
9.52,0.9999663207328019,103.97201265840485
9.528,0.9999663724725343,103.60773919037788
9.536,0.9999664405363471,103.24308684948844
9.544,0.9999665251116888,102.8780546486
9.552,0.9999666263823495,102.51264161306511
9.56,0.9999667445283924,102.14684678085071
9.568,0.9999668797260843,101.78066920266524
9.576,0.999967032147828,101.41410794208511
9.584,0.9999672019620945,101.04716207568293
9.592,0.9999673893333564,100.67983069315476
9.6,0.9999675944220211,100.31211289744935
9.608,0.9999678173843648,99.9440078048964
9.616,0.9999680583724666,99.57551454533666
9.624,0.9999683175341445,99.20663226225099
9.632,0.9999685950128905,98.83736011289142
9.64,0.9999688909478069,98.46769726841096
9.648,0.9999692054735432,98.09764291399549
9.656,0.9999695387202339,97.72719624899429
9.664,0.999969890813437,97.35635648705264
9.672,0.9999702618740719,96.98512285624315
9.68,0.9999706520183602,96.61349459919896
9.688,0.9999710613577651,96.2414709732457
9.696,0.9999714899989333,95.86905125053522
9.704,0.9999719380436364,95.4962347181783
9.712,0.9999724055887128,95.12302067837878
9.72,0.999972892726013,94.7494084485668
9.728,0.9999733995423425,94.37539736153339
9.736,0.9999739261194065,94.00098676556408
9.744,0.9999744725337572,93.62617602457402
9.752,0.9999750388567403,93.25096451824183
9.76,0.999975625154441,92.87535164214503
9.768,0.9999762314876364,92.49933680789425
