freq,mag,phase
6.0,0.9999902738856892,-97.90738202184355
6.008,0.9999836093690986,-98.32019886464764
6.016,0.9999772031199932,-98.73298225030298
6.024,0.9999710502800361,-99.14573123529838
6.032,0.9999651460349025,-99.5584448834775
6.04,0.999959485614356,-99.97112226604519
6.048,0.9999540642923201,-100.3837624615733
6.056,0.9999488773869464,-100.79636455600603
6.064,0.9999439202606715,-101.20892764266475
6.072,0.9999391883202734,-101.62145082225236
6.08,0.999934677016915,-102.03393320285714
6.088,0.9999303818461885,-102.44637389995616
6.096,0.9999262983481492,-102.858772036418
6.104,0.9999224221073438,-103.27112674250546
6.112,0.9999187487528359,-103.68343715587724
6.12,0.9999152739582206,-104.09570242158954
6.128,0.9999119934416365,-104.50792169209694
6.136,0.9999089029657698,-104.9200941272532
6.144,0.9999059983378581,-105.33221889431097
6.152,0.9999032754096778,-105.74429516792166
6.16,0.9999007300775373,-106.15632213013465
6.168,0.9998983582822556,-106.56829897039574
6.176,0.9998961560091421,-106.98022488554565
6.184,0.9998941192879625,-107.39209907981781
6.192,0.9998922441929091,-107.80392076483571
6.2,0.9998905268425579,-108.21568915960978
6.208,0.9998889633998229,-108.62740349053409
6.216,0.9998875500719066,-109.03906299138227
6.224,0.9998862831102407,-109.45066690330339
6.232,0.9998851588104257,-109.8622144748169
6.24,0.999884173512164,-110.27370496180778
6.248,0.9998833235991859,-110.68513762752076
6.256,0.9998826054991726,-111.09651174255443
6.264,0.9998820156836742,-111.50782658485475
6.272,0.9998815506680195,-111.91908143970848
6.28,0.9998812070112254,-112.33027559973561
6.288,0.9998809813158965,-112.74140836488216
6.296,0.9998808702281237,-113.15247904241198
6.304,0.9998808704373754,-113.56348694689846
6.312,0.9998809786763859,-113.9744314002158
6.32,0.9998811917210362,-114.38531173152994
6.328,0.9998815063902348,-114.79612727728879
6.336,0.9998819195457843,-115.2068773812128
6.344,0.9998824280922586,-115.61756139428444
6.352,0.9998830289768608,-116.02817867473769
6.36,0.9998837191892842,-116.43872858804703
6.368,0.999884495761568,-116.84921050691628
6.376,0.9998853557679452,-117.2596238112669
6.384,0.9998862963246944,-117.66996788822583
6.392,0.9998873145899762,-118.08024213211343
6.4,0.9998884077636732,-118.49044594443053
6.408,0.9998895730872244,-118.90057873384562
6.416,0.9998908078434543,-119.31063991618144
6.424,0.9998921093563973,-119.7206289144013
6.432,0.9998934749911218,-120.1305451585951
6.44,0.9998949021535453,-120.54038808596503
6.448,0.9998963882902486,-120.95015714081106
6.456,0.9998979308882893,-121.3598517745157
6.464,0.9998995274750032,-121.76947144552915
6.472,0.9999011756178104,-122.17901561935346
6.48,0.9999028729240129,-122.58848376852693
6.4879999999999995,0.9999046170405907,-122.99787537260787
6.496,0.9999064056539947,-123.40718991815811
6.504,0.9999082364899338,-123.81642689872638
6.5120000000000005,0.9999101073131609,-124.22558581483155
6.52,0.9999120159272556,-124.63466617394468
6.5280000000000005,0.9999139601744028,-125.0436674904725
6.536,0.9999159379351676,-125.45258928573861
6.5440000000000005,0.9999179471282698,-125.86143108796612
6.552,0.9999199857103502,-126.27019243225881
6.5600000000000005,0.9999220516757401,-126.67887286058308
6.568,0.9999241430562253,-127.08747192174849
6.5760000000000005,0.9999262579208043,-127.49598917138923
6.584,0.9999283943754481,-127.9044241719443
6.592,0.9999305505628556,-128.31277649263833
6.6,0.9999327246622061,-128.72104570946155
6.608,0.9999349148889087,-129.12923140514968
6.616,0.9999371194943506,-129.5373331691638
6.624,0.9999393367656434,-129.94535059766966
6.632,0.9999415650253624,-130.3532832935171
6.64,0.9999438026312907,-130.76113086621916
6.648,0.9999460479761547,-131.16889293193054
6.656,0.9999482994873614,-131.57656911342667
6.664,0.9999505556267305,-131.98415904008178
6.672,0.999952814890229,-132.39166234784724
6.68,0.9999550758076966,-132.7990786792297
6.688,0.9999573369425775,-133.20640768326848
6.696,0.9999595968916433,-133.61364901551372
6.704,0.9999618542847166,-134.0208023380034
6.712,0.9999641077843955,-134.42786731924076
6.72,0.9999663560857721,-134.83484363417134
6.728,0.9999685979161512,-135.24173096415976
6.736,0.9999708320347674,-135.64852899696655
6.744,0.9999730572325013,-136.05523742672463
6.752,0.9999752723315926,-136.4618559539157
6.76,0.9999774761853535,-136.86838428534634
6.768,0.9999796676778782,-137.27482213412424
6.776,0.9999818457237546,-137.68116921963383
6.784,0.999984009267773,-138.08742526751234
6.792,0.9999861572846314,-138.49359000962497
6.8,0.9999882887786428,-138.89966318404075
6.808,0.999990402783442,-139.30564453500747
6.816,0.9999924983616876,-139.7115338129271
6.824,0.9999945746047649,-140.11733077433055
6.832,0.9999966306324904,-140.52303518185286
6.84,0.9999986655928119,-140.92864680420763
6.848,0.9999999999999999,-141.33416541616185
6.856,0.9999999999999999,-141.73959079851042
6.864,1.0,-142.14492273805027
6.872,1.0,-142.55016102755496
6.88,1.0,-142.9553054657486
6.888,1.0,-143.36035585728007
6.896,0.9999999999999999,-143.76531201269665
6.904,1.0,-144.17017374841828
6.912,0.9999999999999999,-144.57494088671083
6.92,0.9999999999999999,-144.97961325566013
6.928,1.0,-145.3841906891452
6.936,1.0,-145.78867302681198
6.944,1.0,-146.1930601140463
6.952,0.9999999999999999,-146.59735180194753
6.96,0.9999999999999999,-147.00154794730153
6.968,1.0,-147.40564841255383
6.976,1.0,-147.80965306578273
6.984,1.0,-148.21356178067202
6.992,0.9999999999999999,-148.61737443648414
7.0,1.0,-149.02109091803285
7.008,1.0,-149.42471111565592
7.016,1.0,-149.82823492518796
7.024,1.0,-150.23166224793286
7.032,1.0,-150.63499299063656
7.04,1.0,-151.03822706545947
7.048,1.0,-151.44136438994877
7.056,0.9999999999999999,-151.84440488701102
7.064,1.0,-152.24734848488455
7.072,0.9999999999999999,-152.65019511711156
7.08,0.9999999999999999,-153.05294472251052
7.088,1.0,-153.45559724514837
7.096,1.0,-153.85815263431283
7.104,1.0,-154.26061084448432
7.112,1.0,-154.66297183530835
7.12,0.9999999999999999,-155.0652355715674
7.128,1.0,-155.46740202315306
7.136,1.0,-155.86947116503816
7.144,0.9999999999999999,-156.27144297724868
7.152,1.0,-156.67331744483576
7.16,1.0,-157.07509455784765
7.168,1.0,-157.4767743113019
7.176,1.0,-157.87835670515688
7.184,1.0,-158.27984174428414
7.192,1.0,-158.68122943844008
7.2,1.0,-159.08251980223795
7.208,1.0,-159.48371285511976
7.216,0.9999999999999999,-159.88480862132815
7.224,1.0,-160.28580712987835
7.232,0.9999999999999999,-160.68670841453
7.24,1.0,-161.08751251375912
7.248,1.0,-161.4882194707301
7.256,0.9999999999999999,-161.88882933326732
7.264,1.0,-162.28934215382753
7.272,0.9999999999999998,-162.68975798947125
7.28,1.0,-163.09007690183518
7.288,1.0,-163.4902989571038
7.296,0.9999999999999999,-163.89042422598166
7.304,1.0,-164.29045278366516
7.312,1.0,-164.69038470981442
7.32,1.0000000000000002,-165.09022008852574
7.328,1.0000000000000002,-165.4899590083032
7.336,0.9999999999999999,-165.88960156203098
7.344,0.9999999999999999,-166.28914784694535
7.352,1.0,-166.68859796460683
7.36,0.9999999999999999,-167.08795202087234
7.368,1.0,-167.48721012586734
7.376,1.0,-167.88637239395806
7.384,1.0,-168.28543894372365
7.392,0.9999999999999999,-168.68440989792865
7.4,0.9999999999999999,-169.08328538349508
7.4079999999999995,1.0,-169.4820655314749
7.416,0.9999999999999998,-169.88075047702233
7.4239999999999995,1.0,-170.27934035936633
7.432,0.9999999999999999,-170.67783532178302
7.4399999999999995,1.0,-171.07623551156803
7.448,0.9999999999999999,-171.47454108000946
7.4559999999999995,1.0,-171.87275218235987
7.464,0.9999999999999999,-172.2708689778095
7.4719999999999995,1.0,-172.66889162945836
7.48,1.0,-173.06682030428962
7.4879999999999995,1.0,-173.46465517314164
7.496,0.9999999999999999,-173.86239641068153
7.504,0.9999999999999999,-174.26004419537722
7.5120000000000005,1.0,-174.6575987094713
7.52,0.9999999999999999,-175.05506013895297
7.5280000000000005,0.9999999999999999,-175.45242867353213
7.536,0.9999999999999999,-175.8497045066114
7.5440000000000005,1.0,-176.2468878352602
7.552,1.0,-176.64397886018722
7.5600000000000005,0.9999999999999999,-177.0409777857142
7.568,0.9999999999999999,-177.43788481974872
7.5760000000000005,0.9999999999999999,-177.83470017375814
7.584,1.0000000000000002,-178.23142406274238
7.5920000000000005,1.0,-178.62805670520814
7.6,1.0000000000000002,-179.02459832314162
7.6080000000000005,1.0000000000000002,-179.42104914198296
7.616,1.0,-179.81740939059907
7.6240000000000006,0.9999999999999999,179.78632069874172
7.632,0.9999999999999999,179.39014089039685
7.640000000000001,1.0,178.99405094537477
7.648,0.9999999999999999,178.59805062136178
7.656000000000001,1.0,178.20213967274728
7.664,0.9999999999999999,177.8063178506506
7.672,1.0,177.41058490294594
7.68,1.0,177.01494057428894
7.688,1.0,176.61938460614198
7.696,1.0,176.22391673680002
7.704,1.0,175.8285367014162
7.712,1.0,175.43324423202733
7.72,1.0,175.03803905757934
7.728,1.0,174.64292090395276
7.736,1.0,174.247889493988
7.744,0.9999999999999999,173.85294454751053
7.752,1.0,173.4580857813562
7.76,1.0,173.06331290939625
7.768,0.9999999999999999,172.66862564256232
7.776,1.0,172.27402368887158
7.784,0.9999999999999999,171.8795067534514
7.792,0.9999999999999999,171.48507453856436
7.8,1.0,171.0907267436328
7.808,1.0,170.6964630652638
7.816,0.9999999999999999,170.30228319727337
7.824,0.9999999999999999,169.9081868307114
7.832,0.9999999999999999,169.51417365388562
7.84,1.0,169.12024335238652
7.848,0.9999999999999998,168.72639560911128
7.856,0.9999999999999999,168.33263010428803
7.864,0.9999999999999999,167.93894651550013
7.872,0.9999999999999999,167.54534451771022
7.88,0.9999999999999999,167.1518237832841
7.888,1.0,166.75838398201478
7.896,1.0,166.3650247811463
7.904,1.0,165.97174584539746
7.912,1.0,165.5785468369855
7.92,0.9999999999999999,165.18542741564988
7.928,0.9999999999999998,164.79238723867567
7.936,1.0,164.399425960917
7.944,0.9999999999999999,164.00654323482064
7.952,1.0,163.61373871044913
7.96,0.9999999999999999,163.22101203550412
7.968,1.0,162.8283628553495
7.976,1.0,162.43579081303454
7.984,1.0,162.0432955493169
7.992,0.9999999999999999,161.6508767026855
8.0,1.0,161.25853390938352
8.008,0.999998991941603,160.86626680343102
8.016,0.9999979857937783,160.47407501664773
8.024000000000001,0.9999969876180745,160.0819581786759
8.032,0.9999959978070073,159.6899159170026
8.04,0.999995016747954,159.29794785698223
8.048,0.999994044823079,158.90605362185894
8.056000000000001,0.9999930824092622,158.5142328327893
8.064,0.9999921298780279,158.12248510886417
8.072,0.999991187595478,157.73081006713105
8.08,0.9999902559222246,157.339207322616
8.088000000000001,0.9999893352133278,156.94767648834625
8.096,0.9999884258182321,156.55621717537167
8.104,0.9999875280807077,156.1648289927867
8.112,0.9999866423387914,155.77351154775235
8.120000000000001,0.9999857689247325,155.38226444551796
8.128,0.9999849081649367,154.99108728944287
8.136,0.9999840603799163,154.59997968101786
8.144,0.9999832258842387,154.20894121988684
8.152000000000001,0.9999824049864792,153.8179715038684
8.16,0.999981597989175,153.4270701289772
8.168,0.9999808051887804,153.0362366894449
8.176,0.9999800268756251,152.64547077774196
8.184000000000001,0.999979263333874,152.25477198459856
8.192,0.9999785148414889,151.86413989902587
8.2,0.9999777816701909,151.47357410833675
8.208,0.9999770640854274,151.083074198167
8.216000000000001,0.9999763623463388,150.69263975249638
8.224,0.9999756767057262,150.3022703536693
8.232,0.9999750074100245,149.91196558241543
8.24,0.9999743546992735,149.5217250178706
8.248000000000001,0.9999737188070931,149.13154823759749
8.256,0.9999730999606596,148.74143481760618
8.264,0.9999724983806838,148.35138433237435
8.272,0.9999719142813905,147.96139635486801
8.280000000000001,0.9999713478705015,147.57147045656197
8.288,0.9999707993492161,147.18160620745994
8.296,0.9999702689122,146.79180317611463
8.304,0.9999697567475684,146.40206092964814
8.312,0.999969263036878,146.0123790337723
8.32,0.9999687879551145,145.622757052808
8.328,0.9999683316706852,145.2331945497061
8.336,0.9999678943454138,144.84369108606634
8.344,0.9999674761345335,144.45424622215825
8.352,0.9999670771866859,144.0648595169399
8.36,0.9999666976439179,143.67553052807855
8.368,0.9999663376416819,143.28625881196953
8.376,0.9999659973088385,142.89704392375657
8.384,0.9999656767676582,142.50788541735062
8.392,0.9999653761338274,142.11878284545003
8.4,0.9999650955164536,141.7297357595594
8.408,0.9999648350180741,141.3407437100094
8.416,0.9999645947346647,140.9518062459756
8.424,0.9999643747556505,140.56292291549832
8.432,0.999964175163919,140.17409326550106
8.44,0.9999639960358327,139.78531684181053
8.448,0.9999638374412452,139.39659318917475
8.456,0.9999636994435168,139.00792185128296
8.464,0.9999635820995343,138.61930237078383
8.472,0.9999634854597279,138.23073428930505
8.48,0.999963409568095,137.84221714747147
8.488,0.9999633544622201,137.4537504849246
8.496,0.999963320173299,137.06533384034068
8.504,0.9999633067261646,136.67696675145
8.512,0.9999633141393116,136.2886487550549
8.52,0.9999633424249256,135.90037938704896
8.528,0.9999633915889108,135.51215818243486
8.536,0.9999634616309205,135.12398467534362
8.544,0.999963552544389,134.73585839905212
8.552,0.9999636643165628,134.34777888600243
8.56,0.9999637969285361,133.9597456678193
8.568,0.999963950355285,133.57175827532902
8.576,0.9999641245657044,133.18381623857704
8.584,0.9999643195226436,132.79591908684685
8.592,0.9999645351829483,132.4080663486774
8.6,0.9999647714974962,132.02025755188177
8.608,0.9999650284112418,131.6324922235645
8.616,0.9999653058632554,131.24476989014047
8.624,0.9999656037867687,130.85709007735176
8.632,0.9999659221092168,130.46945231028647
8.64,0.9999662607522852,130.08185611339587
8.648,0.9999666196319548,129.6943010105127
8.656,0.9999669986585504,129.3067865248684
8.664,0.9999673977367887,128.9193121791112
8.672,0.9999678167658267,128.53187749532347
8.68,0.999968255639314,128.14448199503974
8.688,0.9999687142454424,127.75712519926358
8.696,0.9999691924669993,127.36980662848589
8.704,0.9999696901814207,126.98252580270157
8.712,0.9999702072608443,126.59528224142777
8.72,0.9999707435721671,126.20807546372043
8.728,0.9999712989770986,125.82090498819245
8.736,0.9999718733322193,125.43377033303018
8.744,0.9999724664890379,125.0466710160114
8.752,0.9999730782940498,124.65960655452184
8.76,0.9999737085887972,124.27257646557314
8.768,0.9999743572099278,123.88558026581914
8.776,0.9999750239892573,123.49861747157367
8.784,0.9999757087538306,123.11168759882713
8.792,0.9999764113259835,122.72479016326386
8.8,0.9999771315234073,122.33792468027875
8.808,0.9999778691592125,121.95109066499458
8.815999999999999,0.9999786240419927,121.56428763227855
8.824,0.9999793959758907,121.17751509675924
8.832,0.9999801847606643,120.79077257284372
8.84,0.9999809901917533,120.40405957473403
8.847999999999999,0.999981812060347,120.01737561644389
8.856,0.9999826501534513,119.63072021181549
8.864,0.9999835042539588,119.24409287453645
8.872,0.9999843741407168,118.85749311815613
8.879999999999999,0.999985259588598,118.47092045610219
8.888,0.9999861603685699,118.08437440169726
8.896,0.9999870762477672,117.69785446817579
8.904,0.9999880069895616,117.31136016870015
8.911999999999999,0.9999889523536357,116.92489101637706
8.92,0.9999899120960535,116.53844652427428
8.928,0.9999908859693346,116.15202620543695
8.936,0.9999918737225282,115.76562957290405
8.943999999999999,0.9999928751012853,115.37925613972432
8.952,0.9999938898479349,114.99290541897292
8.96,0.9999949177015577,114.60657692376778
8.968,0.9999959583980608,114.22027016728568
8.975999999999999,0.9999970116702553,113.83398466277828
8.984,0.9999980772479307,113.4477199235885
8.992,0.999999154857931,113.06147546316676
9.0,1.0,112.67525079508701
9.008,0.9999999999999999,112.28904543306255
9.016,1.0,111.90285889096239
9.024000000000001,1.0,111.51669068282722
9.032,0.9999999999999999,111.13054032288547
9.04,0.9999999999999998,110.7444073255689
9.048,1.0,110.35829120552883
9.056000000000001,1.0,109.97219147765219
9.064,1.0,109.58610765707715
9.072,1.0,109.20003925920886
9.08,0.9999999999999998,108.81398579973542
9.088000000000001,0.9999999999999999,108.4279467946438
9.096,1.0,108.0419217602355
9.104,0.9999999999999999,107.65591021314198
9.112,0.9999999999999999,107.26991167034072
9.120000000000001,1.0,106.88392564917083
9.128,0.9999999999999999,106.49795166734874
9.136,1.0,106.11198924298351
9.144,1.0,105.72603789459258
9.152000000000001,0.9999999999999999,105.34009714111761
9.16,0.9999999999999999,104.95416650193974
9.168,0.9999999999999999,104.56824549689496
9.176,0.9999999999999999,104.18233364628976
9.184000000000001,1.0,103.79643047091675
9.192,1.0,103.4105354920699
9.2,0.9999999999999999,103.02464823155978
9.208,1.0,102.63876821172907
9.216000000000001,0.9999999999999999,102.25289495546815
9.224,1.0,101.86702798623014
9.232,0.9999999999999999,101.48116682804609
9.24,1.0,101.09531100554032
9.248000000000001,1.0,100.70946004394607
9.256,0.9999999999999999,100.32361346912015
9.264,1.0,99.93777080755828
9.272,0.9999999999999999,99.55193158641029
9.280000000000001,1.0,99.16609533349538
9.288,0.9999999999999999,98.78026157731715
9.296,1.0,98.3944298470784
9.304,0.9999999999999999,98.00859967269642
9.312000000000001,1.0,97.62277058481816
9.32,1.0,97.23694211483502
9.328,1.0,96.85111379489773
9.336,1.0,96.46528515793135
9.344,0.9999999999999999,96.07945573765055
9.352,0.9999999999999999,95.69362506857381
9.36,0.9999999999999998,95.30779268603901
9.368,1.0,94.92195812621756
9.376,1.0,94.5361209261299
9.384,0.9999999999999999,94.15028062365957
9.392,0.9999999999999999,93.76443675756869
9.4,0.9999999999999999,93.37858886751197
9.408,1.0,92.99273649405201
9.416,0.9999999999999999,92.60687917867348
9.424,1.0,92.22101646379821
9.432,1.0,91.83514789279928
9.44,0.9999999999999999,91.44927301001628
9.448,1.0,91.06339136076902
9.456,1.0000000000000002,90.67750249137295
9.464,0.9999999999999999,90.29160594915277
9.472,1.0,89.90570128245781
9.48,1.0,89.51978804067556
9.488,1.0,89.1338657742469
9.496,0.9999999999999999,88.74793403467973
9.504,1.0,88.36199237456402
9.512,1.0,87.97604034758551
9.52,0.9999999999999999,87.59007750854053
9.528,0.9999999999999999,87.20410341334974
9.536,1.0,86.81811761907294
9.544,1.0,86.4321196839226
9.552,0.9999999999999999,86.04610916727869
9.56,1.0,85.66008562970222
9.568,0.9999999999999999,85.27404863294991
9.576,0.9999999999999999,84.88799773998764
9.584,0.9999999999999999,84.50193251500514
9.592,0.9999999999999999,84.11585252342931
9.6,0.9999999999999999,83.72975733193891
9.608,1.0,83.3436465084778
9.616,0.9999999999999999,82.95751962226947
9.624,0.9999999999999999,82.57137624383029
9.632,0.9999999999999998,82.18521594498401
9.64,0.9999999999999999,81.79903829887485
9.648,1.0000000000000002,81.412842879982
9.656,1.0,81.02662926413258
9.664,1.0,80.64039702851612
9.672,0.9999999999999999,80.25414575169745
9.68,1.0,79.86787501363105
9.688,1.0,79.4815843956739
9.696,1.0,79.09527348059976
9.704,1.0,78.70894185261193
9.712,0.9999999999999999,78.3225890973575
9.72,0.9999999999999999,77.93621480193995
9.728,0.9999999999999999,77.5498185549334
9.736,1.0,77.16339994639512
9.744,0.9999999999999999,76.77695856787956
9.752,1.0,76.39049401245104
9.76,1.0,76.00400587469751
9.768,0.9999999999999999,75.61749375074312
9.776,1.0,75.23095723826209
9.784,1.0,74.84439593649103
9.792,0.9999999999999999,74.45780944624275
9.8,1.0,74.07119736991856
9.808,0.9999999999999998,73.68455931152201
9.816,0.9999999999999999,73.29789487667092
9.824,0.9999999999999999,72.91120367261115
9.832,0.9999999999999999,72.52448530822868
9.84,1.0,72.13773939406303
9.847999999999999,0.9999999999999998,71.7509655423195
9.856,0.9999999999999999,71.36416336688202
9.864,1.0,70.97733248332601
9.872,1.0,70.59047250893079
9.879999999999999,0.9999999999999999,70.20358306269199
9.888,1.0,69.81666376533418
9.896,0.9999999999999998,69.42971423932349
9.904,0.9999999999999999,69.04273410887981
9.911999999999999,1.0,68.65572299998905
