freq,mag,phase
6.0,0.9999984264672003,-140.1676409213214
6.008,0.9999977698820608,-140.51266477389728
6.016,0.9999971265501653,-140.8572622609173
6.024,0.9999964963080231,-141.20143683052822
6.032,0.9999958789935007,-141.54519193347866
6.04,0.999995274445818,-141.88853102298998
6.048,0.9999946825055432,-142.23145755462969
6.056,0.9999941030145906,-142.57397498618803
6.064,0.9999935358162145,-142.91608677755733
6.072,0.9999929807550045,-143.25779639061417
6.08,0.9999924376768841,-143.59910728910452
6.088,0.9999919064291023,-143.94002293853129
6.096,0.99999138686023,-144.28054680604512
6.104,0.9999908788201558,-144.62068236033718
6.112,0.9999903821600801,-144.96043307153548
6.12,0.9999898967325107,-145.29980241110295
6.128,0.9999894223912553,-145.63879385173885
6.136,0.99998895899142,-145.97741086728226
6.144,0.9999885063894011,-146.3156569326183
6.152,0.999988064442877,-146.65353552358692
6.16,0.9999876330108092,-146.99105011689394
6.168,0.9999872119534301,-147.32820419002476
6.176,0.9999868011322417,-147.66500122116017
6.184,0.999986400410005,-148.00144468909514
6.192,0.9999860096507397,-148.33753807315907
6.2,0.9999856287197114,-148.67328485313925
6.208,0.9999852574834316,-149.00868850920588
6.216,0.9999848958096468,-149.3437525218398
6.224,0.9999845435673355,-149.67848037176228
6.232,0.9999842006266997,-150.01287553986683
6.24,0.99998386685916,-150.34694150715364
6.248,0.9999835421373457,-150.68068175466564
6.256,0.9999832263350931,-151.01409976342694
6.264,0.9999829193274347,-151.3471990143832
6.272,0.9999826209905948,-151.67998298834422
6.28,0.9999823312019825,-152.0124551659284
6.288,0.9999820498401826,-152.34461902750914
6.296,0.9999817767849541,-152.67647805316338
6.304,0.9999815119172168,-153.00803572262194
6.312,0.9999812551190492,-153.3392955152217
6.32,0.9999810062736795,-153.67026090985973
6.328,0.9999807652654772,-154.0009353849495
6.336,0.9999805319799514,-154.33132241837822
6.344,0.9999803063037366,-154.66142548746674
6.352,0.9999800881245917,-154.9912480689309
6.36,0.9999798773313889,-155.32079363884432
6.368,0.9999796738141096,-155.65006567260338
6.376,0.9999794774638358,-155.97906764489372
6.384,0.999979288172742,-156.30780302965806
6.392,0.999979105834088,-156.63627530006636
6.4,0.9999789303422151,-156.96448792848665
6.408,0.9999787615925353,-157.29244438645836
6.416,0.9999785994815272,-157.62014814466656
6.424,0.9999784439067222,-157.94760267291804
6.432,0.9999782947667087,-158.27481144011873
6.44,0.9999781519611123,-158.60177791425272
6.448,0.9999780153905988,-158.92850556236274
6.456,0.9999778849568598,-159.25499785053177
6.464,0.9999777605626103,-159.58125824386659
6.472,0.9999776421115781,-159.90729020648223
6.48,0.9999775295084993,-160.23309720148794
6.4879999999999995,0.9999774226591098,-160.55868269097468
6.496,0.9999773214701364,-160.8840501360037
6.504,0.9999772258492936,-161.20920299659616
6.5120000000000005,0.999977135705272,-161.5341447317249
6.52,0.9999770509477361,-161.8588787993062
6.5280000000000005,0.9999769714873112,-162.18340865619413
6.536,0.9999768972355819,-162.50773775817464
6.5440000000000005,0.9999768281050799,-162.83186955996237
6.552,0.9999767640092817,-163.15580751519704
6.5600000000000005,0.999976704862598,-163.47955507644255
6.568,0.9999766505803676,-163.8031156951856
6.5760000000000005,0.9999766010788508,-164.12649282183702
6.584,0.999976556275222,-164.44968990573247
6.592,0.9999765160875638,-164.77271039513596
6.6,0.999976480434857,-165.0955577372428
6.608,0.999976449236976,-165.41823537818465
6.616,0.9999764224146818,-165.74074676303508
6.624,0.9999763998896143,-166.06309533581606
6.632,0.9999763815842846,-166.38528453950573
6.64,0.9999763674220716,-166.7073178160468
6.648,0.9999763573272101,-167.0291986063559
6.656,0.9999763512247869,-167.3509303503339
6.664,0.9999763490407353,-167.6725164868771
6.672,0.9999763507018239,-167.99396045388934
6.68,0.9999763561356545,-168.31526568829452
6.688,0.9999763652706523,-168.63643562605063
6.696,0.9999763780360603,-168.95747370216387
6.704,0.9999763943619332,-169.27838335070416
6.712,0.9999764141791285,-169.5991680048209
6.72,0.9999764374193036,-169.91983109675982
6.728,0.999976464014905,-170.24037605788035
6.736,0.9999764938991651,-170.5608063186737
6.744,0.9999765270060939,-170.88112530878192
6.752,0.9999765632704728,-171.20133645701713
6.76,0.9999766026278482,-171.52144319138185
6.768,0.9999766450145261,-171.84144893908967
6.776,0.9999766903675636,-172.16135712658672
6.784,0.999976738624764,-172.48117117957358
6.792,0.999976789724671,-172.8008945230279
6.8,0.9999768436065606,-173.12053058122757
6.808,0.9999769002104365,-173.44008277777442
6.816,0.9999769594770229,-173.7595545356183
6.824,0.999977021347759,-174.078949277082
6.832,0.9999770857647919,-174.39827042388632
6.84,0.999977152670972,-174.71752139717591
6.848,0.9999772220098453,-175.03670561754532
6.856,0.9999772937256484,-175.3558265050658
6.864,0.9999773677633019,-175.67488747931222
6.872,0.9999774440684053,-175.9938919593905
6.88,0.9999775225872304,-176.31284336396578
6.888,0.9999776032667151,-176.6317451112903
6.896,0.999977686054458,-176.95060061923232
6.904,0.9999777708987143,-177.26941330530502
6.912,0.9999778577483853,-177.58818658669574
6.92,0.999977946553018,-177.9069238802959
6.928,0.9999780372627967,-178.22562860273055
6.936,0.9999781298285376,-178.544304170389
6.944,0.9999782242016827,-178.86295399945521
6.952,0.9999783203342956,-179.18158150593842
6.96,0.9999784181790553,-179.50019010570452
6.968,0.9999785176892505,-179.81878321450705
6.976,0.9999786188187741,179.8626357519813
6.984,0.9999787215221182,179.54406337813674
6.992,0.9999788257543677,179.22549624835293
7.0,0.9999789314711973,178.9069309470085
7.008,0.9999790386288631,178.58836405843527
7.016,0.9999791471842001,178.2697921668855
7.024,0.9999792570946142,177.95121185649978
7.032,0.9999793683180805,177.63261971127423
7.04,0.9999794808131349,177.3140123150279
7.048,0.9999795945388708,176.99538625137
7.056,0.9999797094549334,176.67673810366722
7.064,0.9999798255215145,176.3580644550105
7.072,0.999979942699348,176.03936188818258
7.08,0.9999800609497062,175.72062698562473
7.088,0.9999801802343908,175.40185632940393
7.096,0.9999803005157328,175.08304650117995
7.104,0.999980421756585,174.76419408217248
7.112,0.9999805439203169,174.44529565312808
7.12,0.9999806669708123,174.12634779428765
7.128,0.9999807908724614,173.80734708535337
7.136,0.9999809155901596,173.48829010545626
7.144,0.9999810410892994,173.16917343312352
7.152,0.9999811673357677,172.84999364624608
7.16,0.9999812942959427,172.5307473220463
7.168,0.9999814219366852,172.21143103704563
7.176,0.9999815502253379,171.89204136703282
7.184,0.9999816791297188,171.57257488703183
7.192,0.9999818086181191,171.2530281712704
7.2,0.9999819386592955,170.93339779314823
7.208,0.999982069222468,170.61368032520608
7.216,0.9999822002773158,170.29387233909455
7.224,0.9999823317939723,169.97397040554333
7.232,0.9999824637430211,169.65397109433073
7.24,0.999982596095491,169.33387097425347
7.248,0.9999827288228524,169.0136666130966
7.256,0.9999828618970144,168.69335457760405
7.264,0.9999829952903189,168.3729314334493
7.272,0.999983128975537,168.05239374520622
7.28,0.999983262925866,167.73173807632074
7.288,0.9999833971149235,167.41096098908247
7.296,0.9999835315167456,167.09005904459693
7.304,0.9999836661057812,166.76902880275793
7.312,0.9999838008568893,166.44786682222087
7.32,0.9999839357453342,166.12656966037588
7.328,0.9999840707467827,165.80513387332184
7.336,0.9999842058373001,165.48355601584066
7.344,0.9999843409933443,165.1618326413722
7.352,0.9999844761917661,164.83996030198952
7.36,0.9999846114098024,164.51793554837474
7.368,0.9999847466250732,164.1957549297955
7.376,0.9999848818155789,163.87341499408177
7.384,0.9999850169596951,163.55091228760364
7.392,0.9999851520361713,163.22824335524905
7.4,0.9999852870241249,162.90540474040282
7.4079999999999995,0.9999854219030392,162.5823929849258
7.416,0.9999855566527606,162.2592046291349
7.4239999999999995,0.9999856912534927,161.93583621178382
7.432,0.9999858256857957,161.61228427004406
7.4399999999999995,0.9999859599305805,161.28854533948737
7.448,0.999986093969108,160.964615954068
7.4559999999999995,0.9999862277829826,160.64049264610654
7.464,0.9999863613541529,160.31617194627376
7.4719999999999995,0.9999864946649044,159.9916503835759
7.48,0.9999866276978586,159.6669244853401
7.4879999999999995,0.9999867604359708,159.34199077720132
7.496,0.999986892862523,159.01684578308925
7.504,0.9999870249611255,158.69148602521705
7.5120000000000005,0.99998715671571,158.36590802406988
7.52,0.9999872881105295,158.04010829839544
7.5280000000000005,0.9999874191301529,157.71408336519423
7.536,0.9999875497594622,157.38782973971192
7.5440000000000005,0.999987679983653,157.06134393543167
7.552,0.9999878097882253,156.734622464068
7.5600000000000005,0.9999879391589864,156.4076618355613
7.568,0.9999880680820453,156.08045855807384
7.5760000000000005,0.9999881965438097,155.753009137986
7.584,0.9999883245309831,155.42531007989453
7.5920000000000005,0.9999884520305637,155.09735788661075
7.6,0.99998857902984,154.76914905916124
7.6080000000000005,0.9999887055163882,154.44068009678793
7.616,0.9999888314780688,154.11194749695105
7.6240000000000006,0.9999889569030265,153.78294775533186
7.632,0.999989081779684,153.4536773658375
7.640000000000001,0.9999892060967426,153.1241328206063
7.648,0.9999893298431769,152.79431061001497
7.656000000000001,0.9999894530082334,152.46420722268647
7.664,0.9999895755814279,152.13381914549967
7.672,0.9999896975525433,151.80314286359976
7.68,0.9999898189116256,151.47217486041035
7.688,0.9999899396489828,151.14091161764685
7.696,0.9999900597551823,150.8093496153311
7.704,0.9999901792210466,150.47748533180734
7.712,0.9999902980376536,150.14531524375997
7.72,0.9999904161963319,149.8128358262321
7.728,0.9999905336886602,149.48004355264615
7.736,0.9999906505064631,149.14693489482562
7.744,0.9999907666418093,148.81350632301854
7.752,0.9999908820870108,148.47975430592214
7.76,0.9999909968346179,148.14567531070955
7.768,0.9999911108774194,147.8112658030576
7.776,0.9999912242084384,147.47652224717675
7.784,0.9999913368209308,147.14144110584203
7.792,0.9999914487083834,146.80601884042613
7.8,0.9999915598645108,146.47025191093417
7.808,0.9999916702832546,146.13413677603987
7.816,0.9999917799587786,145.7976698931236
7.824,0.9999918888854704,145.4608477183125
7.832,0.9999919970579356,145.12366670652185
7.84,0.9999921044709973,144.7861233114988
7.848,0.9999922111196947,144.44821398586754
7.856,0.999992316999279,144.10993518117664
7.864,0.9999924221052137,143.77128334794818
7.872,0.99999252643317,143.4322549357288
7.88,0.999992629979027,143.09284639314282
7.888,0.9999927327388684,142.75305416794728
7.896,0.9999928347089801,142.41287470708892
7.904,0.9999929358858503,142.07230445676356
7.912,0.9999930362661642,141.7313398624772
7.92,0.9999931358468055,141.3899773691093
7.928,0.9999932346248516,141.04821342097856
7.936,0.9999933325975742,140.7060444619103
7.944,0.9999934297624347,140.36346693530663
7.952,0.9999935261170843,140.02047728421854
7.96,0.9999936216593611,139.67707195142012
7.968,0.9999937163872888,139.33324737948567
7.976,0.9999938102990746,138.98900001086852
7.984,0.999993903393107,138.64432628798247
7.992,0.9999939956679545,138.29922265328582
8.0,0.9999940871223633,137.95368554936763
8.008,0.9999941777552557,137.60771141903626
8.016,0.9999942675657284,137.2612967054108
8.024000000000001,0.9999943565530506,136.914437852015
8.032,0.9999944447166618,136.5671313028735
8.04,0.9999945320561711,136.21937350261067
8.048,0.999994618571354,135.8711608965523
8.056000000000001,0.9999947042621519,135.5224899308302
8.064,0.9999947891286697,135.17335705248874
8.072,0.9999948731711744,134.82375870959476
8.08,0.9999949563900927,134.47369135134988
8.088000000000001,0.9999950387860101,134.12315142820623
8.096,0.9999951203596693,133.77213539198434
8.104,0.9999952011119675,133.4206396959938
8.112,0.9999952810439551,133.0686607951578
8.120000000000001,0.9999953601568355,132.71619514613965
8.128,0.9999954384519606,132.36323920747296
8.136,0.9999955159308319,132.00978943969398
8.144,0.9999955925950973,131.65584230547785
8.152000000000001,0.9999956684465492,131.30139426977783
8.16,0.9999957434871243,130.94644179996712
8.168,0.9999958177189014,130.5909813659843
8.176,0.9999958911440991,130.2350094404816
8.184000000000001,0.999995963765074,129.87852249897713
8.192,0.9999960355843214,129.52151702000947
8.2,0.9999961066044701,129.163989485296
8.208,0.9999961768282845,128.8059363798946
8.216000000000001,0.9999962462586599,128.44735419236892
8.224,0.9999963148986235,128.08823941495652
8.232,0.9999963827513307,127.72858854374064
8.24,0.9999964498200645,127.36839807882586
8.248000000000001,0.9999965161082345,127.00766452451697
8.256,0.9999965816193745,126.64638438950132
8.264,0.9999966463571408,126.28455418703469
8.272,0.9999967103253116,125.92217043513108
8.280000000000001,0.9999967735277836,125.55922965675633
8.288,0.999996835968574,125.19572838002479
8.296,0.9999968976518141,124.83166313840002
8.304,0.999996958581752,124.46703047089952
8.312,0.9999970187627492,124.10182692230326
8.32,0.9999970781992786,123.73604904336536
8.328,0.9999971368959244,123.3696933910306
8.336,0.9999971948573794,123.00275652865395
8.344,0.9999972520884437,122.63523502622515
8.352,0.9999973085940236,122.26712546059572
8.36,0.99999736437913,121.89842441571176
8.368,0.9999974194488769,121.52912848284913
8.376,0.9999974738084787,121.15923426085418
8.384,0.9999975274632502,120.7887383563872
8.392,0.9999975804186048,120.41763738417153
8.4,0.9999976326800526,120.04592796724519
8.408,0.9999976842531985,119.67360673721832
8.416,0.9999977351437418,119.30067033453355
8.424,0.9999977853574735,118.92711540873168
8.432,0.9999978349002758,118.55293861872077
8.44,0.9999978837781195,118.17813663305049
8.448,0.9999979319970635,117.80270613018976
8.456,0.9999979795632529,117.4266437988101
8.464,0.9999980264829168,117.0499463380719
8.472,0.9999980727623676,116.67261045791673
8.48,0.9999981184079996,116.29463287936244
8.488,0.9999981634262863,115.91601033480471
8.496,0.9999982078237807,115.53673956832107
8.504,0.9999982516071113,115.1568173359813
8.512,0.9999982947829831,114.77624040616104
8.52,0.9999983373581742,114.39500555986109
8.528,0.9999983793395354,114.01310959103036
8.536,0.9999984207339874,113.63054930689451
8.544,0.9999984615485209,113.2473215282881
8.552,0.999998501790193,112.86342308999275
8.56,0.9999985414661277,112.4788508410787
8.568,0.9999985805835127,112.09360164525236
8.576,0.9999986191495994,111.70767238120737
8.584,0.9999986571716988,111.32105994298182
8.592,0.999998694657183,110.93376124031873
8.6,0.9999987316134811,110.54577319903292
8.608,0.9999987680480785,110.15709276138122
8.616,0.9999988039685168,109.76771688643883
8.624,0.9999988393823889,109.37764255047934
8.632,0.9999988742973395,108.98686674736074
8.64,0.9999989087210639,108.59538648891515
8.648,0.9999989426613055,108.2031988053447
8.656,0.9999989761258539,107.81030074562086
8.664,0.9999990091225432,107.41668937789014
8.672,0.9999990416592518,107.02236178988326
8.68,0.999999073743899,106.62731508933057
8.688,0.9999991053844439,106.23154640438106
8.696,0.9999991365888842,105.83505288402755
8.704,0.9999991673652535,105.43783169853542
8.712,0.999999197721621,105.0398800398777
8.72,0.9999992276660883,104.64119512217351
8.728,0.9999992572067891,104.24177418213291
8.736,0.9999992863518857,103.8416144795051
8.744,0.9999993151095693,103.44071329753295
8.752,0.9999993434880571,103.03906794341098
8.76,0.9999993714955898,102.6366757487495
8.768,0.9999993991404322,102.23353407004227
8.776,0.9999994264308688,101.8296402891402
8.784,0.9999994533752038,101.4249918137286
8.792,0.9999994799817586,101.01958607781043
8.8,0.9999995062588698,100.61342054219301
8.808,0.9999995322148887,100.20649269498072
8.815999999999999,0.9999995578581771,99.79880005207112
8.824,0.9999995831971077,99.39034015765651
8.832,0.9999996082400614,98.98111058473016
8.84,0.9999996329954254,98.57110893559658
8.847999999999999,0.9999996574715917,98.16033284238648
8.856,0.9999996816769546,97.74877996757635
8.864,0.9999997056199093,97.33644800451285
8.872,0.9999997293088503,96.92333467794077
8.879999999999999,0.9999997527521687,96.50943774453584
8.888,0.9999997759582507,96.09475499344178
8.896,0.9999997989354764,95.67928424681186
8.904,0.999999821692217,95.26302336035415
8.911999999999999,0.9999998442368329,94.84597022388097
8.92,0.9999998665776717,94.42812276186274
8.928,0.9999998887230673,94.00947893398582
8.936,0.999999910681337,93.59003673571402
8.943999999999999,0.9999999324607791,93.16979419885375
8.952,0.9999999540696726,92.74874939212357
8.96,0.9999999755162734,92.32690042172729
8.968,0.9999999968088142,91.90424543193038
8.975999999999999,1.0,91.48078260563996
8.984,1.0,91.05651016498852
8.992,1.0,90.63142637192115
9.0,1.0,90.20552952878555
9.008,1.0,89.77881797892518
9.016,0.9999999999999999,89.35129010727611
9.024000000000001,1.0,88.92294434096657
9.032,0.9999999999999999,88.49377914991906
9.04,1.0,88.06379304745533
9.048,0.9999999999999999,87.63298459090421
9.056000000000001,1.0,87.20135238221214
9.064,0.9999999999999999,86.76889506855557
9.072,1.0,86.3356113429557
9.08,1.0,85.90149994489575
9.088000000000001,1.0,85.46655966094028
9.096,1.0,85.03078932535588
9.104,0.9999999999999999,84.59418782073378
9.112,0.9999999999999999,84.15675407861428
9.120000000000001,0.9999999999999999,83.71848708011272
9.128,1.0,83.27938585654633
9.136,1.0,82.8394494900622
9.144,0.9999999999999999,82.39867711426666
9.152000000000001,1.0,81.95706791485553
9.16,0.9999999999999999,81.51462113024448
9.168,1.0,81.07133605219992
9.176,0.9999999999999999,80.6272120264708
9.184000000000001,1.0,80.1822484534202
9.192,0.9999999999999999,79.73644478865673
9.2,1.0,79.28980054366558
9.208,1.0,78.84231528643951
9.216000000000001,1.0,78.39398864210945
9.224,1.0000000000000002,77.94482029357341
9.232,1.0,77.49480998212488
9.24,1.0,77.04395750808011
9.248000000000001,0.9999999999999998,76.592262731404
9.256,1.0,76.13972557233393
9.264,0.9999999999999999,75.68634601200185
9.272,0.9999999999999999,75.23212409305447
9.280000000000001,1.0,74.7770599202713
9.288,0.9999999999999999,74.3211536611797
9.296,0.9999999999999999,73.86440554666709
9.304,0.9999999999999999,73.40681587159071
9.312000000000001,1.0,72.94838499538393
9.32,1.0,72.48911334265885
9.328,0.9999999999999999,72.02900140380505
9.336,1.0,71.56804973558474
9.344,1.0,71.10625896172392
9.352,1.0,70.64362977349786
9.36,1.0,70.18016293031344
9.368,0.9999999999999999,69.7158592602848
9.376,0.9999999999999999,69.2507196608054
9.384,1.0,68.78474509911283
9.392,1.0,68.31793661284942
9.4,1.0000000000000002,67.85029531061525
9.408,1.0,67.3818223725162
9.416,1.0,66.91251905070389
9.424,1.0,66.44238666991026
9.432,1.0,65.97142662797329
9.44,0.9999999999999999,65.4996403963568
9.448,0.9999999999999999,65.02702952066088
9.456,1.0,64.55359562112591
9.464,1.0,64.07934039312633
9.472,1.0,63.60426560765778
9.48,1.0,63.12837311181307
9.488,1.0,62.651664829251146
9.496,1.0,62.17414276065428
9.504,0.9999999999999999,61.6958089841773
9.512,1.0000000000000002,61.21666565588516
9.52,1.0,60.7367150101812
9.528,1.0,60.25595936022347
9.536,1.0,59.77440109833133
9.544,0.9999999999999999,59.292042696379006
9.552,0.9999999999999999,58.80888670617934
9.56,0.9999999999999999,58.32493575985352
9.568,0.9999999999999998,57.84019257019052
9.576,1.0,57.354659930992014
9.584,0.9999999999999999,56.86834071740612
9.592,1.0,56.38123788624628
9.6,0.9999999999999999,55.89335447629828
9.608,0.9999999999999999,55.40469360861165
9.616,1.0,54.915258486778924
9.624,1.0,54.425052397198314
9.632,0.9999999999999999,53.93407870932384
9.64,1.0,53.44234087589842
9.648,1.0,52.94984243317347
9.656,0.9999999999999998,52.45658700111118
9.664,1.0,51.96257828357262
9.672,0.9999999999999998,51.46782006848787
9.68,1.0,50.972316228011564
9.688,1.0,50.47607071865985
9.696,1.0,49.979087581432076
9.704,1.0,49.48137094191346
9.712,1.0,48.98292501036203
9.72,1.0000000000000002,48.48375408177583
