freq,mag,phase
6.0,0.999999373624923,144.14247917599783
6.040201216,0.9999992832057749,141.4474983369801
6.08040192,1.000000003865937,138.75306690664172
6.120603136,1.0000005767312323,136.05918770411355
6.16080384,1.0000013562581658,133.36586122095574
6.201005056,1.000001989543845,130.67311506391755
6.241206272,1.0000026681561656,127.98096356789671
6.281406976,1.0000033923781344,125.28942630446838
6.321608192,1.000004101307401,122.59849645487394
6.361808896,1.0000048851131083,119.90819301476391
6.402010112,1.0000055161870902,117.21851472370139
6.442210816,1.0000061401394351,114.52950260366273
6.482412032,1.0000068348638482,111.84110332517771
6.522613248,1.0000073509721727,109.1533905771616
6.562813952,1.0000079370252848,106.46634053851061
6.603015168,1.0000084367583435,103.77995689993088
6.643215872,1.000008987520788,101.09425030761336
6.683417088,1.0000093629702274,98.40922938556753
6.723618304,1.0000097076800167,95.72488466700149
6.763819008,1.0000100141534942,93.04122989958935
6.804020224,1.0000103705856507,90.35826645379481
6.844220928,1.0000105808230006,87.67599479865694
6.884422144,1.00001071668309,84.99441008396883
6.92462336,1.0000107454862162,82.31352439655832
6.964824064,1.0000108035334383,79.63332399250504
7.00502528,1.0000108131536063,76.95381087169109
7.045225984,1.0000107214180587,74.27499921228589
7.0854272,1.000010599033712,71.5968677215758
7.125627904,1.0000103683739492,68.91941513839309
7.16582912,1.0000101403205268,66.24266542335921
7.206030336,1.0000098101506338,63.56656224686193
7.24623104,1.0000094058979656,60.89114500011057
7.286432256,1.0000089810522421,58.2163913303177
7.32663296,1.00000845346531,55.542306856235484
7.366834176,1.0000079634055634,52.868853574713796
7.407035392,1.0000072517479983,50.196072986100674
7.447236096,1.0000066703340669,47.52391716124986
7.487437312,1.0000059557248464,44.8524131509942
7.527638016,1.0000052252394978,42.181524589780665
7.567839232,1.0000044116979787,39.51124351679411
7.608040448,1.0000036508616224,36.84156475741371
7.648241152,1.0000027720291949,34.172490827444456
7.688442368,1.0000019451536986,31.50400006308353
7.728643072,1.000001099454284,28.836094420747813
7.768844288,1.0000001463282993,26.168738091164972
7.809044992,0.9999993086471023,23.501963905338954
7.849246208,0.9999984590118427,20.83569947666447
7.889447424,0.999997614502468,18.169986930341597
7.929648128,0.999996884923193,15.504777392428545
7.969849344,0.999996049657081,12.840089312001963
8.010050048,0.9999952652273782,10.175886931450597
8.050251264,0.9999945901590537,7.512172380078248
8.09045248,0.9999939636547226,4.848891023532621
8.130653184,0.9999934120590656,2.1861084093322907
8.1708544,0.9999928832842354,-0.4762611560379921
8.211055104,0.9999924854657982,-3.138193070679345
8.25125632,0.9999922654429788,-5.799710924349808
8.291457536,0.9999920352436278,-8.460854187675762
8.33165824,0.9999919248918717,-11.121585921375958
8.371859456,0.9999918501718988,-13.781974522100205
8.41206016,0.999991947773555,-16.441994420757382
8.452261376,0.9999921884679164,-19.10167156956824
8.49246208,0.9999924873678883,-21.761051416950508
8.532663296,0.9999928365987102,-24.42009779226996
8.572864512,0.9999934020952743,-27.078858726944713
8.613065728,0.9999940669417753,-29.737338378797432
8.65326592,0.9999947601984064,-32.39555582178879
8.693467136,0.9999956093460347,-35.05352967257762
8.733668352,0.9999964251799794,-37.711255151015834
8.773869568,0.9999974193745844,-40.36878398346659
8.814070784,0.9999985172130137,-43.02607179675025
8.854270976,0.9999995914663113,-45.6831930442021
8.894472192,1.000000718229232,-48.34013021543724
8.934673408,1.0000017944044963,-50.99690662619902
8.974874624,1.000002973039999,-53.65352459909971
9.01507584,1.0000042229762092,-56.31001582522823
9.055276032,1.0000052879256056,-58.966378760247096
9.095477248,1.0000064482446822,-61.622623890646004
9.135678464,1.0000075191120517,-64.2787811572072
9.17587968,1.0000085235206195,-66.93483834276792
9.216080896,1.000009485423568,-69.5908361262032
9.256281088,1.0000103348137646,-72.24674968215058
9.296482304,1.0000110519132623,-74.90262356214959
9.33668352,1.0000117639082244,-77.55845627667412
9.376884736,1.000012299000429,-80.21424567359772
9.417084928,1.0000126786433103,-82.87002008229676
9.457286144,1.0000128885899804,-85.52579751485132
9.49748736,1.0000129494180712,-88.18154603290893
9.537688576,1.0000129066874368,-90.83732062853794
9.577889792,1.0000126959987403,-93.49309672750637
9.618089984,1.0000123145099105,-96.14890741444972
9.6582912,1.000011872684763,-98.80475030397497
9.698492416,1.0000111438492585,-101.46061532889665
9.738693632,1.0000103072459756,-104.11653219198519
9.778894848,1.0000094102654535,-106.77250860414557
9.81909504,1.0000083130849777,-109.42854983634805
9.859296256,1.0000070035305217,-112.08464387399532
9.899497472,1.0000057510066034,-114.74082004191416
9.939698688,1.0000043180653235,-117.39707456961811
9.979899904,1.0000028264819059,-120.05340521840087
10.020100096,1.0000012590641094,-122.70982175013253
10.060301312,0.9999996751615529,-125.36635078408467
10.100502528,0.9999979976741367,-128.02294308382943
10.140703744,0.9999964569236958,-130.6796782038729
10.18090496,0.9999948165254814,-133.33649554574947
10.221105152,0.9999932538933615,-135.99343329489488
10.261306368,0.9999917041364794,-138.65048925554117
10.301507584,0.9999902808711462,-141.30766252320709
10.3417088,0.9999888402382346,-143.96495971761868
10.381910016,0.9999875990924708,-146.62237648390663
10.422110208,0.9999863971965456,-149.27991778524398
10.462311424,0.9999853317519488,-151.93761134567941
10.50251264,0.9999844705775319,-154.59541453187586
10.542713856,0.9999837180413234,-157.25336509887046
10.582915072,0.9999830924692739,-159.91146389834924
10.623115264,0.9999826350438578,-162.56966911730774
10.66331648,0.9999823710189574,-165.2280365572271
10.703517696,0.9999822622935898,-167.88654043294622
10.743718912,0.9999823058208963,-170.54517789544695
10.783919104,0.999982527555922,-173.20396036823246
10.82412032,0.9999829029684304,-175.86289308047418
10.864321536,0.999983427953267,-178.5219573611648
10.904522752,0.9999840177325242,178.8188359853445
10.944723968,0.9999847840619928,176.15950413279762
10.98492416,0.9999856213135169,173.50003165963884
11.025125376,0.999986610012895,170.84042555148525
11.065326592,0.9999876108414301,168.18069081087168
11.105527808,0.9999887205080996,165.52083072626212
11.145729024,0.9999898572650765,162.86084206750408
11.185929216,0.999991059192319,160.2007384412767
11.226130432,0.9999921963136222,157.5405188118914
11.266331648,0.999993359596375,154.8801827285455
11.306532864,0.9999945166218698,152.21975732939563
11.34673408,0.9999954986378737,149.55921491399937
11.386934272,0.9999965590935946,146.8985773601721
11.427135488,0.9999975295961206,144.2378532005625
11.467336704,0.99999832929413,141.57704900446785
11.50753792,0.9999991515857853,138.9161640201329
11.547739136,0.9999997558836218,136.25522890814045
11.587939328,1.000000288740286,133.594216822943
11.628140544,1.0000007593175684,130.93313390110308
11.66834176,1.0000010344592165,128.27201784146257
11.708542976,1.0000011685547883,125.61086962255744
11.748744192,1.0000012538191312,122.94968330065768
11.788944384,1.0000012692561233,120.28846404387433
11.8291456,1.0000010240802428,117.62723262136251
11.869346816,1.00000077020926,114.96599227897686
11.909548032,1.0000004447303763,112.30475324768646
11.949749248,0.9999999783460713,109.64350645829956
11.98994944,0.9999994631238402,106.98229295855427
12.030150656,0.9999989935532526,104.32108203086875
12.070351872,0.9999984763915194,101.65991138441672
12.110553088,0.9999978374385842,98.99877292936773
12.15075328,0.9999972829881691,96.33767983736647
12.190954496,0.9999967155545569,93.67663524898977
12.231155712,0.9999962348773856,91.01564755268124
12.271356928,0.9999957980124836,88.35473150974057
12.311558144,0.9999953256779828,85.69389292700792
12.351758336,0.9999951295249315,83.03311471215581
12.391959552,0.9999948317020885,80.37243481127715
12.432160768,0.9999947052761667,77.71183893091401
12.472361984,0.9999947771364149,75.05134059171371
12.5125632,0.9999949181250058,72.39095024366353
12.552763392,0.9999951961815485,69.7306688884507
12.592964608,0.9999955721975958,67.07050209791592
12.633165824,0.999996115973298,64.41045611431139
12.67336704,0.9999967485033231,61.75053296591246
12.713568256,0.9999975757154078,59.09074852240362
12.753768448,0.9999983916740349,56.43109656496213
12.793969664,0.9999993644173634,53.77159591964446
12.83417088,1.0000004080979201,51.11223396351278
12.874372096,1.000001550897414,48.45302117845304
12.914573312,1.0000027314726283,45.79399976518691
12.954773504,1.000004030205732,43.1351032684242
12.99497472,1.0000052152625616,40.47640324036416
13.035175936,1.000006488680141,37.81786186476105
13.075377152,1.0000077002932228,35.15952154832394
13.115578368,1.000008880010651,32.50134177927176
13.15577856,1.0000099592930676,29.84336236777388
13.195979776,1.0000110411521623,27.185579827638534
13.236180992,1.0000118805122753,24.52801052120574
13.276382208,1.000012737316664,21.87064128263499
13.316583424,1.0000133333480947,19.213480519899583
13.356783616,1.0000138210322216,16.556541165681644
13.396984832,1.0000140833309552,13.899807319862516
13.437186048,1.0000142469098978,11.243327430225262
13.477387264,1.0000141703250927,8.587051427330033
13.517587456,1.0000139276748956,5.931030049042991
13.557788672,1.0000134311627573,3.2752431891471043
13.597989888,1.0000128346794617,0.6197044175204623
13.638191104,1.0000119936234932,-2.03558330138082
13.67839232,1.0000108573425257,-4.690623712036876
13.718592512,1.0000096195230639,-7.345399089110719
13.758793728,1.000008095812648,-9.999924331895224
13.798994944,1.0000065429356095,-12.654184472683992
13.83919616,1.000004836386298,-15.308169776208874
13.879397376,1.0000029680916633,-17.961888327895217
13.919597568,1.0000010562768438,-20.6153364436837
13.959798784,0.9999989846859006,-23.268523876808366
14.0,0.9999969225569729,-25.921419864504834
