freq,mag,phase
6.0,0.9999963481271981,-165.02410808423056
6.008,0.9999964902370287,-165.38164391156147
6.016,0.9999966289166645,-165.73895023830406
6.024,0.9999967642273768,-166.09603169936437
6.032,0.9999968962297009,-166.4528929328758
6.04,0.999997024983441,-166.8095385801512
6.048,0.9999971505476786,-167.1659732856374
6.056,0.999997272980772,-167.52220169687214
6.064,0.9999973923403672,-167.8782284644438
6.072,0.9999975086833991,-168.23405824195314
6.08,0.9999976220660998,-168.58969568597766
6.088,0.999997732544001,-168.94514545603826
6.096,0.9999978401719407,-169.30041221456793
6.104,0.9999979450040685,-169.65550062688317
6.112,0.9999980470938504,-170.01041536115704
6.12,0.9999981464940756,-170.36516108839484
6.128,0.9999982432568567,-170.71974248241165
6.136,0.9999983374336405,-171.07416421981193
6.144,0.9999984290752122,-171.42843097997132
6.152,0.9999985182316973,-171.78254744502047
6.16,0.9999986049525691,-172.1365182998303
6.168,0.9999986892866549,-172.49034823200003
6.176,0.999998771282138,-172.8440419318464
6.184,0.9999988509865656,-173.19760409239476
6.192,0.9999989284468531,-173.55103940937275
6.2,0.9999990037092872,-173.90435258120445
6.208,0.999999076819536,-174.25754830900735
6.216,0.9999991478226459,-174.6106312965905
6.224,0.9999992167630561,-174.96360625045426
6.232,0.9999992836845965,-175.31647787979196
6.24,0.999999348630495,-175.6692508964928
6.248,0.9999994116433835,-176.02193001514638
6.256,0.9999994727653003,-176.374519953049
6.264,0.9999995320377,-176.72702543021074
6.272,0.9999995895014495,-177.07945116936492
6.28,0.9999996451968446,-177.43180189597774
6.288,0.9999996991636033,-177.7840823382606
6.296,0.9999997514408796,-178.13629722718235
6.304,0.9999998020672616,-178.48845129648404
6.312,0.999999851080782,-178.84054928269393
6.32,0.9999998985189189,-179.19259592514445
6.328,0.9999999444186005,-179.54459596598957
6.336,0.9999999888162148,-179.896554150224
6.344,0.9999999999999999,179.75152477429697
6.352,1.0,179.39963605683653
6.36,1.0,179.04777494375426
6.368,1.0,178.6959366784832
6.376,1.0,178.3441165015059
6.384,1.0,177.9923096503296
6.392,0.9999999999999999,177.64051135946053
6.4,1.0,177.28871686037758
6.408,0.9999999999999999,176.9369213815048
6.416,0.9999999999999999,176.5851201481833
6.424,0.9999999999999999,176.23330838264286
6.432,0.9999999999999998,175.88148130397195
6.44,1.0,175.529634128088
6.448,1.0,175.17776206770657
6.456,1.0,174.82586033231
6.464,1.0,174.47392412811564
6.472,0.9999999999999999,174.12194865804352
6.48,1.0,173.76992912168353
6.4879999999999995,0.9999999999999999,173.4178607152621
6.496,0.9999999999999999,173.06573863160847
6.504,1.0,172.7135580601212
6.5120000000000005,1.0,172.36131418673304
6.52,0.9999999999999999,172.00900219387714
6.5280000000000005,1.0,171.65661726045136
6.536,0.9999999999999999,171.30415456178397
6.5440000000000005,0.9999999999999999,170.9516092695977
6.552,1.0,170.5989765519748
6.5600000000000005,0.9999999999999998,170.24625157332113
6.568,1.0,169.89342949433103
6.5760000000000005,0.9999999999999999,169.54050547195112
6.584,0.9999999999999999,169.1874746593452
6.592,0.9999999999999999,168.8343322058582
6.6,0.9999999999999999,168.48107325698106
6.608,0.9999999999999999,168.12769295431497
6.616,1.0,167.7741864355364
6.624,0.9999999999999999,167.42054883436182
6.632,0.9999999999999999,167.0667752805131
6.64,1.0,166.7128608996826
6.648,0.9999999999999999,166.35880081349913
6.656,1.0,166.00459013949404
6.664,0.9999999999999998,165.65022399106752
6.672,1.0,165.2956974774555
6.68,1.0,164.94100570369702
6.688,1.0,164.586143770602
6.696,1.0,164.23110677471968
6.704,1.0,163.87588980830736
6.712,1.0,163.52048795930008
6.72,1.0,163.1648963112809
6.728,1.0,162.80910994345155
6.736,1.0,162.45312393060422
6.744,1.0,162.09693334309407
6.752,0.9999999999999999,161.74053324681222
6.76,1.0,161.38391870316008
6.768,0.9999999999999999,161.02708476902404
6.776,1.0,160.67002649675194
6.784,0.9999999999999999,160.31273893412944
6.792,1.0,159.95521712435834
6.8,0.9999999999999999,159.59745610603554
6.808,1.0,159.23945091313323
6.816,0.9999999999999999,158.8811965749802
6.824,0.9999999999999999,158.52268811624438
6.832,1.0,158.16392055691674
6.84,0.9999999999999999,157.8048889122963
6.848,1.0,157.44558819297663
6.856,1.0,157.0860134048337
6.864,1.0,156.7261595490152
6.872,1.0,156.36602162193128
6.88,1.0,156.00559461524693
6.888,1.0,155.64487351587584
6.896,1.0,155.283853305976
6.904,1.0,154.92252896294684
6.912,0.9999999999999999,154.56089545942834
6.92,1.0,154.19894776330153
6.928,1.0,153.8366808376914
6.936,0.9999999999999998,153.47408964097116
6.944,0.9999999999999999,153.1111691267686
6.952,0.9999999999999999,152.74791424397466
6.96,0.9999999999999999,152.38431993675383
6.968,0.9999999999999999,152.02038114455655
6.976,1.0,151.65609280213408
6.984,1.0,151.29144983955536
6.992,0.9999999999999999,150.9264471822261
7.0,1.0,150.56107975091024
7.008,1.0,150.1953424617541
7.016,1.0,149.8292302263122
7.024,1.0,149.4627379515764
7.032,1.0,149.095860540007
7.04,1.0,148.7285928895669
7.048,1.0,148.360929893758
7.056,1.0,147.99286644166054
7.064,0.9999999999999999,147.62439741797525
7.072,1.0,147.2555177030684
7.08,1.0000000000000002,146.88622217301946
7.088,1.0,146.51650569967214
7.096,0.9999999999999999,146.146363150688
7.104,1.0,145.77578938960374
7.112,1.0,145.40477927589114
7.12,1.0,145.0333276650205
7.128,0.9999999999999999,144.6614294085272
7.136,1.0,144.2890793540819
7.144,1.0,143.91627234556375
7.152,0.9999999999999999,143.5430032231377
7.16,1.0,143.16926682333465
7.168,1.0000000000000002,142.79505797913578
7.176,0.9999999999999999,142.42037152006046
7.184,1.0,142.04520227225774
7.192,0.9999999999999998,141.669545058602
7.2,1.0,141.29339469879238
7.208,1.0,140.91674600945586
7.216,1.0000000000000002,140.53959380425505
7.224,0.9999999999999999,140.16193289399976
7.232,1.0,139.78375808676267
7.24,0.9999999999999999,139.4050641879996
7.248,1.0,139.02584600067402
7.256,0.9999999999999998,138.64609832538565
7.264,1.0,138.26581596050443
7.272,0.9999999999999999,137.8849937023081
7.28,0.9999999999999999,137.50362634512527
7.288,1.0,137.1217086814826
7.296,0.9999999999999999,136.73923550225751
7.304,0.9999999999999999,136.356201596835
7.312,0.9999999999999999,135.97260175327025
7.32,1.0,135.58843075845576
7.328,1.0,135.2036833982939
7.336,1.0,134.81835445787468
7.344,1.0,134.43243872165877
7.352,1.0,134.04593097366617
7.36,0.9999999999999999,133.65882599766996
7.368,1.0,133.27111857739607
7.376,0.9999999999999999,132.88280349672843
7.384,0.9999999999999999,132.4938755399202
7.392,1.0,132.10432949181038
7.4,1.0,131.71416013804685
7.4079999999999995,1.0,131.3233622653151
7.416,1.0,130.931930661573
7.4239999999999995,1.0,130.53986011629257
7.432,0.9999999999999999,130.14714542070658
7.4399999999999995,0.9999999999999999,129.75378136806316
7.448,0.9999999999999999,129.3597627538854
7.4559999999999995,1.0,128.96508437623893
7.464,0.9999999999999999,128.56974103600476
7.4719999999999995,1.0,128.17372753716018
7.48,0.9999999999999999,127.77703868706516
7.4879999999999995,1.0,127.37966929675716
7.496,1.0,126.9816141812514
7.504,1.0,126.58286815984977
7.5120000000000005,1.0,126.18342605645553
7.52,0.9999999999999999,125.78328269989652
7.5280000000000005,1.0,125.3824329242547
7.536,1.0,124.9808715692044
7.5440000000000005,1.0,124.57859348035645
7.552,1.0,124.17559350961204
7.5600000000000005,0.9999999999999999,123.77186651552238
7.568,1.0,123.36740736365769
7.5760000000000005,1.0,122.96221092698299
7.584,0.9999999999999999,122.55627208624328
7.5920000000000005,0.9999999999999999,122.14958573035501
7.6,0.9999999999999999,121.74214675680787
7.6080000000000005,1.0,121.3339500720728
7.616,1.0,120.92499059202045
7.6240000000000006,1.0,120.51526324234614
7.632,0.9999999999999999,120.10476295900516
7.640000000000001,1.0,119.69348468865535
7.648,1.0,119.28142338910953
7.656000000000001,1.0,118.86857402979581
7.664,0.9999999999999999,118.45493159222785
7.672,1.0,118.040491070483
7.68,1.0,117.62524747169047
7.688,1.0,117.20919581652852
7.696,1.0,116.79233113973034
7.704,1.0,116.37464849059992
7.712,0.9999999999999999,115.9561429335372
7.72,0.9999999999999998,115.53680954857246
7.728,1.0,115.11664343191077
7.736,1.0,114.6956396964855
7.744,1.0,114.27379347252221
7.752,1.0,113.8510999081119
7.76,1.0,113.42755416979439
7.768,0.9999999999999999,113.00315144315147
7.776,0.9999999999999999,112.57788693341027
7.784,1.0,112.15175586605652
7.792,1.0,111.72475348745826
7.8,1.0,111.29687506549936
7.808,0.9999999999999999,110.86811589022368
7.816,0.9999999999999999,110.4384712744893
7.824,1.0,110.00793655463342
7.832,0.9999999999999999,109.57650709114732
7.84,0.9999999999999999,109.14417826936221
7.848,0.9999999999999999,108.71094550014537
7.856,1.0,108.27680422060682
7.864,1.0,107.84174989481686
7.872,1.0,107.40577801453405
7.88,1.0,106.96888409994392
7.888,1.0,106.5310637004085
7.896,1.0,106.09231239522643
7.904,0.9999999999999999,105.65262579440406
7.912,1.0,105.21199953943709
7.92,1.0,104.77042930410315
7.928,1.0,104.3279107952653
7.936,0.9999999999999999,103.88443975368608
7.944,0.9999999999999999,103.44001195485262
7.952,0.9999999999999999,102.99462320981249
7.96,1.0,102.54826936602028
7.968,0.9999999999999999,102.10094630819522
7.976,1.0,101.65264995918933
7.984,1.0,101.20337628086645
7.992,1.0,100.75312127499201
8.0,0.9999999999999999,100.30188098413359
8.008,0.9999999999999999,99.84965149257198
8.016,1.0,99.39642892722274
8.024000000000001,0.9999999999999999,98.9422094585691
8.032,0.9999999999999999,98.48698930160442
8.04,0.9999999999999999,98.03076471678547
8.048,1.0,97.57353201099622
8.056000000000001,1.0,97.11528753852217
8.064,1.0,96.65602770203442
8.072,1.0,96.19574895358389
8.08,0.9999999999999999,95.734447795606
8.088000000000001,1.0,95.27212078193531
8.096,0.9999999999999998,94.80876451882966
8.104,1.0,94.34437566600391
8.112,1.0,93.87895093767378
8.120000000000001,0.9999999999999999,93.41248710360921
8.128,1.0,92.94498099019653
8.136,0.9999999999999999,92.47642948150981
8.144,0.9999999999999999,92.00682952039186
8.152000000000001,1.0,91.5361781095438
8.16,1.0,91.0644723126231
8.168,1.0,90.5917092553501
8.176,0.9999999999999998,90.11788612662322
8.184000000000001,0.9999999999999999,89.64300017964231
8.192,1.0,89.16704873303951
8.2,1.0,88.6900291720178
8.208,0.9999999999999999,88.21193894949741
8.216000000000001,1.0,87.73277558726943
8.224,1.0,87.25253667715616
8.232,0.9999999999999999,86.77121988217786
8.24,0.9999999897292121,86.28882293772674
8.248000000000001,0.999999946395618,85.80534365274686
8.256,0.9999999021804937,85.3207799109196
8.264,0.9999998570791382,84.83512967185484
8.272,0.9999998110870596,84.3483909722876
8.280000000000001,0.9999997641999806,83.86056192727987
8.288,0.9999997164138432,83.3716407314266
8.296,0.9999996677248133,82.88162566006592
8.304,0.9999996181292825,82.39051507049379
8.312,0.999999567623879,81.89830740318247
8.32,0.9999995162054658,81.4050011830009
8.328,0.9999994638711492,80.91059502043964
8.336,0.9999994106182816,80.41508761283661
8.344,0.9999993564444669,79.91847774560647
8.352,0.999999301347565,79.42076429346992
8.36,0.999999245325696,78.92194622168597
8.368,0.999999188377245,78.42202258728318
8.376,0.9999991305008662,77.92099254029289
8.384,0.9999990716954887,77.41885532498071
8.392,0.9999990119603179,76.91561028107886
8.4,0.9999989512948443,76.41125684501593
8.408,0.9999988896988439,75.90579455114654
8.416,0.9999988271723843,75.39922303297725
8.424,0.9999987637158295,74.89154202439153
8.432,0.9999986993298429,74.38275136086976
8.44,0.9999986340153918,73.8728509807075
8.448,0.9999985677737524,73.3618409262273
8.456,0.9999985006065125,72.84972134498794
8.464,0.9999984325155774,72.33649249098607
8.472,0.9999983635031716,71.82215472585399
8.48,0.999998293571844,71.30670852004879
8.488,0.9999982227244724,70.79015445403623
8.496,0.9999981509642651,70.27249321946502
8.504,0.9999980782947671,69.75372562033448
8.512,0.9999980047198622,69.23385257415117
8.52,0.9999979302437764,68.71287511307789
8.528,0.9999978548710818,68.19079438507028
8.536,0.9999977786067008,67.66761165500431
8.544,0.9999977014559074,67.14332830579019
8.552,0.9999976234243323,66.61794583947585
8.56,0.9999975445179642,66.09146587833528
8.568,0.9999974647431545,65.56389016594524
8.576,0.9999973841066186,65.03522056824535
8.584,0.99999730261544,64.50545907458498
8.592,0.9999972202770716,63.97460779875251
8.6,0.9999971370993395,63.44266897998948
8.608,0.999997053090444,62.90964498398579
8.616,0.9999969682589633,62.375538303858555
8.624,0.9999968826138543,61.84035156111015
8.632,0.9999967961644556,61.30408750656863
8.64,0.9999967089204886,60.76674902130588
8.648,0.9999966208920599,60.228339117536486
8.656,0.9999965320896618,59.68886093949286
8.664,0.9999964425241754,59.148317764279575
8.672,0.99999635220687,58.606713002702385
8.68,0.9999962611494055,58.06405020007498
8.688,0.9999961693638332,57.520333036998785
8.696,0.999996076862595,56.97556533011906
8.704,0.9999959836585265,56.429751032852344
8.712,0.9999958897648561,55.88289423608885
8.72,0.9999957951952047,55.33499916886444
8.728,0.9999956999635867,54.7860701990061
8.736,0.9999956040844103,54.236111833745625
8.744,0.9999955075724757,53.68512872030489
8.752,0.9999954104429758,53.13312564644809
8.76,0.9999953127114952,52.580107541004
8.768,0.9999952143940097,52.02607947435355
8.776,0.9999951155068842,51.47104665888611
8.784,0.9999950160668726,50.91501444941943
8.792,0.9999949160911157,50.35798834358686
8.8,0.9999948155971402,49.799973982186785
8.808,0.9999947146028556,49.240977149497866
8.815999999999999,0.9999946131265536,48.68100377355522
8.824,0.9999945111869039,48.12005992639014
8.832,0.9999944088029542,47.55815182423128
8.84,0.9999943059941251,46.995285827666116
8.847999999999999,0.9999942027802085,46.43146844176256
8.856,0.9999940991813641,45.86670631615091
8.864,0.9999939952181158,45.301006245064244
8.872,0.9999938909113485,44.73437516733703
8.879999999999999,0.9999937862823038,44.16682016636109
8.888,0.999993681352576,43.59834846999924
8.896,0.999993576144108,43.02896745045553
8.904,0.999993470679187,42.458684624100684
8.911999999999999,0.9999933649804389,41.887507651253166
8.92,0.9999932590708237,41.315444335915416
8.928,0.999993152973631,40.74250262546464
8.936,0.9999930467124738,40.16869061029683
8.943999999999999,0.9999929403112822,39.59401652342431
8.952,0.9999928337942993,39.01848874002676
8.96,0.9999927271860727,38.44211577695483
8.968,0.9999926205114505,37.8649062921854
8.975999999999999,0.9999925137955733,37.286869084228776
8.984,0.9999924070638673,36.70801309148775
8.992,0.9999923003420375,36.12834739156801
9.0,0.9999921936560611,35.54788120053882
9.008,0.9999920870321787,34.966623872144375
9.016,0.9999919804968878,34.384584896966174
9.024000000000001,0.9999918740769337,33.80177390153549
9.032,0.9999917677993024,33.2182006473955
9.04,0.999991661691212,32.63387503011319
9.048,0.9999915557801027,32.04880707824181
9.056000000000001,0.9999914500936302,31.46300695223285
9.064,0.9999913446596551,30.87648494329725
9.072,0.9999912395062345,30.289251472216407
9.08,0.9999911346616119,29.70131708810324
9.088000000000001,0.9999910301542086,29.11269246711307
9.096,0.999990926012613,28.523388411103944
9.104,0.9999908222655702,27.93341584624675
9.112,0.9999907189419737,27.342785821586055
9.120000000000001,0.9999906160708535,26.751509507551336
9.128,0.9999905136813656,26.15959819441814
9.136,0.9999904118027824,25.567063290720068
9.144,0.9999903104644805,24.973916321612467
9.152000000000001,0.9999902096959312,24.380168927187444
9.16,0.9999901095266878,23.78583286074034
9.168,0.9999900099863754,23.190919986988213
9.176,0.9999899111046792,22.59544228024174
9.184000000000001,0.9999898129113328,21.99941182253004
9.192,0.9999897154361069,21.4028408016788
9.2,0.9999896187087963,20.805741509342493
9.208,0.9999895227592106,20.208126338991974
9.216000000000001,0.9999894276171586,19.610007783857494
9.224,0.9999893333124396,19.01139843482718
9.232,0.9999892398748289,18.412310978302358
9.24,0.9999891473340669,17.81275819401084
9.248000000000001,0.9999890557198452,17.212752952778494
9.256,0.9999889650617967,16.61230821425929
9.264,0.9999888753894807,16.01143702462524
9.272,0.9999887867323712,15.410152514217602
9.280000000000001,0.999988699119845,14.808467895159728
9.288,0.9999886125811677,14.206396458931875
9.296,0.9999885271454831,13.603951573909592
9.304,0.9999884428417989,13.001146682867171
9.312000000000001,0.9999883596989739,12.397995300446437
9.32,0.9999882777457069,11.79451101059189
9.328,0.9999881970105235,11.190707463953178
9.336,0.9999881175217625,10.586598375257086
9.344,0.9999880393075637,9.982197520649475
9.352,0.9999879623958575,9.37751873500683
9.36,0.9999878868143484,8.772575909222287
9.368,0.9999878125905058,8.167382987462746
9.376,0.9999877397515508,7.561953964402886
9.384,0.9999876683244434,6.956302882433032
9.392,0.9999875983358708,6.350443828846251
9.4,0.9999875298122349,5.744390933001913
9.408,0.9999874627796401,5.138158363471179
9.416,0.9999873972638814,4.5317603251615575
9.424,0.9999873332904344,3.9252110564260234
9.432,0.999987270884441,3.3185248261539333
9.44,0.9999872100706975,2.7117159308493504
9.448,0.9999871508736479,2.1047986916939196
9.456,0.9999870933173659,1.4977874515998093
9.464,0.9999870374255492,0.8906965722501246
9.472,0.9999869832215064,0.28354043113244504
9.48,0.9999869307281455,-0.3236665814377259
9.488,0.999986879967965,-0.930910065297265
9.496,0.999986830963043,-1.538175613422773
9.504,0.9999867837350249,-2.145448814919107
9.512,0.9999867383051165,-2.752715258011808
9.52,0.9999866946940738,-3.359960533037909
9.528,0.9999866529221899,-3.967170235437731
9.536,0.9999866130092906,-4.574329968741936
9.544,0.9999865749747211,-5.181425347556966
9.552,0.9999865388373405,-5.788442000542717
9.56,0.9999865046155104,-6.39536557338551
9.568,0.9999864723270877,-7.0021817317607145
9.576,0.9999864419894161,-7.60887616428762
9.584,0.9999864136193197,-8.215434585471016
9.592,0.9999863872330932,-8.821842738632503
9.6,0.9999863628464951,-9.428086398825403
9.608,0.9999863404747413,-10.03415137573663
9.616,0.9999863201324983,-10.640023516569578
9.624,0.9999863018338756,-11.245688708911064
9.632,0.9999862855924208,-11.851132883576682
9.64,0.9999862714211121,-12.456342017437516
9.648,0.9999862593323541,-13.061302136222524
9.656,0.9999862493379714,-13.665999317299839
9.664,0.9999862414492041,-14.270419692431211
9.672,0.9999862356767031,-14.874549450502634
9.68,0.9999862320305242,-15.478374840225857
9.688,0.9999862305201257,-16.081882172813547
9.696,0.999986231154364,-16.68505782462304
9.704,0.9999862339414897,-17.28788823977139
9.712,0.9999862388891438,-17.890359932716667
9.72,0.9999862460043558,-18.492459490808468
9.728,0.9999862552935407,-19.094173576802472
9.736,0.9999862667624961,-19.69548893134205
9.744,0.9999862804164011,-20.296392375401904
9.752,0.9999862962598136,-20.89687081269684
9.76,0.9999863142966688,-21.49691123205064
9.768,0.9999863345302799,-22.09650070972809
9.776,0.9999863569633344,-22.69562641172544
9.784,0.9999863815978962,-23.294275596022327
9.792,0.9999864084354031,-23.892435614790333
9.8,0.9999864374766689,-24.490093916561513
9.808,0.9999864687218827,-25.087238048351985
9.816,0.9999865021706082,-25.68385565774408
9.824,0.9999865378217886,-26.27993449492213
9.832,0.9999865756737429,-26.875462414665577
9.84,0.999986615724172,-27.470427378294296
9.847999999999999,0.9999866579701563,-28.064817455570182
9.856,0.999986702408161,-28.658620826550496
9.864,0.9999867490340368,-29.25182578339448
9.872,0.999986797843023,-29.844420732122916
9.879999999999999,0.9999868488297504,-30.436394194329754
9.888,0.9999869019882437,-31.027734808844748
9.896,0.9999869573119264,-31.618431333347598
9.904,0.999987014793623,-32.20847264593337
9.911999999999999,0.9999870744255629,-32.797847746628825
9.92,0.9999871361993858,-33.3865457588585
9.928,0.9999872001061456,-33.9745559308612
9.936,0.9999872661363137,-34.56186763705692
9.943999999999999,0.9999873342797847,-35.148470379363836
9.952,0.9999874045258823,-35.73435378846451
