freq,mag,phase
6.0,0.9996656015761741,134.40561522087341
6.002287616,0.9998150827369988,134.26422897363875
6.004575232,0.9999770199506893,134.1206622377496
6.006862848,1.0001407802102527,133.97479831780913
6.009150464,1.000296300004664,133.82664541024317
6.011438592,1.0004333887848567,133.67642512874633
6.013726208,1.0005435976586174,133.52443002699587
6.016013824,1.0006199602587074,133.37116924007188
6.01830144,1.000657372222689,133.21711681469267
6.020589056,1.0006537611908133,133.0628845779507
6.022876672,1.0006089624453318,132.9090171506173
6.025164288,1.000526175669847,132.75616840915694
6.027451904,1.0004102432547666,132.60477172292693
6.029740032,1.0002684931374064,132.455328430386
6.032027648,1.000110213813849,132.3081086850934
6.034315264,0.9999449969340906,132.1632783708833
6.03660288,0.9997834179674492,132.02087441205387
6.038890496,0.9996360157450536,131.88079944279013
6.041178112,0.9995117642954071,131.74273166047473
6.043465728,0.9994187215805838,131.60631669639542
6.045753344,0.9993628339702085,131.47102707017842
6.04804096,0.9993477587613829,131.3363125139522
6.050329088,0.9993742509002943,131.20158410751046
6.052616704,0.9994408144894447,131.0662392781088
6.05490432,0.999543283019136,130.92969509138774
6.057191936,0.9996752321809089,130.79152397080878
6.059479552,0.9998282377821631,130.65129832425214
6.061767168,0.999992477965902,130.50886065964437
6.064054784,1.0001578274171885,130.36404654587432
6.0663424,1.0003137633786088,130.21695260543638
6.068630016,1.0004502821834134,130.0678218724696
6.070918144,1.000558661911559,129.91693891377759
6.07320576,1.0006321963399898,129.76479937621434
6.075493376,1.000666156134556,129.61189822428497
6.077780992,1.0006583438055172,129.45887755219522
6.080068608,1.0006092878463673,129.30632392803088
6.082356224,1.0005217902236756,129.15477045498224
6.08464384,1.0004017699022565,129.00480079846832
6.086931456,1.0002563400517945,128.8568068246677
6.089219584,1.0000949726830477,128.71106935183414
6.0915072,0.9999279427214137,128.5677883577928
6.093794816,0.9997655585612693,128.42692733998283
6.096082432,0.9996182459934826,128.28842475125262
6.098370048,0.9994953858183269,128.15192053244726
6.100657664,0.9994047747860231,128.01701617052169
6.10294528,0.9993521507190675,127.8831824310308
6.105232896,0.9993408559885333,127.7499209977909
6.107520512,0.9993719213665698,127.61653465112978
6.10980864,0.999443022078491,127.48244922047665
6.112096256,0.9995499586159919,127.34714996843012
6.114383872,0.9996858073184873,127.21013972187774
6.116671488,0.9998421520999192,127.0710249189218
6.118959104,1.0000089716786333,126.92963805329133
6.12124672,1.0001756813199505,126.78587441250606
6.123534336,1.0003318617064507,126.63981718073019
6.125821952,1.0004674725680702,126.49168809974607
6.128109568,1.000573925659273,126.34186442613348
6.130397696,1.0006445325929116,126.19077914648108
6.132685312,1.0006748315040777,126.03898415292778
6.134972928,1.0006626807897216,125.88713853920017
6.137260544,1.0006088727954054,125.73581610090952
6.13954816,1.000516946855075,125.58557926843523
6.141835776,1.0003925629162922,125.4369777752619
6.144123392,1.00024345742451,125.29038090482742
6.146411008,1.0000791622213376,125.14614235423521
6.148699136,0.9999101114903011,125.0043373008847
6.150986752,0.9997471224296411,124.86503147851553
6.153274368,0.999599952302348,124.72804764484162
6.155561984,0.9994786826757954,124.59300304575419
6.1578496,0.999390652606049,124.45959325195035
6.160137216,0.9993415605550883,124.32722369235461
6.162424832,0.9993344728659472,124.19528491100543
6.164712448,0.9993700475769435,124.06321252771582
6.167000064,0.9994457582150514,123.93039599972626
6.169288192,0.9995573772162825,123.79623532252955
6.171575808,0.999697271058188,123.66034464270581
6.173863424,0.9998569185454099,123.52226416370735
6.17615104,1.0000260940849806,123.38189589606904
6.178438656,1.0001940545346246,123.23909530926441
6.180726272,1.0003503836332324,123.09399413781048
6.183013888,1.0004849045429682,122.94682212435464
6.185301504,1.0005892836754855,122.7980011718343
6.18758912,1.0006566533885728,122.64793980921515
6.189877248,1.0006829719594401,122.4972518262675
6.192164864,1.000666430694471,122.34651164416432
6.19445248,1.0006079178038385,122.19638100058867
6.196740096,1.0005111733634477,122.04742784864891
6.199027712,1.000382495264914,121.900164133673
6.201315328,1.0002297506180466,121.75495489157431
6.203602944,1.0000626378660535,121.61213160706922
6.20589056,0.9998916661082979,121.47180529253693
6.208178688,0.9997278616271624,121.33399861253325
6.210466304,0.9995814757875379,121.19845578286495
6.21275392,0.999461887297678,121.06491821651294
6.215041536,0.999376612148721,120.93290279701147
6.217329152,0.9993312961024533,120.80190914018802
6.219616768,0.9993285593996277,120.67132666623856
6.221904384,0.9993687328709426,120.54051573037562
6.224192,0.9994494189252142,120.40883717377574
6.226479616,0.999565502058099,120.27580076693071
6.228767744,0.999709549536735,120.14094251825756
6.23105536,0.9998725086060485,120.00389262252334
6.233342976,1.0000439572049395,119.86442836308525
6.235630592,1.000213308414082,119.72256221037246
6.237918208,1.000369523753944,119.57838601352094
6.240205824,1.000502894497702,119.43211410802488
6.24249344,1.0006047143699208,119.28420706438662
6.244781056,1.0006688626860851,119.13513426385168
6.247068672,1.0006909237854498,118.98545440291981
6.2493568,1.0006696599098721,118.83583798936036
6.251644416,1.0006062478150335,118.68687912724191
6.253932032,1.0005048096951048,118.53913019471695
6.256219648,1.0003716221754193,118.39314847630742
6.258507264,1.0002151674741624,118.24930838118841
6.26079488,1.000045174506212,118.10785487232327
6.263082496,0.9998725070037426,117.96897612748896
6.265370112,0.999708151560368,117.83259753457928
6.26765824,0.9995624770741215,117.69850751743728
6.269945856,0.9994448257980381,117.56636791793245
6.272233472,0.9993625522685787,117.43576744003829
6.274521088,0.9993210634142073,117.30610409179457
6.276808704,0.9993229258557265,117.17674961050845
6.27909632,0.9993680846605916,117.04714705888397
6.281383936,0.9994537757324665,116.91661986514359
6.283671552,0.9995745020302025,116.784637723043
6.285959168,0.9997227772298997,116.65073533246786
6.288247296,0.9998890066530288,116.51461336745676
6.290534912,1.000062740082674,116.37603928857231
6.292822528,1.000233000228894,116.23503287233862
6.295110144,1.0003889860216002,116.09169776855991
6.29739776,1.0005209673747852,115.94632109809838
6.299685376,1.0006202196553557,115.7993006385293
6.301972992,1.0006807200302799,115.65113023366848
6.304260608,1.0006984317031957,115.50243774267459
6.306548224,1.0006721927883622,115.3538748654461
6.308836352,1.0006038210407007,115.20601286506817
6.311123968,1.000497531009581,115.05946477634774
6.313411584,1.0003597708347776,114.9147466492897
6.3156992,1.0001994631763331,114.77222464040011
6.317986816,1.0000267405939238,114.63215081526013
6.320274432,0.9998525511415612,114.49467663737165
6.322562048,0.9996877956167992,114.35968307176014
6.324849664,0.9995430197467811,114.22699178058416
6.327137792,0.999427475925499,114.09622612216587
6.329425408,0.9993485020040854,113.96695213167449
6.331713024,0.9993110624080083,113.83858261626447
6.33400064,0.9993176849613759,113.71046572508654
6.336288256,0.9993680666434515,113.58199256972522
6.338575872,0.9994588432656447,113.45250618019695
6.340863488,0.9995842980385836,113.32153923502253
6.343151104,0.9997366983471427,113.18854137885981
6.34543872,0.9999062850407548,113.05329255855334
6.347726848,1.0000821319907065,112.91556184491098
6.350014464,1.000253420101926,112.77535912359787
6.35230208,1.0004092182432958,112.63279629739378
6.354589696,1.0005394156017304,112.48821013394907
6.356877312,1.000635918256975,112.34201323323182
6.359164928,1.0006924919113094,112.19474839818503
6.361452544,1.0007056882155478,112.04702550993777
6.36374016,1.000674582159546,111.89945222434093
6.366027776,1.0006009042295838,111.75267353233369
6.368315904,1.0004894470946555,111.60729487501735
6.37060352,1.0003472705502834,111.4637578544279
6.372891136,1.000183159537567,111.32252895887402
6.375178752,1.0000076254415085,111.18378939020332
6.377466368,0.9998319879187065,111.0476606338395
6.379753984,0.9996669667512157,110.91402007646931
6.3820416,0.999523345868471,110.78269874632248
6.384329216,0.9994100651377563,110.65329609128626
6.386617344,0.999334560068744,110.5253017129713
6.38890496,0.9993015028416113,110.39813255584279
6.391192576,0.9993131142957234,110.27117774308559
6.393480192,0.9993685417880513,110.14378857269374
6.395767808,0.9994645801410497,110.01530919482504
6.398055424,0.9995949608343117,109.88527359628128
6.40034304,0.9997515359016036,109.75315347143727
6.402630656,0.999924311466769,109.61869565994269
6.404918272,1.0001023600035437,109.48172888686214
6.4072064,1.000274317643265,109.34224656100052
6.409494016,1.0004296321662303,109.20045093781309
6.411781632,1.0005578563688824,109.0566020295778
6.414069248,1.0006513355752882,108.91119534947198
6.416356864,1.0007040096356394,108.76474994896752
6.41864448,1.0007123261402722,108.61793418630612
6.420932096,1.000675909373854,108.47132225858438
6.423219712,1.0005969616777044,108.32559373314687
6.425507328,1.0004803617316969,108.1813161310895
6.427795456,1.0003335888340916,108.03901717816986
6.430083072,1.0001657106678032,107.89899398275801
6.432370688,0.9999877117938167,107.76157601688124
6.434658304,0.9998104375293316,107.62673356620425
6.43694592,0.9996454319455234,107.49444299022143
6.439233536,0.9995032170537839,107.3644402839829
6.441521152,0.9993925576372792,107.23627148611101
6.443808768,0.9993206022924747,107.10954333947166
6.446096896,0.9992921858754287,106.98357156192652
6.448384512,0.9993089175841614,106.8577033711178
6.450672128,0.9993698166744159,106.73133138400061
6.452959744,0.9994712431239845,106.6038326407438
6.45524736,0.9996066010983055,106.47462923199885
6.457534976,0.9997673535552577,106.34330102641141
6.459822592,0.9999432722266238,106.20959026533863
6.462110208,1.0001232879936408,106.07332871552866
6.464397824,1.0002961280710563,105.93454321822166
6.466685952,1.0004504328796517,105.79339931000965
6.468973568,1.000576690329026,105.65028622909219
6.471261184,1.0006669750726525,105.50560876331032
6.4735488,1.000715305606479,105.35995431242469
6.475836416,1.0007186899604235,105.21398548074603
6.478124032,1.000676744212172,105.06829968573216
6.480411648,1.0005923589372716,104.9235980226833
6.482699264,1.0004705395774187,104.7803874527644
6.48498688,1.00031912204608,104.63921057980976
6.487275008,1.000147701196588,104.50041139760265
6.489562624,0.9999669807925728,104.36422846714203
6.49185024,0.9997886202300994,104.23065789653769
6.494137856,0.9996237032753665,104.0996814582286
6.496425472,0.9994828926514652,103.97093276886795
6.498713088,0.9993750495320326,103.84404520265453
6.501000704,0.9993070532089136,103.7184789962077
6.50328832,0.9992833925708058,103.59361923942878
6.505576448,0.9993055260093686,103.46880897232015
6.507864064,0.999372010660735,103.34342139176583
6.51015168,0.9994788221002341,103.2167731748631
6.512439296,0.9996190576383212,103.08839378638531
6.514726912,0.9997839795253521,102.95782090566804
6.517014528,0.9999631212809473,102.8247641751473
6.519302144,1.000144992054569,102.68916684115088
6.52158976,1.000318230309312,102.55099513777496
6.523877376,1.0004716158176252,102.41048075354608
6.526165504,1.0005956288623377,102.26798418498178
6.52845312,1.0006823280506967,102.1240038326656
6.530740736,1.000726153222861,101.9791067515476
6.533028352,1.00072436497121,101.83393898000166
6.535315968,1.0006769722862063,101.68914572210306
6.537603584,1.0005868280277253,101.54540042047928
6.5398912,1.0004597832145254,101.40324510783645
6.542178816,1.0003036852710085,101.26318017619225
6.544466432,1.0001287086969535,101.1255639205932
6.54675456,0.9999454841501517,100.99057164257067
6.549042176,0.9997659519617841,100.85827534179194
6.551329792,0.9996013262647347,100.72851703480278
6.553617408,0.9994622912261288,100.601009608239
6.555905024,0.999357429722805,100.47531137478168
6.55819264,0.9992936918775986,100.35088682928983
6.560480256,0.9992750551965888,100.227059762914
6.562767872,0.9993026480358453,100.10327700798685
6.565056,0.9993748833126799,99.97878348699886
6.567343616,0.9994872562884535,99.8529605269717
6.569631232,0.9996325253242495,99.7253117558146
6.571918848,0.9998016392517377,99.59541404703783
6.574206464,0.9999837402187128,99.46300436639835
6.57649408,1.0001674178449327,99.32796268757025
6.578781696,1.0003408396040365,99.19034604041322
6.581069312,1.0004931156418329,99.05045791818894
6.583356928,1.0006146766801356,98.90852160980857
6.585645056,1.0006976861325072,98.76520930652518
6.587932672,1.0007367256350597,98.62098399660178
6.590220288,1.000729618669512,98.4765864537127
6.592507904,1.0006763380198642,98.33263517811294
6.59479552,1.000580631173122,98.18980906299251
6.597083136,1.0004481631219948,98.04866368858937
6.599370752,1.0002874896213192,97.90969941208971
6.601658368,1.0001087592784557,97.77319100741015
6.603945984,0.9999233137937389,97.63940728815098
6.606234112,0.9997427351535928,97.50830018485121
6.608521728,0.9995786415969696,97.37973111852682
6.610809344,0.9994415626841522,97.25341612698078
6.61309696,0.9993400651920539,97.12886975177531
6.615384576,0.9992806025325229,97.00551254716812
6.617672192,0.9992670948661138,96.88274813438929
6.619959808,0.9993005551505976,96.75986715947425
6.622247424,0.9993786178129278,96.63621721713119
6.624535552,0.9994966458345661,96.51115931187101
6.626823168,0.9996471110408061,96.38421025433661
6.629110784,0.9998201826799857,96.2549239441636
6.6313984,1.000005294861396,96.12305698964411
6.633686016,1.0001905115479957,95.98853664426649
6.635973632,1.0003641374244368,95.85144119292265
6.638261248,1.0005149926393624,95.71203821951367
6.640548864,1.0006338436300015,95.57066490296701
6.64283648,1.0007128166986878,95.42792771787167
6.645124608,1.000746986227447,95.28435360726775
6.647412224,1.0007340636811501,95.1406800929723
6.64969984,1.0006749855116424,94.99756824516635
6.651987456,1.0005734138500069,94.85562026457596
6.654275072,1.0004355023258842,94.715458214063
6.656562688,1.0002702921556605,94.57753962993179
6.658850304,1.0000879428642422,94.4421490696753
6.66113792,0.9999002656106927,94.30950178259177
6.663426048,0.9997188833662385,94.17955403757121
6.665713664,0.9995557493252262,94.05213758019376
6.66800128,0.999420766201027,93.92694707288327
6.670288896,0.9993226682282874,93.8035048408299
6.672576512,0.9992678753894062,93.68117631968748
6.674864128,0.9992599132384652,93.5593795169159
6.677151744,0.9992990652992453,93.43737619239197
6.67943936,0.9993833902937997,93.31448019632201
6.681726976,0.999507076080613,93.19015271053505
6.684015104,0.999662447281041,93.06381236855017
6.68630272,0.9998397589200466,92.93505818040367
6.688590336,1.0000276041685237,92.80369406682246
6.690877952,1.0002142610057085,92.66967044176054
6.693165568,1.0003877995891874,92.53302896018023
6.695453184,1.0005371379780093,92.39406744117295
6.6977408,1.000652898398557,92.25319215853088
6.700028416,1.0007276701053376,92.1109974490263
6.702316032,1.0007566098061758,91.96804880638352
6.70460416,1.0007379578910578,91.82505557323468
6.706891776,1.0006727914636797,91.6826878597374
6.709179392,1.0005651681336862,91.54161210398905
6.711467008,1.0004219557819016,91.40236759391051
6.713754624,1.0002520619848305,91.26545661976778
6.71604224,1.0000661432214475,91.13116059518495
6.718329856,0.9998764290561667,90.99958660199589
6.720617472,0.9996945866655789,90.87079239981563
6.7229056,0.9995322011738973,90.74448929275948
6.725193216,0.9993995958324798,90.62038685567526
6.727480832,0.9993053817736427,90.4979825204139
6.729768448,0.9992555525796794,90.37665286593715
6.732056064,0.9992531535156246,90.25573624834722
6.73434368,0.9992984677115181,90.13456900005787
6.736631296,0.999388837510881,90.01243537612179
6.738918912,0.9995181935254328,89.88871846419036
6.741206528,0.9996787059517699,89.76291980253596
6.743494656,0.9998601085435369,89.634663658309
6.745782272,1.0000507408560462,89.50375797411293
6.748069888,1.000238664388119,89.37009714217804
6.750357504,1.0004118994510205,89.23385095489965
6.75264512,1.0005593661981107,89.0952998656088
6.754932736,1.0006719181650092,88.95487845993014
6.757220352,1.000742194847981,88.81315506279984
6.759507968,1.000765805300099,88.67077593366272
6.761795584,1.0007411961674288,88.52845293656394
6.764083712,1.0006698142197776,88.38684702404994
6.766371328,1.0005562427775734,88.24656036251749
6.768658944,1.0004073752309317,88.10825289668608
6.77094656,1.0002329270708714,87.97228425729271
6.773234176,1.0000437603960568,87.83900492728613
6.775521792,0.9998518646317267,87.70853564740501
6.777809408,0.9996697291445147,87.58079402131634
6.780097024,0.9995084634018737,87.45558540727137
6.782385152,0.9993786376718067,87.3325474134212
6.784672768,0.9992884143901322,87.21113626595971
6.786960384,0.9992435318648223,87.09074636155201
6.789248,0.9992471036714189,86.9706776915949
6.791535616,0.9992986403775577,86.85023769176206
6.793823232,0.9993952778441397,86.72876371895183
6.796110848,0.9995305657417192,86.60563465691534
6.798398464,0.9996961773906253,86.48034013896014
6.80068608,0.9998814549669148,86.3524961030453
6.802974208,1.000074774585129,86.22193555982918
6.805261824,1.0002638159639807,86.08864709665465
6.80754944,1.000436470474306,85.95273902580658
6.809837056,1.000582013524288,85.81453031886595
6.812124672,1.0006909839651559,85.67451663306241
6.814412288,1.0007565703407484,85.53324520924654
6.816699904,1.0007745604017801,85.39142750187516
6.81898752,1.000743714937133,85.24965772435785
6.821275136,1.000665915316099,85.10873315667025
6.823563264,1.0005460347780495,84.96928457883395
6.82585088,1.000391873430592,84.8318058995511
6.828138496,1.0002128332454592,84.69679172395578
6.830426112,1.0000203827852805,84.56453295774432
6.832713728,0.9998268806494887,84.435061231137
6.835001344,0.9996443081945293,84.3083915820087
6.83728896,0.999484420941745,84.18420287751118
6.839576576,0.9993574889040088,84.06216980545277
6.841864704,0.9992715465303753,83.9417187946429
6.84415232,0.9992321146360833,83.82219686082092
6.846439936,0.9992416085170827,83.7029038108616
6.848727552,0.9992997071049283,83.58318154394662
6.851015168,0.9994025441982674,83.46230338688419
6.853302784,0.9995438741123692,83.33967302593688
6.8555904,0.999714449495345,83.21482332511886
6.857878016,0.9999036808594337,83.08735763675006
6.860165632,1.0000994542640063,82.95711179813442
6.86245376,1.0002893181625194,82.82408450468654
6.864741376,1.0004613398977757,82.688495597475
6.867028992,1.000604533905736,82.55060402759207
6.869316608,1.0007098035225017,82.41091908966915
6.871604224,1.000770501670294,82.27004275863902
6.87389184,1.0007825714834486,82.12870339088325
6.876179456,1.0007452909606274,81.98754093811849
6.878467072,1.000660944563124,81.84727229937972
6.880754688,1.0005351089061472,81.70852817383165
6.883042816,1.000375184261595,81.57194216022297
6.885330432,1.0001917036140056,81.43783884319741
6.887618048,0.9999961447372252,81.30649307620001
6.889905664,0.9998009452885513,81.17804047951742
6.89219328,0.9996183534503795,81.05237964437704
6.894480896,0.9994601799349205,80.92919039127374
6.896768512,0.9993364816459335,80.80809269049385
6.899056128,0.9992549671995931,80.68851850887319
6.901344256,0.9992211451503992,80.56981624151243
6.903631872,0.9992369056024341,80.45128426976939
6.905919488,0.999301561016682,80.33218784766198
6.908207104,0.999410958865578,80.21185395035188
6.91049472,0.9995581207214065,80.08967505137615
6.912782336,0.9997337882912108,79.96518250449195
6.915069952,0.9999267191070041,79.83802049747996
6.917357568,1.0001249127442218,79.70804855073996
6.919645184,1.0003154816236135,79.57527361858763
6.921933312,1.0004866052495067,79.43987278716097
6.924220928,1.0006271796399482,79.30223354553381
6.926508544,1.00072856204334,79.16285369369386
6.92879616,1.0007838823011932,79.02235908916224
6.931083776,1.000789896079997,78.88143404505684
