freq,mag,phase
6.0,0.999999170607849,151.08010489160066
6.008,0.9999992048727606,151.04126753102344
6.016,0.9999992374495663,151.00242909363223
6.024,0.9999992683557887,150.96358957871726
6.032,0.9999992976088857,150.92474898556657
6.04,0.9999993252262541,150.8859073134659
6.048,0.9999993512252265,150.8470645616989
6.056,0.9999993756230732,150.80822072954686
6.064,0.9999993984370015,150.7693758162891
6.072,0.999999419684155,150.7305298212025
6.08,0.9999994393816153,150.6916827435619
6.088,0.9999994575464003,150.6528345826398
6.096,0.9999994741954652,150.61398533770665
6.104,0.9999994893457026,150.5751350080305
6.112,0.9999995030139415,150.5362835928774
6.12,0.9999995152169476,150.49743109151103
6.128,0.9999995259714252,150.45857750319303
6.136,0.9999995352940138,150.41972282718274
6.144,0.9999995432012907,150.38086706273725
6.152,0.9999995497097699,150.34201020911158
6.16,0.999999554835903,150.30315226555845
6.168,0.999999558596078,150.26429323132837
6.176,0.99999956100662,150.2254331056698
6.184,0.999999562083791,150.1865718878288
6.192,0.9999995618437905,150.14770957704934
6.2,0.9999995603027539,150.1088461725732
6.208,0.9999995574767552,150.06998167363992
6.216,0.9999995533818036,150.03111607948685
6.224,0.9999995480338464,149.99224938934918
6.232,0.9999995414487676,149.9533816024599
6.24,0.9999995336423879,149.9145127180497
6.248,0.9999995246304659,149.8756427353472
6.256,0.999999514428696,149.83677165357875
6.264,0.9999995030527099,149.79789947196858
6.272,0.9999994905180767,149.7590261897386
6.28,0.9999994768403024,149.72015180610865
6.288,0.9999994620348296,149.68127632029632
6.296,0.9999994461170383,149.642399731517
6.304,0.999999429102245,149.60352203898387
6.312,0.9999994110057037,149.564643241908
6.32,0.9999993918426052,149.5257633394981
6.328,0.9999993716280772,149.48688233096092
6.336,0.9999993503771843,149.44800021550083
6.344,0.9999993281049288,149.40911699232004
6.352,0.9999993048262491,149.3702326606186
6.36,0.9999992805560213,149.33134721959442
6.368,0.9999992553090578,149.2924606684431
6.376,0.9999992291001089,149.25357300635818
6.384,0.9999992019438612,149.2146842325308
6.392,0.9999991738549386,149.17579434615016
6.4,0.9999991448479025,149.13690334640313
6.408,0.9999991149372507,149.0980112324744
6.416,0.9999990841374181,149.05911800354644
6.424,0.9999990524627773,149.0202236587996
6.432,0.999999019927637,148.98132819741204
6.44,0.9999989865462439,148.94243161855965
6.448,0.9999989523327812,148.9035339214162
6.456,0.9999989173013698,148.86463510515327
6.464,0.9999988814660667,148.82573516894018
6.472,0.9999988448408671,148.78683411194416
6.48,0.999998807439703,148.74793193333016
6.4879999999999995,0.9999987692764432,148.709028632261
6.496,0.9999987303648937,148.67012420789726
6.504,0.9999986907187981,148.6312186593974
6.5120000000000005,0.9999986503518365,148.59231198591766
6.52,0.9999986092776271,148.55340418661203
6.5280000000000005,0.9999985675097245,148.51449526063243
6.536,0.999998525061621,148.47558520712846
6.5440000000000005,0.9999984819467456,148.43667402524764
6.552,0.9999984381784651,148.39776171413527
6.5600000000000005,0.999998393770083,148.35884827293444
6.568,0.9999983487348408,148.3199337007861
6.5760000000000005,0.9999983030859166,148.2810179968289
6.584,0.9999982568364261,148.24210116019944
6.592,0.9999982099994222,148.20318319003206
6.6,0.9999981625878952,148.16426408545894
6.608,0.9999981146147724,148.12534384561005
6.616,0.9999980660929193,148.08642246961318
6.624,0.9999980170351378,148.04749995659387
6.632,0.9999979674541678,148.00857630567563
6.64,0.9999979173626862,147.96965151597965
6.648,0.9999978667733076,147.93072558662496
6.656,0.9999978156985843,147.89179851672844
6.664,0.9999977641510053,147.8528703054048
6.672,0.9999977121429977,147.8139409517664
6.68,0.999997659686926,147.77501045492366
6.688,0.9999976067950919,147.73607881398462
6.696,0.9999975534797352,147.6971460280552
6.704,0.9999974997530322,147.65821209623917
6.712,0.9999974456270985,147.61927701763804
6.72,0.9999973911139857,147.5803407913512
6.728,0.9999973362256832,147.54140341647584
6.736,0.9999972809741193,147.5024648921069
6.744,0.9999972253711588,147.4635252173372
6.752,0.9999971694286043,147.4245843912574
6.76,0.9999971131581963,147.3856424129559
6.768,0.9999970565716134,147.34669928151888
6.776,0.9999969996804711,147.3077549960305
6.784,0.9999969424963234,147.26880955557255
6.792,0.9999968850306623,147.22986295922476
6.8,0.9999968272949169,147.19091520606457
6.808,0.9999967693004542,147.15196629516737
6.816,0.9999967110585798,147.1130162256062
6.824,0.9999966525805365,147.07406499645205
6.832,0.9999965938775053,147.03511260677368
6.84,0.9999965349606054,146.99615905563758
6.848,0.9999964758408936,146.9572043421082
6.856,0.9999964165293651,146.91824846524767
6.864,0.9999963570369526,146.87929142411602
6.872,0.9999962973745272,146.84033321777105
6.88,0.9999962375528988,146.8013738452684
6.888,0.9999961775828141,146.7624133056615
6.896,0.9999961174749588,146.7234515980016
6.904,0.9999960572399567,146.68448872133777
6.912,0.9999959968883698,146.64552467471685
6.92,0.9999959364306986,146.60655945718358
6.928,0.9999958758773813,146.56759306778045
6.936,0.9999958152387948,146.52862550554775
6.944,0.9999957545252546,146.4896567695236
6.952,0.9999956937470139,146.45068685874398
6.96,0.999995632914265,146.41171577224256
6.968,0.9999955720371388,146.37274350905096
6.976,0.9999955111257038,146.33377006819856
6.984,0.9999954501899682,146.29479544871248
6.992,0.9999953892398774,146.2558196496178
7.0,0.9999953282853167,146.2168426699372
7.008,0.9999952673361096,146.17786450869139
7.016,0.9999952064020179,146.13888516489877
7.024,0.9999951454927429,146.0999046375756
7.032,0.9999950846179236,146.06092292573587
7.04,0.9999950237871389,146.02194002839147
7.048,0.9999949630099061,145.9829559445521
7.056,0.999994902295681,145.94397067322515
7.064,0.9999948416538589,145.904984213416
7.072,0.999994781093774,145.86599656412764
7.08,0.9999947206246996,145.8270077243611
7.088,0.9999946602558472,145.788017693115
7.096,0.9999945999963683,145.74902646938585
7.104,0.9999945398553535,145.71003405216808
7.112,0.9999944798418324,145.6710404404537
7.12,0.9999944199647731,145.63204563323276
7.128,0.999994360233085,145.593049629493
7.136,0.9999943006556142,145.55405242821996
7.144,0.9999942412411482,145.515054028397
7.152,0.9999941819984134,145.47605442900533
7.16,0.999994122936075,145.43705362902392
7.168,0.9999940640627383,145.39805162742954
7.176,0.9999940053869483,145.3590484231968
7.184,0.9999939469171893,145.32004401529818
7.192,0.9999938886618852,145.28103840270379
7.2,0.9999938306294001,145.2420315843817
7.208,0.9999937728280373,145.20302355929772
7.216,0.9999937152660404,145.16401432641547
7.224,0.9999936579515926,145.1250038846964
7.232,0.9999936008928169,145.08599223309977
7.24,0.9999935440977767,145.0469793705826
7.248,0.9999934875744753,145.0079652960997
7.256,0.9999934313308557,144.96895000860383
7.264,0.999993375374802,144.92993350704535
7.272,0.9999933197141373,144.89091579037256
7.28,0.9999932643566258,144.85189685753153
7.288,0.9999932093099719,144.81287670746613
7.296,0.9999931545818199,144.77385533911803
7.304,0.9999931001797555,144.73483275142667
7.312,0.9999930461113042,144.69580894332935
7.32,0.9999929923839319,144.6567839137612
7.328,0.9999929390050459,144.617757661655
7.336,0.9999928859819933,144.5787301859415
7.344,0.9999928333220628,144.5397014855492
7.352,0.9999927810324835,144.50067155940434
7.36,0.9999927291204251,144.461640406431
7.368,0.9999926775929991,144.42260802555114
7.376,0.9999926264572575,144.38357441568436
7.384,0.999992575720193,144.3445395757482
7.392,0.9999925253887402,144.30550350465793
7.4,0.9999924754697744,144.26646620132664
7.4079999999999995,0.9999924259701125,144.22742766466524
7.416,0.9999923768965132,144.18838789358233
7.4239999999999995,0.9999923282556755,144.1493468869845
7.432,0.9999922800542409,144.11030464377595
7.4399999999999995,0.9999922322987916,144.0712611628588
7.448,0.999992184995853,144.03221644313294
7.4559999999999995,0.9999921381518905,143.99317048349602
7.464,0.9999920917733125,143.95412328284348
7.4719999999999995,0.9999920458664684,143.91507484006868
7.48,0.9999920004376507,143.8760251540626
7.4879999999999995,0.9999919554930929,143.83697422371415
7.496,0.9999919110389713,143.79792204790996
7.504,0.9999918670814042,143.75886862553452
7.5120000000000005,0.9999918236264518,143.71981395547002
7.52,0.9999917806801174,143.6807580365966
7.5280000000000005,0.9999917382483465,143.64170086779197
7.536,0.9999916963370269,143.6026424479319
7.5440000000000005,0.9999916549519893,143.56358277588976
7.552,0.9999916140990073,143.5245218505368
7.5600000000000005,0.9999915737837962,143.48545967074196
7.568,0.9999915340120161,143.44639623537213
7.5760000000000005,0.9999914947892686,143.4073315432919
7.584,0.9999914561210991,143.36826559336367
7.5920000000000005,0.9999914180129957,143.3291983844476
7.6,0.9999913804703902,143.29012991540174
7.6080000000000005,0.9999913434986575,143.2510601850818
7.616,0.999991307103116,143.21198919234143
7.6240000000000006,0.9999912712890281,143.17291693603192
7.632,0.999991236061599,143.13384341500247
7.640000000000001,0.9999912014259786,143.0947686281
7.648,0.9999911673872602,143.05569257416929
7.656000000000001,0.999991133950481,143.01661525205284
7.664,0.9999911011206224,142.97753666059097
7.672,0.99999106890261,142.93845679862181
7.68,0.9999910373013137,142.89937566498125
7.688,0.9999910063215476,142.86029325850302
7.696,0.9999909759680705,142.82120957801857
7.704,0.9999909462455859,142.7821246223572
7.712,0.9999909171587422,142.74303839034596
7.72,0.9999908887121318,142.70395088080974
7.728,0.999990860910293,142.66486209257116
7.736,0.9999908337577086,142.62577202445067
7.744,0.999990807258807,142.5866806752665
7.752,0.9999907814179614,142.54758804383468
7.76,0.9999907562394913,142.50849412896898
7.768,0.9999907317276607,142.4693989294811
7.776,0.9999907078866799,142.4303024441803
7.784,0.9999906847207054,142.39120467187388
7.792,0.9999906622338384,142.35210561136674
7.8,0.9999906404301278,142.31300526146165
7.808,0.999990619313567,142.2739036209592
7.816,0.9999905988880973,142.23480068865766
7.824,0.9999905791576055,142.19569646335324
7.832,0.9999905601259251,142.15659094383983
7.84,0.9999905417968371,142.1174841289091
7.848,0.9999905241740682,142.07837601735062
7.856,0.9999905072612929,142.03926660795167
7.864,0.9999904910621332,142.00015589949732
7.872,0.9999904755801579,141.96104389077044
7.88,0.9999904608188831,141.92193058055173
7.888,0.9999904467817732,141.88281596761962
7.896,0.9999904334722396,141.84370005075039
7.904,0.9999904208936421,141.80458282871803
7.912,0.9999904090492889,141.76546430029444
7.92,0.9999903979424364,141.72634446424925
7.928,0.9999903875762886,141.6872233193498
7.936,0.9999903779539989,141.64810086436137
7.944,0.9999903690786692,141.60897709804698
7.952,0.9999903609533508,141.5698520191674
7.96,0.9999903535810433,141.53072562648126
7.968,0.9999903469646961,141.4915979187449
7.976,0.9999903411072081,141.45246889471258
7.984,0.9999903360114277,141.41333855313624
7.992,0.9999903316801533,141.3742068927657
8.0,0.999990328116133,141.3350739123485
8.008,0.9999903253220654,141.29593961063006
8.016,0.9999903233005998,141.2568039863535
8.024000000000001,0.9999903220543355,141.21766703825992
8.032,0.9999903215858229,141.17852876508798
8.04,0.9999903218975633,141.1393891655743
8.048,0.9999903229920099,141.10024823845333
8.056000000000001,0.999990324871566,141.06110598245715
8.064,0.9999903275385879,141.02196239631584
8.072,0.9999903309953828,140.98281747875717
8.08,0.999990335244211,140.94367122850673
8.088000000000001,0.9999903402872841,140.90452364428796
8.096,0.9999903461267665,140.86537472482203
8.104,0.9999903527647762,140.8262244688281
8.112,0.999990360203383,140.78707287502291
8.120000000000001,0.9999903684446111,140.74791994212111
8.128,0.9999903774904373,140.70876566883527
8.136,0.9999903873427923,140.66961005387557
8.144,0.9999903980035615,140.6304530959502
8.152000000000001,0.999990409474584,140.59129479376506
8.16,0.9999904217576535,140.5521351460239
8.168,0.9999904348545191,140.51297415142827
8.176,0.9999904487668835,140.4738118086776
8.184000000000001,0.9999904634964067,140.4346481164691
8.192,0.999990479044703,140.39548307349784
8.2,0.9999904954133432,140.3563166784567
8.208,0.9999905126038536,140.31714893003638
8.216000000000001,0.9999905306177189,140.27797982692545
8.224,0.9999905494563786,140.23880936781032
8.232,0.99999056912123,140.19963755137516
8.24,0.9999905896136283,140.1604643763021
8.248000000000001,0.9999906109348868,140.12128984127102
8.256,0.9999906330862759,140.0821139449598
8.264,0.9999906560690252,140.04293668604393
8.272,0.999990679884323,140.00375806319698
8.280000000000001,0.9999907045333166,139.9645780750902
8.288,0.9999907300171136,139.9253967203929
8.296,0.9999907563367806,139.88621399777205
8.304,0.9999907834933448,139.8470299058926
8.312,0.9999908114877946,139.80784444341742
8.32,0.9999908403210785,139.7686576090071
8.328,0.9999908699941077,139.72946940132024
8.336,0.9999909005077545,139.6902798190133
8.344,0.9999909318628535,139.6510888607406
8.352,0.9999909640602023,139.6118965251544
8.36,0.999990997100562,139.57270281090476
8.368,0.9999910309846572,139.53350771663975
8.376,0.9999910657131759,139.4943112410053
8.384,0.9999911012867714,139.45511338264524
8.392,0.9999911377060622,139.41591414020144
8.4,0.9999911749716316,139.37671351231344
8.408,0.9999912130840298,139.33751149761895
8.416,0.9999912520437729,139.2983080947535
8.424,0.999991291851345,139.25910330235067
8.432,0.9999913325071969,139.2198971190418
8.44,0.999991374011748,139.18068954345634
8.448,0.9999914163653866,139.1414805742217
8.456,0.9999914595684704,139.1022702099632
8.464,0.9999915036213268,139.06305844930415
8.472,0.999991548524254,139.02384529086586
8.48,0.9999915942775212,138.98463073326764
8.488,0.9999916408813698,138.94541477512678
8.496,0.9999916883360137,138.90619741505864
8.504,0.9999917366416394,138.86697865167648
8.512,0.9999917857984083,138.82775848359174
8.52,0.9999918358064558,138.7885369094138
8.528,0.9999918866658922,138.74931392775014
8.536,0.9999919383768056,138.7100895372063
8.544,0.9999919909392585,138.6708637363858
8.552,0.9999920443532935,138.6316365238904
8.56,0.9999920986189303,138.5924078983198
8.568,0.9999921537361688,138.553177858272
8.576,0.9999922097049879,138.5139464023429
8.584,0.9999922665253494,138.47471352912672
8.592,0.9999923241971954,138.43547923721573
8.6,0.9999923827204523,138.39624352520036
8.608,0.9999924420950296,138.3570063916693
8.616,0.9999925023208222,138.31776783520934
8.624,0.9999925633977108,138.27852785440555
8.632,0.9999926253255637,138.23928644784124
8.64,0.9999926881042361,138.20004361409784
8.648,0.9999927517335743,138.1607993517552
8.656,0.9999928162134135,138.1215536593914
8.664,0.999992881543581,138.08230653558277
8.672,0.9999929477238972,138.04305797890407
8.68,0.9999930147541768,138.00380798792827
8.688,0.9999930826342293,137.9645565612268
8.696,0.9999931513638617,137.92530369736954
8.704,0.9999932209428791,137.88604939492458
8.712,0.9999932913710858,137.8467936524587
8.72,0.9999933626482881,137.80753646853697
8.728,0.9999934347742943,137.768277841723
8.736,0.9999935077489169,137.729017770579
8.744,0.9999935815719757,137.68975625366562
8.752,0.9999936562432966,137.65049328954214
8.76,0.9999937317627151,137.61122887676646
8.768,0.9999938081300792,137.57196301389519
8.776,0.9999938853452495,137.53269569948347
8.784,0.9999939634081003,137.49342693208533
8.792,0.9999940423185254,137.45415671025347
8.8,0.9999941220764357,137.4148850325394
8.808,0.9999942026817649,137.37561189749349
8.815999999999999,0.9999942841344697,137.33633730366492
8.824,0.999994366434533,137.29706124960194
8.832,0.9999944495819658,137.25778373385165
8.84,0.9999945335768106,137.21850475496024
8.847999999999999,0.9999946184191425,137.17922431147295
8.856,0.9999947041090738,137.13994240193415
8.864,0.9999947906467548,137.10065902488742
8.872,0.9999948780323784,137.06137417887558
8.879999999999999,0.9999949662661822,137.02208786244074
8.888,0.9999950553484518,136.98280007412438
8.896,0.9999951452795247,136.94351081246745
8.904,0.9999952360597919,136.90422007601038
8.911999999999999,0.9999953276897037,136.8649278632932
8.92,0.9999954201697717,136.8256341728555
8.928,0.9999955135005736,136.7863390032368
8.936,0.9999956076827572,136.74704235297634
8.943999999999999,0.9999957027170431,136.70774422061322
8.952,0.9999957986042306,136.6684446046866
8.96,0.9999958953452015,136.62914350373578
8.968,0.9999959929409256,136.5898409163002
8.975999999999999,0.9999960913924643,136.55053684091965
8.984,0.9999961907009756,136.5112312761343
8.992,0.9999962908677217,136.4719242204849
9.0,0.9999963918940719,136.4326156725129
9.008,0.9999964937815095,136.3933056307604
9.016,0.999996596531638,136.35399409377067
9.024000000000001,0.9999967001461874,136.31468106008782
9.032,0.9999968046270205,136.27536652825728
9.04,0.9999969099761397,136.23605049682592
9.048,0.9999970161956946,136.19673296434206
9.056000000000001,0.99999712328799,136.15741392935584
9.064,0.999997231255492,136.1180933904193
9.072,0.9999973401008388,136.07877134608648
9.08,0.9999974498268478,136.0394477949139
9.088000000000001,0.9999975604365245,136.00012273546048
9.096,0.9999976719330731,135.96079616628802
9.104,0.9999977843199064,135.9214680859612
9.112,0.9999978976006548,135.88213849304807
9.120000000000001,0.9999980117791798,135.84280738612014
9.128,0.9999981268595836,135.80347476375277
9.136,0.9999982428462217,135.76414062452542
9.144,0.9999983597437171,135.72480496702204
9.152000000000001,0.9999984775569714,135.68546778983125
9.16,0.9999985962911813,135.64612909154692
9.168,0.9999987159518521,135.60678887076836
9.176,0.9999988365448134,135.56744712610083
9.184000000000001,0.9999989580762367,135.52810385615587
9.192,0.9999990805526529,135.4887590595519
9.2,0.9999992039809682,135.4494127349146
9.208,0.9999993283684874,135.4100648808774
9.216000000000001,0.999999453722932,135.37071549608203
9.224,0.9999995800524618,135.33136457917922
9.232,0.9999997073656989,135.29201212882919
9.24,0.9999998356717515,135.25265814370226
9.248000000000001,0.9999999649802404,135.21330262247966
9.256,1.0,135.17394556385432
9.264,1.0,135.13458696653146
9.272,1.0,135.0952268292296
9.280000000000001,1.0,135.05586515068146
9.288,0.9999999999999999,135.01650192963479
9.296,1.0,134.9771371648536
9.304,0.9999999999999999,134.93777085511908
9.312000000000001,1.0,134.89840299923094
9.32,1.0,134.85903359600857
9.328,0.9999999999999999,134.8196626442925
9.336,0.9999999999999999,134.78029014294566
9.344,1.0,134.7409160908553
9.352,1.0,134.70154048693442
9.36,1.0,134.6621633301236
9.368,0.9999999999999999,134.62278461939303
9.376,1.0,134.58340435374475
9.384,1.0,134.5440225322146
9.392,1.0,134.504639153875
9.4,0.9999999999999999,134.46525421783747
9.408,0.9999999999999999,134.4258677232556
9.416,1.0,134.38647966932803
9.424,1.0,134.347090055302
9.432,1.0,134.3076988804769
9.44,1.0,134.26830614420834
9.448,1.0,134.22891184591256
9.456,1.0,134.18951598507084
9.464,1.0,134.1501185612352
9.472,1.0,134.11071957403348
9.48,1.0,134.07131902317585
9.488,1.0,134.0319169084614
9.496,1.0000000000000002,133.99251322978552
9.504,1.0,133.95310798714803
9.512,0.9999999999999999,133.913701180662
9.52,1.0,133.87429281056353
9.528,1.0,133.83488287722255
9.536,1.0,133.79547138115464
9.544,1.0,133.75605832303413
9.552,0.9999999999999999,133.71664370370857
9.56,1.0,133.67722752421489
9.568,1.0,133.63780978579706
9.576,1.0,133.59839048992598
9.584,0.9999999999999999,133.55896963832168
9.592,0.9999999999999999,133.51954723297766
9.6,1.0,133.4801232761886
9.608,1.0,133.44069777058104
9.616,1.0,133.40127071914796
9.624,1.0,133.3618421252877
9.632,1.0,133.3224119928477
9.64,1.0,133.28298032617374
9.648,1.0,133.24354713016623
9.656,1.0,133.20411241034327
9.664,1.0,133.1646761729129
9.672,0.9999999999999999,133.1252384248554
9.68,0.9999999999999999,133.08579917401724
9.688,1.0,133.0463584292186
