freq,mag,phase
6.0,0.9999945541720519,69.33970640111866
6.008,0.9999971419260638,69.18281114735731
6.016,0.9999996798260276,69.02588208921341
6.024,0.9999999999999998,68.86891925849754
6.032,1.0,68.71192268708444
6.04,0.9999999999999999,68.55489240691337
6.048,0.9999999999999999,68.39782844998864
6.056,1.0,68.24073084837998
6.064,1.0,68.08359963422296
6.072,1.0000000000000002,67.92643483971958
6.08,0.9999999999999999,67.76923649713841
6.088,1.0,67.61200463881532
6.096,0.9999999999999999,67.45473929715374
6.104,0.9999999999999999,67.29744050462514
6.112,0.9999999999999999,67.14010829376944
6.12,1.0,66.98274269719549
6.128,0.9999999999999999,66.82534374758141
6.136,0.9999999999999999,66.66791147767508
6.144,1.0,66.51044592029454
6.152,0.9999999999999999,66.35294710832845
6.16,1.0,66.19541507473645
6.168,1.0,66.03784985254957
6.176,1.0,65.88025147487082
6.184,0.9999999999999999,65.72261997487533
6.192,1.0,65.56495538581103
6.2,1.0,65.40725774099886
6.208,1.0000000000000002,65.24952707383332
6.216,1.0,65.09176341778286
6.224,1.0,64.93396680639022
6.232,1.0,64.77613727327291
6.24,1.0,64.61827485212362
6.248,0.9999999999999999,64.4603795767106
6.256,0.9999999999999999,64.30245148087799
6.264,1.0,64.14449059854644
6.272,1.0,63.98649696371332
6.28,0.9999999999999999,63.82847061045318
6.288,1.0,63.67041157291814
6.296,1.0,63.512319885338364
6.304,0.9999999999999999,63.354195582022335
6.312,1.0,63.19603869735733
6.32,1.0,63.03784926580985
6.328,1.0,62.87962732192588
6.336,1.0,62.72137290033145
6.344,0.9999999999999998,62.56308603573289
6.352,0.9999999999999999,62.40476676291729
6.36,0.9999999999999999,62.246415116752885
6.368,1.0,62.08803113218939
6.376,0.9999999999999999,61.929614844258445
6.384,1.0,61.77116628807397
6.392,0.9999999999999998,61.61268549883256
6.4,0.9999999999999999,61.45417251181386
6.408,1.0,61.29562736238089
6.416,1.0,61.13705008598055
6.424,1.0,60.978440718143865
6.432,1.0,60.819799294486444
6.44,0.9999999999999999,60.661125850708814
6.448,0.9999999999999999,60.50242042259677
6.456,1.0,60.343683046021795
6.464,1.0,60.18491375694141
6.472,1.0,60.02611259139954
6.48,0.9999999999999999,59.86727958552688
6.4879999999999995,0.9999999999999999,59.708414775541215
6.496,1.0,59.549518197747794
6.504,0.9999999999999998,59.39058988853984
6.5120000000000005,0.9999999999999999,59.23162988439861
6.52,0.9999999999999999,59.07263822189407
6.5280000000000005,1.0,58.91361493768496
6.536,1.0,58.75456006851945
6.5440000000000005,1.0,58.59547365123518
6.552,1.0,58.436355722759835
6.5600000000000005,1.0,58.27720632011134
6.568,0.9999999999999999,58.118025480398394
6.5760000000000005,1.0,57.958813240820554
6.584,1.0,57.79956963866887
6.592,1.0,57.64029471132595
6.6,1.0,57.48098849626649
6.608,0.9999999999999999,57.321651031057506
6.616,1.0,57.16228235335871
6.624,0.9999999999999999,57.00288250092291
6.632,0.9999999999999999,56.843451511596164
6.64,0.9999999999999999,56.683989423318245
6.648,1.0,56.52449627412299
6.656,0.9999999999999999,56.36497210213849
6.664,0.9999999999999999,56.205416945587544
6.672,1.0,56.04583084278791
6.68,1.0,55.88621383215264
6.688,1.0,55.72656595219045
6.696,1.0,55.56688724150593
6.704,1.0,55.4071777387999
6.712,1.0,55.24743748286981
6.72,0.9999999999999999,55.08766651260993
6.728,1.0,54.92786486701162
6.736,1.0,54.768032585163915
6.744,1.0,54.60816970625342
6.752,1.0,54.44827626956496
6.76,1.0,54.28835231448166
6.768,1.0,54.128397880485416
6.776,1.0,53.968413007157
6.784,1.0,53.808397734176445
6.792,0.9999999999999999,53.64835210132344
6.8,0.9999999999999999,53.48827614847746
6.808,0.9999999999999999,53.32816991561808
6.816,1.0,53.16803344282539
6.824,1.0,53.007866770280025
6.832,1.0,52.84766993826376
6.84,1.0,52.68744298715955
6.848,0.9999999999999999,52.52718595745188
6.856,1.0,52.36689888972708
6.864,1.0,52.20658182467349
6.872,1.0,52.04623480308191
6.88,0.9999999999999999,51.88585786584566
6.888,0.9999999999999999,51.72545105396101
6.896,0.9999999999999998,51.56501440852728
6.904,0.9999999999999999,51.40454797074735
6.912,1.0,51.24405178192761
6.92,0.9999999999999999,51.08352588347849
6.928,0.9999999999999999,50.92297031691449
6.936,1.0,50.762385123854614
6.944,1.0,50.60177034602257
6.952,0.9999999999999999,50.441126025246874
6.96,1.0,50.2804522034613
6.968,0.9999999999999999,50.119748922705014
6.976,0.9999999999999999,49.95901622512289
6.984,0.9999999999999999,49.79825415296557
6.992,1.0,49.637462748589925
7.0,1.0,49.47664205445915
7.008,1.0,49.31579211314302
7.016,1.0,49.1549129673182
7.024,1.0,48.994004659768294
7.032,0.9999999999999999,48.833067233384256
7.04,0.9999999999999999,48.67210073116451
7.048,0.9999999999999999,48.511105196215205
7.056,1.0,48.3500806717504
7.064,0.9999999999999999,48.18902720109233
7.072,1.0,48.027944827671504
7.08,1.0,47.8668335950271
7.088,1.0,47.70569354680705
7.096,1.0,47.544524726768216
7.104,0.9999999999999999,47.383327178776675
7.112,1.0,47.22210094680785
7.12,1.0,47.060846074946795
7.128,1.0,46.899562607388326
7.136,1.0,46.73825058843722
7.144,1.0,46.576910062508375
7.152,1.0000000000000002,46.41554107412707
7.16,1.0,46.25414366792917
7.168,1.0,46.092717888661085
7.176,1.0,45.93126378118034
7.184,1.0,45.76978139045534
7.192,1.0,45.608270761565834
7.2,0.9999999999999999,45.44673193970297
7.208,0.9999999999999998,45.2851649701695
7.216,0.9999999999999999,45.12356989837987
7.224,1.0000000000000002,44.961946769860546
7.232,1.0,44.800295630249984
7.24,0.9999999999999999,44.638616525298964
7.248,1.0,44.47690950087059
7.256,0.9999999999999999,44.31517460294057
7.264,1.0,44.153411877597314
7.272,0.9999999999999999,43.99162137104211
7.28,0.9999999999999999,43.82980312958916
7.288,0.9999999999999998,43.667957199665935
7.296,1.0,43.50608362781311
7.304,1.0,43.344182460684834
7.312,0.9999999999999999,43.18225374504879
7.32,1.0,43.02029752778639
7.328,1.0,42.85831385589286
7.336,0.9999999999999999,42.696302776477374
7.344,1.0,42.53426433676322
7.352,0.9999999999999999,42.37219858408786
7.36,1.0,42.2101055659031
7.368,1.0,42.04798532977521
7.376,1.0,41.885837923384976
7.384,1.0,41.72366339452791
7.392,1.0,41.56146179111424
7.4,1.0,41.399233161169164
7.4079999999999995,1.0,41.23697755283283
7.416,1.0,41.07469501436042
7.4239999999999995,0.9999999999999999,40.91238559412246
7.432,0.9999999999999999,40.750049340604605
7.4399999999999995,1.0000000000000002,40.58768630240802
7.448,1.0,40.42529652824921
7.4559999999999995,0.9999999999999999,40.26288006696043
7.464,0.9999999999999999,40.10043696748938
7.4719999999999995,0.9999999999999999,39.937967278899634
7.48,0.9999999999999999,39.775471050370456
7.4879999999999995,0.9999999999999999,39.61294833119714
7.496,1.0,39.45039917079078
7.504,1.0,39.28782361867863
7.5120000000000005,1.0,39.125221724503945
7.52,1.0,38.962593538026226
7.5280000000000005,1.0,38.79993910912109
7.536,1.0,38.63725848778058
7.5440000000000005,0.9999999999999999,38.474551724112935
7.552,1.0,38.31181886834293
7.5600000000000005,0.9999999999999999,38.14905997081167
7.568,1.0,37.98627508197686
7.5760000000000005,1.0,37.82346425241261
7.584,1.0,37.66062753280981
7.5920000000000005,1.0,37.49776497397578
7.6,1.0,37.334876626834635
7.6080000000000005,1.0,37.17196254242708
7.616,1.0,37.0090227719107
7.6240000000000006,0.9999999999999998,36.84605736655965
7.632,1.0,36.68306637776501
7.640000000000001,0.9999999999999999,36.52004985703458
7.648,1.0,36.357007855993075
7.656000000000001,1.0,36.19394042638192
7.664,0.9999999999999999,36.03084762005956
7.672,1.0,35.86772948900115
7.68,1.0,35.7045860852988
7.688,1.0,35.54141746116152
7.696,1.0,35.37822366891515
7.704,1.0,35.21500476100246
7.712,0.9999999999999999,35.051760789983035
7.72,1.0,34.8884918085334
7.728,1.0,34.72519786944693
7.736,1.0,34.561879025633836
7.744,0.9999999999999999,34.39853533012114
7.752,1.0,34.23516683605278
7.76,1.0,34.071773596689354
7.768,1.0,33.90835566540835
7.776,0.9999999999999999,33.74491309570394
7.784,1.0,33.58144594118708
7.792,1.0,33.417954255585315
7.8,1.0,33.2544380927429
7.808,1.0,33.09089750662071
7.816,1.0,32.92733255129616
7.824,1.0,32.763743280963205
7.832,1.0,32.60012974993226
7.84,0.9999999999999999,32.43649201263018
7.848,1.0000000000000002,32.27283012360023
7.856,1.0,32.109144137501914
7.864,1.0000000000000002,31.945434109111044
7.872,1.0,31.781700093319625
7.88,1.0,31.617942145135792
7.888,1.0,31.45416031968371
7.896,0.9999996588305194,31.290354672203577
7.904,0.9999992898174397,31.12652525805146
7.912,0.9999989270670081,30.962672132699332
7.92,0.9999985706012019,30.798795351734864
7.928,0.999998220440722,30.63489497086142
7.936,0.9999978766050011,30.47097104589794
7.944,0.9999975391122127,30.307023632778893
7.952,0.9999972079792794,30.143052787554144
7.96,0.9999968832218809,29.97905856638884
7.968,0.9999965648544643,29.815041025563385
7.976,0.9999962528902504,29.651000221473254
7.984,0.9999959473412442,29.486936210628965
7.992,0.9999956482182419,29.322849049655915
8.0,0.9999953555308414,29.15873879529429
8.008,0.9999950692874489,28.994605504398976
8.016,0.9999947894952893,28.830449233939348
8.024000000000001,0.9999945161604137,28.666270040999304
8.032,0.9999942492877089,28.502067982777064
8.04,0.9999939888809056,28.337843116584967
8.048,0.999993734942588,28.17359549984943
8.056000000000001,0.9999934874742011,28.009325190110843
8.064,0.9999932464760607,27.845032245023415
8.072,0.9999930119473617,27.680716722354955
8.08,0.9999927838861873,27.51637867998676
8.088000000000001,0.9999925622895172,27.352018175913596
8.096,0.9999923471532371,27.18763526824346
8.104,0.9999921384721472,27.023230015197353
8.112,0.9999919362399711,26.858802475109187
8.120000000000001,0.9999917404493647,26.694352706425747
8.128,0.9999915510919252,26.529880767706416
8.136,0.9999913681582002,26.36538671762294
8.144,0.9999911916376963,26.200870614959385
8.152000000000001,0.999991021518888,26.03633251861199
8.16,0.999990857789227,25.871772487588938
8.168,0.9999907004351514,25.70719058101012
8.176,0.9999905494420935,25.542586858107036
8.184000000000001,0.9999904047944905,25.37796137822266
8.192,0.9999902664757925,25.2133142008112
8.2,0.9999901344684712,25.04864538543785
8.208,0.9999900087540302,24.883954991778676
8.216000000000001,0.9999898893130129,24.71924307962046
8.224,0.9999897761250125,24.55450970886047
8.232,0.9999896691686797,24.38975493950618
8.24,0.999989568421734,24.224978831675145
8.248000000000001,0.9999894738609704,24.06018144559485
8.256,0.9999893854622702,23.89536284160246
8.264,0.9999893032006099,23.73052308014451
8.272,0.9999892270500698,23.565662221776776
8.280000000000001,0.9999891569838427,23.40078032716417
8.288,0.9999890929742457,23.23587745708035
8.296,0.9999890349927254,23.070953672407537
8.304,0.9999889830098707,22.90600903413628
8.312,0.9999889369954198,22.741043603365405
8.32,0.9999888969182702,22.576057441301483
8.328,0.9999888627464883,22.411050609258876
8.336,0.9999888344473175,22.246023168659274
8.344,0.9999888119871888,22.08097518103167
8.352,0.999988795331729,21.915906708011878
8.36,0.9999887844457709,21.75081781134257
8.368,0.9999887792933614,21.585708552872724
8.376,0.9999887798377718,21.420578994557655
8.384,0.9999887860415066,21.255429198458515
8.392,0.9999887978663133,21.09025922674226
8.4,0.9999888152731911,20.925069141681153
8.408,0.9999888382224004,20.759859005652775
8.416,0.9999888666734726,20.594628881139453
8.424,0.999988900585218,20.42937883072832
8.432,0.9999889399157381,20.264108917110693
8.44,0.9999889846224312,20.098819203082154
8.448,0.9999890346620045,19.933509751541933
8.456,0.9999890899904822,19.76818062549295
8.464,0.9999891505632161,19.602831888041194
8.472,0.999989216334893,19.4374636023958
8.48,0.9999892872595458,19.272075831868406
8.488,0.9999893632905628,19.106668639873178
8.496,0.9999894443806956,18.941242089926227
8.504,0.99998953048207,18.77579624564559
8.512,0.9999896215461951,18.610331170750637
8.52,0.9999897175239724,18.44484692906208
8.528,0.9999898183657053,18.279343584501355
8.536,0.999989924021109,18.113821201090587
8.544,0.9999900344393194,17.94827984295205
8.552,0.9999901495689022,17.782719574308075
8.56,0.9999902693578632,17.61714045948047
8.568,0.999990393753658,17.45154256289049
8.576,0.9999905227031994,17.28592594905824
8.584,0.9999906561528702,17.120290682602583
8.592,0.9999907940485286,16.9546368282406
8.6,0.999990936335522,16.788964450787468
8.608,0.9999910829586929,16.62327361515591
8.616,0.9999912338623901,16.45756438635609
8.624,0.999991388990478,16.291836829495004
8.632,0.999991548286346,16.12609100977645
8.64,0.9999917116929179,15.960326992500342
8.648,0.9999918791526613,15.794544843062699
8.656,0.9999920506075974,15.628744626954994
8.664,0.9999922259993105,15.46292640976405
8.672,0.9999924052689569,15.297090257171458
8.68,0.9999925883572752,15.131236234953453
8.688,0.999992775204595,14.965364408980316
8.696,0.9999929657508472,14.79947484521623
8.704,0.9999931599355735,14.633567609718698
8.712,0.9999933576979347,14.467642768638399
8.72,0.9999935589767222,14.301700388218569
8.728,0.9999937637103652,14.135740534794909
8.736,0.9999939718369424,13.96976327479489
8.744,0.9999941832941899,13.803768674737707
8.752,0.9999943980195125,13.637756801233555
8.76,0.9999946159499904,13.4717277209836
8.768,0.9999948370223921,13.305681500779222
8.776,0.9999950611731812,13.139618207501984
8.784,0.9999952883385274,12.973537908122923
8.792,0.9999955184543158,12.807440669702425
8.8,0.9999957514561556,12.64132655938957
8.808,0.9999959872793917,12.475195644422003
8.815999999999999,0.9999962258591112,12.309047992125292
8.824,0.9999964671301558,12.142883669912605
8.832,0.9999967110271293,11.97670274528441
8.84,0.999996957484409,11.810505285827968
8.847999999999999,0.9999972064361532,11.644291359216858
8.856,0.9999974578163122,11.478061033210633
8.864,0.9999977115586375,11.311814375654478
8.872,0.999997967596691,11.145551454478712
8.879999999999999,0.9999982258638547,10.979272337698307
8.888,0.9999984862933414,10.812977093412508
8.896,0.9999987488182016,10.646665789804524
8.904,0.9999990133713351,10.480338495141
8.911999999999999,0.9999992798855016,10.313995277771497
8.92,0.9999995482933266,10.147636206128169
8.928,0.9999998185273141,9.981261348725377
8.936,1.0,9.814870774159187
8.943999999999999,0.9999999999999999,9.648464551106864
8.952,0.9999999999999998,9.482042748326485
8.96,0.9999999999999999,9.315605434656582
8.968,1.0,9.149152679015634
8.975999999999999,1.0,8.98268455040151
8.984,1.0,8.816201117891149
8.992,1.0,8.649702450640108
9.0,1.0,8.483188617882107
9.008,1.0,8.316659688928466
9.016,1.0,8.150115733167716
9.024000000000001,0.9999999999999999,7.9835568200652185
9.032,1.0,7.816983019162641
9.04,0.9999999999999999,7.650394400077412
9.048,1.0,7.483791032502324
9.056000000000001,1.0,7.3171729862051516
9.064,0.9999999999999999,7.150540331028111
9.072,0.9999999999999999,6.9838931368872945
9.08,0.9999999999999999,6.8172314737723
9.088000000000001,1.0,6.650555411745815
9.096,0.9999999999999999,6.483865020943067
9.104,1.0,6.317160371571286
9.112,0.9999999999999999,6.150441533909284
9.120000000000001,1.0,5.9837085783070565
9.128,1.0,5.81696157518523
9.136,1.0,5.650200595034498
9.144,1.0,5.483425708415222
9.152000000000001,0.9999999999999998,5.316636985956997
9.16,1.0,5.149834498358125
9.168,1.0,4.983018316385013
9.176,0.9999999999999999,4.8161885108717915
9.184000000000001,1.0,4.649345152719887
9.192,1.0,4.482488312897427
9.2,0.9999999999999999,4.315618062438726
9.208,1.0,4.148734472443823
9.216000000000001,1.0,3.9818376140780782
9.224,0.9999999999999999,3.814927558571593
9.232,1.0,3.64800437721865
9.24,1.0,3.481068141377273
9.248000000000001,0.9999999999999999,3.3141189224688197
9.256,1.0,3.147156791977392
9.264,1.0,2.9801818214492655
9.272,1.0,2.8131940824924744
9.280000000000001,0.9999999999999999,2.6461936467763603
9.288,0.9999999999999999,2.4791805860310094
9.296,1.0,2.3121549720466685
9.304,1.0,2.1451168766733297
9.312000000000001,1.0,1.97806637182027
9.32,1.0,1.8110035294555114
9.328,0.9999999999999999,1.6439284216051981
9.336,1.0,1.476841120353198
9.344,0.9999999999999999,1.30974169784069
9.352,1.0,1.1426302262654078
9.36,1.0,0.9755067778814253
9.368,1.0,0.8083714249983512
9.376,1.0,0.6412242399811197
9.384,0.9999999999999999,0.47406529524919444
9.392,0.9999999999999999,0.30689466327635156
9.4,0.9999999999999999,0.139712416589873
9.408,1.0,-0.027481372229659094
9.416,1.0,-0.19468663054915167
9.424,1.0,-0.36190328568323765
9.432,1.0,-0.5291312648950457
9.44,1.0,-0.696370495396438
9.448,0.9999999999999999,-0.8636209043487914
9.456,1.0,-1.0308824188632044
9.464,1.0,-1.1981549660013118
9.472,1.0,-1.3654384727754665
9.48,0.9999999999999999,-1.5327328661495585
9.488,1.0,-1.7000380730392162
9.496,1.0,-1.8673540203125636
9.504,0.9999999999999998,-2.0346806347904836
9.512,0.9999999999999999,-2.202017843247371
9.52,1.0,-2.369365572411324
9.528,0.9999999999999999,-2.536723748964961
9.536,0.9999999999999999,-2.704092299545606
9.544,1.0,-2.8714711507460535
9.552,1.0,-3.038860229114803
9.56,0.9999999999999999,-3.206259461156805
9.568,0.9999999999999998,-3.373668773333661
9.576,1.0,-3.5410880920644066
9.584,0.9999999999999999,-3.708517343725698
9.592,0.9999999999999999,-3.8759564546525764
9.6,0.9999999999999999,-4.043405351138643
9.608,1.0,-4.21086395943686
9.616,1.0,-4.378332205759679
9.624,0.9999999999999999,-4.545810016279851
9.632,0.9999999999999999,-4.713297317130552
9.64,1.0,-4.880794034406188
9.648,1.0,-5.048300094162512
9.656,1.0,-5.21581542241741
9.664,1.0,-5.383339945151041
9.672,0.9999999999999999,-5.5508735883065885
9.68,0.9999999999999999,-5.718416277790405
9.688,1.0,-5.885967939472763
9.696,0.9999999999999999,-6.05352849918798
9.704,1.0,-6.22109788273516
9.712,0.9999999999999999,-6.38867601587833
9.72,1.0,-6.556262824347147
9.728,1.0,-6.723858233837044
9.736,1.0,-6.891462170009931
9.744,1.0,-7.059074558494314
9.752,0.9999999999999999,-7.226695324885989
9.76,0.9999999999999999,-7.39432439474817
9.768,1.0,-7.5619616936121705
9.776,0.9999999999999998,-7.729607146977489
9.784,1.0000000000000002,-7.897260680312522
9.792,1.0,-8.064922219054612
9.8,0.9999999999999998,-8.232591688610748
9.808,1.0,-8.400269014357628
9.816,1.0,-8.567954121642314
9.824,1.0,-8.7356469357823
9.832,0.9999999999999999,-8.903347382066165
9.84,1.0,-9.071055385753594
9.847999999999999,0.9999999999999999,-9.238770872076019
9.856,1.0,-9.406493766236798
9.864,0.9999999999999999,-9.574223993411472
9.872,1.0,-9.741961478748177
9.879999999999999,1.0,-9.909706147367999
9.888,1.0,-10.077457924365223
9.896,0.9999999999999999,-10.24521673480753
9.904,0.9999999999999999,-10.412982503736371
9.911999999999999,0.9999999999999999,-10.580755156167307
9.92,1.0,-10.74853461709022
9.928,1.0,-10.916320811469465
9.936,0.9999999999999998,-11.08411366424424
9.943999999999999,0.9999999999999998,-11.251913100328844
9.952,1.0,-11.419719044612888
9.96,0.9999999999999999,-11.587531421961407
9.968,0.9999999999999999,-11.755350157215158
9.975999999999999,1.0,-11.923175175190906
9.984,0.9999999999999999,-12.091006400681511
9.992,1.0,-12.25884375845607
10.0,0.9999999999999999,-12.42668717326014
10.008,1.0,-12.594536569815983
10.016,1.0,-12.762391872822624
10.024000000000001,1.0,-12.930253006955931
10.032,0.9999999999999999,-13.098119896868809
10.04,1.0,-13.265992467191369
10.048,1.0,-13.433870642530998
10.056000000000001,1.0,-13.601754347472335
10.064,1.0,-13.769643506577415
10.072,0.9999999999999999,-13.937538044385862
10.08,1.0,-14.105437885414807
10.088000000000001,0.9999999999999999,-14.273342954158863
10.096,0.9999999999999999,-14.441253175090264
10.104,0.9999999999999999,-14.609168472658888
10.112,0.9999999999999999,-14.77708877129223
10.120000000000001,1.0,-14.945013995395277
10.128,0.9999999999999998,-15.112944069350572
10.136,1.0,-15.28087891751821
10.144,1.0,-15.44881846423575
10.152000000000001,0.9999999999999999,-15.616762633818002
10.16,1.0,-15.784711350557092
10.168,1.0,-15.952664538722317
10.176,0.9999999999999999,-16.120622122560054
10.184000000000001,1.0,-16.288584026293485
10.192,0.9999999999999998,-16.456550174122512
10.2,0.9999999999999999,-16.62452049022369
10.208,1.0,-16.79249489874996
