freq,mag,phase
6.0,0.9999885339181661,-106.14309274414704
6.008,0.9999905312164924,-106.5565994462096
6.016,0.9999924494128459,-106.97005304802457
6.024,0.9999942901072145,-107.38345306966607
6.032,0.999996054882115,-107.79679903552824
6.04,0.9999977453026346,-108.21009047432581
6.048,0.9999993629164752,-108.62332691909482
6.056,1.0,-109.03650790719293
6.064,1.0,-109.44963298029984
6.072,1.0,-109.8627016844174
6.08,1.0,-110.27571356986955
6.088,1.0,-110.68866819130234
6.096,0.9999999999999999,-111.10156510768348
6.104,1.0,-111.51440388230206
6.112,1.0,-111.927184082768
6.12,1.0,-112.33990528101116
6.128,1.0,-112.75256705328069
6.136,1.0,-113.16516898014413
6.144,1.0,-113.57771064648597
6.152,1.0,-113.99019164150675
6.16,1.0,-114.40261155872139
6.168,1.0,-114.81496999595788
6.176,1.0,-115.22726655535551
6.184,0.9999999999999999,-115.639500843363
6.192,1.0,-116.05167247073675
6.2,0.9999999999999999,-116.46378105253866
6.208,1.0,-116.87582620813379
6.216,1.0,-117.28780756118837
6.224,1.0,-117.69972473966698
6.232,1.0,-118.11157737583025
6.24,0.9999999999999999,-118.52336510623182
6.248,1.0,-118.9350875717158
6.256,0.9999999999999998,-119.3467444174135
6.264,1.0,-119.75833529274043
6.272,1.0,-120.16985985139316
6.28,1.0,-120.58131775134576
6.288,0.9999999999999999,-120.99270865484624
6.296,0.9999999999999999,-121.40403222841329
6.304,1.0,-121.8152881428322
6.312,0.9999999999999999,-122.22647607315089
6.32,1.0,-122.63759569867628
6.328,0.9999999999999999,-123.04864670296983
6.336,1.0,-123.45962877384339
6.344,1.0,-123.87054160335492
6.352,1.0,-124.28138488780388
6.36,1.0,-124.6921583277265
6.368,0.9999999999999999,-125.10286162789131
6.376,1.0,-125.51349449729405
6.384,1.0,-125.92405664915285
6.392,1.0,-126.33454780090295
6.4,0.9999999999999999,-126.74496767419164
6.408,1.0,-127.15531599487282
6.416,1.0,-127.56559249300155
6.424,0.9999999999999999,-127.9757969028286
6.432,1.0,-128.3859289627946
6.44,1.0,-128.79598841552433
6.448,1.0,-129.2059750078208
6.456,0.9999999999999999,-129.61588849065913
6.464,1.0,-130.0257286191805
6.472,1.0,-130.43549515268597
6.48,0.9999999999999999,-130.84518785462976
6.4879999999999995,1.0,-131.25480649261328
6.496,1.0,-131.66435083837823
6.504,1.0,-132.0738206677997
6.5120000000000005,1.0,-132.48321576088006
6.52,1.0,-132.89253590174093
6.5280000000000005,1.0,-133.3017808786175
6.536,1.0,-133.71095048385018
6.5440000000000005,1.0,-134.12004451387836
6.552,1.0,-134.52906276923196
6.5600000000000005,1.0,-134.93800505452518
6.568,0.9999999999999999,-135.34687117844797
6.5760000000000005,1.0,-135.75566095375916
6.584,1.0,-136.16437419727782
6.592,1.0,-136.57301072987616
6.6,0.9999999999999999,-136.98157037647124
6.608,1.0,-137.3900529660169
6.616,1.0,-137.7984583314955
6.624,1.0,-138.2067863099099
6.632,1.0,-138.61503674227478
6.64,0.9999999999999999,-139.02320947360857
6.648,1.0,-139.4313043529244
6.656,0.9999999999999999,-139.83932123322168
6.664,0.9999999999999999,-140.24725997147752
6.672,1.0,-140.65512042863745
6.68,1.0,-141.0629024696067
6.688,0.999999941035139,-141.47060596324127
6.696,0.9999993315015863,-141.87823078233848
6.704,0.9999987236295974,-142.2857768036279
6.712,0.999998117792239,-142.69324390776202
6.72,0.9999975143525472,-143.1006319793068
6.728,0.9999969136636389,-143.50794090673213
6.736,0.9999963160688163,-143.91517058240214
6.744,0.9999957219016784,-144.32232090256568
6.752,0.9999951314862259,-144.72939176734644
6.76,0.9999945451369726,-145.13638308073288
6.768,0.9999939631590502,-145.54329475056863
6.776,0.9999933858483184,-145.95012668854213
6.784,0.9999928134914716,-146.35687881017648
6.792,0.9999922463661471,-146.76355103481944
6.8,0.9999916847410328,-147.17014328563286
6.808,0.9999911288759734,-147.57665548958238
6.816,0.9999905790220804,-147.983087577427
6.824,0.999990035421836,-148.38943948370832
6.832,0.9999894983092025,-148.79571114673996
6.84,0.9999889679097279,-149.20190250859696
6.848,0.9999884444406534,-149.6080135151046
6.856,0.9999879281110191,-150.01404411582791
6.864,0.9999874191217706,-150.4199942640603
6.872,0.9999869176658641,-150.82586391681272
6.88,0.9999864239283742,-151.23165303480243
6.888,0.9999859380865965,-151.63736158244166
6.896,0.9999854603101556,-152.0429895278265
6.904,0.9999849907611079,-152.44853684272528
6.912,0.9999845295940482,-152.85400350256734
6.92,0.9999840769562117,-153.2593894864312
6.928,0.9999836329875803,-153.66469477703308
6.936,0.9999831978209848,-154.0699193607153
6.944,0.9999827715822093,-154.47506322743422
6.952,0.9999823543900936,-154.88012637074866
6.96,0.9999819463566357,-155.28510878780776
6.968,0.9999815475870959,-155.69001047933907
6.976,0.9999811581800957,-156.09483144963653
6.984,0.9999807782277228,-156.4995717065481
6.992,0.9999804078156291,-156.9042312614638
7.0,0.9999800470231349,-157.3088101293032
7.008,0.999979695923325,-157.71330832850313
7.016,0.9999793545831535,-158.11772588100538
7.024,0.9999790230635397,-158.5220628122438
7.032,0.9999787014194687,-158.92631915113213
7.04,0.9999783897000907,-159.33049493005117
7.048,0.999978087948817,-159.734590184836
7.056,0.99997779620342,-160.13860495476337
7.064,0.9999775144961297,-160.5425392825386
7.072,0.9999772428537306,-160.94639321428292
7.08,0.9999769812976569,-161.3501667995203
7.088,0.9999767298440905,-161.75386009116448
7.096,0.999976488504055,-162.15747314550572
7.104,0.9999762572835097,-162.56100602219786
7.112,0.9999760361834459,-162.96445878424484
7.12,0.9999758251999793,-163.36783149798748
7.128,0.9999756243244443,-163.77112423309012
7.136,0.9999754335434848,-164.1743370625271
7.144,0.9999752528391483,-164.5774700625694
7.152,0.9999750821889775,-164.98052331277094
7.16,0.9999749215660997,-165.38349689595498
7.168,0.9999747709393191,-165.78639089820052
7.176,0.9999746302732055,-166.18920540882843
7.184,0.9999744995281847,-166.5919405203878
7.192,0.9999743786606256,-166.9945963286419
7.2,0.9999742676229308,-167.3971729325544
7.208,0.9999741663636222,-167.79967043427538
7.216,0.99997407482743,-168.20208893912715
7.224,0.9999739929553755,-168.60442855559023
7.232,0.9999739206848619,-169.0066893952894
7.24,0.9999738579497546,-169.40887157297917
7.248,0.9999738046804691,-169.81097520652972
7.256,0.9999737608040534,-170.2130004169125
7.264,0.999973726244273,-170.61494732818588
7.272,0.999973700921691,-171.0168160674808
7.28,0.9999736847537518,-171.41860676498612
7.288,0.9999736776548618,-171.8203195539343
7.296,0.9999736795364715,-172.2219545705866
7.304,0.9999736903071547,-172.62351195421866
7.312,0.999973709872687,-173.0249918471056
7.32,0.9999737381361258,-173.42639439450744
7.328,0.9999737749978888,-173.8277197446542
7.336,0.9999738203558305,-174.22896804873122
7.344,0.9999738741053198,-174.63013946086403
7.352,0.9999739361393152,-175.03123413810363
7.36,0.9999740063484409,-175.43225224041143
7.368,0.9999740846210623,-175.8331939306442
7.376,0.9999741708433579,-176.23405937453887
7.384,0.9999742648993962,-176.6348487406978
7.392,0.9999743666712044,-177.03556220057305
7.4,0.9999744760388447,-177.43619992845157
7.4079999999999995,0.9999745928804821,-177.83676210143975
7.416,0.9999747170724561,-178.2372488994483
7.4239999999999995,0.9999748484893531,-178.63766050517648
7.432,0.9999749870040725,-179.03799710409723
7.4399999999999995,0.9999751324878962,-179.4382588844413
7.448,0.9999752848105584,-179.83844603718197
7.4559999999999995,0.9999754438403096,179.76144124398056
7.464,0.9999756094439859,179.36140276263455
7.4719999999999995,0.999975781487074,178.9614383196729
7.48,0.9999759598337757,178.56154771330793
7.4879999999999995,0.9999761443470727,178.16173073908797
7.496,0.9999763348887899,177.76198718991236
7.504,0.9999765313196595,177.36231685604787
7.5120000000000005,0.9999767334993827,176.96271952514397
7.52,0.9999769412866905,176.56319498224917
7.5280000000000005,0.9999771545394056,176.16374300982642
7.536,0.9999773731145027,175.7643633877696
7.5440000000000005,0.9999775968681675,175.3650558934189
7.552,0.9999778256558536,174.96582030157748
7.5600000000000005,0.9999780593323447,174.56665638452688
7.568,0.9999782977518088,174.16756391204368
7.5760000000000005,0.9999785407678551,173.76854265141506
7.584,0.9999787882335914,173.36959236745562
7.5920000000000005,0.9999790400016769,172.97071282252284
7.6,0.9999792959243801,172.571903776534
7.6080000000000005,0.9999795558536285,172.17316498698185
7.616,0.9999798196410652,171.77449620895143
7.6240000000000006,0.9999800871380985,171.37589719513596
7.632,0.9999803581959568,170.97736769585364
7.640000000000001,0.9999806326657356,170.57890745906346
7.648,0.9999809103984508,170.18051623038244
7.656000000000001,0.9999811912450869,169.78219375310118
7.664,0.9999814750566458,169.38393976820123
7.672,0.999981761684196,168.9857540143709
7.68,0.9999820509789179,168.5876362280223
7.688,0.9999823427921534,168.18958614330765
7.696,0.9999826369754493,167.7916034921361
7.704,0.9999829333806035,167.39368800419015
7.712,0.9999832318597106,166.99583940694262
7.72,0.9999835322652044,166.598057425673
7.728,0.999983834449902,166.2003417834846
7.736,0.9999841382670462,165.80269220132084
7.744,0.999984443570347,165.40510839798253
7.752,0.9999847502140224,165.00759009014433
7.76,0.9999850580528409,164.6101369923717
7.768,0.9999853669421586,164.21274881713785
7.776,0.9999856767379595,163.8154252748405
7.784,0.9999859872968949,163.41816607381892
7.792,0.9999862984763195,163.0209709203709
7.8,0.9999866101343291,162.62383951876953
7.808,0.9999869221297975,162.2267715712804
7.816,0.9999872343224109,161.82976677817854
7.824,0.9999875465727053,161.43282483776545
7.832,0.9999878587420975,161.03594544638622
7.84,0.9999881706929227,160.6391282984466
7.848,0.9999884822884637,160.24237308643006
7.856,0.9999887933929863,159.84567950091503
7.864,0.9999891038717698,159.44904723059196
7.872,0.9999894135911376,159.05247596228054
7.88,0.9999897224184889,158.65596538094695
7.888,0.9999900302223274,158.25951516972097
7.896,0.9999903368722907,157.8631250099134
7.904,0.9999906422391792,157.46679458103304
7.912,0.999990946194984,157.07052356080425
7.92,0.9999912486129129,156.6743116251841
7.928,0.9999915493674185,156.27815844837977
7.936,0.999991848334224,155.88206370286576
7.944,0.9999921453903473,155.48602705940138
7.952,0.9999924404141269,155.09004818704807
7.96,0.9999927332852453,154.6941267531868
7.968,0.999993023884753,154.2982624235354
7.976,0.9999933120950915,153.90245486216614
7.984,0.9999935978001143,153.50670373152298
7.992,0.9999938808851103,153.11100869243919
8.0,0.9999941612368233,152.7153694041547
8.008,0.9999944387434737,152.31978552433375
8.016,0.9999947132947774,151.92425670908202
8.024000000000001,0.9999949847819656,151.52878261296468
8.032,0.999995253097803,151.13336288902354
8.04,0.9999955181366067,150.73799718879465
8.048,0.9999957797942626,150.34268516232575
8.056000000000001,0.9999960379682435,149.94742645819423
8.064,0.9999962925576246,149.55222072352444
8.072,0.9999965434630994,149.15706760400508
8.08,0.9999967905869955,148.7619667439071
8.088000000000001,0.9999970338332885,148.36691778610128
8.096,0.9999972731076162,147.97192037207594
8.104,0.9999975083172936,147.5769741419541
8.112,0.9999977393713234,147.18207873451163
8.120000000000001,0.9999979661804105,146.7872337871948
8.128,0.9999981886569732,146.39243893613786
8.136,0.9999984067151543,145.99769381618069
8.144,0.9999986202708323,145.60299806088634
8.152000000000001,0.9999988292416317,145.2083513025592
8.16,0.9999990335469331,144.81375317226235
8.168,0.999999233107882,144.41920329983517
8.176,0.9999994278473971,144.02470131391112
8.184000000000001,0.9999996176901803,143.63024684193573
8.192,0.9999998025627223,143.23583951018415
8.2,0.9999999823933116,142.8414789437787
8.208,1.0,142.44716476670666
8.216000000000001,1.0,142.0528966018383
8.224,0.9999999999999999,141.65867407094456
8.232,1.0,141.26449679471438
8.24,1.0,140.87036439277267
8.248000000000001,1.0,140.4762764836985
8.256,1.0,140.0822326850424
8.264,1.0,139.68823261334407
8.272,1.0,139.29427588415027
8.280000000000001,0.9999999999999999,138.90036211203275
8.288,0.9999999999999999,138.506490910606
8.296,1.0,138.11266189254476
8.304,1.0,137.7188746696017
8.312,0.9999999999999999,137.32512885262597
8.32,1.0,136.93142405157988
8.328,1.0,136.53775987555773
8.336,0.9999999999999999,136.1441359328026
8.344,1.0,135.750551830725
8.352,1.0,135.35700717591988
8.36,1.0,134.96350157418507
8.368,0.9999999999999999,134.57003463053846
8.376,1.0,134.17660594923626
8.384,1.0,133.7832151337903
8.392,1.0,133.38986178698624
8.4,1.0,132.99654551090083
8.408,0.9999999999999999,132.60326590692026
8.416,1.0,132.21002257575714
8.424,1.0,131.8168151174691
8.432,0.9999999999999999,131.4236431314757
8.44,1.0,131.0305062165769
8.448,0.9999999999999998,130.63740397097004
8.456,1.0,130.2443359922683
8.464,0.9999999999999999,129.85130187751776
8.472,1.0,129.45830122321559
8.48,1.0,129.0653336253273
8.488,0.9999999999999999,128.67239867930502
8.496,1.0,128.27949598010431
8.504,1.0,127.88662512220289
8.512,1.0,127.49378569961713
8.52,1.0,127.10097730592092
8.528,1.0,126.7081995342621
8.536,1.0,126.31545197738117
8.544,1.0,125.92273422762797
8.552,0.9999999999999999,125.53004587698007
8.56,0.9999999999999999,125.13738651705972
8.568,0.9999999999999998,124.74475573915197
8.576,1.0,124.35215313422168
8.584,1.0,123.9595782929317
8.592,0.9999999999999999,123.56703080565973
8.6,1.0,123.17451026251649
8.608,1.0000000000000002,122.78201625336266
8.616,1.0,122.38954836782689
8.624,1.0,121.99710619532277
8.632,0.9999999999999999,121.60468932506681
8.64,1.0,121.21229734609533
8.648,1.0,120.81992984728251
8.656,1.0,120.4275864173571
8.664,0.9999999999999999,120.03526664492055
8.672,0.9999999999999999,119.64297011846368
8.68,0.9999999210448395,119.25069642638472
8.688,0.99999972993859,118.85844515700592
8.696,0.9999995328562248,118.46621589859166
8.704,0.9999993298351879,118.07400823936494
8.712,0.999999120914348,117.68182176752536
8.72,0.9999989061339817,117.28965607126584
8.728,0.9999986855357603,116.89751073879032
8.736,0.999998459162732,116.50538535833046
8.744,0.9999982270593055,116.1132795181634
8.752,0.999997989271235,115.7211928066283
8.76,0.9999977458456026,115.32912481214417
8.768,0.9999974968308026,114.93707512322632
8.776,0.9999972422765233,114.54504332850408
8.784,0.999996982233731,114.15302901673718
8.792,0.9999967167546526,113.76103177683359
8.8,0.9999964458927579,113.36905119786574
8.808,0.9999961697027417,112.97708686908827
8.815999999999999,0.9999958882405081,112.58513837995436
8.824,0.9999956015631498,112.19320532013292
8.832,0.9999953097289329,111.80128727952571
8.84,0.9999950127972763,111.40938384828402
8.847999999999999,0.9999947108287357,111.01749461682533
8.856,0.9999944038849836,110.6256191758504
8.864,0.9999940920287915,110.23375711636015
8.872,0.9999937753240121,109.84190802967228
8.879999999999999,0.9999934538355582,109.45007150743783
8.888,0.9999931276293864,109.05824714165804
8.896,0.9999927967724775,108.66643452470124
8.904,0.9999924613328157,108.2746332493193
8.911999999999999,0.9999921213793724,107.882842908664
8.92,0.9999917769820843,107.49106309630386
8.928,0.9999914282118356,107.09929340624083
8.936,0.9999910751404381,106.70753343292658
8.943999999999999,0.9999907178406122,106.31578277127883
8.952,0.9999903563859659,105.924041016698
8.96,0.9999899908509768,105.53230776508366
8.968,0.9999896213109715,105.14058261285086
8.975999999999999,0.9999892478421065,104.74886515694615
8.984,0.9999888705213469,104.35715499486417
8.992,0.9999884894264478,103.96545172466396
9.0,0.9999881046359342,103.57375494498505
9.008,0.9999877162290806,103.18206425506345
9.016,0.9999873242858908,102.79037925474796
9.024000000000001,0.9999869288870783,102.39869954451643
9.032,0.9999865301140456,102.00702472549163
9.04,0.9999861280488647,101.61535439945706
9.048,0.999985722774256,101.22368816887314
9.056000000000001,0.9999853143735685,100.83202563689333
9.064,0.9999849029307601,100.44036640737968
9.072,0.9999844885303761,100.04871008491872
9.08,0.9999840712575296,99.65705627483722
9.088000000000001,0.9999836511978818,99.26540458321824
9.096,0.9999832284376197,98.87375461691661
9.104,0.999982803063438,98.48210598357443
9.112,0.9999823751625175,98.09045829163684
9.120000000000001,0.9999819448225049,97.69881115036773
9.128,0.9999815121314926,97.30716416986515
9.136,0.9999810771779982,96.91551696107652
9.144,0.9999806400509448,96.52386913581431
9.152000000000001,0.99998020083964,96.13222030677149
9.16,0.9999797596337555,95.74057008753672
9.168,0.9999793165233076,95.34891809260951
9.176,0.9999788715986364,94.95726393741542
9.184000000000001,0.9999784249503857,94.5656072383216
9.192,0.9999779766694828,94.17394761265163
9.2,0.9999775268471187,93.7822846787004
9.208,0.9999770755747279,93.39061805574934
9.216000000000001,0.999976622943967,92.99894736408145
9.224,0.9999761690466973,92.60727222499614
9.232,0.9999757139749628,92.2155922608238
9.24,0.9999752578209707,91.82390709494082
9.248000000000001,0.9999748006770723,91.43221635178445
9.256,0.9999743426357425,91.0405196568673
9.264,0.9999738837895594,90.64881663679184
9.272,0.9999734242311868,90.257106919265
9.280000000000001,0.9999729640533527,89.86539013311297
9.288,0.9999725033488299,89.47366590829537
9.296,0.9999720422104182,89.08193387591952
9.304,0.9999715807309232,88.69019366825484
9.312000000000001,0.9999711190031366,88.29844491874735
9.32,0.9999706571198197,87.90668726203369
9.328,0.9999701951736825,87.51492033395498
9.336,0.9999697332573638,87.12314377157112
9.344,0.9999692714634144,86.73135721317514
9.352,0.9999688098842764,86.33956029830632
9.36,0.999968348612266,85.9477526677649
9.368,0.9999678877395528,85.55593396362515
9.376,0.9999674273581441,85.16410382924983
9.384,0.9999669675598644,84.77226190930305
9.392,0.9999665084363373,84.38040784976475
9.4,0.9999660500789678,83.98854129794336
9.408,0.9999655925789241,83.59666190249001
9.416,0.99996513602712,83.20476931341135
9.424,0.9999646805141965,82.81286318208335
9.432,0.9999642261305033,82.42094316126399
9.44,0.9999637729660839,82.02900890510719
9.448,0.9999633211106548,81.63706006917504
9.456,0.9999628706535908,81.24509631045166
9.464,0.9999624216839061,80.85311728735543
9.472,0.9999619742902383,80.4611226597526
9.48,0.9999615285608315,80.06911208896932
9.488,0.9999610845835177,79.67708523780517
9.496,0.9999606424457029,79.28504177054502
9.504,0.9999602022343492,78.89298135297243
9.512,0.9999597640359579,78.5009036523813
9.52,0.9999593279365541,78.10880833758917
9.528,0.9999588940216709,77.71669507894869
9.536,0.9999584623763331,77.32456354836071
9.544,0.9999580330850413,76.93241341928574
9.552,0.9999576062317566,76.54024436675668
9.56,0.9999571818998847,76.14805606739021
9.568,0.9999567601722624,75.75584819939948
9.576,0.9999563411311408,75.36362044260517
9.584,0.99995592485817,74.97137247844795
9.592,0.9999555114343854,74.5791039899996
9.6,0.9999551009401942,74.18681466197518
9.608,0.9999546934553593,73.79450418074396
9.616,0.9999542890589841,73.40217223434139
9.624,0.9999538878295025,73.00981851248
9.632,0.9999534898446607,72.61744270656109
9.64,0.999953095181506,72.22504450968539
9.648,0.999952703916373,71.83262361666476
9.656,0.9999523161248692,71.44017972403246
9.664,0.9999519318818634,71.04771253005487
9.672,0.999951551261472,70.65522173474146
9.68,0.9999511743370464,70.26270703985627
9.688,0.9999508011811601,69.8701681489279
9.696,0.9999504318655972,69.47760476726063
9.704,0.9999500664613399,69.08501660194425
9.712,0.9999497050385557,68.6924033618651
9.72,0.9999493476665875,68.29976475771556
9.728,0.9999489944139399,67.907100502005
9.736,0.9999486453482698,67.51441030906905
9.744,0.999948300536374,67.12169389508037
9.752,0.999947960044179,66.72895097805772
9.76,0.9999476239367296,66.33618127787653
9.768,0.9999472922781798,65.94338451627779
9.776,0.9999469651317802,65.55056041687837
9.784,0.9999466425598696,65.1577087051798
9.792,0.9999463246238656,64.76482910857828
9.8,0.9999460113842534,64.37192135637338
9.808,0.9999457029005772,63.978985179777794
9.816,0.9999453992314304,63.58602031192578
9.824,0.9999451004344482,63.1930264878828
