freq,mag,phase
6.0,0.999996376690271,-146.44166737660467
6.008,0.9999955520372439,-146.80767243204681
6.016,0.999994758285672,-147.17337178889863
6.024,0.9999939947596647,-147.5387684291035
6.032,0.9999932607930693,-147.90386534051535
6.04,0.9999925557293848,-148.26866551677372
6.048,0.9999918789216772,-148.6331719571804
6.056,0.9999912297324896,-148.99738766657813
6.064,0.9999906075337593,-149.36131565523175
6.072,0.9999900117067309,-149.72495893871098
6.08,0.99998944164187,-150.08832053777513
6.088,0.9999888967387779,-150.45140347826018
6.096,0.9999883764061054,-150.81421079096737
6.104,0.9999878800614695,-151.17674551155417
6.112,0.9999874071313654,-151.53901068042654
6.12,0.9999869570510812,-151.90100934263396
6.128,0.9999865292646187,-152.26274454776524
6.136,0.9999861232246015,-152.6242193498472
6.144,0.9999857383921946,-152.98543680724458
6.152,0.9999853742370214,-153.34639998256182
6.16,0.9999850302370759,-153.70711194254682
6.168,0.9999847058786444,-154.06757575799634
6.176,0.9999844006562165,-154.42779450366308
6.184,0.999984114072408,-154.78777125816475
6.192,0.9999838456378715,-155.14750910389438
6.2,0.999983594871224,-155.50701112693278
6.208,0.9999833612989523,-155.86628041696255
6.216,0.9999831444553434,-156.22532006718328
6.224,0.9999829438823953,-156.58413317422915
6.232,0.999982759129739,-156.94272283808746
6.24,0.9999825897545572,-157.3010921620191
6.248,0.9999824353215073,-157.65924425248042
6.256,0.999982295402633,-158.01718221904662
6.264,0.9999821695772971,-158.3749091743369
6.272,0.9999820574320933,-158.73242823394077
6.28,0.9999819585607694,-159.0897425163461
6.288,0.9999818725641497,-159.44685514286837
6.296,0.9999817990500609,-159.80376923758163
6.304,0.9999817376332486,-160.16048792725067
6.312,0.9999816879353028,-160.51701434126477
6.32,0.9999816495845834,-160.87335161157247
6.328,0.9999816222161405,-161.22950287261813
6.336,0.9999816054716413,-161.58547126127954
6.344,0.9999815989992956,-161.94125991680696
6.352,0.9999816024537771,-162.29687198076337
6.36,0.9999816154961545,-162.65231059696603
6.368,0.9999816377938117,-163.0075789114293
6.376,0.9999816690203792,-163.3626800723087
6.384,0.9999817088556591,-163.71761722984618
6.392,0.9999817569855532,-164.07239353631638
6.4,0.9999818131019921,-164.42701214597454
6.408,0.9999818769028581,-164.78147621500514
6.416,0.9999819480919239,-165.13578890147153
6.424,0.999982026378772,-165.48995336526738
6.432,0.999982111478735,-165.84397276806843
6.44,0.999982203112814,-166.19785027328595
6.448,0.9999823010076174,-166.5515890460206
6.456,0.9999824048952948,-166.90519225301801
6.464,0.9999825145134607,-167.25866306262483
6.472,0.999982629605132,-167.61200464474607
6.48,0.999982749918659,-167.96522017080332
6.4879999999999995,0.9999828752076616,-168.31831281369392
6.496,0.9999830052309603,-168.6712857477512
6.504,0.9999831397525099,-169.02414214870515
6.5120000000000005,0.9999832785413385,-169.37688519364497
6.52,0.9999834213714768,-169.72951806098115
6.5280000000000005,0.9999835680219009,-170.08204393040975
6.536,0.9999837182764627,-170.43446598287647
6.5440000000000005,0.9999838719238302,-170.78678740054244
6.552,0.999984028757423,-171.13901136674977
6.5600000000000005,0.9999841885753514,-171.49114106598898
6.568,0.9999843511803536,-171.84317968386634
6.5760000000000005,0.9999845163797358,-172.1951304070725
6.584,0.9999846839853102,-172.5469964233515
6.592,0.9999848538133373,-172.89878092147072
6.6,0.9999850256844615,-173.25048709119133
6.608,0.9999851994236555,-173.60211812323968
6.616,0.9999853748601627,-173.9536772092789
6.624,0.9999855518274368,-174.30516754188164
6.632,0.9999857301630826,-174.65659231450311
6.64,0.9999859097088025,-175.00795472145472
6.648,0.9999860903103364,-175.35925795787855
6.656,0.999986271817409,-175.710505219722
6.664,0.9999864540836703,-176.06169970371334
6.672,0.999986636966642,-176.41284460733758
6.68,0.9999868203276646,-176.76394312881283
6.688,0.9999870040318393,-177.1149984670674
6.696,0.9999871879479771,-177.46601382171698
6.704,0.9999873719485441,-177.81699239304263
6.712,0.9999875559096102,-178.1679373819689
6.72,0.9999877397107937,-178.51885199004272
6.728,0.9999879232352117,-178.86973941941238
6.736,0.999988106369429,-179.22060287280695
6.744,0.9999882890034059,-179.57144555351618
6.752,0.9999884710304477,-179.92227066537066
6.76,0.9999886523471555,179.72691858727768
6.768,0.9999888328533755,179.37611899957474
6.776,0.9999890124521511,179.02532736618315
6.784,0.9999891910496731,178.6745404813009
6.792,0.9999893685552317,178.32375513867976
6.8,0.9999895448811706,177.97296813164326
6.808,0.999989719942836,177.62217625310473
6.816,0.9999898936585335,177.27137629558496
6.824,0.9999900659494794,176.9205650512297
6.832,0.9999902367397547,176.56973931182694
6.84,0.9999904059562613,176.21889586882435
6.848,0.9999905735286753,175.868031513346
6.856,0.9999907393894027,175.51714303620955
6.864,0.9999909034735354,175.16622722794304
6.872,0.9999910657188069,174.81528087880162
6.88,0.9999912260655501,174.46430077878424
6.888,0.9999913844566533,174.1132837176504
6.896,0.9999915408375168,173.76222648493672
6.904,0.9999916951560138,173.4111258699735
6.912,0.9999918473624453,173.05997866190137
6.92,0.9999919974095004,172.70878164968818
6.928,0.9999921452522165,172.35753162214522
6.936,0.9999922908479358,172.00622536794438
6.944,0.9999924341562686,171.65485967563475
6.952,0.9999925751390517,171.30343133365972
6.96,0.9999927137603086,170.95193713037372
6.968,0.9999928499862131,170.6003738540597
6.976,0.9999929837850478,170.2487382929463
6.984,0.999993115127168,169.89702723522524
6.992,0.9999932439849638,169.54523746906906
7.0,0.9999933703328219,169.19336578264898
7.008,0.9999934941470897,168.84140896415292
7.016,0.9999936154060372,168.48936380180382
7.024,0.9999937340898227,168.13722708387823
7.032,0.9999938501804556,167.78499559872503
7.04,0.9999939636617616,167.43266613478465
7.048,0.9999940745193474,167.0802354806084
7.056,0.9999941827405658,166.72770042487826
7.064,0.9999942883144816,166.37505775642694
7.072,0.9999943912318375,166.0223042642583
7.08,0.99999449148502,165.66943673756813
7.088,0.9999945890680276,165.31645196576554
7.096,0.999994683976435,164.9633467384942
7.104,0.9999947762073644,164.6101178456548
7.112,0.9999948657594484,164.25676207742723
7.12,0.9999949526328032,163.90327622429373
7.128,0.9999950368289934,163.54965707706228
7.136,0.9999951183510009,163.19590142689037
7.144,0.9999951972031962,162.8420060653098
7.152,0.9999952733913058,162.4879677842513
7.16,0.9999953469223832,162.13378337607045
7.168,0.9999954178047771,161.77944963357345
7.176,0.9999954860481037,161.42496335004415
7.184,0.999995551663217,161.07032131927116
7.192,0.9999956146621778,160.7155203355759
7.2,0.9999956750582284,160.3605571938412
7.208,0.9999957328657605,160.00542868954054
7.216,0.99999578810029,159.6501316187681
7.224,0.9999958407784292,159.2946627782693
7.232,0.9999958909178549,158.93901896547212
7.24,0.9999959385372873,158.58319697851945
7.248,0.9999959836564594,158.22719361630183
7.256,0.9999960262960911,157.87100567849097
7.264,0.9999960664778634,157.5146299655745
7.272,0.9999961042243908,157.15806327889092
7.28,0.9999961395591981,156.80130242066596
7.288,0.9999961725066928,156.4443441940493
7.296,0.9999962030921397,156.08718540315255
7.304,0.9999962313416383,155.72982285308794
7.312,0.9999962572820962,155.37225335000784
7.32,0.999996280941204,155.01447370114542
7.328,0.999996302347413,154.65648071485612
7.336,0.9999963215299114,154.29827120066005
7.344,0.9999963385185989,153.93984196928554
7.352,0.999996353344064,153.58118983271353
7.36,0.9999963660375635,153.22231160422305
7.368,0.9999963766309935,152.8632040984378
7.376,0.9999963851568743,152.50386413137363
7.384,0.999996391648323,152.1442885204875
7.392,0.9999963961390327,151.7844740847267
7.4,0.9999963986632512,151.42441764458047
7.4079999999999995,0.9999963992557589,151.06411602213154
7.416,0.9999963979518485,150.7035660411093
7.4239999999999995,0.9999963947873008,150.3427645269447
7.432,0.9999963897983684,149.98170830682525
7.4399999999999995,0.9999963830217501,149.62039420975233
7.448,0.9999963744945757,149.25881906659876
7.4559999999999995,0.9999963642543812,148.89697971016864
7.464,0.9999963523390909,148.53487297525749
7.4719999999999995,0.9999963387869981,148.17249569871456
7.48,0.9999963236367452,147.8098447195056
7.4879999999999995,0.9999963069273029,147.44691687877813
7.496,0.9999962886979533,147.08370901992643
7.504,0.9999962689882701,146.72021798865987
7.5120000000000005,0.9999962478380997,146.35644063307075
7.52,0.9999962252875435,145.99237380370516
7.5280000000000005,0.9999962013769388,145.62801435363397
7.536,0.9999961761468412,145.26335913852662
7.5440000000000005,0.9999961496380071,144.8984050167246
7.552,0.9999961218913759,144.5331488493188
7.5600000000000005,0.9999960929480515,144.16758750022592
7.568,0.9999960628492881,143.80171783626847
7.5760000000000005,0.9999960316364698,143.43553672725477
7.584,0.9999959993510951,143.0690410460619
7.5920000000000005,0.9999959660347613,142.7022276687189
7.6,0.9999959317291469,142.33509347449302
7.6080000000000005,0.9999958964759962,141.96763534597622
7.616,0.9999958603171021,141.59985016917454
7.6240000000000006,0.9999958232942914,141.23173483359818
7.632,0.9999957854494091,140.86328623235426
7.640000000000001,0.9999957468243026,140.49450126224022
7.648,0.9999957074608058,140.1253768238402
7.656000000000001,0.9999956674007258,139.75590982162183
7.664,0.9999956266858265,139.3860971640363
7.672,0.9999955853578142,139.01593576361864
7.68,0.9999955434583236,138.6454225370915
7.688,0.999995501028903,138.2745544054693
7.696,0.9999954581110002,137.90332829416545
7.704,0.9999954147459488,137.53174113310035
7.712,0.9999953709749532,137.15978985681244
7.72,0.9999953268390773,136.7874714045703
7.728,0.999995282379229,136.41478272048718
7.736,0.999995237636148,136.04172075363724
7.744,0.9999951926503909,135.66828245817405
7.752,0.9999951474623217,135.29446479345097
7.76,0.9999951021120953,134.92026472414346
7.768,0.9999950566396475,134.54567922037361
7.776,0.999995011084681,134.17070525783677
7.784,0.9999949654866546,133.79533981793006
7.792,0.9999949198847689,133.4195798878833
7.8,0.9999948743179572,133.04342246089166
7.808,0.9999948288248715,132.66686453625113
7.816,0.9999947834438715,132.28990311949528
7.824,0.9999947382130132,131.912535222535
7.832,0.9999946931700383,131.53475786380005
7.84,0.9999946483523621,131.15656806838282
7.848,0.9999946037970634,130.77796286818472
7.856,0.999994559540872,130.3989393020641
7.864,0.999994515620161,130.01949441598742
7.872,0.9999944720709331,129.63962526318193
7.88,0.9999944289288125,129.25932890429098
7.888,0.9999943862290339,128.87860240753167
7.896,0.999994344006433,128.4974428488549
7.904,0.9999943022954353,128.11584731210763
7.912,0.9999942611300481,127.73381288919772
7.92,0.9999942205438501,127.35133668026099
7.928,0.9999941805699827,126.96841579383086
7.936,0.9999941412411388,126.58504734701027
7.944,0.9999941025895567,126.20122846564634
7.952,0.9999940646470087,125.81695628450711
7.96,0.9999940274447938,125.43222794746104
7.968,0.9999939910137283,125.04704060765897
7.976,0.9999939553841382,124.66139142771848
7.984,0.9999939205858492,124.27527757991098
7.992,0.9999938866481811,123.8886962463511
8.0,0.9999938535999375,123.50164461918875
8.008,0.9999938214693995,123.11411990080396
8.016,0.9999937902843173,122.72611930400375
8.024000000000001,0.9999937600719025,122.33764005222233
8.032,0.9999937308588218,121.94867937972333
8.04,0.9999937026711887,121.55923453180476
8.048,0.999993675534556,121.16930276500672
8.056000000000001,0.9999936494739115,120.77888134732196
8.064,0.9999936245136679,120.3879675584086
8.072,0.999993600677659,119.99655868980567
8.08,0.9999935779891312,119.6046520451515
8.088000000000001,0.9999935564707386,119.21224494040489
8.096,0.9999935361445367,118.81933470406858
8.104,0.9999935170319754,118.42591867741548
8.112,0.999993499153894,118.03199421471778
8.120000000000001,0.9999934825305165,117.63755868347893
8.128,0.9999934671814444,117.24260946466804
8.136,0.9999934531256522,116.84714395295666
8.144,0.9999934403814823,116.4511595569591
8.152000000000001,0.9999934289666395,116.05465369947508
8.16,0.9999934188981875,115.65762381773499
8.168,0.9999934101925416,115.26006736364779
8.176,0.9999934028654676,114.86198180405209
8.184000000000001,0.9999933969320742,114.46336462096968
8.192,0.9999933924068115,114.06421331186198
8.2,0.999993389303465,113.66452538988857
8.208,0.9999933876351523,113.26429838416942
8.216000000000001,0.9999933874143202,112.86352984004938
8.224,0.9999933886527407,112.46221731936537
8.232,0.9999933913615063,112.06035840071605
8.24,0.9999933955510293,111.65795067973482
8.248000000000001,0.9999934012310365,111.2549917693653
8.256,0.9999934084105677,110.85147930013932
8.264,0.9999934170979725,110.44741092045756
8.272,0.9999934273009082,110.04278429687318
8.280000000000001,0.9999934390263368,109.63759711437835
8.288,0.9999934522805227,109.23184707669289
8.296,0.9999934670690321,108.82553190655553
8.304,0.9999934833967289,108.41864934601853
8.312,0.9999935012677758,108.01119715674463
8.32,0.9999935206856299,107.60317312030594
8.328,0.9999935416530441,107.19457503848686
8.336,0.999993564172064,106.78540073358795
8.344,0.9999935882440276,106.37564804873394
8.352,0.9999936138695652,105.96531484818296
8.36,0.9999936410485974,105.55439901763951
8.368,0.9999936697803358,105.14289846456883
8.376,0.9999937000632833,104.7308111185149
8.384,0.999993731895232,104.31813493141965
8.392,0.9999937652732647,103.9048678779461
8.4,0.9999938001937557,103.49100795580242
8.408,0.9999938366523711,103.0765531860698
8.416,0.9999938746440679,102.66150161353131
8.424,0.9999939141630962,102.24585130700466
8.432,0.9999939552030019,101.82960035967551
8.44,0.9999939977566243,101.41274688943496
8.448,0.9999940418161005,100.9952890392174
8.456,0.9999940873728661,100.57722497734241
8.464,0.9999941344176564,100.15855289785712
8.472,0.9999941829405096,99.73927102088227
8.48,0.9999942329307691,99.319377592959
8.488,0.9999942843770839,98.89887088739903
8.496,0.9999943372674137,98.47774920463542
8.504,0.9999943915890308,98.05601087257693
8.512,0.9999944473285228,97.63365424696273
8.52,0.9999945044717955,97.21067771172035
8.528,0.9999945630040782,96.78707967932435
8.536,0.9999946229099256,96.36285859115785
8.544,0.9999946841732211,95.93801291787466
8.552,0.9999947467771836,95.51254115976441
8.56,0.999994810704368,95.0864418471179
8.568,0.9999948759366734,94.6597135405954
8.576,0.9999949424553455,94.23235483159527
8.584,0.9999950102409811,93.80436434262519
8.592,0.999995079273536,93.37574072767347
8.6,0.9999951495323256,92.94648267258337
8.608,0.9999952209960358,92.51658889542684
8.616,0.9999952936427242,92.0860581468812
8.624,0.9999953674498286,91.65488921060556
8.632,0.9999954423941723,91.22308090361956
8.64,0.9999955184519702,90.79063207668177
8.648,0.9999955955988363,90.35754161467058
8.656,0.9999956738097886,89.92380843696426
8.664,0.9999957530592586,89.4894314978236
8.672,0.9999958333210955,89.05440978677336
8.68,0.9999959145685768,88.61874232898623
8.688,0.9999959967744135,88.18242818566561
8.696,0.9999960799107587,87.74546645443044
8.704,0.9999961639492155,87.30785626969883
8.712,0.999996248860846,86.86959680307363
8.72,0.9999963346161783,86.43068726372653
8.728,0.9999964211852167,85.99112689878386
8.736,0.9999965085374493,85.55091499371092
8.744,0.9999965966418577,85.11005087269771
8.752,0.9999966854669264,84.66853389904298
8.76,0.9999967749806526,84.22636347553954
8.768,0.9999968651505544,83.78353904485768
8.776,0.9999969559436825,83.3400600899296
8.784,0.9999970473266299,82.89592613433186
8.792,0.9999971392655407,82.45113674266852
8.8,0.9999972317261234,82.00569152095211
8.808,0.9999973246736592,81.5595901169851
8.815999999999999,0.9999974180730138,81.11283222073914
8.824,0.9999975118886499,80.66541756473384
8.832,0.9999976060846363,80.21734592441452
8.84,0.9999977006246604,79.76861711852804
8.847999999999999,0.9999977954720412,79.3192310094973
8.856,0.9999978905897395,78.86918750379441
8.864,0.9999979859403704,78.41848655231225
8.872,0.9999980814862167,77.96712815073379
8.879999999999999,0.9999981771892409,77.51511233989947
8.888,0.9999982730110968,77.06243920617298
8.896,0.9999983689131448,76.60910888180459
8.904,0.9999984648564633,76.15512154529203
8.911999999999999,0.9999985608018617,75.7004774217388
8.92,0.9999986567098955,75.24517678321021
8.928,0.9999987525408792,74.7892199490869
8.936,0.9999988482548997,74.33260728641487
8.943999999999999,0.9999989438118309,73.87533921025266
8.952,0.9999990391713475,73.41741618401569
8.96,0.9999991342929403,72.95883871981755
8.968,0.9999992291359296,72.49960737880714
8.975999999999999,0.9999993236594804,72.03972277150257
8.984,0.9999994178226178,71.57918555812152
8.992,0.9999995115842409,71.11799644890799
9.0,0.9999996049031389,70.65615620445443
9.008,0.9999996977380068,70.19366563601997
9.016,0.9999997900474591,69.7305256058445
9.024000000000001,0.9999998817900475,69.26673702745865
9.032,0.9999999729242758,68.80230086598851
9.04,1.0,68.33721813845573
9.048,0.9999999999999999,67.87148991407322
9.056000000000001,0.9999999999999999,67.4051173145357
9.064,0.9999999999999999,66.93810151430472
9.072,1.0,66.47044374088833
9.08,0.9999999999999999,66.00214527511571
9.088000000000001,0.9999999999999999,65.53320745140608
9.096,0.9999999999999999,65.06363165803155
9.104,0.9999999999999999,64.59341933737376
9.112,1.0,64.12257198617512
9.120000000000001,0.9999999999999998,63.65109115578359
9.128,1.0,63.178978452390666
9.136,1.0,62.7062355372629
9.144,0.9999999999999999,62.23286412696689
9.152000000000001,1.0,61.75886599358761
9.16,0.9999999999999999,61.28424296493915
9.168,1.0,60.80899692476825
9.176,0.9999999999999999,60.33312981295099
9.184000000000001,1.0,59.8566436256819
9.192,1.0,59.37954041565491
9.2,0.9999999999999999,58.90182229223676
9.208,1.0,58.42349142163251
9.216000000000001,1.0,57.94455002704312
9.224,1.0,57.46500038881439
9.232,1.0,56.98484484457725
9.24,1.0,56.504085789380156
9.248000000000001,0.9999999999999999,56.02272567581251
9.256,1.0,55.540767014119
9.264,1.0,55.058212372304766
9.272,0.9999999999999998,54.57506437623188
9.280000000000001,1.0,54.091325709706574
9.288,1.0,53.60699911455646
9.296,1.0,53.12208739069823
9.304,1.0,52.63659339619611
9.312000000000001,0.9999999999999999,52.1505200473103
9.32,0.9999999999999998,51.663870318535146
9.328,1.0,51.176647242626984
9.336,1.0,50.68885391062239
9.344,1.0,50.20049347184591
9.352,0.9999999999999999,49.71156913390625
9.36,0.9999999999999998,49.2220841626835
9.368,1.0,48.73204188230399
9.376,0.9999999999999999,48.24144567510553
9.384,1.0,47.75029898159045
9.392,1.0,47.258605300368906
9.4,1.0,46.76636818808937
9.408,1.0,46.27359125935959
9.416,0.9999999999999999,45.78027818665406
9.424,1.0,45.28643270021211
9.432,0.9999999999999999,44.79205858792234
9.44,1.0,44.297159695197216
9.448,0.9999999999999999,43.80173992483388
9.456,0.9999999999999999,43.3058032368652
9.464,1.0,42.80935364839667
9.472,1.0,42.312395233433236
9.48,0.9999999999999999,41.81493212269215
9.488,1.0,41.316968503405455
9.496,0.9999999999999999,40.81850861910824
9.504,1.0,40.31955676941657
9.512,1.0,39.820117309791094
9.52,0.9999999999999999,39.320194651289974
9.528,1.0,38.81979326030756
9.536,1.0,38.31891765830249
9.544,1.0,37.81757242151094
9.552,1.0,37.31576218064962
9.56,1.0,36.81349162060401
9.568,1.0,36.310765480105665
9.576,1.0,35.807588551395234
9.584,0.9999999999999998,35.30396567987444
9.592,1.0,34.799901763743605
9.6,0.9999999999999999,34.29540175362812
9.608,1.0,33.79047065219067
9.616,0.9999999999999999,33.285113513732156
9.624,1.0,32.77933544377849
9.632,0.9999999999999999,32.273141598656224
9.64,0.9999999999999999,31.76653718505385
9.648,0.9999999999999999,31.259527459572197
9.656,1.0000000000000002,30.752117728260565
9.664,1.0,30.244313346141727
9.672,0.9999999999999999,29.736119716723156
9.68,1.0,29.227542291496984
9.688,1.0,28.718586569426247
9.696,1.0,28.209258096420207
