freq,mag,phase
6.0,0.9997798984597701,-170.49136270560848
6.002286592,0.9997994378990278,-170.63588154869132
6.004572672,0.9998322095289215,-170.78082453938302
6.006859264,0.9998759890873927,-170.92629044122293
6.009145344,0.9999279941795681,-171.07243545327663
6.011431936,0.9999849279265158,-171.21935034496406
6.013718016,1.00004314647019,-171.36708318563944
6.016004608,1.0000990268197636,-171.51565668172708
6.018290688,1.0001490179770738,-171.66499879756466
6.02057728,1.0001899072996276,-171.81497186512408
6.022863872,1.0002191209814257,-171.96543956423557
6.025149952,1.0002347145888546,-172.11617071060118
6.027436544,1.0002359337056592,-172.26707501840124
6.029722624,1.0002225633667363,-172.41787490310662
6.032009216,1.0001953012561424,-172.5683181880609
6.034295296,1.0001560791714,-172.71830531936985
6.036581888,1.0001072919526712,-172.86762498185527
6.03886848,1.0000520578309162,-173.01618536978657
6.04115456,0.9999938326418047,-173.16389560858954
6.043441152,0.9999363308143138,-173.31073376109046
6.045727232,0.9998831771675765,-173.45677866668916
6.048013824,0.9998378306490644,-173.60207666846796
6.050299904,0.9998030464504978,-173.7467939117519
6.052586496,0.9997811175051348,-173.89106962631195
6.054872576,0.9997734164698975,-174.03510004775123
6.057159168,0.9997803862994695,-174.17915139317023
6.05944576,0.9998015958547758,-174.32336464964763
6.06173184,0.9998358999396311,-174.46799960749001
6.064018432,0.9998808633408541,-174.61314648298537
6.066304512,0.9999338155533025,-174.75901687210376
6.068591104,0.9999912286910242,-174.9056688588793
6.070877184,1.0000496744107186,-175.05314374245003
6.073163776,1.0001052173535185,-175.20146909787397
6.075450368,1.0001544779612725,-175.35049800369984
6.077736448,1.000194338942071,-175.50018027235134
6.08002304,1.0002222935782636,-175.65036120622804
6.08230912,1.0002364895869613,-175.8007745972191
6.084595712,1.000236043640677,-175.95129859636887
6.086881792,1.0002208679320577,-176.1017265543853
6.089168384,1.0001921450530031,-176.251804170017
6.091454464,1.0001516059226019,-176.40133241189986
6.093741056,1.0001017568555022,-176.55024735560187
6.096027648,1.000045765195569,-176.69834891284248
6.098313728,0.9999872030264869,-176.84559738116528
6.10060032,0.9999298498788171,-176.99197761665775
6.1028864,0.9998772148327135,-177.13757447693555
6.105172992,0.999832688681369,-177.2824163397593
6.107459072,0.9997991277934741,-177.42668573110595
6.109745664,0.999778587367025,-177.5705617448049
6.112032256,0.9997725117460021,-177.71420311081445
6.114318336,0.999781117557152,-177.85786438949773
6.116604928,0.9998040506038474,-178.00173404454898
6.118891008,0.9998396654288727,-178.14602345803144
6.1211776,0.9998857843747712,-178.29089438841777
6.12346368,0.999939623944932,-178.43646621143353
6.125750272,0.9999975942267878,-178.5828452595638
6.128036352,1.0000560410962023,-178.73004900004742
6.130322944,1.0001113892449225,-178.87805243473997
6.132609536,1.0001600069003753,-179.02680909335365
6.134895616,1.0001987573586042,-179.1761705170025
6.137182208,1.000225249365923,-179.32600278829267
6.139468288,1.000237907305665,-179.47613750033605
6.14175488,1.0002357343498558,-179.62628480178765
6.14404096,1.0002191004952972,-179.77630337255337
6.146327552,1.0001889474627161,-179.92595548938803
6.148614144,1.0001468892840246,179.9249544066592
6.150900224,1.0000959417750015,179.77651750150284
6.153186816,1.0000394565521988,179.62887229517102
6.155472896,0.9999806480528572,179.48211579560794
6.157759488,0.9999233396604922,179.33619947939937
6.160045568,0.9998713628719896,179.19108124102874
6.16233216,0.9998276729373768,179.04668708056994
6.16461824,0.9997954392661493,178.90287994642074
6.166904832,0.9997764003467672,178.75943218235722
6.169191424,0.9997718321573915,178.61617850015426
6.171477504,0.9997821550602342,178.47293408234702
6.173764096,0.999806570620888,178.3293958732287
6.176050176,0.9998436957667616,178.18544400007113
6.178336768,0.9998910081962203,178.04090440073983
6.180622848,0.9999457336746471,177.89567139303463
6.18290944,1.0000040871739284,177.74957441304514
6.18519552,1.0000626227554552,177.60267259508123
6.187482112,1.0001175818393757,177.454951952047
6.189768704,1.000165229527324,177.30651657317915
6.192054784,1.0002030151322343,177.15745778223675
6.194341376,1.0002281647405633,177.00796105675494
6.196627456,1.0002392682223065,176.8582465864978
6.198914048,1.0002354893044652,176.70845681486637
6.201200128,1.0002171504019424,176.55885596944125
6.20348672,1.0001852522661185,176.40964439269717
6.205773312,1.0001420662463447,176.26097643444
6.208059392,1.0000902440285637,176.11301587897026
6.210345984,1.0000329530056131,175.96587345895935
6.212632064,0.9999739359189249,175.81957017776648
6.214918656,0.9999168395212219,175.67415414024433
6.217204736,0.9998653136514549,175.5295360531196
6.219491328,0.9998227190709401,175.38563331502158
6.221777408,0.9997917477811518,175.24225958077173
6.224064,0.999774077362943,175.0992904390586
6.226350592,0.9997712917729461,174.9564445188032
6.228636672,0.9997832048215439,174.8135699388932
6.230923264,0.9998092918438951,174.67044501619705
6.233209344,0.9998478871203897,174.5268374665126
6.235495936,0.9998963537099548,174.3826503987027
6.237782016,0.9999517521143492,174.2376951957593
6.240068608,1.0000106785644074,174.09195802553808
6.2423552,1.0000690760056743,173.94535683583223
6.24464128,1.0001236151056074,173.79793742201522
6.246927872,1.000170577781627,173.64981628175414
6.249213952,1.0002071296523325,173.50110536623853
6.251500544,1.0002309328024384,173.35198533889624
6.253786624,1.000240427130193,173.20262072762324
6.256073216,1.0002348417484468,173.05324142104485
6.258359296,1.0002149294572849,172.90404714072503
6.260645888,1.0001815880467109,172.75529146462367
6.26293248,1.000137126148337,172.6071158773782
6.26521856,1.0000842465378859,172.45963764736445
6.267505152,1.0000263418920434,172.31300577191547
6.269791232,0.9999670991472448,172.16721269073352
6.272077824,0.9999102516907808,172.0223085781697
6.274363904,0.999859486367321,171.87821611548264
6.276650496,0.9998178584054508,171.73478224555146
6.278937088,0.9997880421591459,171.5918737605755
6.281223168,0.9997721117645365,171.44934407977016
6.28350976,0.9997709807532463,171.30695013330916
6.28579584,0.9997845760117025,171.16447304000897
6.288082432,0.9998123229158763,171.02173655715197
6.290368512,0.999852249705884,170.87849219926403
6.292655104,0.999901751918269,170.73464327654582
6.294941184,0.9999579992857144,170.5900296085838
6.297227776,1.0000172243678687,170.44461256883167
6.299514368,1.0000756227491097,170.29832578525372
6.301800448,1.0001296842629313,170.1512472755295
6.30408704,1.0001758439866468,170.00346637592193
6.30637312,1.0002112367599028,169.85509318022167
6.308659712,1.0002335590283369,169.70633921355287
6.310945792,1.0002412935973632,169.55738420393092
6.313232384,1.0002342147323233,169.40840982948666
6.315518464,1.0002125047836714,169.25968408884256
6.317805056,1.00017772261888,169.11135783386752
6.320091648,1.0001320001338994,168.96367397713075
6.322377728,1.0000781844204858,168.8167095988221
6.32466432,1.0000197250263771,168.67059327176642
6.3269504,0.9999602746354042,168.52532325663591
6.329236992,0.9999036898916216,168.38094508978483
6.331523072,0.9998535741740779,168.23733965925086
6.333809664,0.9998130671593192,168.09442244684124
6.336096256,0.9997846284137654,167.95201925008556
6.338382336,0.9997702365707901,167.80994740764575
6.340668928,0.9997707578672526,167.66802151258455
6.342955008,0.9997861259254267,167.5259429568175
6.3452416,0.9998153323049004,167.38360513746295
6.34752768,0.999856678039378,167.2407402327258
6.349814272,0.9999073578974678,167.0972457040125
6.352100352,0.9999644085283617,166.95297039538076
6.354386944,1.0000240080712974,166.80785832168817
6.356673536,1.000082292116715,166.6619233794758
6.358959616,1.0001358582377955,166.51518354389455
6.361246208,1.0001810905575415,166.36776248465472
6.363532288,1.0002151478092183,166.21975329375408
6.36581888,1.0002359748263032,166.0713739137724
6.36810496,1.0002420771866654,165.9228020949137
6.370391552,1.0002333396702527,165.77429856148106
6.372678144,1.0002099484194267,165.62603216167471
6.374964224,1.0001736665950134,165.4781975119806
6.377250816,1.000126575289242,165.33099387230956
6.379536896,1.0000719344650353,165.18455898598583
6.381823488,1.00001291853496,165.0389795234
6.384109568,0.9999533441425807,164.89425696552547
6.38639616,0.9998971326440413,164.75038605881633
6.38868224,0.9998477883467144,164.6073093986063
6.390968832,0.9998083382121485,164.4649318986266
6.393255424,0.9997813299093345,164.3229960852728
6.395541504,0.9997685767863179,164.18141608433825
6.397828096,0.9997707868127886,164.03989680968408
6.400114176,0.999787787714684,163.8982792694496
6.402400768,0.9998186813413193,163.75632065247942
6.404686848,0.9998613138405906,163.6138732980255
6.40697344,0.9999132258796906,163.470720376907
6.409260032,0.9999708675037211,163.32678833356036
6.411546112,1.0000307152057832,163.18204640483987
6.413832704,1.0000889705365184,163.0364443723497
6.416118784,1.000141971582,162.890033844959
6.418405376,1.0001863457391635,162.74295890935267
6.420691456,1.0002190683912955,162.59535039406163
6.422978048,1.000238350603935,162.44735828593477
6.425264128,1.0002427838315338,162.29922670572856
6.42755072,1.0002321515720685,162.15115714271016
6.429837312,1.0002071625964817,162.0033580942666
6.432123392,1.0001693918485766,161.8560339323628
6.434409984,1.0001211188455743,161.7093267514083
6.436696064,1.0000654550088164,161.5634486395386
6.438982656,1.0000060117072345,161.41839337675447
6.441268736,0.9999464064613404,161.27420927657698
6.443555328,0.9998906246575029,161.1308837661681
6.44584192,0.9998420033546848,160.9883575923563
6.448128,0.9998036596823775,160.84646574671055
6.450414592,0.9997781126298101,160.70506494566487
6.452700672,0.9997669640940451,160.5639507787731
6.454987264,0.9997709094057229,160.42291864585306
6.457273344,0.9997897383561207,160.28171235291052
6.459559936,0.9998222605189581,160.1401778851959
6.461846016,0.9998662436315887,159.99808922508927
6.464132608,0.9999191853956597,159.85530722339206
6.4664192,0.999977537018511,159.7117687828438
6.46870528,1.000037556795432,159.56734246341125
6.470991872,1.0000957454590365,159.42209452136873
6.473277952,1.000148008157583,159.27606185259617
6.475564544,1.0001912753781153,159.1293635474993
6.477850624,1.0002228652221836,158.9821130018399
6.480137216,1.000240419534397,158.8345412524606
6.482423296,1.0002432270652917,158.6868459800304
6.484709888,1.000230915926419,158.53921635770322
6.48699648,1.0002041801646815,158.3919232368184
6.48928256,1.0001649465878684,158.24509995843607
6.491569152,1.0001154041914486,158.09892262254525
6.493855232,1.0000588712277882,157.9535864216795
6.496141824,0.9999990349002165,157.80906011554052
6.498427904,0.9999394766816609,157.66545601802744
6.500714496,0.9998840170886659,157.52270986748408
6.503001088,0.9998362041924469,157.3807009995622
6.505287168,0.9997991456055776,157.23933853348828
6.50757376,0.9997751191717513,157.0984813196233
6.50985984,0.9997656733419038,156.9578467248407
6.512146432,0.9997713689681745,156.8172483005491
6.514432512,0.9997918282084652,156.67651684201974
6.516719104,0.9998258410317153,156.53534795036063
6.519005184,0.9998713510921511,156.39368246704205
6.521291776,0.9999252424988959,156.25128572444035
6.523578368,0.9999842506748526,156.1080808724971
6.525864448,1.0000446397977407,155.9640515885417
6.52815104,1.0001024125399725,155.81916320411963
6.53043712,1.0001540754137788,155.67348151004106
6.532723712,1.0001963449294797,155.52716599119097
6.535009792,1.000226452295968,155.38032264346455
6.537296384,1.000242588253414,155.23316246408277
6.539582976,1.0002434797586301,155.08589742427853
6.541869056,1.0002294497351714,154.9387561128751
6.544155648,1.0002011348791615,154.79192406898895
6.546441728,1.0001602181887224,154.6456241271249
6.54872832,1.0001096271230308,154.5000131426304
6.5510144,1.0000522998702148,154.35519779944275
6.553300992,0.9999919111784685,154.21126765261772
6.555587072,0.9999323127539671,154.06820587327098
6.557873664,0.9998774155797718,153.926014644794
6.560160256,0.9998303972301654,153.78456727691642
6.562446336,0.9997946714335587,153.6437449218261
6.564732928,0.999772019121707,153.50337574570662
6.567019008,0.9997644255791919,153.3632384869023
6.5693056,0.999771833641972,153.22313698475435
6.57159168,0.9997942385534564,153.08282770432933
6.573878272,0.9998297767225124,152.94212272936963
6.576164864,0.9998765931132634,152.80082090733816
6.578450944,0.9999315310078147,152.6587939108508
6.580737536,0.9999911318646433,152.51597704744194
6.583023616,1.0000515381482609,152.37229711814166
6.585310208,1.0001090721734258,152.22777055395287
6.587596288,1.0001600784479512,152.08248191102706
6.58988288,1.0002012096365667,151.93653694170558
6.59216896,1.0002298301146164,151.79009860881465
6.594455552,1.0002443157948524,151.6433759417306
6.596742144,1.0002435803130638,151.496573486375
6.599028224,1.0002275802365739,151.34987445792854
6.601314816,1.000197550114468,151.20357348072542
6.603600896,1.0001553778413792,151.05780105173875
6.605887488,1.0001035120786546,150.91272700240614
6.608173568,1.0000453946314538,150.76849483180968
6.61046016,0.9999846556239849,150.62511003719194
6.612746752,0.9999252092795108,150.48263462190707
6.615032832,0.9998708085428201,150.34101002186438
6.617319424,0.99982487035768,150.20013889907
6.619605504,0.9997903588244933,150.05987679488632
6.621892096,0.9997693907748454,149.9200104687907
6.624178176,0.9997633329042401,149.7803509780804
6.626464768,0.9997726698000984,149.6407388065178
6.628750848,0.9997967577606192,149.50086469586998
6.63103744,0.9998339072502199,149.36057232469682
6.633324032,0.9998820148113592,149.2196735046072
6.635610112,0.9999378967587194,149.0780521841227
6.637896704,0.9999981140847021,148.93559696405543
6.640182784,1.00005871855111,148.79230390126745
6.642469376,1.000115920862079,148.6481322772389
6.644755456,1.0001660891270088,148.50318856621982
6.647042048,1.0002059939069587,148.3576681073456
6.649328128,1.0002333567492845,148.211666692515
6.65161472,1.0002460351416598,148.06534855097374
6.653901312,1.0002434587173492,147.91900664573777
6.656187392,1.0002257506804404,147.77282734275536
6.658473984,1.0001940157737899,147.6270137591691
6.660760064,1.0001502908493143,147.4817969930037
6.663046656,1.0000973384373726,147.337271278504
6.665332736,1.0000383506808226,147.19359370557385
6.667619328,0.9999774890295848,147.05079751438393
6.66990592,0.9999180954085051,146.90889613130693
6.672192,0.9998641444187065,146.76783073121604
6.674478592,0.999819222030645,146.62751738579092
6.676764672,0.999786082415994,146.4878051517398
6.679051264,0.9997666784872424,146.34845556897105
6.681337344,0.9997624387632496,146.20934107989
6.683623936,0.9997736692240031,146.07016315650242
6.685910016,0.9997993899483014,145.93074895868753
6.688196608,0.9998382427546574,145.7908927106893
6.6904832,0.9998876494292576,145.65038426265684
6.69276928,0.9999445198289634,145.50916037305373
6.695055872,1.0000051404837296,145.36706454184082
6.697341952,1.000065896765313,145.22412394057807
6.699628544,1.0001226574463393,145.08036395891858
6.701914624,1.0001719311472406,144.93585012562582
6.704201216,1.00021084278221,144.79068377593575
6.706487808,1.0002365829011115,144.64509347041587
6.708773888,1.000247561336155,144.49921074398017
6.71106048,1.00024316172238,144.35337939593626
6.71334656,1.0002236766532444,144.20766724386516
6.715633152,1.0001902597832113,144.06236412789093
6.717919232,1.000145035017727,143.9176976679548
6.720205824,1.0000908501985863,143.77372146839667
6.722491904,1.0000313271889985,143.63062569531883
6.724778496,0.9999700823055264,143.4884168881922
6.727065088,0.9999108501720226,143.34710025265736
6.729351168,0.9998576021845001,143.20662505264994
6.73163776,0.9998137125496933,143.06686964788622
6.73392384,0.9997818508410047,142.92769566574967
6.736210432,0.9997642413617024,142.7888942932249
6.738496512,0.9997618437488972,142.650265500062
6.740783104,0.9997748731817042,142.5115669398897
6.743069696,0.9998024405102129,142.3726136114171
6.745355776,0.9998429286240168,142.23316471782172
6.747642368,0.9998935377306978,142.093079836662
6.749928448,0.9999513356497876,141.95222299126021
6.75221504,1.0000124562676187,141.81052638548462
6.75450112,1.0000731809296952,141.66796533147675
6.756787712,1.0001295939760424,141.52456049996434
6.759073792,1.0001781595486288,141.38041770167126
6.761360384,1.0002155736144414,141.23568277642082
6.763646976,1.0002397939459389,141.09046255731246
6.765933056,1.0002490857265784,140.94508883572797
6.768219648,1.0002427142994286,140.79967747933432
6.770505728,1.000221342834761,140.65450327070926
6.77279232,1.0001863139675018,140.50972095371893
6.7750784,1.0001395513016416,140.36559923739836
6.777364992,1.0000843792280372,140.2222016343145
6.779651584,1.0000241389675952,140.0796662284956
6.781937664,0.999962581402701,139.93805581033078
6.784224256,0.9999035754096586,139.7973208311118
6.786510336,0.9998511240655437,139.65744243133284
6.788796928,0.9998083308507992,139.51826998342227
6.791083008,0.9997779247504777,139.379639357999
6.7933696,0.9997619920933581,139.24135927123623
6.79565568,0.9997614418994041,139.10325180889578
6.797942272,0.9997760979485055,138.96502050446588
6.800228864,0.9998056330492032,138.82648578889896
6.802514944,0.9998475977073334,138.68746864401078
6.804801536,0.9998996151693431,138.5478273111803
6.807087616,0.9999581444814403,138.40733088184533
6.809374208,1.0000199096082454,138.26601427068485
6.811660288,1.0000805412899203,138.1238317046598
6.81394688,1.0001364581084828,137.98080270061268
6.81623296,1.0001839509560349,137.83704413828323
6.818519552,1.0002201965359871,137.69269482307982
6.820806144,1.0002428244668962,137.54796312474915
6.823092224,1.000250106138328,137.40300358758816
6.825378816,1.0002419619010652,137.2580770629617
6.827664896,1.0002187834250391,137.11339734924871
6.829951488,1.0001820570295281,136.96916902664776
6.832237568,1.0001339774168865,136.82557208402966
6.83452416,1.0000776653433183,136.68276450785797
6.836810752,1.000016731192957,136.54084014499838
6.839096832,0.9999549358152519,136.3997908659799
6.841383424,0.9998963938510647,136.25964891269547
6.843669504,0.999844557450263,136.1203747139788
6.845956096,0.9998029999268132,135.98174691573524
6.848242176,0.9997740553970459,135.8436607173054
6.850528768,0.9997598015518806,135.70591131771752
6.852814848,0.9997610899962963,135.5683150784337
6.85510144,0.9997778567893607,135.43053947574202
6.857388032,0.9998089340211036,135.2924745381119
6.859674112,0.9998526191757474,135.15388658986734
6.861960704,0.9999058171382027,135.01459906202038
6.864246784,0.9999653754259025,134.8745351379957
6.866533376,1.0000273157508228,134.73357740201
6.868819456,1.000087996470428,134.59178020253808
6.871106048,1.0001433130752728,134.44913999033568
6.87339264,1.000189937002296,134.30577450443363
6.87567872,1.0002246378968187,134.16183097462238
6.877965312,1.000245535099123,134.01750673906193
6.880251392,1.0002511640642702,133.87303470333705
6.882537984,1.000241142356127,133.7285758673782
6.884824064,1.000216104086009,133.58440840769708
6.887110656,1.0001776522283508,133.44070863897787
6.889396736,1.0001281067042507,133.29767446575872
6.891683328,1.000070755499739,133.15544666853435
6.89396992,1.0000091965394302,133.014103418768
6.896256,0.9999473048489133,132.87366761630548
6.898542592,0.9998890562883251,132.73413561689685
6.900828672,0.9998380882606236,132.59539399929133
6.903115264,0.9997976145550531,132.4573592260919
6.905401344,0.9997702807495453,132.3198367155142
6.907687936,0.9997578202281996,132.18260403726376
6.909974528,0.9997609947328957,132.0454826597806
6.912260608,0.9997797613784131,131.9081951281754
6.9145472,0.9998126399380225,131.7705995089667
6.91683328,0.9998577984146071,131.63242601619262
6.919119872,0.9999122626186263,131.4935279947224
6.921405952,0.9999724219906735,131.3538588257093
