freq,mag,phase
6.0,1.0,46.21195218966375
6.008,0.9999989371692272,46.00583519194596
6.016,0.9999978052352264,45.79964785297098
6.024,0.9999966892539495,45.59339037180828
6.032,0.9999955891366763,45.38706294871311
6.04,0.9999945047944225,45.18066578512493
6.048,0.9999934361379469,44.97419908366615
6.056,0.9999923830777551,44.76766304814057
6.064,0.9999913455241096,44.561057883531795
6.072,0.9999903233870334,44.3543837960018
6.08,0.999989316576319,44.1476409928892
6.088,0.999988325001532,43.94082968270774
6.096,0.9999873485720203,43.733950075144506
6.104,0.9999863871969191,43.527002381058324
6.112,0.9999854407851578,43.319986812477936
6.12,0.9999845092454659,43.112903582600204
6.128,0.9999835924863797,42.905752905788376
6.136,0.9999826904162493,42.69853499757013
6.144,0.999981802943244,42.491250074635744
6.152,0.9999809299753596,42.283898354836076
6.16,0.9999800714204234,42.07648005718069
6.168,0.9999792271861019,41.86899540183574
6.176,0.9999783971799061,41.66144461012205
6.184,0.9999775813091989,41.45382790451284
6.192,0.9999767794812,41.24614550863176
6.2,0.9999759916029934,41.03839764725065
6.208,0.9999752175815323,40.830584546287334
6.216,0.9999744573236466,40.622706432803405
6.224,0.9999737107360491,40.41476353500192
6.232,0.9999729777253393,40.20675608222507
6.24,0.9999722581980133,39.99868430495189
6.248,0.999971552060467,39.79054843479572
6.256,0.9999708592190032,39.58234870450191
6.264,0.9999701795798382,39.374085347945304
6.272,0.9999695130491068,39.165758600127695
6.28,0.9999688595328692,38.957368697175276
6.288,0.9999682189371164,38.748915876336085
6.296,0.999967591167777,38.54040037597733
6.304,0.9999669761307225,38.331822435582794
6.312,0.9999663737317732,38.123182295750034
6.32,0.9999657838767049,37.9144801981877
6.328,0.9999652064712541,37.70571638571273
6.336,0.999964641421124,37.49689110224751
6.344,0.9999640886319905,37.28800459281708
6.352,0.9999635480095085,37.07905710354614
6.36,0.9999630194593165,36.870048881656174
6.368,0.9999625028870436,36.66098017546245
6.376,0.9999619981983153,36.45185123437101
6.384,0.9999615052987578,36.2426623088756
6.392,0.9999610240940053,36.03341365055463
6.4,0.9999605544897056,35.82410551206793
6.408,0.9999600963915241,35.61473814715373
6.416,0.9999596497051519,35.40531181062529
6.424,0.9999592143363092,35.1958267583678
6.432,0.999958790190753,34.98628324733498
6.44,0.9999583771742802,34.77668153554582
6.448,0.9999579751927362,34.56702188208115
6.456,0.9999575841520174,34.35730454708035
6.464,0.9999572039580787,34.147529791737796
6.472,0.9999568345169382,33.93769787829943
6.48,0.999956475734683,33.72780907005923
6.4879999999999995,0.9999561275174741,33.51786363135571
6.496,0.9999557897715524,33.30786182756816
6.504,0.9999554624032437,33.09780392511328
6.5120000000000005,0.9999551453189642,32.88769019144118
6.52,0.9999548384252257,32.67752089503208
6.5280000000000005,0.9999545416286405,32.46729630539206
6.536,0.9999542548359279,32.25701669304979
6.5440000000000005,0.9999539779539184,32.046682329552254
6.552,0.9999537108895585,31.83629348746129
6.5600000000000005,0.9999534535499176,31.62585044034931
6.568,0.9999532058421908,31.415353462795693
6.5760000000000005,0.9999529676737061,31.204802830382555
6.584,0.9999527389519283,30.99419881969095
6.592,0.9999525195844645,30.78354170829662
6.6,0.9999523094790691,30.572831774766048
6.608,0.9999521085436482,30.362069298652298
6.616,0.9999519166862659,30.151254560490816
6.624,0.9999517338151481,29.940387841795257
6.632,0.9999515598386871,29.729469425053246
6.64,0.9999513946654477,29.518499593722122
6.648,0.999951238204172,29.307478632224566
6.656,0.9999510903637818,29.096406825944335
6.664,0.9999509510533872,28.885284461221797
6.672,0.9999508201822881,28.674111825349556
6.68,0.9999506976599808,28.462889206568
6.688,0.9999505833961616,28.251616894060763
6.696,0.9999504773007325,28.040295177950235
6.704,0.9999503792838045,27.82892434929295
6.712,0.9999502892557038,27.617504700075017
6.72,0.9999502071269745,27.40603652320749
6.728,0.9999501328083846,27.19452011252164
6.736,0.9999500662109302,26.982955762764277
6.744,0.9999500072458392,26.771343769592985
6.752,0.9999499558245765,26.559684429571377
6.76,0.9999499118588483,26.34797804016421
6.768,0.9999498752606056,26.136224899732582
6.776,0.9999498459420505,25.924425307529006
6.784,0.9999498238156376,25.712579563692533
6.792,0.999949808794081,25.50068796924372
6.8,0.9999498007903569,25.28875082607969
6.808,0.999949799717708,25.07676843696909
6.816,0.9999498054896485,24.864741105547
6.824,0.999949818019967,24.652669136309857
6.832,0.9999498372227311,24.440552834610326
6.84,0.9999498630122924,24.228392506652096
6.848,0.9999498953032884,24.01618845948472
6.856,0.9999499340106484,23.803941000998357
6.864,0.999949979049596,23.59165043991849
6.872,0.9999500303356548,23.37931708580065
6.88,0.9999500877846499,23.166941249025054
6.888,0.999950151312714,22.954523240791247
6.896,0.9999502208362894,22.742063373112703
6.904,0.9999502962721325,22.529561958811367
6.912,0.9999503775373183,22.31701931151221
6.92,0.9999504645492424,22.10443574563771
6.928,0.9999505572256261,21.89181157640231
6.936,0.9999506554845188,21.67914711980688
6.944,0.9999507592443027,21.466442692633112
6.952,0.9999508684236955,21.25369861243785
6.96,0.9999509829417543,21.04091519754748
6.968,0.9999511027178793,20.828092767052198
6.976,0.9999512276718159,20.6152316408003
6.984,0.9999513577236601,20.402332139392428
6.992,0.9999514927938598,20.189394584175798
7.0,0.99995163280322,19.97641929723832
7.008,0.9999517776729041,19.763406601402828
7.016,0.9999519273244384,19.55035682022115
7.024,0.9999520816797158,19.337270277968205
7.032,0.9999522406609974,19.12414729963609
7.04,0.999952404190916,18.910988210928092
7.048,0.9999525721924806,18.697793338252666
7.056,0.9999527445890769,18.48456300871745
7.064,0.9999529213044737,18.271297550123197
7.072,0.9999531022628216,18.05799729095767
7.08,0.9999532873886596,17.844662560389544
7.088,0.9999534766069162,17.631293688262225
7.096,0.9999536698429125,17.4178910050878
7.104,0.999953867022365,17.20445484204062
7.112,0.9999540680713883,16.990985530951324
7.12,0.9999542729164986,16.777483404300398
7.128,0.9999544814846142,16.56394879521196
7.136,0.9999546937030612,16.350382037447492
7.144,0.9999549094995734,16.13678346539941
7.152,0.9999551288022968,15.923153414084764
7.16,0.99995535153979,15.709492219138863
7.168,0.9999555776410288,15.495800216808828
7.176,0.9999558070354078,15.282077743947122
7.184,0.999956039652742,15.068325138005184
7.192,0.9999562754232704,14.854542737026804
7.2,0.9999565142776579,14.64073087964172
7.208,0.9999567561469962,14.426889905059042
7.216,0.9999570009628095,14.213020153060604
7.224,0.9999572486570517,13.999121963994531
7.232,0.9999574991621133,13.785195678768478
7.24,0.9999577524108206,13.57124163884307
7.248,0.999958008336439,13.357260186225213
7.256,0.999958266872674,13.143251663461426
7.264,0.9999585279536741,12.929216413631098
7.272,0.9999587915140328,12.715154780339809
7.28,0.9999590574887898,12.501067107712508
7.288,0.9999593258134335,12.28695374038679
7.296,0.9999595964239015,12.0728150235061
7.304,0.9999598692565849,11.85865130271286
7.312,0.9999601442483269,11.644462924141676
7.32,0.9999604213364279,11.430250234412455
7.328,0.9999607004586436,11.216013580623528
7.336,0.999960981553189,11.001753310344737
7.344,0.9999612645587399,10.787469771610535
7.352,0.9999615494144327,10.573163312912996
7.36,0.9999618360598681,10.358834283194863
7.368,0.9999621244351109,10.144483031842631
7.376,0.9999624144806921,9.930109908679432
7.384,0.9999627061376096,9.715715263958103
7.392,0.9999629993473308,9.5012994483541
7.4,0.999963294051793,9.286862812958447
7.4079999999999995,0.9999635901934041,9.072405709270683
7.416,0.9999638877150453,8.85792848919167
7.4239999999999995,0.9999641865600705,8.643431505016693
7.432,0.9999644866723093,8.428915109428024
7.4399999999999995,0.9999647879960665,8.214379655488136
7.448,0.9999650904761236,7.999825496632133
7.4559999999999995,0.99996539405774,7.785252986661001
7.464,0.9999656986866546,7.570662479733999
7.4719999999999995,0.9999660043090846,7.356054330361837
7.48,0.9999663108717286,7.14142889339907
7.4879999999999995,0.9999666183217666,6.926786524037223
7.496,0.9999669266068606,6.712127577797194
7.504,0.9999672356751554,6.497452410522312
7.5120000000000005,0.9999675454752793,6.282761378370716
7.52,0.9999678559563451,6.06805483780841
7.5280000000000005,0.9999681670679503,5.8533331456015825
7.536,0.9999684787601782,5.638596658809655
7.5440000000000005,0.9999687909835978,5.423845734777574
7.552,0.9999691036892644,5.209080731128825
7.5600000000000005,0.9999694168287211,4.9943020057577145
7.568,0.9999697303539974,4.779509916822352
7.5760000000000005,0.9999700442176113,4.564704822736891
7.584,0.9999703583725686,4.349887082164522
7.5920000000000005,0.9999706727723641,4.135057054009673
7.6,0.99997098737098,3.920215097410971
7.6080000000000005,0.9999713021228891,3.7053615717334303
7.616,0.999971616983052,3.490496836561422
7.6240000000000006,0.9999719319069194,3.275621251690799
7.632,0.9999722468504306,3.0607351771218507
7.640000000000001,0.9999725617700148,2.8458389730514515
7.648,0.999972876622591,2.6309329998659567
7.656000000000001,0.9999731913655671,2.4160176181333464
7.664,0.9999735059568404,2.2010931885961007
7.672,0.9999738203547979,1.9861600721633668
7.68,0.9999741345183152,1.7712186299036903
7.688,0.9999744484067575,1.5562692230374
7.696,0.9999747619799789,1.3413122129290953
7.704,0.9999750751983215,1.1263479610801286
7.712,0.9999753880226158,0.9113768291210826
7.72,0.9999757004141807,0.6963991788042093
7.728,0.9999760123348226,0.4814153719958972
7.736,0.9999763237468345,0.26642577066912826
7.744,0.9999766346129977,0.05143073689590885
7.752,0.999976944896578,-0.16356936716026657
7.76,0.9999772545613285,-0.3785741792519991
7.768,0.9999775635714866,-0.5935833370555418
7.776,0.9999778718917749,-0.8085964781783634
7.784,0.9999781794874,-1.0236132401667315
7.792,0.9999784863240522,-1.2386332605132762
7.8,0.9999787923679041,-1.4536561766645781
7.808,0.9999790975856109,-1.6686816260287416
7.816,0.9999794019443082,-1.8837092459829714
7.824,0.9999797054116131,-2.098738673881164
7.832,0.9999800079556218,-2.3137695470614883
7.84,0.9999803095449089,-2.5288015028539634
7.848,0.9999806101485279,-2.7438341785880476
7.856,0.9999809097360086,-2.958867211600223
7.864,0.9999812082773565,-3.1739002392415787
7.872,0.999981505743053,-3.3889328988853893
7.88,0.9999818021040523,-3.6039648279347087
7.888,0.9999820973317822,-3.81899566382994
7.896,0.999982391398142,-4.034025044056414
7.904,0.9999826842755017,-4.249052606151977
7.912,0.9999829759367008,-4.464077987714553
7.92,0.9999832663550469,-4.679100826409726
7.928,0.999983555504314,-4.894120759978304
7.936,0.9999838433587427,-5.109137426243882
7.944,0.9999841298930376,-5.324150463120411
7.952,0.9999844150823664,-5.539159508619755
7.96,0.999984698902358,-5.7541642008592335
7.968,0.9999849813291023,-5.969164178069185
7.976,0.9999852623391476,-6.184159078600504
7.984,0.9999855419094995,-6.39914854093218
7.992,0.9999858200176197,-6.614132203678832
8.0,0.9999860966414237,-6.829109705598229
8.008,0.9999863717592804,-7.044080685598799
8.016,0.9999866453500098,-7.259044782747247
8.024000000000001,0.9999869173928803,-7.474001636275865
8.032,0.9999871878676099,-7.68895088559013
8.04,0.9999874567543614,-7.903892170276311
8.048,0.9999877240337426,-8.11882513010884
8.056000000000001,0.9999879896868045,-8.333749405057704
8.064,0.9999882536950376,-8.54866463529601
8.072,0.9999885160403733,-8.76357046120752
8.08,0.999988776705179,-8.97846652339403
8.088000000000001,0.9999890356722582,-9.193352462682686
8.096,0.9999892929248477,-9.408227920133527
8.104,0.9999895484466159,-9.623092537047002
8.112,0.9999898022216612,-9.837945954971266
8.120000000000001,0.9999900542345095,-10.052787815709488
8.128,0.9999903044701116,-10.267617761327356
8.136,0.9999905529138441,-10.482435434160498
8.144,0.9999907995515032,-10.697240476821797
8.152000000000001,0.9999910443693051,-10.91203253220863
8.16,0.9999912873538844,-11.126811243510275
8.168,0.99999152849229,-11.341576254215378
8.176,0.9999917677719838,-11.556327208119137
8.184000000000001,0.99999200518084,-11.771063749330514
8.192,0.9999922407071403,-11.985785522279615
8.2,0.9999924743395733,-12.200492171725061
8.208,0.9999927060672319,-12.415183342761148
8.216000000000001,0.9999929358796109,-12.629858680824984
8.224,0.999993163766605,-12.844517831703818
8.232,0.999993389718506,-13.059160441542346
8.24,0.9999936137260009,-13.273786156849818
8.248000000000001,0.9999938357801691,-13.48839462450712
8.256,0.9999940558724801,-13.702985491774012
8.264,0.9999942739947918,-13.917558406296408
8.272,0.9999944901393469,-14.13211301611338
8.280000000000001,0.999994704298771,-14.346648969664201
8.288,0.9999949164660702,-14.561165915795511
8.296,0.9999951266346289,-14.775663503768506
8.304,0.999995334798206,-14.990141383265904
8.312,0.9999955409509338,-15.204599204398837
8.32,0.9999957450873147,-15.41903661771423
8.328,0.9999959472022186,-15.633453274201376
8.336,0.9999961472908807,-15.847848825299348
8.344,0.9999963453488984,-16.062222922903583
8.352,0.9999965413722289,-16.27657521937318
8.36,0.9999967353571864,-16.49090536753746
8.368,0.9999969273004394,-16.705213020703273
8.376,0.9999971171990086,-16.91949783266146
8.384,0.999997305050263,-17.133759457694154
8.392,0.999997490851918,-17.347997550581187
8.4,0.9999976746020326,-17.562211766607327
8.408,0.9999978562990067,-17.776401761568703
8.416,0.9999980359415774,-17.990567191779938
8.424,0.9999982135288175,-18.204707714080552
8.432,0.9999983890601318,-18.41882298584204
8.44,0.9999985625352545,-18.63291266497427
8.448,0.999998733954246,-18.846976409932477
8.456,0.9999989033174913,-19.061013879723575
8.464,0.9999990706256955,-19.275024733913217
8.472,0.9999992358798815,-19.489008632631982
8.48,0.9999993990813876,-19.702965236582372
8.488,0.9999995602318638,-19.916894207044994
8.496,0.9999997193332691,-20.130795205885512
8.504,0.9999998763878696,-20.34466789556073
8.512,1.0,-20.55851193912553
8.52,0.9999999999999999,-20.772327000238953
8.528,1.0,-20.986112743170953
8.536,0.9999999999999999,-21.199868832808548
8.544,1.0,-21.4135949346625
8.552,1.0,-21.627290714873364
8.56,0.9999999999999999,-21.840955840218164
8.568,1.0,-22.05458997811634
8.576,0.9999999999999999,-22.268192796636452
8.584,1.0,-22.481763964502008
8.592,1.0,-22.6953031510981
8.6,1.0,-22.908810026477223
8.608,1.0,-23.122284261365856
8.616,0.9999999999999999,-23.335725527170176
8.624,1.0,-23.549133495982634
8.632,1.0,-23.762507840587602
8.64,1.0,-23.97584823446784
8.648,1.0,-24.18915435181017
8.656,1.0,-24.402425867511845
8.664,1.0,-24.615662457186126
8.672,1.0,-24.828863797168637
8.68,1.0,-25.042029564522903
8.688,1.0,-25.255159437046608
8.696,1.0,-25.468253093277063
8.704,1.0,-25.681310212497415
8.712,1.0,-25.89433047474208
8.72,1.0,-26.107313560802883
8.728,0.9999999999999999,-26.320259152234414
8.736,0.9999999999999999,-26.533166931360086
8.744,0.9999999999999999,-26.746036581277448
8.752,0.9999999999999999,-26.95886778586423
8.76,0.9999999999999999,-27.17166022978353
8.768,1.0,-27.384413598489797
8.776,1.0,-27.597127578233994
8.784,0.9999999999999999,-27.80980185606945
8.792,1.0,-28.02243611985707
8.8,0.9999999999999999,-28.23503005827101
8.808,1.0,-28.44758336080384
8.815999999999999,1.0,-28.66009571777223
8.824,1.0,-28.872566820322103
8.832,1.0,-29.084996360433916
8.84,1.0,-29.297384030928015
8.847999999999999,1.0,-29.509729525469993
8.856,0.9999999999999999,-29.72203253857578
8.864,1.0,-29.93429276561678
8.872,1.0000000000000002,-30.146509902825077
8.879999999999999,1.0,-30.35868364729867
8.888,1.0,-30.570813697006443
8.896,0.9999999999999999,-30.78289975079308
8.904,1.0,-30.99494150838427
8.911999999999999,1.0,-31.206938670391697
8.92,1.0,-31.41889093831794
8.928,1.0000000000000002,-31.630798014561183
8.936,1.0,-31.842659602420362
8.943999999999999,0.9999999999999999,-32.05447540609992
8.952,1.0,-32.266245130714616
8.96,1.0,-32.4779684822942
8.968,1.0,-32.68964516778815
8.975999999999999,0.9999999999999999,-32.901274895070586
8.984,1.0,-33.11285737294474
8.992,1.0,-33.32439231114754
9.0,1.0,-33.53587942035427
9.008,1.0,-33.74731841218325
9.016,1.0,-33.95870899920016
9.024000000000001,1.0,-34.1700508949226
9.032,0.9999999999999999,-34.381343813824444
9.04,1.0,-34.592587471340494
9.048,0.9999999999999998,-34.80378158387062
9.056000000000001,1.0,-35.01492586878414
9.064,1.0,-35.22602004442413
9.072,1.0,-35.43706383011177
9.08,1.0000000000000002,-35.64805694615051
9.088000000000001,1.0,-35.85899911383017
9.096,0.9999999999999999,-36.06989005543118
9.104,1.0,-36.280729494228744
9.112,1.0,-36.49151715449689
9.120000000000001,1.0,-36.7022527615124
9.128,1.0,-36.912936041558815
9.136,1.0,-37.12356672193066
9.144,1.0,-37.33414453093715
9.152000000000001,1.0,-37.54466919790603
9.16,1.0,-37.75514045318755
9.168,1.0,-37.96555802815828
9.176,1.0,-38.175921655224904
9.184000000000001,1.0,-38.38623106782784
9.192,0.9999999999999999,-38.59648600044499
9.2,1.0,-38.80668618859552
9.208,1.0,-39.01683136884342
9.216000000000001,0.9999999999999998,-39.22692127880098
9.224,0.9999999999999999,-39.436955657132444
9.232,1.0,-39.6469342435576
9.24,1.0,-39.85685677885518
9.248000000000001,1.0,-40.0667230048662
9.256,1.0,-40.27653266449746
9.264,1.0,-40.48628550172497
9.272,0.9999999999999999,-40.69598126159724
9.280000000000001,0.9999999999999999,-40.905619690238396
9.288,0.9999999999999999,-41.11520053485159
9.296,1.0,-41.32472354372228
9.304,1.0,-41.53418846622128
9.312000000000001,0.9999999999999999,-41.74359505280786
9.32,0.9999999999999999,-41.95294305503287
9.328,1.0,-42.16223222554195
9.336,1.0,-42.37146231807842
9.344,0.9999999999999999,-42.58063308748612
9.352,1.0,-42.7897442897127
9.36,1.0,-42.998795681812126
9.368,1.0,-43.20778702194801
9.376,1.0,-43.41671806939589
9.384,0.9999999999999999,-43.62558858454658
9.392,0.9999999999999999,-43.834398328908435
9.4,1.0,-44.043147065110475
9.408,1.0,-44.251834556904726
9.416,1.0,-44.46046056916916
9.424,0.9999999999999999,-44.66902486790993
9.432,1.0,-44.87752722026438
9.44,1.0,-45.08596739450318
9.448,0.9999999999999999,-45.29434516003307
9.456,0.9999999999999999,-45.50266028739911
9.464,0.9999999999999999,-45.71091254828733
9.472,1.0,-45.91910171552679
9.48,0.9999999999999999,-46.127227563092305
9.488,1.0,-46.33528986610633
9.496,0.9999999999999999,-46.54328840084157
9.504,1.0,-46.751222944722926
9.512,1.0,-46.95909327632999
9.52,1.0,-47.166899175398804
9.528,1.0,-47.37464042282437
9.536,0.9999999999999999,-47.58231680066237
9.544,1.0,-47.78992809213152
9.552,1.0,-47.99747408161523
9.56,1.0,-48.20495455466396
9.568,1.0,-48.412369297996726
9.576,0.9999999999999999,-48.61971809950337
9.584,1.0,-48.82700074824604
9.592,1.0,-49.03421703446144
9.6,1.0,-49.241366749562104
9.608,0.9999999999999999,-49.44844968613856
9.616,1.0,-49.65546563796073
9.624,0.9999999999999999,-49.862414399979905
9.632,1.0,-50.06929576832998
9.64,1.0,-50.27610954032944
9.648,1.0,-50.4828555144826
9.656,1.0,-50.68953349048135
9.664,1.0000000000000002,-50.896143269206455
9.672,0.9999999999999999,-51.10268465272921
9.68,0.9999999999999999,-51.30915744431258
9.688,1.0,-51.515561448412846
9.696,0.9999999999999999,-51.72189647068072
9.704,0.9999999999999999,-51.92816231796286
9.712,1.0,-52.134358798302856
9.72,1.0,-52.340485720942795
9.728,1.0,-52.54654289632414
9.736,0.9999999999999999,-52.75253013608917
9.744,1.0,-52.95844725308179
9.752,1.0,-53.16429406134899
9.76,0.9999999999999999,-53.37007037614146
9.768,1.0,-53.57577601391511
9.776,1.0,-53.78141079233156
9.784,1.0,-53.9869745302595
9.792,0.9999999999999999,-54.192467047775224
9.8,0.9999999999999999,-54.3978881661639
9.808,1.0000000000000002,-54.603237707920016
9.816,1.0,-54.80851549674856
9.824,1.0,-55.01372135756547
9.832,1.0,-55.21885511649864
9.84,1.0,-55.423916600888376
9.847999999999999,1.0,-55.62890563928832
9.856,1.0,-55.83382206146594
9.864,1.0000000000000002,-56.0386656984031
9.872,0.9999999999999999,-56.24343638229664
