freq,mag,phase
6.0,1.0000275474507327,14.193331320400066
6.035242496,1.0000288083254947,13.212946325106891
6.07048448,1.0000294349227978,12.232411000887726
6.105726976,1.000029353380963,11.251741658612271
6.14096896,1.0000286393609825,10.270977249873518
6.176211456,1.0000272938686958,9.290156042925249
6.211453952,1.0000252915740515,8.309215839087907
6.246695936,1.0000226455518053,7.328170342031808
6.281938432,1.0000193372411952,6.347069831903203
6.317180416,1.0000157166873112,5.365840449341271
6.352422912,1.0000115274003816,4.384580841605363
6.387665408,1.0000070994747443,3.403229632251337
6.422907392,1.0000023417872204,2.4218211154535743
6.458149888,0.9999974244075668,1.4403230950238457
6.493391872,0.999992296894431,0.4587500333932402
6.528634368,0.9999872832281133,-0.5228909821182163
6.563876864,0.9999824703264375,-1.5045422485996942
6.599118848,0.999977867518833,-2.486326805775488
6.634361344,0.9999734355328903,-3.4681508341493887
6.669603328,0.999969570168149,-4.450123026162645
6.704845824,0.9999662657000353,-5.4321183349493385
6.74008832,0.9999633538548612,-6.41420186152438
6.775330304,0.9999611621026545,-7.396369714383914
6.8105728,0.9999596938744776,-8.378619873200865
6.845814784,0.9999589912731593,-9.360994425386632
6.88105728,0.9999588455243835,-10.343505727609992
6.916299776,0.9999596263580793,-11.326109388644067
6.95154176,0.9999611709771677,-12.308800753014324
6.986784256,0.9999633878680683,-13.29164501457835
7.02202624,0.9999662753484696,-14.274646693272308
7.057268736,0.9999699427374553,-15.257759981634656
7.092511232,0.9999741100570916,-16.24103665182672
7.127753216,0.9999786986745511,-17.22443296722395
7.162995712,0.9999837560500258,-18.208039425916937
7.198237696,0.9999890993505627,-19.191749211333203
7.233480192,0.999994639526708,-20.175663209216257
7.268722688,1.0000003475059374,-21.159697463446722
7.303964672,1.0000060020220871,-22.143931072205977
7.339207168,1.0000115734852504,-23.128295035647458
7.374449152,1.0000167413612913,-24.112847624049227
7.409691648,1.0000217041209536,-25.09755328234098
7.444934144,1.0000261067747862,-26.08244320523861
7.480176128,1.0000300318715283,-27.067424934052337
7.515418624,1.000033316140697,-28.05259728368518
7.550660608,1.0000358102810127,-29.037931629065678
7.585903104,1.000037522239332,-30.02338725847666
7.6211456,1.0000386197103206,-31.008985399776314
7.656387584,1.0000387713930328,-31.99466192837286
7.69163008,1.0000379812111824,-32.98048651067428
7.726872064,1.0000363413227962,-33.966463692518516
7.76211456,1.000033997775323,-34.95252591770934
7.797357056,1.000030845447876,-35.93868060273917
7.83259904,1.000026901790013,-36.92492291005387
7.867841536,1.0000222254638453,-37.91126384244313
7.90308352,1.0000171508613205,-38.89768507438272
7.938326016,1.0000115045665054,-39.884177404975574
7.973568512,1.000005565878059,-40.87076397135317
8.008810496,0.9999992181151035,-41.8574200859795
8.044052992,0.9999928663776407,-42.84411116781405
8.079294976,0.9999865686928596,-43.830936355083395
8.114537472,0.9999803413482561,-44.81779186434615
8.149779968,0.9999742420315307,-45.8047504121778
8.185021952,0.9999686834105759,-46.79176322442301
8.220264448,0.999963668367765,-47.77886804668495
8.255506432,0.9999590806720291,-48.76603538141085
8.290748928,0.9999553954526662,-49.75332037438865
8.325991424,0.9999523486421934,-50.74068116514663
8.361233408,0.9999503033431516,-51.728159715378006
8.396475904,0.9999491295543582,-52.71572970093895
8.431717888,0.9999487609611971,-53.70344962060303
8.466960384,0.9999494392982266,-54.69125776479425
8.50220288,0.9999511590727658,-55.67919609038591
8.537444864,0.9999536968174477,-56.66730410288307
8.57268736,0.9999571764155837,-57.65555572896078
8.607929344,0.9999615677491459,-58.64396764220178
8.643171328,0.9999666677147635,-59.63253369074445
8.678414336,0.9999724308331496,-60.62125123022921
8.71365632,0.999978843255439,-61.61016278844672
8.748898304,0.9999855865400055,-62.5992668506941
8.784141312,0.9999925048181428,-63.588526996615514
8.819383296,0.9999998369984366,-64.578003607479
8.85462528,1.0000071103371169,-65.56762964914631
8.889868288,1.0000143321134118,-66.55746090633977
8.925110272,1.0000211798129626,-67.54748898094098
8.960352256,1.0000276384148463,-68.53767609813163
8.99559424,1.0000336404393562,-69.52807982504534
9.030837248,1.0000388452217344,-70.51863557662179
9.066079232,1.0000433276176555,-71.50935311742936
9.101321216,1.0000470329884792,-72.50026293628673
9.136564224,1.0000496309583704,-73.49130694150044
9.171806208,1.0000513039630594,-74.48250696571192
9.207048192,1.0000519523784976,-75.47383721284281
9.2422912,1.0000513601054386,-76.46528600995289
9.277533184,1.000049768001028,-77.45690260665458
9.312775168,1.0000470312228356,-78.44861301691759
9.348017152,1.000043487513404,-79.44042004418883
9.38326016,1.000038766849072,-80.43230999350129
9.418502144,1.0000331970316259,-81.42433148433243
9.453744128,1.0000267964501082,-82.41639222101365
9.488987136,1.0000199241934944,-83.40857707387447
9.52422912,1.0000124100217105,-84.4007955058459
9.559471104,1.0000044339068557,-85.39307713128854
9.594714112,0.9999963083623521,-86.38544319053797
9.629956096,0.9999880793614767,-87.37786727458803
9.66519808,0.999979940457805,-88.37038047464584
9.700440064,0.9999720490002731,-89.36292884867468
9.735683072,0.9999647167594514,-90.35556406008969
9.770925056,0.9999578323577842,-91.34824375253403
9.80616704,0.9999516270073031,-92.34101762592022
9.841410048,0.9999462385735054,-93.33387160677972
9.876652032,0.9999420230624037,-94.32681045958009
9.911894016,0.9999386738069798,-95.31984951391195
9.947137024,0.9999365625618725,-96.31298908034869
9.982379008,0.9999355873009264,-97.30624408867318
10.017620992,0.99993591507539,-98.29962134631452
10.052862976,0.999937526306633,-99.29315346536683
10.088105984,0.9999402081700991,-100.28680863361049
10.123347968,0.9999442113198459,-101.2806210125697
10.158589952,0.9999492650715409,-102.27461170913185
10.19383296,0.9999553365141434,-103.26875719667281
10.229074944,0.9999623201082156,-104.26310002519351
10.264316928,0.9999702432155656,-105.2576154563988
10.299559936,0.9999786984366248,-106.25231471549999
10.33480192,0.9999877177711463,-107.24724847739957
10.370043904,0.9999969903738809,-108.24236944137687
10.405285888,1.0000064782559461,-109.23769071360032
10.440528896,1.0000157423132627,-110.2332147756175
10.47577088,1.0000248518901718,-111.22895880083196
10.511012864,1.0000335792405415,-112.22489942855775
10.546255872,1.0000416869468747,-113.22103812669897
10.581497856,1.0000490231178492,-114.2173752132855
10.61673984,1.0000553820979206,-115.21388471915171
10.651982848,1.0000607345346084,-116.21060020579948
10.687224832,1.0000649127707555,-117.20745662012386
10.722466816,1.0000678200530102,-118.2045028435711
10.7577088,1.0000692978506105,-119.201687734536
10.792951808,1.0000694731093105,-120.1989980017056
10.828193792,1.0000681444290898,-121.19644582391604
10.863435776,1.0000654853188782,-122.19402821770016
10.898678784,1.0000613991817884,-123.19167698058962
10.933920768,1.0000560116616,-124.18944959107492
10.969162752,1.0000494276015777,-125.18730286114678
11.00440576,1.000041729391444,-126.18522648726848
11.039647744,1.0000330958410166,-127.18321420386934
11.074889728,1.0000235672555913,-128.18125665690079
11.110131712,1.000013535854104,-129.17934972596655
11.14537472,1.0000029762268023,-130.17750342480153
11.180616704,0.999992253385629,-131.1756863684192
11.215858688,0.9999815235666007,-132.1739068992589
11.251101696,0.9999709015022887,-133.17217544656137
11.28634368,0.999960804816678,-134.17049045614087
11.321585664,0.999951261735838,-135.16884177006588
11.356828672,0.9999425856882489,-136.16724549456478
11.392070656,0.9999348626974416,-137.1657363827827
11.42731264,0.9999282806319312,-138.16424219193615
11.462554624,0.999923108263677,-139.1628611401847
11.497797632,0.9999193397458215,-140.16155144439347
11.533039616,0.9999171321561472,-141.16034274476985
11.5682816,0.9999164006497758,-142.1592559599802
11.603524608,0.9999173298858877,-143.15825872273817
11.638766592,0.9999198813736689,-144.15743663553826
11.674008576,0.9999241237967769,-145.1567545782199
11.709251584,0.9999298429435968,-146.1562212290765
11.744493568,0.999936964125457,-147.1558586873038
11.779735552,0.999945451217948,-148.15569339805407
11.814977536,0.9999551372634718,-149.15570617136436
11.850220544,0.999965754833119,-150.15594640247298
11.885462528,0.9999771314108081,-151.15638125815502
11.920704512,0.9999892452168975,-152.1570437496951
11.95594752,1.000001546761289,-153.1579307191528
11.991189504,1.0000140140124902,-154.15902304586368
12.026431488,1.0000263499631348,-155.1603545457879
12.061674496,1.0000383979088414,-156.16190215686535
12.09691648,1.0000497064236917,-157.1636677050316
12.132158464,1.0000601314908162,-158.16565353384757
12.167400448,1.0000694957226737,-159.16783520464136
12.202643456,1.0000776313891464,-160.1702286875985
12.23788544,1.0000842919437312,-161.17279880262902
12.273127424,1.000089352739626,-162.17554367107718
12.308370432,1.000092637150347,-163.17844184180524
12.343612416,1.0000941986269405,-164.18148947966935
12.3788544,1.0000937965970391,-165.18467127267263
12.414097408,1.0000914908773588,-166.18797657491953
12.449339392,1.0000873629790157,-167.19136165087505
12.484581376,1.0000813299838935,-168.19485336574908
12.51982336,1.0000737106783262,-169.19839394585455
12.555066368,1.0000643609945088,-170.20200241242063
12.590308352,1.0000536191349094,-171.2056491310477
12.625550336,1.0000416088483117,-172.2093372690516
12.660793344,1.0000285736386403,-173.21302519754474
12.696035328,1.0000148422175164,-174.216742304705
12.731277312,1.0000005335945275,-175.2204552731117
12.76652032,0.9999859265895787,-176.22418472327985
12.801762304,0.9999713781340296,-177.22791610240824
12.837004288,0.9999571249482198,-178.23164760952713
12.872246272,0.9999435482919795,-179.2353660724975
12.90748928,0.9999308038575955,179.76089401662853
12.942731264,0.9999192669729254,178.7571717008316
12.977973248,0.9999090774868302,177.75338456912252
13.013216256,0.999900559803571,176.74957451356028
13.04845824,0.9998937950432928,175.74572351508274
13.083700224,0.9998890451402511,174.7418071689179
13.118943232,0.9998863602219028,173.73781790480925
13.154185216,0.9998860357328537,172.73370934485445
13.1894272,0.9998876599734159,171.7295115123359
13.224669184,0.9998917274784419,170.72518674924828
13.259912192,0.9998979256813498,169.72071022952704
13.295154176,0.9999060932451908,168.71604742472775
13.33039616,0.9999163420791806,167.7112226483175
13.365639168,0.9999284528957171,166.70620725049662
13.400881152,0.9999420160874929,165.70098775725833
13.436123136,0.999956987213196,164.69553415127797
13.471366144,0.9999730060145413,163.6898424412688
13.506608128,0.9999897437186278,162.68390777185016
13.541850112,1.0000070355842416,161.6777451625343
13.577092096,1.0000243624318443,160.67132542256772
13.612335104,1.0000415654938724,159.66466013335716
13.647577088,1.0000581403803714,158.65772857561507
13.682819072,1.0000738121848285,157.65057345941725
13.71806208,1.000088262081095,156.64317872099076
13.753304064,1.000101265418305,155.63556269385555
13.788546048,1.0001123544409636,154.62773311594094
13.823789056,1.0001214210816574,153.61970275781167
13.85903104,1.0001281722172346,152.61149854895828
13.894273024,1.0001325439234459,151.60314324011043
13.929515008,1.000134276454664,150.59464482194352
13.964758016,1.0001332813215271,149.5860092959781
14.0,1.0001296927171672,148.57728941848794
