freq,mag,phase
6.0,0.9999973852017449,148.4512957639132
6.008,0.9999984711658202,148.05515792765695
6.016,0.9999995145220564,147.65813567782914
6.024,1.0,147.26021965902862
6.032,1.0,146.8614004622551
6.04,0.9999999999999999,146.46166862483074
6.048,0.9999999999999999,146.06101463033087
6.056,1.0,145.65942890852398
6.064,1.0,145.25690183532126
6.072,1.0,144.8534237327367
6.08,1.0,144.44898486885685
6.088,1.0,144.04357545782236
6.096,0.9999999999999999,143.6371856598197
6.104,1.0,143.2298055810855
6.112,1.0,142.8214252739222
6.12,0.9999999999999999,142.4120347367266
6.128,0.9999999999999999,142.00162391403114
6.136,1.0,141.59018269655846
6.144,0.9999999999999999,141.17770092128998
6.152,0.9999999999999999,140.7641683715486
6.16,1.0,140.34957477709602
6.168,1.0,139.93390981424565
6.176,0.9999999999999999,139.51716310599093
6.184,1.0,139.09932422215013
6.192,1.0,138.68038267952755
6.2,0.9999999999999999,138.26032794209252
6.208,1.0,137.83914942117576
6.216,1.0,137.4168364756846
6.224,1.0,136.9933784123367
6.232,1.0,136.56876448591373
6.24,1.0,136.14298389953478
6.248,0.9999999999999999,135.716025804951
6.256,1.0,135.2878793028612
6.264,1.0,134.8585334432496
6.272,1.0,134.42797722574642
6.28,1.0,133.99619960001118
6.288,1.0,133.5631894661408
6.296,1.0,133.12893567510167
6.304,1.0,132.69342702918726
6.312,1.0,132.2566522825022
6.32,1.0,131.8186001414724
6.328,0.9999999999999999,131.37925926538344
6.336,1.0,130.93861826694655
6.344,1.0,130.49666571289433
6.352,0.9999999999999999,130.05339012460576
6.36,1.0,129.608779978762
6.368,1.0,129.1628237080336
6.376,1.0,128.71550970180022
6.384,1.0,128.26682630690283
6.392,1.0,127.81676182843049
6.4,1.0,127.36530453054142
6.408,0.9999999999999999,126.91244263731998
6.416,0.9999999999999999,126.4581643336704
6.424,0.9999999999999999,126.00245776624729
6.432,1.0,125.54531104442542
6.44,1.0,125.0867122413081
6.448,1.0,124.6266493947763
6.456,1.0,124.16511050857844
6.464,1.0,123.70208355346296
6.472,1.0,123.23755646835374
6.48,1.0,122.77151716156968
6.4879999999999995,1.0,122.30395351208944
6.496,1.0,121.83485337086235
6.504,1.0,121.36420456216715
6.5120000000000005,1.0,120.8919948850175
6.52,1.0,120.41821211461871
6.5280000000000005,1.0,119.94284400387325
6.536,0.9999999999999999,119.46587828493888
6.5440000000000005,1.0,118.98730267083813
6.552,0.9999997408136162,118.50710485712295
6.5600000000000005,0.9999990812577204,118.02527252359236
6.568,0.9999984124568512,117.54179333606777
6.5760000000000005,0.9999977348235778,117.05665494822321
6.584,0.9999970487686703,116.56984500347586
6.592,0.9999963547010977,116.0813511369338
6.6,0.999995653028024,115.5911609774055
6.608,0.999994944154806,115.09926214947012
6.616,0.9999942284849896,114.60564227561065
6.624,0.9999935064203026,114.11028897841072
6.632,0.999992778360649,113.61318988281646
6.64,0.9999920447041063,113.11433261846436
6.648,0.9999913058469081,112.61370482207631
6.656,0.9999905621834422,112.11129413992298
6.664,0.9999898141062373,111.60708823035694
6.672,0.9999890620059505,111.10107476641598
6.68,0.9999883062713556,110.59324143849871
6.688,0.9999875472893277,110.08357595711257
6.696,0.999986785444829,109.57206605569627
6.704,0.9999860211208903,109.05869949351697
6.712,0.9999852546985947,108.54346405864399
6.72,0.9999844865570567,108.02634757099969
6.728,0.9999837170734026,107.50733788548861
6.736,0.9999829466227481,106.98642289520622
6.744,0.9999821755781747,106.46359053472806
6.752,0.999981404310703,105.93882878348016
6.76,0.9999806331892693,105.41212566919225
6.768,0.9999798625806955,104.8834692714341
6.776,0.9999790928496595,104.35284772523633
6.784,0.9999783243586651,103.82024922479648
6.792,0.9999775574680093,103.2856620272713
6.8,0.9999767925357469,102.7490744566558
6.808,0.9999760299176558,102.21047490775047
6.816,0.9999752699671991,101.66985185021665
6.824,0.9999745130354852,101.12719383272156
6.832,0.9999737594712279,100.58248948717313
6.84,0.9999730096207032,100.03572753304546
6.848,0.9999722638277048,99.48689678179555
6.856,0.9999715224334981,98.93598614137173
6.864,0.9999707857767721,98.38298462081433
6.872,0.9999700541935895,97.82788133494903
6.88,0.9999693280173357,97.2706655091731
6.888,0.9999686075786646,96.71132648433513
6.896,0.9999678932054437,96.14985372170804
6.904,0.9999671852226968,95.58623680805592
6.912,0.9999664839525443,95.02046546079457
6.92,0.9999657897141443,94.45252953324575
6.928,0.9999651028236269,93.88241901998512
6.936,0.9999644235940321,93.31012406228353
6.944,0.9999637523352398,92.73563495364175
6.952,0.9999630893539058,92.1589421454177
6.96,0.9999624349533864,91.58003625254638
6.968,0.9999617894336699,90.99890805935146
6.976,0.9999611530912992,90.41554852544797
6.984,0.9999605262192981,89.82994879173548
6.992,0.9999599091070905,89.24210018648057
7.0,0.9999593020404236,88.651994231488
7.008,0.9999587053012816,88.05962264835894
7.016,0.9999581191678063,87.46497736483539
7.024,0.9999575439142087,86.86805052122924
7.032,0.9999569798106827,86.26883447693434
7.04,0.9999564271233146,85.66732181702024
7.048,0.9999558861139942,85.06350535890522
7.056,0.9999553570403199,84.45737815910734
7.064,0.9999548401555052,83.84893352007084
7.072,0.9999543357082823,83.2381649970658
7.08,0.9999538439428067,82.62506640515876
7.088,0.9999533650985529,82.00963182625148
7.096,0.9999528994102197,81.39185561618535
7.104,0.9999524471076227,80.77173241190812
7.112,0.9999520084155938,80.14925713870022
7.12,0.9999515835538759,79.5244250174573
7.128,0.9999511727370165,78.89723157202533
7.136,0.9999507761742594,78.26767263658478
7.144,0.9999503940694381,77.63574436308001
7.152,0.9999500266208651,77.00144322868988
7.16,0.9999496740212219,76.36476604333518
7.168,0.9999493364574488,75.72570995721877
7.176,0.9999490141106298,75.08427246839338
7.184,0.999948707155885,74.44045143035278
7.192,0.9999484157622535,73.79424505964089
7.2,0.9999481400925826,73.14565194347374
7.208,0.9999478803034113,72.49467104736891
7.216,0.9999476365448599,71.84130172277685
7.224,0.9999474089605138,71.18554371470817
7.232,0.9999471976873103,70.5273971693508
7.24,0.999947002855426,69.86686264167092
7.248,0.9999468245881622,69.20394110299144
7.256,0.9999466630018329,68.53863394854066
7.264,0.9999465182056552,67.87094300496527
7.272,0.9999463903016357,67.20087053779959
7.28,0.9999462793844606,66.52841925888497
7.288,0.9999461855413894,65.85359233373073
7.296,0.9999461088521452,65.17639338881018
7.304,0.9999460493888122,64.49682651878287
7.312,0.9999460072157267,63.814896293636004
7.32,0.9999459823893817,63.1306077657363
7.328,0.9999459749583217,62.44396647678402
7.336,0.9999459849630469,61.754978464661065
7.344,0.9999460124359211,61.06365027016432
7.352,0.9999460574010748,60.36998894361499
7.36,0.9999461198743198,59.674002051336025
7.368,0.9999461998630629,58.97569768198751
7.376,0.9999462973662199,58.27508445275163
7.384,0.9999464123741415,57.57217151535767
7.392,0.9999465448685338,56.86696856193742
7.4,0.9999466948223918,56.15948583070209
7.4079999999999995,0.9999468621999283,55.44973411143064
7.416,0.9999470469565135,54.73772475075993
7.4239999999999995,0.9999472490386191,54.02346965726839
7.432,0.9999474683837603,53.30698130634015
7.4399999999999995,0.9999477049204553,52.58827274480517
7.448,0.9999479585681789,51.86735759533939
7.4559999999999995,0.999948229237326,51.144250060621495
7.464,0.9999485168291823,50.41896492723083
7.4719999999999995,0.9999488212359,49.69151756928199
7.48,0.9999491423404773,48.961923951781664
7.4879999999999995,0.9999494800167492,48.230200633703106
7.496,0.9999498341293785,47.496364770763776
7.504,0.9999502045338634,46.760434117901895
7.5120000000000005,0.9999505910765379,46.02242703143787
7.52,0.9999509935945953,45.282362470916325
7.5280000000000005,0.9999514119161068,44.54026000061523
7.536,0.9999518458600546,43.79613979071809
7.5440000000000005,0.9999522952363691,43.05002261813607
7.552,0.9999527598459759,42.30192986697685
7.5600000000000005,0.9999532394808514,41.551883528646925
7.568,0.9999537339240823,40.799906201585294
7.5760000000000005,0.9999542429499418,40.0460210906153
7.584,0.9999547663239644,39.2902520059136
7.5920000000000005,0.9999553038030357,38.53262336158357
7.6,0.9999558551354888,37.77316017383258
7.6080000000000005,0.9999564200612112,37.011888058741484
7.616,0.999956998311756,36.248833229626364
7.6240000000000006,0.9999575896104669,35.48402249398179
7.632,0.9999581936726086,34.71748325000642
7.640000000000001,0.9999588102055094,33.949243482701235
7.648,0.9999594389087083,33.17933175954188
7.656000000000001,0.9999600794741146,32.40777722571664
7.664,0.9999607315861755,31.634609598932563
7.672,0.9999613949220514,30.859859163782055
7.68,0.9999620691518002,30.083556765673325
7.688,0.9999627539385721,29.30573380431969
7.696,0.9999634489388106,28.526422226789226
7.704,0.9999641538024625,27.745654520114005
7.712,0.9999648681731971,26.963463703459873
7.72,0.9999655916886349,26.179883319857662
7.728,0.9999663239805786,25.394947427497907
7.736,0.99996706467526,24.60869059059149
7.744,0.9999678133935879,23.821147869799177
7.752,0.9999685697514065,23.032354812233937
7.76,0.9999693333597606,22.242347441040334
7.768,0.9999701038251673,21.451162244556034
7.776,0.999970880749895,20.658836165061143
7.784,0.9999716637322482,19.865406587121583
7.792,0.9999724523668578,19.070911325533594
7.8,0.9999732462449795,18.275388612876863
7.808,0.9999740449547941,17.47887708668472
7.816,0.9999748480817163,16.68141577623995
7.824,0.9999756552087055,15.883044089006034
7.832,0.9999764659165826,15.083801796703835
7.84,0.9999772797843511,14.283729021044275
7.848,0.9999780963895194,13.482866219128677
7.856,0.9999789153084285,12.681254168528277
7.864,0.9999797361165819,11.878933952055569
7.872,0.9999805583889764,11.075946942240467
7.88,0.9999813817004368,10.272334785524624
7.888,0.9999822056259517,9.46813938618817
7.896,0.9999830297410075,8.66340289002313
7.904,0.9999838536219261,7.858167667768608
7.912,0.9999846768462024,7.052476298323095
7.92,0.9999854989928391,6.2463715517496485
7.928,0.9999863196426816,5.43989637209016
7.936,0.9999871383787527,4.6330938600051885
7.944,0.9999879547865848,3.8260072552562687
7.952,0.9999887684545481,3.018679919047756
7.96,0.9999895789741787,2.2111553162456485
7.968,0.999990385940501,1.4034769974910093
7.976,0.9999911889523494,0.5956885812258054
7.984,0.9999919876126806,-0.2121662643508445
7.992,0.9999927815288887,-1.0200438393778923
8.0,0.9999935703131074,-1.827900430460844
8.008,0.9999943535825125,-2.6356923288151206
8.016,0.9999951309596172,-3.4433758484066344
8.024000000000001,0.9999959020725574,-4.250907344069487
8.032,0.9999966665553758,-5.05824322958502
8.04,0.9999974240482957,-5.86533999570271
8.048,0.9999981741979879,-6.6721542280842225
8.056000000000001,0.9999989166578283,-7.478642625153355
8.064,0.9999996510881519,-8.28476201583489
8.072,1.0,-9.090469377164078
8.08,1.0,-9.895721851748727
8.088000000000001,0.9999999999999999,-10.700476765067561
8.096,1.0,-11.504691642588933
8.104,1.0,-12.308324226692642
8.112,1.0,-13.111332493378244
8.120000000000001,1.0000000000000002,-13.913674668744843
8.128,0.9999999999999999,-14.71530924522793
8.136,1.0,-15.516194997577719
8.144,1.0,-16.31629099856393
8.152000000000001,0.9999999999999999,-17.11555663439404
8.16,1.0,-17.913951619832275
8.168,1.0,-18.711436013005812
8.176,0.9999999999999999,-19.50797022988553
8.184000000000001,1.0,-20.303515058429866
8.192,1.0,-21.098031672381964
8.2,1.0,-21.891481644708445
8.208,1.0,-22.68382696066945
8.216000000000001,0.9999999999999999,-23.47503003051136
8.224,0.9999999999999999,-24.265053701774264
8.232,1.0,-25.0538612712054
8.24,1.0,-25.84141649627062
8.248000000000001,0.9999999999999999,-26.627683606257637
8.256,0.9999999999999999,-27.412627312966066
8.264,1.0,-28.196212820977703
8.272,1.0,-28.978405837501885
8.280000000000001,0.9999999999999999,-29.75917258179233
8.288,1.0,-30.53847979413273
8.296,0.9999999999999999,-31.31629474438754
8.304,1.0,-32.09258524011505
8.312,1.0000000000000002,-32.867319634241575
8.32,0.9999999999999999,-33.64046683229796
8.328,0.9999999999999999,-34.411996299213136
8.336,1.0,-35.18187806567127
8.344,1.0,-35.950082734026445
8.352,0.9999999999999999,-36.71658148378312
8.36,1.0000000000000002,-37.48134607663766
8.368,1.0,-38.24434886108984
8.376,1.0,-39.00556277662086
8.384,1.0,-39.76496135744776
8.392,1.0,-40.52251873585206
8.4,1.0,-41.278209645092694
8.408,0.9999999999999999,-42.032009421903076
8.416,1.0,-42.78389400858238
8.424,0.9999999999999999,-43.53383995468196
8.432,1.0,-44.28182441829803
8.44,1.0,-45.027825166972
8.448,1.0,-45.77182057821041
8.456,0.9999999999999999,-46.51378963962659
8.464,1.0,-47.25371194871668
8.472,1.0,-47.99156771227237
8.48,1.0,-48.72733774544415
8.488,1.0,-49.461003470457385
8.496,1.0,-50.192546914995816
8.504,1.0,-50.92195071025512
8.512,1.0,-51.6491980886814
8.52,1.0,-52.374272881398035
8.528,1.0,-53.09715951533539
8.536,1.0,-53.81784301006762
8.544,1.0,-54.536308974371146
8.552,1.0,-55.25254360250917
8.56,0.9999999999999998,-55.96653367025706
8.568,0.9999999999999999,-56.678266530673014
8.576,1.0,-57.387730109628926
8.584,1.0,-58.09491290110602
8.592,1.0,-58.799803962270104
8.6,1.0,-59.502392908330954
8.608,1.0,-60.20266990720076
8.616,1.0,-60.900625673956085
8.624,1.0,-61.59625146511797
8.632,1.0,-62.289539072754835
8.64,1.0,-62.980480818422194
8.648,1.0,-63.669069546944215
8.656,1.0,-64.35529862005068
8.664,1.0,-65.03916190987376
8.672,0.9999999999999999,-65.72065379231887
8.68,1.0,-66.39976914031288
8.688,0.9999999999999999,-67.0765033169439
8.696,1.0,-67.75085216849601
8.704,1.0,-68.42281201739239
8.712,0.9999999999999999,-69.09237965505012
8.72,1.0,-69.75955233465965
8.728,1.0,-70.42432776389192
8.736,1.0000000000000002,-71.086704097546
8.744,0.9999999999999998,-71.7466799301394
8.752,0.9999999999999999,-72.40425428845371
8.76,1.0,-73.05942662403793
8.768,1.0,-73.71219680568066
8.776,1.0,-74.36256511185401
8.784,1.0,-75.01053222313976
8.792,0.9999999999999999,-75.65609921463994
8.8,1.0,-76.29926754838232
8.808,0.9999999999999999,-76.94003906572252
8.815999999999999,1.0,-77.5784159797524
8.824,1.0,-78.21440086771739
8.832,1.0,-78.84799666344897
8.84,1.0,-79.47920664981841
8.847999999999999,1.0,-80.10803445121594
8.856,1.0,-80.73448402605942
8.864,1.0,-81.35855965933776
8.872,1.0,-81.98026595519413
8.879999999999999,0.9999999999999999,-82.59960782955211
8.888,1.0,-83.21659050278879
8.896,1.0,-83.83121949245849
8.904,1.0,-84.44350060607184
8.911999999999999,1.0,-85.05343993393265
8.92,1.0,-85.6610438420356
8.928,1.0,-86.26631896502778
8.936,0.9999999999999999,-86.86927219923831
8.943999999999999,1.0,-87.46991069577736
8.952,1.0,-88.06824185370728
8.96,1.0,-88.66427331328816
8.968,1.0,-89.25801294930108
8.975999999999999,1.0,-89.84946886445016
8.984,1.0,-90.43864938284509
8.992,0.9999999999999999,-91.02556304356628
9.0,1.0,-91.61021859431492
9.008,0.9999999999999998,-92.19262498514857
9.016,1.0,-92.77279136230361
9.024000000000001,1.0,-93.35072706210597
9.032,1.0,-93.92644160497171
9.04,1.0,-94.49994468949815
9.048,0.9999999999999999,-95.07124618664564
9.056000000000001,0.9999999999999999,-95.64035613401154
9.064,1.0,-96.20728473019714
9.072,1.0,-96.77204232926796
9.08,1.0,-97.33463943530698
9.088000000000001,1.0,-97.895086697062
9.096,1.0,-98.45339490268752
9.104,1.0,-99.00957497458111
9.112,1.0,-99.56363796431357
9.120000000000001,0.9999999999999999,-100.11559504765341
9.128,0.9999999999999999,-100.66545751968637
9.136,1.0,-101.21323679002874
9.144,0.9999999999999999,-101.75894437813427
9.152000000000001,0.9999999865639302,-102.30259190869447
9.16,0.999999669597697,-102.84419110713276
9.168,0.9999993565348967,-103.38375379519128
9.176,0.9999990475128198,-103.92129188660938
9.184000000000001,0.9999987426659893,-104.45681738289399
9.192,0.9999984421261664,-104.99034236918139
9.2,0.9999981460223522,-105.52187901018964
9.208,0.9999978544807956,-106.05143954626007
9.216000000000001,0.9999975676249989,-106.57903628948796
9.224,0.9999972855757261,-107.10468161994184
9.232,0.9999970084510127,-107.62838798197033
9.24,0.9999967363661741,-108.1501678805949
9.248000000000001,0.9999964694338165,-108.67003387798856
9.256,0.9999962077638486,-109.18799859003948
9.264,0.9999959514634945,-109.70407468299888
9.272,0.9999957006373075,-110.21827487021083
9.280000000000001,0.9999954553871803,-110.73061190892436
9.288,0.9999952158123642,-111.2410985971866
9.296,0.9999949820094817,-111.74974777081596
9.304,0.9999947540725409,-112.25657230045343
9.312000000000001,0.9999945320929561,-112.7615850886917
9.32,0.9999943161595609,-113.26479906728144
9.328,0.9999941063586266,-113.76622719441312
9.336,0.9999939027738803,-114.26588245207252
9.344,0.9999937054865239,-114.76377784346988
9.352,0.9999935145752502,-115.25992639054216
9.36,0.9999933301162651,-115.75434113152463
9.368,0.9999931521833052,-116.24703511859444
9.376,0.9999929808476571,-116.738021415581
9.384,0.9999928161781783,-117.22731309574594
9.392,0.9999926582413174,-117.71492323962775
9.4,0.9999925071011332,-118.20086493295379
9.408,0.9999923628193178,-118.68515126461442
9.416,0.9999922254552154,-119.16779532470247
9.424,0.9999920950658433,-119.64881020261278
9.432,0.9999919717059143,-120.12820898520405
9.44,0.9999918554278573,-120.60600475501938
9.448,0.9999917462818374,-121.08221058856647
9.456,0.99999164431578,-121.55683955465402
9.464,0.99999154957539,-122.02990471278616
9.472,0.9999914621041746,-122.5014191116106
9.48,0.9999913819434634,-122.9713957874224
9.488,0.9999913091324317,-123.43984776271954
9.496,0.999991243708121,-123.90678804481219
9.504,0.9999911857054614,-124.37222962448092
9.512,0.9999911351572907,-124.83618547468733
9.52,0.9999910920943794,-125.29866854933117
9.528,0.9999910565454492,-125.75969178205737
9.536,0.9999910285371958,-126.21926808510833
9.544,0.9999910080943087,-126.67741034822372
9.552,0.9999909952394951,-127.13413143758336
9.56,0.9999909899934966,-127.58944419479579
9.568,0.9999909923751147,-128.0433614359281
9.576,0.9999910024012271,-128.49589595057944
9.584,0.999991020086813,-128.9470605009939
9.592,0.9999910454449694,-129.39686782121484
9.6,0.9999910784869334,-129.8453306162774
9.608,0.9999911192221022,-130.29246156144043
9.616,0.999991167658053,-130.73827330145437
9.624,0.9999912238005629,-131.18277844986724
9.632,0.9999912876536281,-131.6259895883648
9.64,0.9999913592194827,-132.06791926614702
9.648,0.9999914384986207,-132.50857999933694
9.656,0.9999915254898114,-132.9479842704245
9.664,0.9999916201901206,-133.38614452774098
9.672,0.9999917225949294,-133.82307318496632
9.68,0.9999918326979506,-134.25878262066647
9.688,0.9999919504912489,-134.69328517786153
9.696,0.9999920759652576,-135.12659316362215
9.704,0.9999922091087973,-135.55871884869563
9.712,0.9999923499090929,-135.98967446715878
9.72,0.9999924983517913,-136.4194722160991
9.728,0.9999926544209781,-136.84812425532098
9.736,0.9999928180991938,-137.27564270707921
9.744,0.9999929893674528,-137.70203965583602
9.752,0.9999931682052572,-138.12732714804415
9.76,0.9999933545906144,-138.55151719195206
9.768,0.9999935485000523,-138.97462175743402
9.776,0.9999937499086355,-139.3966527758411
9.784,0.9999939587899811,-139.8176221398757
9.792,0.9999941751162726,-140.23754170348602
9.8,0.9999943988582765,-140.65642328178248
9.808,0.9999946299853553,-141.07427865097333
9.816,0.999994868465484,-141.49111954832128
9.824,0.9999951142652629,-141.9069576721176
9.832,0.9999953673499319,-142.32180468167647
9.84,0.9999956276833851,-142.73567219734596
9.847999999999999,0.9999958952281831,-143.1485718005381
9.856,0.9999961699455678,-143.56051503377472
9.864,0.9999964517954739,-143.9715134007505
9.872,0.9999967407365434,-144.38157836641233
9.879999999999999,0.9999970367261372,-144.79072135705414
9.888,0.9999973397203473,-145.19895376042712
9.896,0.9999976496740105,-145.6062869258643
9.904,0.9999979665407186,-146.01273216442
9.911999999999999,0.9999982902728316,-146.41830074902336
9.92,0.9999986208214875,-146.82300391464491
9.928,0.9999989581366155,-147.22685285847655
9.936,0.9999993021669465,-147.62985874012426
