freq,mag,phase
6.0,0.9999904335760526,-68.24438416606395
6.008256,1.0000159629655159,-68.59937404346962
6.016512,1.0000426566135163,-68.9547392327591
6.024768,1.0000676026873763,-69.31050844636495
6.033023488,1.000089456023837,-69.6666019711954
6.041279488,1.000106865920972,-70.02301724750492
6.049535488,1.0001190990245068,-70.37965401764856
6.057791488,1.000125512598277,-70.73643217932285
6.066047488,1.000125548899523,-71.09327321283838
6.074303488,1.0001194889276621,-71.45012167596059
6.082559488,1.000107398081239,-71.80692179151636
6.090815488,1.000090142049658,-72.16350380711903
6.099070976,1.0000683926504952,-72.51987719784515
6.107326976,1.0000434370498474,-72.87598264900406
6.115582976,1.0000168194422137,-73.23176388408756
6.123838976,0.9999894027293297,-73.58721717706524
6.132094976,0.9999631602401763,-73.94232566010587
6.140350976,0.9999390971609178,-74.29716411491017
6.148606976,0.999918706216575,-74.65174924881234
6.156862976,0.9999032333970836,-75.00607049743522
6.165118464,0.9998932563973675,-75.36030147211982
6.173374464,0.9998891971618652,-75.71445910962595
6.181630464,0.9998915192500827,-76.06862268242492
6.189886464,0.9999000219617206,-76.4228909853903
6.198142464,0.9999142844902239,-76.77736744190177
6.206398464,0.9999335486881541,-77.13206787274545
6.214654464,0.9999566724181702,-77.4870785840735
6.222910464,0.999982602301682,-77.84245760355464
6.231165952,1.0000097867855136,-78.19822423630845
6.239421952,1.0000369638419917,-78.5543719842675
6.247677952,1.0000627237404214,-78.91088505339667
6.255933952,1.0000854674230533,-79.26774952547693
6.264189952,1.0001041526440866,-79.62498581618766
6.272445952,1.0001177827101833,-79.98238745223514
6.280701952,1.0001254187116944,-80.34002460957443
6.28895744,1.0001269841576597,-80.697698134388
6.29721344,1.00012226725067,-81.05540136062235
6.30546944,1.0001113862803723,-81.4130462343128
6.31372544,1.0000950308662595,-81.77049268962813
6.32198144,1.0000741066886423,-82.12775786939464
6.33023744,1.0000495618562961,-82.48471060422484
6.33849344,1.0000229466847343,-82.84138226848239
6.34674944,0.9999953553663035,-83.19776694064808
6.355004928,0.9999685045863572,-83.55375200821325
6.363260928,0.9999438003262486,-83.90942640502867
6.371516928,0.9999223567500514,-84.26485963667521
6.379772928,0.999905524545818,-84.6200297675819
6.388028928,0.9998939948744022,-84.97506305353437
6.396284928,0.9998886574393063,-85.32998343591072
6.404540928,0.9998894756273894,-85.68493453441377
6.412796928,0.9998967757366848,-86.03995932442017
6.421052416,0.9999097845031879,-86.39513948707601
6.429308416,0.999928129185133,-86.75055086784609
6.437564416,0.9999507026993049,-87.10625994486297
6.445820416,0.9999764403867274,-87.46231710869466
6.454076416,1.0000036090801783,-87.81873564888356
6.462332416,1.0000312443406807,-88.17555265472873
6.470588416,1.000057631241921,-88.5327855835024
6.478844416,1.0000812742466634,-88.89035380998705
6.487099904,1.0001010990724424,-89.24826175164146
6.495355904,1.0001159883167619,-89.6063778026076
6.503611904,1.000125240023258,-89.96473122021277
6.511867904,1.0001282028817802,-90.32315768499456
6.520123904,1.000124892480685,-90.68161974165888
6.528379904,1.0001151657667366,-91.04001667178682
6.536635904,1.0000998662915097,-91.39829492074593
6.544891392,1.0000797317429437,-91.75636280127252
6.553147392,1.0000557535558445,-92.11412504100915
6.561403392,1.0000291990089618,-92.47159294777778
6.569659392,1.0000015316873119,-92.82872388982744
6.577915392,0.9999740701864605,-93.18552947793097
6.586171392,0.9999485667323464,-93.54197549066866
6.594427392,0.9999260882732146,-93.89816596020432
6.602683392,0.9999079043317046,-94.25409519011268
6.61093888,0.9998950492075551,-94.6098457840554
6.61919488,0.9998882242475075,-94.96549272177364
6.62745088,0.9998877668291014,-95.32108718910268
6.63570688,0.9998935936104648,-95.67676991203538
6.64396288,0.9999054117750873,-96.03260006016863
6.65221888,0.999922843533834,-96.38861130418974
6.66047488,0.9999447264770773,-96.74491594342874
6.66873088,0.9999700451476304,-97.1015902529634
6.676986368,0.9999973397572124,-97.45860838257313
6.685242368,1.0000252031025318,-97.81602370685849
6.693498368,1.0000520618913613,-98.17381647214036
6.701754368,1.0000767579015757,-98.53197037323787
6.710010368,1.0000976844278304,-98.89046443483728
6.718266368,1.0001139766420792,-99.24926873496369
6.726522368,1.0001246154759131,-99.60820538387885
6.734778368,1.0001290921896004,-99.96729059629664
6.743033856,1.000127152036894,-100.32641032570379
6.751289856,1.0001188123130527,-100.68549433902916
6.759545856,1.0001046087237984,-101.04447404448075
6.767801856,1.0000852672710698,-101.40322262527309
6.776057856,1.000061915512287,-101.76170524637361
6.784313856,1.0000355589719052,-102.11989016802944
6.792569856,1.0000078336895672,-102.47772194920309
6.800825344,0.9999800079276367,-102.83522599827673
6.809081344,0.9999536055622773,-103.19238130052781
6.817337344,0.9999302207811882,-103.54922758393732
6.825593344,0.9999107295904244,-103.90581703890673
6.833849344,0.9998965103612292,-104.26219794584483
6.842105344,0.9998882157521548,-104.61842859745046
6.850361344,0.9998861943844032,-104.97465443914706
6.858617344,0.9998906236112897,-105.33089390631085
6.866872832,0.9999013788520227,-105.68725353331517
6.875128832,0.9999177086408312,-106.04378003618541
6.883384832,0.9999387795692154,-106.40061016856183
6.891640832,0.9999635702316704,-106.75777558473042
6.899896832,0.9999907878805099,-107.11529125689988
6.908152832,1.000018915301586,-107.47318897667478
6.916408832,1.0000464615649538,-107.83148281118049
6.924664832,1.0000719719917885,-108.19015072555449
6.93292032,1.000094130322502,-108.5491339832363
6.94117632,1.0001116426701429,-108.90839471786157
6.94943232,1.0001237520068584,-109.26789492956514
6.95768832,1.0001297125904505,-109.62755184966132
6.96594432,1.0001291164657045,-109.98724330369147
6.97420032,1.0001222593372683,-110.34690626503242
6.98245632,1.0001092059485432,-110.70644695047372
6.99071232,1.0000908351354918,-111.065794621727
6.998967808,1.0000679646531814,-111.42492003858085
7.007223808,1.0000419616702434,-111.78368969712014
7.015479808,1.0000141944756904,-112.1421399083698
7.023735808,0.9999859989739047,-112.5002450326085
7.031991808,0.9999588974347079,-112.85797817925493
7.040247808,0.9999344307286566,-113.21543576492049
7.048503808,0.9999137921411924,-113.57256698547747
7.056759296,0.9998982108601553,-113.92947844976926
7.065015296,0.999888303184038,-114.2862245215087
7.073271296,0.9998848647780714,-114.64291089993486
7.081527296,0.9998879412600102,-114.99963322070326
7.089783296,0.9998972879768993,-115.35644690846325
7.098039296,0.9999124676186886,-115.71342130019346
7.106295296,0.999932764901182,-116.07063690451494
7.114551296,0.9999571394944611,-116.42817980379539
7.122806784,0.99998411989922,-116.78610716042844
7.131062784,1.0000123614004413,-117.14437744117593
7.139318784,1.0000403796475716,-117.50304136735147
7.147574784,1.0000667460919384,-117.8621044629694
7.155830784,1.0000899806819514,-118.22149657115774
7.164086784,1.0001088418650108,-118.58117826359175
7.172342784,1.0001223905886276,-118.94109594256288
7.180598784,1.0001298132935312,-119.30117104348682
7.188854272,1.0001308512789027,-119.66130300181905
7.197110272,1.0001252412323003,-120.02145731438694
7.205366272,1.000113493269426,-120.38148818542969
7.213622272,1.0000960546815059,-120.7413363537235
7.221878272,1.0000740080595496,-121.10093886187151
7.230134272,1.0000483743541997,-121.46022823289445
7.238390272,1.0000205368332076,-121.81919779306216
7.246646272,0.9999921052806997,-122.17780220106602
7.25490176,0.9999643574375721,-122.5360293703579
7.26315776,0.9999389406206741,-122.89394896186215
7.27141376,0.9999170973185735,-123.25153422264758
7.27966976,0.9999002032598183,-123.60887402934165
7.28792576,0.9998887943197152,-123.96603556867836
7.29618176,0.9998838073115982,-124.32312855038194
7.30443776,0.9998852993959912,-124.68020253170963
7.312693248,0.9998933156308517,-125.03734586390043
7.320949248,0.9999074689767706,-125.39463245782706
7.329205248,0.9999268396257346,-125.75218533861255
7.337461248,0.9999505590730317,-126.11003594982286
7.345717248,0.9999773201559371,-126.46821069935093
7.353973248,1.0000056953514291,-126.82677343899826
7.362229248,1.0000342304231247,-127.18572389482675
7.370485248,1.000061274084216,-127.54503815036429
7.378740736,1.0000856131910694,-127.9047223031929
7.386996736,1.0001057851267992,-128.2646999277412
7.395252736,1.000120672985643,-128.62494055622287
7.403508736,1.000129742085877,-128.98534375942316
7.411764736,1.000132176711405,-129.3458474548439
7.420020736,1.0001281709433414,-129.70632356116593
7.428276736,1.0001176066200663,-130.0667273253744
7.436532736,1.000101315835744,-130.42695321577028
7.444788224,1.0000800006850636,-130.78695709357962
7.453044224,1.0000548460122267,-131.14665940743197
7.461300224,1.000027131332032,-131.50601317328957
7.469556224,0.9999983961845764,-131.8649824700325
7.477812224,0.9999701124790664,-132.2236377391654
7.486068224,0.9999438035856596,-132.58190224867263
7.494324224,0.9999207676522244,-132.9398657792131
7.502580224,0.9999024343798385,-133.29751726443462
7.510835712,0.9998896490281772,-133.65502151721145
7.519091712,0.9998829990510646,-134.0123750767356
7.527347712,0.9998830441805752,-134.36970885158513
7.535603712,0.9998896887436983,-134.72710199495987
7.543859712,0.9999025763767406,-135.084626562572
7.552115712,0.9999209600653284,-135.4423504773389
7.560371712,0.999944040506259,-135.8003524728492
7.5686272,0.9999704592959161,-136.15870348046482
7.5768832,0.9999989164245724,-136.51744497935115
7.5851392,1.0000277808304747,-136.87652681263472
7.5933952,1.0000556428252996,-137.23601188278028
7.6016512,1.000080937432272,-137.59589556672046
7.6099072,1.0001023372528604,-137.9560685010139
7.6181632,1.0001187710581336,-138.31647554921807
7.6264192,1.000129290075861,-138.6771207249461
7.634674688,1.0001333740085057,-139.03780925701616
7.642930688,1.0001307696065773,-139.39854905860966
7.651186688,1.0001216232114083,-139.75921568181315
7.659442688,1.0001064268289033,-140.11972605110435
7.667698688,1.0000860087017762,-140.48001855364683
7.675954688,1.0000613585146922,-140.8399952360763
7.684210688,1.0000338354342413,-141.19964151762107
7.692466688,1.0000048541482756,-141.55893063309696
7.700722176,0.9999760156692671,-141.91780798269772
7.708978176,0.9999488641725658,-142.27633610196492
7.717234176,0.9999247629154383,-142.63452320093077
7.725490176,0.9999050381421166,-142.9924635716529
7.733746176,0.9998906891293127,-143.35010616310655
7.742002176,0.999882561051465,-143.70766835947822
7.750258176,0.9998810223831235,-144.06516115493574
7.758514176,0.9998861961183119,-144.42265613422632
7.766769664,0.9998978124705099,-144.78028278699836
7.775025664,0.9999151866615932,-145.13810220087493
7.783281664,0.9999375102115746,-145.49618296900496
7.791537664,0.9999635412643453,-145.8545975008161
7.799793664,0.9999918891118535,-146.21336791564124
7.808049664,1.000021155391115,-146.57251366751152
7.816305664,1.0000496893456061,-146.93207919276642
7.824561152,1.0000759506679975,-147.2919767858165
7.832817152,1.0000986142611514,-147.6522192612934
7.841073152,1.0001164529845765,-148.01271609759723
7.849329152,1.0001285019249402,-148.3734415141009
7.857585152,1.0001341699077317,-148.73426883118805
7.865841152,1.000133135284967,-149.0951273252269
7.874097152,1.0001253662051315,-149.4559220386232
7.882353152,1.00011134898478,-149.81660448695274
7.89060864,1.0000918280105981,-150.17705602770545
7.89886464,1.000067852560498,-150.5372175936148
7.90712064,1.0000406138299525,-150.89703203409832
7.91537664,1.000011496979631,-151.25648826930623
7.92363264,0.9999821874485317,-151.61554772257188
7.93188864,0.9999542686135939,-151.97423641195857
7.94014464,0.9999290030662568,-152.33256998955798
7.94840064,0.999907975075919,-152.6905792531925
7.956656128,0.9998921978903993,-153.04838102322705
7.964912128,0.9998824963238299,-153.40596534010015
7.973168128,0.9998793206828085,-153.7634876405864
7.981424128,0.9998830478461717,-154.12100193789956
7.989680128,0.9998932796726931,-154.4786495998129
7.997936128,0.9999095924754822,-154.83643057228653
8.006192128,0.9999311202160034,-155.19446540523987
8.014448128,0.999956677089509,-155.55281554810605
8.022703616,0.9999849414129302,-155.91152319302608
8.030959616,1.0000143781469142,-156.27061173901257
8.039215616,1.0000435209756255,-156.63009903089093
8.047471616,1.0000706680710227,-156.98994170811474
8.055727616,1.0000946172589742,-157.35014284993
8.063983616,1.0001138898042483,-157.7106289117042
8.072239616,1.0001274712763328,-158.07131248204408
8.080495104,1.0001347072323363,-158.432142483473
8.088751104,1.000135250469748,-158.79301030783398
8.097007104,1.0001289391735362,-159.15385872245992
8.105263104,1.000116213316584,-159.51457314677904
8.113519104,1.0000976925290808,-159.8750614429638
8.121775104,1.0000744042591831,-160.23527975020562
8.130031104,1.000047393339806,-160.5951762242533
8.138287104,1.0000183244093859,-160.9546740783881
8.146542592,0.99998866581558,-161.3138171238348
8.154798592,0.9999598988044974,-161.67251736853945
8.163054592,0.999933623884189,-162.0308778644558
8.171310592,0.9999113084409068,-162.38889572208012
8.179566592,0.9998939707263995,-162.74665985033545
8.187822592,0.9998826086435851,-163.10423340645107
8.196078592,0.9998779168562163,-163.461693821572
8.204334592,0.9998800179330581,-163.81911453168152
8.21259008,0.9998889048527779,-164.17662649270588
8.22084608,0.9999041095571518,-164.53428864265237
8.22910208,0.9999247622589811,-164.89218582286276
8.23735808,0.9999497663949463,-165.250354243899
8.24561408,0.9999777485417473,-165.60889706327157
8.25387008,1.0000075028086062,-165.9678068011562
8.26212608,1.0000371890182242,-166.32709624666452
8.27038208,1.0000652483931316,-166.68677326387544
8.278637568,1.000090276672924,-167.0467948729678
8.286893568,1.0001110008353449,-167.40712828928815
8.295149568,1.0001261523998586,-167.767688764042
8.303405568,1.0001350709189964,-168.1283829553038
8.311661568,1.0001371597850248,-168.48917381641184
8.319917568,1.0001323741766242,-168.8499298517049
8.328173568,1.000120953918828,-169.21057992439157
8.336429056,1.0001034528434116,-169.57100066548028
8.344685056,1.0000809416981715,-169.93119510814068
8.352941056,1.000054387957166,-170.29101644418148
8.361197056,1.0000253736942706,-170.6504785825433
8.369453056,0.9999953089534291,-171.0095473871467
8.377709056,0.9999658679634816,-171.3681942344152
8.385965056,0.9999386077869487,-171.7264760164738
8.394221056,0.9999149610376349,-172.08440905248165
8.402476544,0.9998961326190503,-172.44205657253318
8.410732544,0.9998832733838596,-172.7994622092764
8.418988544,0.9998768937745036,-173.15675322870047
8.427244544,0.9998774547321886,-173.51398796578627
8.435500544,0.9998848841236895,-173.8712661476129
8.443756544,0.9998988102596973,-174.22867829851188
8.452012544,0.9999183831216423,-174.58630279329213
8.460268544,0.9999428587984249,-174.94421145742925
8.468524032,0.9999705985741686,-175.30245571819094
8.476780032,1.0000004280152948,-175.6610716305564
8.485036032,1.0000306253702484,-176.0200682300128
8.493292032,1.0000595609531877,-176.37948480609765
8.501548032,1.0000857639584992,-176.73921946202955
8.509804032,1.000107803729302,-177.09927728978815
8.518060032,1.0001245583998166,-177.4595753052056
8.526316032,1.0001349636111376,-177.82006683479585
8.53457152,1.0001388149502632,-178.18061980812226
8.54282752,1.0001355110772774,-178.5411874181004
8.55108352,1.0001254116445129,-178.9016317606617
8.55933952,1.0001090882703736,-179.2619132327663
8.56759552,1.000087338803842,-179.62191842181787
8.57585152,1.0000613251055492,-179.98160679455435
8.58410752,1.0000323641895348,179.6590932293228
8.59236352,1.0000021120944398,179.3001836529237
8.600619008,0.9999720347336323,178.94169429332092
8.60887552,0.9999438411987658,178.58361193625854
8.617131008,0.9999189142474995,178.2258756443901
8.625386496,0.9998986374282696,177.8684645717734
8.633643008,0.9998840833237828,177.51130891645576
8.641898496,0.9998761524770168,177.1542981179318
8.650155008,0.9998750269227653,176.7973741677306
8.658410496,0.9998810004502716,176.44039966796572
8.666667008,0.9998935894073535,176.08333837728475
8.674922496,0.9999122324584997,175.7260876704736
8.683179008,0.9999359227229534,175.36855255224438
8.691434496,0.9999634431609579,175.01072315562996
8.699689984,0.9999931939883925,174.65249484160344
8.707946496,1.000023807003344,174.29389426248605
8.716201984,1.0000536546360212,173.93488526752049
8.724458496,1.0000808213993868,173.57552226302604
8.732713984,1.0001042066359043,173.21585692572117
8.740970496,1.0001224458800784,172.85591128900705
8.749225984,1.000134608718906,172.4957728485734
8.757481472,1.0001400962325464,172.1355478550608
8.765737984,1.000138439364592,171.77529438550647
8.773993472,1.0001298109913592,171.41511273465187
8.782249984,1.0001146482750383,171.055121799499
8.790505472,1.000093886880943,170.69539528526
8.798761984,1.0000682995624293,170.33596981427627
8.807017472,1.0000395368351005,169.97692608305397
8.815273984,1.000009081862432,169.61829293577173
8.823529472,0.9999784193564982,169.26007815576645
8.83178496,0.9999492249049075,168.9022521933741
8.840041472,0.9999232156571355,168.5448310324406
8.84829696,0.9999014878274675,168.18775083383156
8.856553472,0.9998853740129181,167.83094238902822
8.86480896,0.9998756156719819,167.4742938246334
8.873065472,0.999872861355487,167.11777574767717
8.88132096,0.9998773729432815,166.76124819992634
8.889576448,0.999888589133423,166.40463581532669
8.89783296,0.9999061001694544,166.04783509033177
8.906088448,0.9999290760211006,165.6908188467519
8.91434496,0.9999561672651692,165.33344569475716
8.922600448,0.9999860004008295,164.9757486664877
8.93085696,1.0000168451042886,164.61764974996433
8.939112448,1.0000473897513267,164.25914114179653
8.947367936,1.0000756910979494,163.90028965720307
8.955624448,1.0001004073967763,163.54109691063363
8.963879936,1.0001201672040205,163.18160305179347
8.972136448,1.0001340156842196,162.8219271566506
8.980391936,1.0001410930780932,162.4621143407513
8.988648448,1.0001411039577701,162.10228207991798
8.996903936,1.000133988282351,161.74250791379876
9.005160448,1.0001201286240133,161.38288395142638
9.013415936,1.0001002215048764,161.02350630015533
9.021671424,1.0000753079541351,160.66446004183877
9.029927936,1.000046882684993,160.30577303538684
9.038183424,1.0000161855772098,159.9475030724144
9.046439936,0.9999850785418662,159.58964896360558
9.054695424,0.9999550405214852,159.23223139173174
9.062951936,0.9999277041578216,158.87521098301087
9.071207424,0.9999046834476953,158.5185371665493
9.079462912,0.999886882830322,158.16217441701136
9.087719424,0.9998755187881304,157.8060106730899
9.095974912,0.9998711351330044,157.44999063644525
9.104231424,0.9998738681414324,157.0939603889069
9.112486912,0.9998837930715143,156.73790437425143
9.120743424,0.9999002817244441,156.38167005885902
9.128998912,0.9999222514397598,156.02522158528467
9.1372544,0.9999489266832409,155.66845973106365
9.145510912,0.9999784856980317,155.31133814330084
9.1537664,1.0000097762758549,154.95385723880662
9.162022912,1.0000409400905717,154.59598139110767
9.1702784,1.0000703371860067,154.23768734524506
9.178534912,1.0000962995336,153.87907006566857
9.1867904,1.0001175405752143,153.52015019021283
9.195046912,1.0001330881470298,153.161038134215
9.2033024,1.0001418294341602,152.8017557151706
9.211557888,1.0001435398103338,152.4424308980548
9.2198144,1.000137894032386,152.08313011212715
9.228069888,1.0001253426351153,151.72400624119538
9.2363264,1.0001064999091651,151.36509564080174
9.244581888,1.0000824164780657,151.0064871441894
9.2528384,1.000054269927327,150.6482609192525
9.261093888,1.0000235395199815,150.29043726092337
9.269349376,0.9999918832702585,149.93306076760237
9.277605888,0.9999610547185435,149.5761131359256
9.285861376,0.9999326197475484,149.21958397697395
9.294117888,0.9999081091813127,148.8634160218714
9.302373376,0.9998887892935532,148.5075681781243
