freq,mag,phase
6.0,0.9999999999999999,177.62597547615627
6.008,1.0,177.25163023926922
6.016,1.0,176.87724454645632
6.024,0.9999999999999999,176.50281311611505
6.032,0.9999999999999999,176.12833066450796
6.04,1.0,175.753791905719
6.048,1.0,175.37919155161003
6.056,0.9999995909114304,175.0045243117765
6.064,0.9999991627330107,174.6297848935035
6.072,0.9999987419348894,174.25496800172172
6.08,0.999998328626285,173.8800683389629
6.088,0.9999979229120001,173.5050806053158
6.096,0.9999975248924797,173.12999949838223
6.104,0.9999971346638669,172.7548197132324
6.112,0.9999967523180666,172.37953594236168
6.12,0.9999963779427994,172.0041428756464
6.128,0.9999960116216565,171.6286352003004
6.136,0.9999956534341655,171.25300760083198
6.144,0.9999953034558337,170.87725475900083
6.152,0.9999949617582123,170.50137135377568
6.16,0.9999946284089462,170.1253520612919
6.168,0.9999943034718295,169.74919155481012
6.176,0.999993987006861,169.37288450467508
6.184,0.9999936790702901,168.9964255782749
6.192,0.9999933797146761,168.61980944000123
6.2,0.9999930889889332,168.24303075120997
6.208,0.9999928069383884,167.86608417018257
6.216,0.9999925336048244,167.4889643520883
6.224,0.9999922690265345,167.11166594894715
6.232,0.9999920132383675,166.73418360959357
6.24,0.999991766271781,166.3565119796412
6.248,0.9999915281548821,165.97864570144858
6.256,0.9999912989124854,165.6005794140858
6.264,0.999991078566148,165.22230775330203
6.272,0.9999908671342224,164.84382535149444
6.28,0.9999906646319023,164.46512683767827
6.288,0.9999904710712675,164.0862068374577
6.296,0.9999902864613237,163.7070599729982
6.304,0.9999901108080531,163.32768086300078
6.312,0.9999899441144533,162.94806412267621
6.32,0.9999897863805864,162.5682043637223
6.328,0.9999896376036119,162.18809619430115
6.336,0.9999894977778394,161.80773421901895
6.344,0.9999893668947611,161.42711303890704
6.352,0.9999892449431004,161.04622725140413
6.36,0.9999891319088482,160.66507145034123
6.368,0.9999890277753019,160.283640225927
6.376,0.9999889325231115,159.90192816473626
6.384,0.9999888461303115,159.5199298496991
6.392,0.9999887685723631,159.13763986009283
6.4,0.9999886998221944,158.7550527715354
6.408,0.9999886398502356,158.37216315598093
6.416,0.9999885886244552,157.98896558171748
6.424,0.9999885461104026,157.6054546133667
6.432,0.999988512271239,157.22162481188593
6.44,0.9999884870677771,156.83747073457238
6.448,0.9999884704585151,156.45298693506962
6.456,0.9999884623996741,156.06816796337665
6.464,0.9999884628452317,155.6830083658592
6.472,0.9999884717469556,155.29750268526368
6.48,0.9999884890544438,154.9116454607336
6.4879999999999995,0.9999885147151484,154.5254312278286
6.496,0.9999885486744199,154.13885451854617
6.504,0.9999885908755329,153.7519098613466
6.5120000000000005,0.9999886412597219,153.36459178117977
6.52,0.9999886997662149,152.97689479951597
6.5280000000000005,0.9999887663322619,152.58881343437855
6.536,0.9999888408931729,152.20034220038085
6.5440000000000005,0.9999889233823419,151.8114756087649
6.552,0.9999890137312837,151.42220816744452
6.5600000000000005,0.9999891118696637,151.0325343810505
6.568,0.9999892177253265,150.6424487509804
6.5760000000000005,0.9999893312243279,150.25194577545008
6.584,0.9999894522909655,149.86101994955052
6.592,0.9999895808478065,149.46966576530664
6.6,0.9999897168157195,149.07787771174046
6.608,0.9999898601139002,148.68565027493798
6.616,0.9999900106599041,148.29297793811944
6.624,0.9999901683696737,147.89985518171363
6.632,0.999990333157565,147.50627648343598
6.64,0.99999050493638,147.11223631837098
6.648,0.9999906836173893,146.7177291590579
6.656,0.9999908691103638,146.32274947558167
6.664,0.9999910613236,145.9272917356669
6.672,0.9999912601639495,145.5313504047771
6.68,0.999991465536842,145.13491994621774
6.688,0.9999916773463162,144.73799482124375
6.696,0.9999918954950443,144.34056948917214
6.704,0.9999921198843582,143.94263840749838
6.712,0.999992350414277,143.5441960320181
6.72,0.9999925869835314,143.14523681695349
6.728,0.9999928294895909,142.7457552150844
6.736,0.999993077828688,142.3457456778844
6.744,0.9999933318958455,141.94520265566217
6.752,0.9999935915849,141.54412059770772
6.76,0.999993856788528,141.1424939524439
6.768,0.9999941273982708,140.7403171675834
6.776,0.9999944033045595,140.3375846902909
6.784,0.9999946843967387,139.9342909673508
6.792,0.9999949705630926,139.5304304453408
6.8,0.9999952616908683,139.1259975708106
6.808,0.9999955576663004,138.72098679046695
6.816,0.9999958583746358,138.31539255136414
6.824,0.9999961637001566,137.90920930110062
6.832,0.9999964735262058,137.50243148802176
6.84,0.9999967877352095,137.0950535614285
6.848,0.9999971062087016,136.68706997179243
6.856,0.9999974288273475,136.27847517097723
6.864,0.9999977554709679,135.86926361246634
6.872,0.9999980860185618,135.45942975159736
6.88,0.9999984203483306,135.0489680458031
6.888,0.9999987583377008,134.63787295485898
6.896,0.9999990998633493,134.2261389411378
6.904,0.9999994448012236,133.81376046987103
6.912,0.9999997930265682,133.4007320094173
6.92,1.0,132.98704803153794
6.928,1.0,132.5727030116797
6.936,1.0,132.15769142926501
6.944,1.0,131.74200776798943
6.952,1.0,131.32564651612668
6.96,0.9999999999999999,130.90860216684132
6.968,1.0,130.4908692185092
6.976,0.9999999999999999,130.07244217504572
6.984,1.0,129.65331554624194
6.992,1.0,129.2334838481088
7.0,0.9999999999999999,128.8129416032294
7.008,1.0,128.39168334111972
7.016,1.0,127.96970359859743
7.024,1.0,127.54699692015932
7.032,1.0,127.12355785836701
7.04,1.0,126.69938097424176
7.048,1.0,126.27446083766756
7.056,1.0,125.84879202780336
7.064,1.0,125.42236913350418
7.072,0.9999999999999998,124.99518675375117
7.08,0.9999999999999999,124.56723949809088
7.088,1.0,124.13852198708399
7.096,0.9999999999999999,123.70902885276288
7.104,0.9999999999999999,123.27875473909918
7.112,1.0,122.84769430248058
7.12,1.0,122.41584221219736
7.128,1.0,121.98319315093856
7.136,0.9999999999999999,121.54974181529816
7.144,1.0,121.11548291629086
7.152,1.0,120.68041117987838
7.16,0.9999999999999999,120.24452134750545
7.168,0.9999999999999999,119.80780817664613
7.176,1.0,119.37026644136022
7.184,0.9999999999999999,118.93189093286071
7.192,1.0,118.49267646009075
7.2,1.0,118.0526178503119
7.208,1.0,117.61170994970269
7.216,1.0,117.16994762396789
7.224,1.0,116.72732575895871
7.232,0.9999999999999999,116.28383926130367
7.24,1.0,115.8394830590506
7.248,1.0,115.39425210231961
7.256,0.9999999999999999,114.94814136396693
7.264,1.0,114.50114584026021
7.272,1.0,114.05326055156489
7.28,1.0,113.60448054304183
7.288,1.0,113.15480088535624
7.296,0.9999999999999999,112.7042166753981
7.304,1.0,112.25272303701409
7.312,0.9999999999999999,111.80031512175077
7.32,0.9999999999999999,111.34698810960953
7.328,1.0,110.89273720981303
7.336,1.0,110.43755766158336
7.344,0.9999999999999999,109.98144473493161
7.352,1.0,109.52439373145958
7.36,1.0,109.06639998517274
7.368,1.0,108.6074588633053
7.376,1.0,108.14756576715678
7.384,1.0,107.68671613294069
7.392,1.0,107.22490543264452
7.4,0.9999999999999999,106.76212917490211
7.4079999999999995,1.0,106.29838290587742
7.416,1.0,105.83366221015999
7.4239999999999995,0.9999999999999999,105.36796271167296
7.432,1.0,104.9012800745916
7.4399999999999995,0.9999999999999999,104.4336100042751
7.448,0.9999999999999999,103.9649482482084
7.4559999999999995,1.0,103.49529059695763
7.464,0.9999999999999998,103.02463288513518
7.4719999999999995,1.0,102.55297099237825
7.48,1.0,102.08030084433742
7.4879999999999995,1.0,101.60661841367808
7.496,1.0,101.13191972109189
7.504,1.0,100.65620083632113
7.5120000000000005,1.0,100.17945787919287
7.52,0.9999999999999999,99.70168702066557
7.5280000000000005,0.9999999999999999,99.2228844838858
7.536,1.0,98.74304654525706
7.5440000000000005,1.0,98.26216953551796
7.552,1.0,97.78024984083314
7.5600000000000005,1.0,97.29728390389282
7.568,0.9999999999999999,96.81326822502476
7.5760000000000005,0.9999999999999998,96.32819936331485
7.584,0.9999999999999999,95.84207393773966
7.5920000000000005,1.0,95.35488862830722
7.6,0.9999999999999999,94.8666401772097
7.6080000000000005,1.0,94.37732538998378
7.616,0.9999999999999999,93.88694113668254
7.6240000000000006,1.0,93.39548435305471
7.632,0.9999999999999999,92.90295204173503
7.640000000000001,0.9999999999999999,92.40934127344167
7.648,0.9999999999999999,91.91464918818396
7.656000000000001,1.0,91.41887299647708
7.664,1.0,90.92200998056644
7.672,0.9999999999999999,90.42405749565854
7.68,1.0,89.92501297116065
7.688,0.9999999999999999,89.4248739119273
7.696,1.0,88.92363789951393
7.704,1.0,88.42130259343747
7.712,1.0,87.91786573244325
7.72,1.0,87.41332513577814
7.728,1.0,86.90767870446953
7.736,1.0,86.40092442260973
7.744,0.9999999999999999,85.89306035864536
7.752,1.0,85.38408466667167
7.76,0.9999999999999999,84.87399558773105
7.768,0.9999999999999999,84.3627914511156
7.776,0.9999999999999999,83.85047067567308
7.784,0.9999999999999999,83.33703177111607
7.792,0.9999999999999998,82.8224733393338
7.8,1.0,82.30679407570611
7.808,0.9999999999999999,81.78999277041939
7.816,0.9999999999999999,81.27206830978349
7.824,1.0,80.75301967754973
7.832,1.0,80.23284595622901
7.84,1.0,79.71154632840994
7.848,1.0,79.18912007807586
7.856,1.0,78.66556659192103
7.864,1.0,78.14088536066481
7.872,1.0,77.61507598036332
7.88,0.9999999999999998,77.0881381537184
7.888,1.0,76.56007169138293
7.896,0.9999999999999999,76.03087651326193
7.904,0.9999999999999999,75.50055264980908
7.912,1.0,74.96910024331774
7.92,1.0,74.436519549206
7.928,1.0,73.90281093729511
7.936,1.0,73.36797489308059
7.944,1.0,72.83201201899523
7.952,1.0,72.29492303566369
7.96,0.9999999999999998,71.75670878314743
7.968,1.0,71.21737022217984
7.976,1.0,70.67690843539043
7.984,1.0,70.1353246285176
7.992,1.0,69.59262013160908
8.0,1.0,69.04879640020944
8.008,1.0,68.50385501653398
8.016,1.0,67.95779769062766
8.024000000000001,0.9999999999999999,67.41062626150953
8.032,1.0,66.8623426983005
8.04,0.9999999999999999,66.31294910133403
8.048,1.0,65.76244770324976
8.056000000000001,1.0,65.21084087006885
8.064,1.0,64.65813110224921
8.072,1.0,64.10432103572097
8.08,0.9999999999999998,63.54941344290133
8.088000000000001,1.0,62.993411233687745
8.096,1.0,62.43631745642799
8.104,1.0,61.87813529886676
8.112,0.9999999999999999,61.31886808906865
8.120000000000001,0.9999999999999998,60.75851929631589
8.128,1.0,60.19709253197955
8.136,0.9999999999999999,59.634591550364156
8.144,1.0,59.071020249524885
8.152000000000001,0.9999999999999999,58.50638267205641
8.16,0.9999999999999999,57.940683005851724
8.168,1.0,57.37392558483084
8.176,1.0,56.806114889638835
8.184000000000001,0.9999999999999999,56.23725554831197
8.192,0.9999999999999999,55.667352336910554
8.2,0.9999999999999999,55.09641018011801
8.208,1.0,54.524434151806254
8.216000000000001,0.9999999999999999,53.951429475565526
8.224,1.0,53.37740152519763
8.232,1.0,52.80235582517228
8.24,1.0,52.226298051046086
8.248000000000001,1.0,51.649234029843036
8.256,0.9999999999999999,51.071169740395
8.264,1.0000000000000002,50.49211131364218
8.272,1.0,49.91206503289294
8.280000000000001,1.0,49.33103733404216
8.288,0.9999999999999999,48.749034805746355
8.296,1.0,48.16606418955585
8.304,0.9999999999999999,47.58213238000331
8.312,0.9999999999999999,46.99724642464794
8.32,1.0,46.411413524072984
8.328,1.0000000000000002,45.824641031839136
8.336,1.0,45.236936454389316
8.344,1.0,44.648307450908064
8.352,1.0,44.058761833131214
8.36,1.0,43.46830756510879
8.368,1.0,42.87695276291703
8.376,0.9999999999999999,42.28470569432275
8.384,1.0,41.691574778395406
8.392,1.0,41.097568585070576
8.4,0.9999994390417608,40.50269583466039
8.408,0.9999987975224518,39.9069653973142
8.416,0.99999815287428,39.310386292425356
8.424,0.9999975052862938,38.712967687987444
8.432,0.9999968549495971,38.114718899895855
8.44,0.9999962020572863,37.51564939119809
8.448,0.9999955468043852,36.9157687712889
8.456,0.9999948893877776,36.31508679505337
8.464,0.999994230006137,35.713613361954266
8.472,0.9999935688598591,35.11135851506718
8.48,0.9999929061509883,34.50833244005931
8.488,0.9999922420831439,33.904545464115806
8.496,0.9999915768614478,33.3000080548094
8.504,0.9999909106924455,32.69473081891746
8.512,0.9999902437840306,32.0887245011824
8.52,0.9999895763453657,31.48199998301916
8.528,0.9999889085868013,30.87456828116615
8.536,0.9999882407197965,30.266440546283754
8.544,0.9999875729568329,29.657628061495842
8.552,0.9999869055113345,29.04814224087964
8.56,0.9999862385975815,28.437994627898664
8.568,0.9999855724306228,27.827196893784436
8.576,0.999984907226191,27.215760835862007
8.584,0.9999842432006129,26.603698375824443
8.592,0.9999835805707216,25.99102155795206
8.6,0.9999829195537658,25.377742547281294
8.608,0.9999822603673204,24.763873627719022
8.616,0.9999816032291922,24.149427200107557
8.624,0.999980948357331,23.53441578023598
8.632,0.9999802959697344,22.918851996803216
8.64,0.999979646284355,22.302748589328527
8.648,0.9999789995190069,21.686118406015073
8.656,0.9999783558912704,21.068974401562127
8.664,0.9999777156183963,20.451329634931664
8.672,0.9999770789172128,19.833197267065188
8.68,0.9999764460040279,19.21459055855635
8.688,0.9999758170945333,18.595522867275466
8.696,0.9999751924037102,17.976007645951483
8.704,0.9999745721457317,17.356058439707677
8.712,0.9999739565338661,16.73568888355648
8.72,0.9999733457803823,16.114912699850155
8.728,0.9999727400964529,15.493743695692423
8.736,0.9999721396920567,14.872195760308056
8.744,0.9999715447758867,14.250282862375549
8.752,0.9999709555552507,13.628019047319926
8.76,0.9999703722359788,13.005418434570947
8.768,0.9999697950223283,12.382495214783695
8.776,0.9999692241168882,11.759263647027025
8.784,0.9999686597204879,11.135738055936796
8.792,0.9999681020321024,10.511932828839537
8.8,0.9999675512487617,9.887862412843411
8.808,0.9999670075654584,9.263541311902266
8.815999999999999,0.9999664711750572,8.638984083849827
8.824,0.9999659422682058,8.014205337408853
8.832,0.9999654210332457,7.389219729175149
8.84,0.999964907656126,6.764041960577474
8.847999999999999,0.9999644023203147,6.1386867748152945
8.856,0.9999639052067153,5.513168953776451
8.864,0.9999634164935823,4.887503314935649
8.872,0.9999629363564378,4.261704708234751
8.879999999999999,0.9999624649679917,3.6357880129469002
8.888,0.9999620024980602,3.009768134526629
8.896,0.9999615491134878,2.3836600014469025
8.904,0.9999611049780717,1.757478562024124
8.911999999999999,0.9999606702524843,1.1312387812332327
8.92,0.9999602450942021,0.5049556375150291
8.928,0.9999598296574329,-0.1213558804232345
8.936,0.999959424093044,-0.7476807768129493
8.943999999999999,0.9999590285484962,-1.374004052032799
8.952,0.9999586431677774,-2.0003107058187575
8.96,0.999958268091337,-2.626585740474401
8.968,0.9999579034560232,-3.252814164080536
8.975999999999999,0.9999575493950239,-3.878980993701866
8.984,0.9999572060378074,-4.505071258588654
8.992,0.9999568735100659,-5.131070003372246
9.0,0.9999565519336618,-5.756962291253498
9.008,0.999956241426576,-6.382733207181876
9.016,0.9999559421028567,-7.0083678610231726
9.024000000000001,0.9999556540725727,-7.633851390714796
9.032,0.9999553774417681,-8.259168965407593
9.04,0.9999551123124198,-8.884305788592183
9.048,0.9999548587823945,-9.509247101207706
9.056000000000001,0.9999546169454138,-10.13397818473186
9.064,0.9999543868910142,-10.758484364251672
9.072,0.9999541687045171,-11.382751011512452
9.08,0.9999539624669951,-12.006763547943395
9.088000000000001,0.9999537682552435,-12.630507447658665
9.096,0.9999535861417552,-13.253968240433183
9.104,0.9999534161946949,-13.877131514651193
9.112,0.9999532584778782,-14.499982920225674
9.120000000000001,0.9999531130507537,-15.122508171487752
9.128,0.9999529799683835,-15.744693050045566
9.136,0.9999528592814312,-16.366523407610316
9.144,0.9999527510361499,-16.98798516878833
9.152000000000001,0.9999526552743718,-17.60906433383773
9.16,0.9999525720335011,-18.229746981389827
9.168,0.9999525013465108,-18.850019271132787
9.176,0.99995244324194,-19.46986744645645
9.184000000000001,0.9999523977438929,-20.08927783705764
9.192,0.9999523648720426,-20.70823686150509
9.2,0.9999523446416365,-21.32673102976296
9.208,0.9999523370635022,-21.944746945670992
9.216000000000001,0.9999523421440587,-22.562271309381185
9.224,0.9999523598853266,-23.1792909197503
9.232,0.9999523902849435,-23.795792676687153
9.24,0.9999524333361804,-24.411763583453027
9.248000000000001,0.9999524890279601,-25.02719074891497
9.256,0.9999525573448773,-25.642061389752065
9.264,0.9999526382672228,-26.256362832612943
9.272,0.9999527317710084,-26.870082516223604
9.280000000000001,0.9999528378279932,-27.48320799344555
9.288,0.9999529564057125,-28.095726933283746
9.296,0.9999530874675119,-28.70762712284384
9.304,0.9999532309725769,-29.318896469237067
9.312000000000001,0.9999533868759702,-29.92952300143332
9.32,0.9999535551286676,-30.539494872062306
9.328,0.9999537356775978,-31.14880035916166
9.336,0.9999539284656822,-31.757427867871456
9.344,0.9999541334318767,-32.365365932075164
9.352,0.9999543505112183,-32.972603215987796
9.36,0.9999545796348674,-33.579128515688296
9.368,0.9999548207301581,-34.18493076059965
9.376,0.9999550737206444,-34.7899990149125
9.384,0.9999553385261534,-35.394322478956305
9.392,0.9999556150628339,-35.99789049051375
9.4,0.9999559032432123,-36.60069252608256
9.408,0.9999562029762458,-37.20271820208059
9.416,0.999956514167379,-37.803957275998236
9.424,0.9999568367185991,-38.4043996474942
9.432,0.9999571705284979,-39.00403535943882
9.44,0.9999575154923263,-39.602854598900926
9.448,0.999957871502059,-40.200847698082534
9.456,0.9999582384464535,-40.79800513519749
9.464,0.9999586162111138,-41.394317535298384
9.472,0.9999590046785529,-41.98977567104775
9.48,0.999959403728258,-42.58437046343837
9.488,0.9999598132367544,-43.178092982458296
9.496,0.9999602330776726,-43.77093444770566
9.504,0.999960663121813,-44.36288622894909
9.512,0.9999611032372151,-44.95393984663847
9.52,0.9999615532892243,-45.54408697236245
9.528,0.9999620131405602,-46.13331942925697
9.536,0.9999624826513842,-46.721629192361604
9.544,0.9999629616793718,-47.30900838892803
9.552,0.999963450079779,-47.895449298677015
9.56,0.9999639477055138,-48.48094435400914
9.568,0.999964454407206,-49.06548614016492
9.576,0.9999649700332782,-49.64906739533964
9.584,0.9999654944300169,-50.23168101074939
9.592,0.9999660274416404,-50.81332003065258
9.6,0.999966568910374,-51.393977652324175
9.608,0.9999671186765177,-51.973647225986866
9.616,0.9999676765785185,-52.552322254696094
9.624,0.9999682424530414,-53.1299963941837
9.632,0.999968816135039,-53.706663452656684
9.64,0.9999693974578251,-54.28231739055619
9.648,0.9999699862531409,-54.85695232027296
9.656,0.9999705823512304,-55.43056250582466
9.664,0.9999711855809057,-56.00314236249144
9.672,0.99997179576962,-56.574686456414405
9.68,0.9999724127435365,-57.14518950415434
9.688,0.9999730363275973,-57.71464637221501
9.696,0.9999736663455915,-58.28305207652793
9.704,0.9999743026202238,-58.850401781903756
9.712,0.9999749449731837,-59.41669080144678
9.72,0.9999755932252116,-59.98191459593735
9.728,0.9999762471961658,-60.54606877317947
9.736,0.9999769067050894,-61.109149087318016
9.744,0.9999775715702749,-61.6711514381224
9.752,0.999978241609331,-62.232071870242045
9.76,0.9999789166392457,-62.7919065724298
9.768,0.9999795964764505,-63.35065187673881
9.776,0.999980280936884,-63.90830425768918
9.784,0.999980969836054,-64.46486033140974
9.792,0.9999816629890993,-65.02031685475129
9.8,0.9999823602108503,-65.57467072437663
9.808,0.9999830613158902,-66.12791897582393
9.816,0.9999837661186132,-66.68005878254839
9.824,0.9999844744332842,-67.23108745493893
9.832,0.9999851860740957,-67.78100243931506
9.84,0.9999859008552253,-68.32980131690029
9.847999999999999,0.9999866185908919,-68.87748180277718
9.856,0.99998733909541,-69.42404174482154
9.864,0.9999880621832464,-69.969479122618
9.872,0.9999887876690702,-70.51379204635809
9.879999999999999,0.9999895153678082,-71.05697875572142
9.888,0.9999902450946957,-71.59903761873962
9.896,0.9999909766653267,-72.13996713064518
9.904,0.9999917098957046,-72.6797659127056
