freq,mag,phase
6.0,0.9999309408286803,-6.096090693441113
6.015936,0.999697016197185,-6.615612861664502
6.031872512,0.999475324838081,-7.132661082667781
6.047808512,0.9992751174187532,-7.647490555294316
6.063745024,0.9991044930634566,-8.160340488027494
6.079681024,0.9989709612838039,-8.671605750460657
6.095617536,0.998879934634148,-9.181816171218601
6.111553536,0.9988354904513024,-9.691373888188938
6.127490048,0.9988392565697106,-10.200985278529968
6.143426048,0.9988913322460908,-10.711101362943232
6.15936256,0.99898980938191,-11.222332231985968
6.17529856,0.9991305256741219,-11.735214889896929
6.191235072,0.9993075059167903,-12.250157264376718
6.207171072,0.9995138486149105,-12.767600463464449
6.223107584,0.9997407961638936,-13.287849267977087
6.239043584,0.999978879012334,-13.811026571683211
6.254980096,1.0002184103861564,-14.337248057597012
6.270916096,1.0004494347775268,-14.866455140371936
6.286852608,1.0006621570425371,-15.398536431903556
6.302788608,1.000848048744113,-15.933199576001863
6.31872512,1.0009990180819253,-16.4700186957756
6.33466112,1.0011090173590202,-17.008698143720288
6.350597632,1.0011731725621578,-17.548597479703755
6.366533632,1.0011889072471492,-18.089239890466285
6.382470144,1.0011553958937383,-18.6300625526161
6.398406144,1.0010738414166207,-19.17046921799794
6.414342656,1.0009476901911638,-19.70989322289881
6.430278656,1.0007820745661586,-20.247877534711943
6.446215168,1.0005835778265306,-20.783990972168574
6.462151168,1.0003604627705975,-21.317890827968146
6.47808768,1.000121977527483,-21.849326706925606
6.49402368,0.9998778321594135,-22.378205733376817
6.509960192,0.9996383655573008,-22.904516578135556
6.525896192,0.9994133874882725,-23.42827674401849
6.541832704,0.9992121792772761,-23.949841695309253
6.557768704,0.999043338902384,-24.46943158772678
6.573705216,0.9989138895871604,-24.987529800955063
6.589641216,0.9988292998127069,-25.504617974370188
6.605577728,0.9987932510976381,-26.021230653048807
6.621513728,0.9988072170000007,-26.537921872978657
6.63745024,0.9988708160185515,-27.05536875124058
6.65338624,0.9989816742172284,-27.573995887526475
6.669322752,0.9991349402374473,-28.094479986026723
6.685258752,0.9993244510635291,-28.617208306631355
6.701195264,0.9995425223080535,-29.142614767737033
6.717131264,0.9997800795803037,-29.670890244411417
6.733067776,1.0000272927992369,-30.202340660715535
6.749003776,1.0002739810341676,-30.736872036368894
6.764940288,1.000509894596757,-31.27455028982112
6.780876288,1.0007251527571885,-31.8151063090417
6.7968128,1.0009107884301973,-32.358291351840826
6.8127488,1.001059341738221,-32.903694245443866
6.828685312,1.0011642575141178,-33.45086492571966
6.844621312,1.0012212878521456,-33.99921464675405
6.860557824,1.0012277740424096,-34.54827268828517
6.876493824,1.0011834332389558,-35.09741144648006
6.892430336,1.0010900414621184,-35.64600616668588
6.908366336,1.0009514789130194,-36.193506895991625
6.924302848,1.0007731264451825,-36.73946048510718
6.940238848,1.0005621037718295,-37.28338771415897
6.95617536,1.0003274452780806,-37.82502029749467
6.97211136,1.0000787121521915,-38.36406625916054
6.988047872,0.9998261136498339,-38.90045696622481
7.003983872,0.9995800009095553,-39.43418391950537
7.019920384,0.9993507950017841,-39.96543868563532
7.035856384,0.9991479106255513,-40.49438204811888
7.051792896,0.9989799495988082,-41.02142652359179
7.067728896,0.9988539708892676,-41.546966824020934
7.083665408,0.9987752037544948,-42.07160132306847
7.099601408,0.9987471742116485,-42.59584660272625
7.11553792,0.9987710735059893,-43.12032740318877
7.13147392,0.9988459055601526,-43.645642694506314
7.147410432,0.9989691323432793,-44.17241573804582
7.163346432,0.9991351073962208,-44.70114804796294
7.179282944,0.9993375120003628,-45.232275848454094
7.195218944,0.9995680033678322,-45.76620957640413
7.211155456,0.9998167594376204,-46.303281062417746
7.227091456,1.0000739852635172,-46.84354718603026
7.243027968,1.000328615287961,-47.387124378639825
7.258963968,1.0005703646530297,-47.93389168388274
7.27490048,1.0007890856216577,-48.48363600737056
7.29083648,1.0009757267500539,-49.036045411616804
7.306772992,1.0011224686671685,-49.590690643228854
7.322708992,1.001222954533491,-50.1471046204063
7.338645504,1.0012733243445242,-50.70469179804935
7.354581504,1.0012712547538867,-51.26285694747459
7.370518016,1.0012164983299006,-51.82103757334619
7.386454016,1.00111122612781,-52.37855623645434
7.402390528,1.0009599028210985,-52.934864013263265
7.418326528,1.0007683010209152,-53.48952067683004
7.43426304,1.0005446042448878,-54.042029785754124
7.45019904,1.0002976188731494,-54.592107959187864
7.466135552,1.000037697792989,-55.1394792130883
7.482071552,0.9997757054732779,-55.68409833441249
7.498008064,0.9995220338932506,-56.22601793412244
7.513944064,0.9992876942885789,-56.76533369994415
7.529880576,0.9990821501841967,-57.302361654433305
7.545816576,0.9989140892154488,-57.83747400473856
7.561753088,0.9987906351665947,-58.37116029645525
7.577689088,0.9987169708383632,-58.903971469119135
7.5936256,0.998696390012482,-59.43650537317548
7.6095616,0.99872973048149,-59.96935629003493
7.625498112,0.998815855633519,-60.50322569936866
7.641434112,0.998951303341416,-61.038690966367376
7.657370624,0.9991305610137671,-61.57625860000569
7.673306624,0.9993463590208145,-62.116427234232034
7.689243136,0.9995898325342428,-62.659599733350746
7.705179136,0.999850844742432,-63.20602721491827
7.721115648,1.00011888461951,-63.75583290219872
7.737051648,1.0003825494425886,-64.30910132360604
7.75298816,1.0006313917078253,-64.8655946806317
7.76892416,1.0008546847147066,-65.4252309411939
7.784860672,1.0010432396220237,-65.98755636313297
7.800796672,1.0011892086778864,-66.55222104372605
7.816733184,1.0012866008968413,-67.11854660764587
7.832669184,1.0013309649746798,-67.68608062740006
7.848605696,1.0013205964074507,-68.2541317308423
7.864541696,1.0012556350746984,-68.82204213903549
7.880478208,1.001138742135185,-69.3892664387159
7.896414208,1.0009743910935434,-69.95518139967639
7.91235072,1.0007693614970161,-70.51925595089199
7.92828672,1.0005319393351588,-71.08104459742275
7.944223232,1.000271842815584,-71.64029662096883
7.960159232,0.9999997518394975,-72.19672123803385
7.976095744,0.9997268869177063,-72.75028894303838
7.992031744,0.9994645222032773,-73.30104671969393
8.007968256,0.9992234706665067,-73.84912448655463
8.023904256,0.9990138930947033,-74.39489394833383
8.039840768,0.9988444540171272,-74.93870856808553
8.055776768,0.9987225466507769,-75.48114288140285
8.07171328,0.9986529116395729,-76.02274923176942
8.08764928,0.9986390567185347,-76.56413326740508
8.103585792,0.9986813911474689,-77.1060384922127
8.119521792,0.998778529089558,-77.64898028046257
8.135458304,0.9989264704818017,-78.19370906515125
8.151394304,0.9991192000997462,-78.7407340958371
8.167330816,0.9993490871478615,-79.29055274439276
8.183266816,0.999606460637263,-79.84351668677348
8.199203328,0.9998809686509094,-80.39990905609967
8.215139328,1.0001611210099088,-80.95989335133052
8.23107584,1.0004353127883772,-81.52342965339038
8.24701184,1.000692679215716,-82.09041767144198
8.262948352,1.0009219222874928,-82.66057342821347
8.278884352,1.0011138953137526,-83.23354849040476
8.294820864,1.0012606481120698,-83.8088201503541
8.310756864,1.001355682425284,-84.3858602958099
8.326693376,1.0013952386688947,-84.96406056964814
8.342629376,1.001377327444942,-85.54271634625985
8.358565888,1.0013025832454825,-86.1211807044642
8.374501888,1.0011737983936018,-86.69883202900755
8.3904384,1.000996197600331,-87.27505164283481
8.4063744,1.000777090269403,-87.84930239325212
8.422310912,1.0005250474023275,-88.4211395980578
8.438246912,1.000250691275588,-88.99026389579241
8.454183424,0.9999649936477281,-89.55645583975101
8.470119424,0.9996798377293363,-90.11964662495697
8.486055936,0.9994069619243439,-90.67988727087108
8.501991936,0.9991576793733562,-91.23740915478197
8.517928448,0.998942455869798,-91.79253617785636
8.533864448,0.998770229504239,-92.34569909954922
8.54980096,0.9986481545419668,-92.8974452779793
8.56573696,0.9985816679720552,-93.44840839539116
8.581673472,0.9985735147098072,-93.99923468195152
8.597609472,0.998624355179473,-94.55062970849836
8.613545984,0.9987321355916694,-95.10327149472594
8.629482496,0.998892897584225,-95.65781296965937
8.645417984,0.9990996233611207,-96.21482616875396
8.661354496,0.9993442563363062,-96.77480485414537
8.677291008,0.999616847534301,-97.33816614987431
8.69322752,0.9999061279603685,-97.90512354047853
8.709163008,1.0002002367503373,-98.47583281410478
8.72509952,1.0004869330089392,-99.05029655922374
8.741036032,1.0007545572610899,-99.6283519575455
8.756972544,1.0009918658465207,-100.20968723335855
8.772908032,1.0011891941431366,-100.79396111978792
8.788844544,1.001338104969131,-101.38057214966139
8.804781056,1.0014324813893072,-101.96901696865152
8.820717568,1.001468157634199,-102.55856515774343
8.836653056,1.0014435031859952,-103.14859841384829
8.852589568,1.0013593310775895,-103.73832886583993
8.86852608,1.0012189370141746,-104.3271513798724
8.884462592,1.0010277936697476,-104.91442777423397
8.90039808,1.0007936367412655,-105.4996043023129
8.916334592,1.0005260624840422,-106.08220606858252
8.932271104,1.00023575853926,-106.66190627672279
8.948207616,0.9999347195476408,-107.23853594017956
8.964143104,0.9996353267370358,-107.8120228686556
8.980079616,0.9993498615820571,-108.3824308317869
8.996016128,0.9990901409719938,-108.94998273663612
9.01195264,0.9988669648221632,-109.51505138293972
9.027888128,0.9986898042677003,-110.07809225818934
9.04382464,0.9985660208589908,-110.63973030949772
9.059761152,0.9985010334399081,-111.20056049942528
9.075697664,0.9984975652158342,-111.76132506791126
9.091633152,0.9985561255799821,-112.3227632728281
9.107569664,0.99867451318929,-112.88555015715627
9.123506176,0.9988479966628768,-113.45036959713251
9.139442688,0.999069493205133,-114.01785949135498
9.155378176,0.9993301955773581,-114.58848880770017
9.171314688,0.999619400639769,-115.16271316825392
9.1872512,0.9999252168118319,-115.7407601063538
9.203187712,1.0002353334715604,-116.32276989144691
9.2191232,1.0005367362138289,-116.9086923853814
9.235059712,1.0008171352582078,-117.49842293991219
9.250996224,1.0010649943608412,-118.09160075239708
9.266932736,1.0012697903862398,-118.68777413738172
9.282868224,1.0014231713696629,-119.28643526979168
9.298804736,1.0015186546381203,-119.886928541168
9.314741248,1.0015520122887445,-120.48859051030479
9.33067776,1.0015216634140587,-121.09068208649104
9.346613248,1.0014286448182235,-121.69243580878185
9.36254976,1.001276611704242,-122.29317064331025
9.378486272,1.0010714685907693,-122.89223044886245
9.394422784,1.0008214775747082,-123.48903863724358
9.410358272,1.0005366340789341,-124.08312181607397
9.426294784,1.0002286343150868,-124.67413456195472
9.442231296,0.9999099778077273,-125.26188331550992
9.458167808,0.999593767595392,-125.84626709389374
9.474103296,0.999293034907217,-126.42744044797614
9.490039808,0.9990201133814485,-127.00562915371604
9.50597632,0.9987864341104666,-127.58116244539532
9.521912832,0.9986018231149308,-128.1546168047988
9.53784832,0.9984740881155088,-128.72660057673713
9.553784832,0.998408663075779,-129.29776526914023
9.569721344,0.9984085541426885,-129.86890203125154
9.585657856,0.9984739190018155,-130.4407643294027
9.601593344,0.998602447530346,-131.01408776377409
9.617529856,0.998788973251952,-131.58963495147984
9.633466368,0.9990261128961675,-132.16798320029912
9.64940288,0.999304191178671,-132.7497133716985
9.665338368,0.999612046531466,-133.335246931149
9.68127488,0.9999369748180139,-133.92483704222178
9.697211392,1.0002657480962114,-134.5185990302517
9.713147904,1.000584817230618,-135.11654196631252
9.729083392,1.000881145792316,-135.71845648558892
9.745019904,1.0011424176071209,-136.3240270520789
9.760956416,1.0013578500459372,-136.93276322270822
9.776892928,1.0015183614142231,-137.54411974600123
9.792828416,1.0016172493947844,-138.15739196957196
9.808764928,1.0016501014192105,-138.7718477135978
9.82470144,1.0016154666158708,-139.38671352030656
9.840637952,1.0015142849192031,-140.001237022724
9.85657344,1.001350592825299,-140.61463551759678
9.872509952,1.001130821308329,-141.2262421542153
9.888446464,1.0008636373387925,-141.83540695020582
9.904382976,1.0005598123206891,-142.44168005830088
9.920318464,1.0002316626868957,-143.04466961736247
9.936254976,0.9998924722920246,-143.64416221557894
9.952191488,0.9995562572789666,-144.2401240529739
9.968128,0.9992367388246016,-144.8326254001631
9.984063488,0.9989471402872022,-145.42195843053545
10.0,0.9986995868693194,-146.00848840343264
10.015936512,0.9985042844054337,-146.59279156475353
10.031872,0.9983696725535022,-147.1755579998527
10.047808512,0.9983014702402423,-147.75743748010382
10.063745024,0.9983028064307815,-148.3393066534856
10.079681536,0.9983739269995455,-148.92193994892278
10.095617024,0.9985122016911796,-149.50616442431556
10.111553536,0.9987122712943401,-150.0927217005145
10.127490048,0.9989660223036314,-150.68229964919618
10.14342656,0.9992633284770903,-151.27545878034337
10.159362048,0.9995922084557634,-151.8726534058284
10.17529856,0.999939207786063,-152.47418527774556
10.191235072,1.0002901089867298,-153.08017298553517
10.207171584,1.0006306999607413,-153.69059201674781
10.223107072,1.00094680401383,-154.30524671006756
10.239043584,1.0012255572486104,-154.92377808391413
10.254980096,1.0014551660279087,-155.54570168957616
10.270916608,1.0016262777927551,-156.17037731951865
10.286852096,1.0017314659994259,-156.79710758138785
10.302788608,1.0017662703472148,-157.4251020437938
10.31872512,1.0017288686479067,-158.05351669758377
10.334661632,1.0016204519218035,-158.68154903542185
10.35059712,1.0014451952303791,-159.30839821099121
10.366533632,1.0012098333401902,-159.93328150271182
10.382470144,1.000923835370458,-160.5555853049101
10.398406656,1.0005984483442016,-161.1747704604669
10.414342144,1.000246987741203,-161.7904400389206
10.430278656,0.9998836546734334,-162.40238195818029
10.446215168,0.9995232833242386,-163.010497993846
10.46215168,0.9991805490385283,-163.61492047099932
10.478087168,0.9988698494877308,-164.21592083263516
10.49402368,0.9986038679128443,-164.8139185986714
10.509960192,0.998393811232692,-165.40950808023024
10.525896704,0.9982486773441813,-166.00338800894323
10.541832192,0.9981747206088493,-166.5963449910734
10.557768704,0.9981753037294031,-167.18924407766923
10.573705216,0.9982506838233087,-167.78293688628756
10.589641728,0.9983982257880932,-168.3782947123898
10.605577216,0.9986121735572895,-168.97614846392318
10.621513728,0.9988841198427442,-169.57719868677998
10.63745024,0.999203061273763,-170.18208771579492
10.653386752,0.9995561278791172,-170.7913023910952
10.66932224,0.9999290427035529,-171.40513369683674
10.685258752,1.0003067179923548,-172.0237544513915
10.701195264,1.000673592681524,-172.64712504935034
10.717131776,1.001014578250203,-173.27504290738835
10.733067264,1.001315779704097,-173.90714236834322
10.749003776,1.0015645056951064,-174.54288449622968
10.764940288,1.001750573995871,-175.1815918750567
10.7808768,1.0018660086304811,-175.82255193155262
10.796812288,1.0019055506426997,-176.46487124749876
10.8127488,1.001867539503176,-177.10766619677224
10.828685312,1.001752887061982,-177.75006370229605
10.844621824,1.001566037956248,-178.3911914996254
10.860557312,1.0013140528028055,-179.03025208945692
10.876493824,1.001006867615602,-179.66653393585116
10.892430336,1.00065692232126,179.70052276659735
10.908366848,1.0002779975730538,179.07139638878755
10.924302336,0.9998856421196264,178.44630188310856
10.940238848,0.9994956360411753,177.82531672523226
10.95617536,0.999124109039497,177.20835021688893
10.972111872,0.9987864115711763,176.5951365680855
10.98804736,0.9984963809795917,175.9851976620858
11.003983872,0.9982663609252508,175.37788861314172
11.019920384,0.9981059966979956,174.7725005341419
11.035856896,0.9980223740446647,174.16817841379458
11.051792384,0.9980192560776393,173.56397661639954
11.067728896,0.9980972254629458,172.9589639588394
11.083665408,0.9982534873009813,172.35221787264655
11.09960192,0.9984820516761236,171.74283603940404
11.115537408,0.9987740851156208,171.13003579583327
11.13147392,0.9991176005145004,170.5131100392971
11.147410432,0.9994993119907062,169.89157620203812
11.163346944,0.9999033120672333,169.26502815148447
11.179282432,1.000313477922019,168.63331886880428
11.195218944,1.000712996676142,167.99645056304288
11.211155456,1.001085563309486,167.35464442665528
11.227091968,1.001415774585184,166.7082916140205
11.243027456,1.001689866497821,166.05795280740367
11.258963968,1.0018965948701202,165.40431595920788
11.27490048,1.0020269909768882,164.74824950165262
11.290836992,1.0020754308750688,164.09062957474734
11.30677248,1.0020393749432541,163.43240921088054
11.322708992,1.0019198704142676,162.7745900394783
11.338645504,1.0017212334391328,162.11807194926448
11.354582016,1.0014510844452866,161.4637742544653
11.370517504,1.0011199555657446,160.81243121625968
11.386454016,1.0007410495136857,160.16473339394759
11.402390528,1.0003293233816952,159.5211267211091
11.41832704,0.9999015868718761,158.88191898162327
11.434262528,0.9994751893935158,158.24722971368638
11.45019904,0.9990672257811525,157.61696016227947
11.466135552,0.9986948748489003,156.99080333042593
11.482072064,0.9983734047964572,156.36827716162566
11.498007552,0.9981163553660329,155.74871748152017
11.513944064,0.9979346162702918,155.13135165360467
11.529880576,0.9978361835036842,154.51522116703626
11.545817088,0.9978253922509089,153.89933799275272
11.561752576,0.9979036849974529,153.28268068036607
11.577689088,0.9980679749140282,152.66422210952177
11.5936256,0.9983121267098495,152.04297530466863
11.609562112,0.9986268205087832,151.41806578260403
11.6254976,0.9989994496311837,150.78872059172633
11.641434112,0.9994151458838972,150.15436446190543
11.657370624,0.9998571542838317,149.51454874109692
11.673307136,1.0003076851135628,148.869101235097
11.689242624,1.000748355834325,148.2180079192146
11.705179136,1.0011610692731427,147.56144767621842
11.721115648,1.0015289781328853,146.89985005922387
11.73705216,1.0018368634103871,146.23382924485637
11.752987648,1.002071807496115,145.5641084883133
11.76892416,1.0022237159377845,144.89159259444838
11.784860672,1.002286057398341,144.21727924751022
11.800797184,1.0022555321955604,143.5422088633754
11.816732672,1.002132944417888,142.86744120961387
11.832669184,1.001922399338084,142.19402872147649
11.848605696,1.0016320719831433,141.5229426185901
11.864542208,1.0012731167155968,140.85504234809818
11.880477696,1.000859595129771,140.19106403861574
11.896414208,1.0004078864398394,139.53155466620458
11.91235072,0.9999362455987326,138.87689227783696
11.928287232,0.9994636148178113,138.22721164958205
11.94422272,0.9990092720207223,137.58241933509774
11.960159232,0.9985919851101075,136.94226580560925
11.976095744,0.9982288985841729,136.30617723633978
11.992032256,0.9979353719209804,135.67351299777982
12.007967744,0.9977240436193316,135.04335080592818
12.023904256,0.9976039764528667,134.4147041353159
12.039840768,0.9975806943658339,133.78648852754614
12.05577728,0.9976559284351317,133.15754336509627
12.071712768,0.9978272630519939,132.52674942887913
12.08764928,0.9980883711610442,131.89300167215075
12.103585792,0.9984293026203036,131.25530887269755
12.119522304,0.998836613160213,130.61276504976104
12.135457792,0.9992939894041677,129.96473934975913
12.151394304,0.999783304560548,129.31070939960367
12.167330816,1.0002847994919317,128.65040587023788
12.183267328,1.000778136115975,127.98380163235879
12.199202816,1.0012431144975174,127.31108580302832
12.215139328,1.001660671275714,126.63267273642764
12.23107584,1.0020136535166448,125.94918219697557
12.247012352,1.0022871638449191,125.2614877865907
12.26294784,1.002469612166081,124.57048932142672
12.278884352,1.0025528750283335,123.87729759820043
12.294820864,1.0025327609570363,123.18308703174482
12.310757376,1.002409446062548,122.48903229048108
12.326692864,1.002187008684487,121.79631044704018
