freq,mag,phase
6.0,1.0005165127225355,-7.493985619144743
6.009999872,1.0004328943840497,-7.8196470427091755
6.019999744,1.0003286254095332,-8.144103684289519
6.030000128,1.000207554925118,-8.467174738295823
6.04,1.0000758180921852,-8.788654790055086
6.049999872,0.9999400728059094,-9.108417021537775
6.060000256,0.9998074691534214,-9.426471130464684
6.070000128,0.9996842195605341,-9.742886464994308
6.08,0.9995769792185433,-10.057818970049665
6.089999872,0.9994913062987925,-10.371546348279363
6.099999744,0.9994314008245383,-10.684372539950235
6.110000128,0.9994003678540039,-10.996614086186886
6.12,0.9993997388915468,-11.30870675609788
6.129999872,0.9994299180214595,-11.62099409192548
6.140000256,0.9994890359618258,-11.933909321839371
6.150000128,0.9995743639627084,-12.24779314002645
6.16,0.9996813754105102,-12.562963448499833
6.169999872,0.999804847681689,-12.879659900617664
6.179999744,0.9999384520134016,-13.198073855877302
6.190000128,1.0000754676323624,-13.518277816124728
6.2,1.0002086861424653,-13.84023210220446
6.209999872,1.000331507662968,-14.163977823533273
6.220000256,1.000437705521775,-14.48915255740459
6.230000128,1.0005218876418873,-14.81564114408191
6.24,1.0005796641638942,-15.143126974699127
6.249999872,1.00060802120453,-15.471189073198579
6.259999744,1.0006056939516714,-15.799436409877464
6.270000128,1.000572518319544,-16.12753349760047
6.28,1.0005101021071985,-16.455021957438202
6.289999872,1.0004219328259867,-16.781562248615685
6.300000256,1.0003121761210998,-17.10692764498812
6.310000128,1.0001864376355316,-17.43076671047768
6.32,1.0000509600544767,-17.75291568225308
6.329999872,0.9999128248193534,-18.073372161054756
6.339999744,0.9997790470050525,-18.39204813578055
6.350000128,0.9996563097601173,-18.709104589057187
6.36,0.9995508806845708,-19.02475031329431
6.369999872,0.9994682224475951,-19.33914420704256
6.380000256,0.9994125429458205,-19.65269384059298
6.390000128,0.9993866363040582,-19.965763360468678
6.4,0.9993920236928213,-20.278710582419922
6.409999872,0.9994284145142056,-20.591962601044706
6.419999744,0.9994939717165359,-20.905900143102834
6.430000128,0.9995852541113709,-21.220939634083358
6.44,0.99969792974304,-21.537283129405512
6.449999872,0.9998260589930975,-21.855281851266202
6.460000256,0.9999632319162282,-22.174973145880138
6.470000128,1.0001026469545098,-22.496551089569298
6.48,1.0002369307226477,-22.81997138321517
6.489999872,1.0003593049873167,-23.145038115095915
6.499999744,1.0004637894337143,-23.47162860456559
6.510000128,1.0005447244679875,-23.799490466313415
6.52,1.000598077323778,-24.1282414442207
6.529999872,1.000621206823872,-24.457543496529937
6.540000256,1.0006128494473363,-24.786990282731434
6.550000128,1.0005733517471207,-25.11616156095548
6.56,1.0005047316429412,-25.44469210870997
6.569999872,1.0004102992272497,-25.772189022635835
6.579999744,1.000294897015211,-26.098328753317034
6.590000128,1.0001644385127384,-26.422973513129723
6.6,1.0000253873957976,-26.745887141935633
6.609999872,0.9998850613215838,-27.067013552714013
6.620000256,0.9997501240470451,-27.386424877919627
6.630000128,0.9996278380425938,-27.704173112087705
6.64,0.9995243636325223,-28.02047058699374
6.649999872,0.9994450047871486,-28.335630438242553
6.659999744,0.9993936862799637,-28.649965281054715
6.670000128,0.9993732473833309,-28.963862157390018
6.68,0.9993846622334179,-29.277749756108165
6.689999872,0.9994274929906772,-29.592020447030066
6.700000256,0.999499386832925,-29.907066284780534
6.710000128,0.9995970016178212,-30.223237311581766
6.72,0.9997151227339943,-30.540880323572754
6.729999872,0.9998481750139913,-30.860180710621727
6.739999744,0.9999888744981894,-31.18128715681427
6.750000128,1.0001306090017306,-31.50426437135445
6.76,1.0002656138772437,-31.829083245546084
6.769999872,1.000387677512725,-32.15560444710014
6.780000256,1.0004899898817465,-32.48364835514567
6.790000128,1.0005675741300546,-32.81290547258056
6.8,1.0006165934369053,-33.143009777436234
6.809999872,1.0006343155357613,-33.4735982426502
6.819999744,1.0006198699514195,-33.80423866789844
6.830000128,1.0005737333093452,-34.134556266575984
6.84,1.000498554736052,-34.464104635375826
6.849999872,1.000398007871594,-34.79259325456171
6.860000256,1.0002769457259255,-35.119678102158566
6.870000128,1.0001418291093265,-35.44512554405457
6.88,0.9999991764360826,-35.768804519227444
6.889999872,0.9998564412459932,-36.09068170249868
6.899999744,0.9997207464885135,-36.41076966107853
6.910000128,0.9995991787799535,-36.72923963277754
6.92,0.9994977045306763,-37.04630513444566
6.929999872,0.9994217291566476,-37.36223044940388
6.940000256,0.9993750439025897,-37.677357777854596
6.950000128,0.9993601133591381,-37.99221141459951
6.96,0.9993778211248421,-38.3070450055659
6.969999872,0.9994270740216002,-38.622372429448085
6.979999744,0.9995057396364262,-38.93855540970831
6.990000128,0.9996095951318685,-39.25595258545118
7.0,0.9997335411906256,-39.57490522961324
7.009999872,0.9998711690479163,-39.89554987795827
7.020000256,1.0000155268311814,-40.21809630274784
7.030000128,1.0001594505258156,-40.54254887828786
7.04,1.0002954494949305,-40.86888393276922
7.049999872,1.0004165811974104,-41.19690143351172
7.059999744,1.0005168682220134,-41.52642194889555
7.070000128,1.000590926768152,-41.85710742172141
7.08,1.00063514241538,-42.18861597834502
7.089999872,1.0006473316350215,-42.52053762296118
7.100000256,1.0006264398110774,-42.85241041164034
7.110000128,1.0005737576424012,-43.18390890332592
7.12,1.0004919843581233,-43.51454637187013
7.129999872,1.0003849375103884,-43.84402929239429
7.139999744,1.0002584263379801,-44.172026613869754
7.150000128,1.0001184000489418,-44.49831757054066
7.16,0.9999722688830036,-44.8228206621783
7.169999872,0.9998271575296857,-45.145458828275956
7.180000256,0.9996906949524381,-45.4663432429688
7.190000128,0.9995699169761679,-45.78554896675887
7.2,0.9994706641035533,-46.103377665128754
7.209999872,0.9993982991660113,-46.42010504221097
7.219999744,0.999356431657451,-46.736143438523506
7.230000128,0.9993474216584185,-47.051867241453465
7.24,0.9993713542976572,-47.36773819023019
7.249999872,0.9994275080279733,-47.68414304027806
7.260000256,0.9995127456855891,-48.00156653638285
7.270000128,0.9996229737520345,-48.32023722092876
7.28,0.9997525553388601,-48.64051089326689
7.289999872,0.9998948946933386,-48.96264101611177
7.299999744,1.00004298605337,-49.28665686610577
7.310000128,1.0001891068787279,-49.61264645868103
7.32,1.0003256672530751,-49.94048964387262
7.329999872,1.000446054743623,-50.2700810560419
7.340000256,1.0005440889542467,-50.60108187507293
7.350000128,1.000614383467014,-50.93330218538792
7.36,1.000653815736384,-51.26621243508043
7.369999872,1.0006600744189642,-51.599504417016924
7.379999744,1.0006328498397339,-51.93267851375463
7.390000128,1.000573435827455,-52.26536346013587
7.4,1.000484655517041,-52.597144003130985
7.409999872,1.0003714068110907,-52.92765108731134
7.420000256,1.0002389124818671,-53.256580320522076
7.430000128,1.0000941208668621,-53.58382117952438
7.44,0.9999443697669878,-53.90913227750836
7.449999872,0.9997973097021583,-54.23255686128228
7.459999744,0.9996601821863507,-54.55421533047558
7.470000128,0.9995401807036423,-54.8742146039181
7.48,0.9994434321611155,-55.192857637271516
7.489999872,0.9993748465713791,-55.51043657085894
7.500000256,0.9993379764426855,-55.82737401585373
7.510000128,0.9993347056478965,-56.144116183251384
7.52,0.9993653227459451,-56.46103126508241
7.529999872,0.9994283625391764,-56.77860348752873
7.539999744,0.9995206275211959,-57.09721883055305
7.550000128,0.9996373488083684,-57.417244413833316
7.56,0.9997727660461131,-57.738939277810296
7.569999872,0.9999199249182421,-58.06254743441214
7.580000256,1.000071403889451,-58.38810132010744
7.590000128,1.0002196231340694,-58.71567311189371
7.6,1.0003569535602534,-59.04510755797971
7.609999872,1.000476422338886,-59.37626448754298
7.619999744,1.000571739871886,-59.708880197282646
7.630000128,1.0006383408867618,-60.04259309707965
7.64,1.0006725791805213,-60.377002670598415
7.649999872,1.0006727509500761,-60.71169351645425
7.660000256,1.0006388842035465,-61.0461962270928
7.670000128,1.0005724531104532,-61.38011807733126
7.68,1.0004768973693745,-61.713038827595675
7.689999872,1.0003569927476201,-62.04461019201585
7.699999744,1.0002186901179932,-62.374553249803185
7.710000128,1.0000691585877748,-62.70269310211201
7.72,0.9999157685688524,-63.02889692189433
7.729999872,0.9997666610180601,-63.35313334464459
7.740000256,0.9996288642280686,-63.675603257756975
7.750000128,0.9995099140716294,-63.996417060754645
7.76,0.9994156854159256,-64.31591832999955
7.769999872,0.9993511155071666,-64.63438173027086
7.779999744,0.9993194847731,-64.95226024261522
7.790000128,0.9993223636611553,-65.26998470994042
7.8,0.9993598077078253,-65.58801505812248
7.809999872,0.9994298346318794,-65.90681953884102
7.820000256,0.999529006722265,-66.22670960898587
7.830000128,0.9996524042551068,-66.5481191917942
7.84,0.9997936948879215,-66.87128410085684
7.849999872,0.9999457668207165,-67.19642709911689
7.859999744,1.0001008393747888,-67.52356443090268
7.870000128,1.0002511644779355,-67.85273805297254
7.88,1.0003889826632792,-68.18383062413173
7.889999872,1.0005071780522796,-68.51664481263833
7.900000256,1.0005999995894193,-68.85085527045162
7.910000128,1.0006624394139605,-69.18615685154823
7.92,1.0006912964764756,-69.52211096394662
7.929999872,1.0006854622570476,-69.85823530299453
7.939999744,1.0006446095997241,-70.19412404585334
7.950000128,1.0005709782841492,-70.5293168732078
7.96,1.0004682378307752,-70.86341503893249
7.969999872,1.000341614396937,-71.19608417419903
7.980000256,1.0001974737064698,-71.52705369720745
7.990000128,1.0000430723573142,-71.85609876568321
8.0,0.9998862358817387,-72.18319027540171
8.009999872,0.9997348327854203,-72.50834670909465
8.019999744,0.9995967748593345,-72.83161590654686
8.030000128,0.9994789734517957,-73.15329952636539
8.04,0.9993874655232104,-73.47363053887265
8.049999872,0.9993270481687523,-73.7930485551495
8.060000256,0.9993007612482653,-74.11193952140637
8.070000128,0.9993100733286716,-74.4306969206593
8.08,0.9993543817581755,-74.74989526451664
8.089999872,0.9994317617632313,-75.06991262039057
8.099999744,0.9995382329943678,-75.3911545744778
8.110000128,0.9996684403694419,-75.71399060315298
8.12,0.9998157108965198,-76.0386685960403
8.129999872,0.9999726413822477,-76.36535261578082
8.140000256,1.0001312602556585,-76.69414905511333
8.150000128,1.0002835741759049,-77.02502522968535
8.16,1.00042174068188,-77.35782513409642
8.169999872,1.0005387667858563,-77.69234099150118
8.179999744,1.000628726370871,-78.02822858311822
8.190000128,1.0006869975483974,-78.36513895648527
8.2,1.0007104988544346,-78.70264663670288
8.209999872,1.000698106655369,-79.04025453003679
8.220000256,1.0006502117099274,-79.37755091095316
8.230000128,1.0005691454132093,-79.71402840577534
8.24,1.0004591490860766,-80.04939075703162
8.249999872,1.0003257109812032,-80.3831567285707
8.259999744,1.0001754662715772,-80.7151688844566
8.270000128,1.0000161221218624,-81.04519719227153
8.28,0.9998557459688722,-81.37321637096193
8.289999872,0.9997022162319931,-81.69923692316154
8.300000256,0.9995638190591929,-82.0234146125882
8.310000128,0.9994473527124094,-82.34594092108125
8.32,0.9993587924464065,-82.66721318328324
8.329999872,0.9993025990017393,-82.98756190248483
8.339999744,0.9992820750736353,-83.30744468086935
8.350000128,0.9992978442273034,-83.62733735274023
8.36,0.9993494453779641,-83.94769161609125
8.369999872,0.9994342544501083,-84.26899887874697
8.380000256,0.9995480864022065,-84.5916591603277
8.390000128,0.9996852390946349,-84.91596574392165
8.4,0.9998385588293248,-85.24219151118515
8.409999872,1.0000003981329617,-85.57053883745678
8.419999744,1.000162650304573,-85.90103655963752
8.430000128,1.0003170417520797,-86.2336251042779
8.44,1.0004555601376486,-86.56815887794228
8.449999872,1.0005711823136954,-86.90440672762128
8.460000256,1.0006581352232735,-87.24203800379286
8.470000128,1.0007119542295722,-87.58062820073818
8.48,1.0007297503820927,-87.91971724440864
8.489999872,1.0007105768705595,-88.25886249820714
8.499999744,1.0006552097440147,-88.59760730852075
8.510000128,1.000566687504625,-88.93544516837217
8.52,1.0004492300217247,-89.27201013051564
8.529999872,1.0003088030229317,-89.60696582130498
8.540000256,1.0001524202415495,-89.94004313503191
8.550000128,0.9999880675150034,-90.27110376615812
8.56,0.9998240380531443,-90.60003420885657
8.569999872,0.9996687160999813,-90.92697815288705
8.579999744,0.999529938952615,-91.25204036623948
8.590000128,0.9994148387768887,-91.5754911041074
8.600000512,0.9993292724680035,-91.89766914366541
8.609999872,0.9992778077895269,-92.21900058825577
8.620000256,0.9992629595222279,-92.53996018534282
8.629999616,0.9992856071428341,-92.8609780090399
8.64,0.9993446873622479,-93.18257776234672
8.650000384,0.9994373176376098,-93.50522807697796
8.659999744,0.9995587050842907,-93.82928967052361
8.670000128,0.9997028282025775,-94.15512620666462
8.679999488,0.9998623841454803,-94.48297903585028
8.689999872,1.000029490159132,-94.81299997411982
8.700000256,1.0001952466790518,-95.14523229746787
8.709999616,1.0003515134699859,-95.47959883846708
8.72,1.0004903823498301,-95.8159440416723
8.730000384,1.000604565912969,-96.15400878042932
8.739999744,1.0006883961599102,-96.49338733521681
8.750000128,1.000737455614234,-96.83367355382569
8.760000512,1.0007493533107314,-97.1744580473971
8.769999872,1.0007232123226422,-97.51515620207165
8.780000256,1.0006604897809286,-97.85535893840836
8.789999616,1.000564073857938,-98.19460080202893
8.8,1.0004389063666268,-98.53244440996397
8.810000384,1.0002912384289089,-98.86859584353316
8.819999744,1.000128578220258,-99.20277126480384
8.830000128,0.9999591515096858,-99.53481695214462
8.839999488,0.9997914098375522,-99.8647424496038
8.849999872,0.9996340097684205,-100.19262868347059
8.860000256,0.9994950650161305,-100.51859104744429
8.869999616,0.9993815556564075,-100.84296115940779
8.88,0.9992992707232956,-101.16613492258037
8.890000384,0.9992524180052926,-101.48848969100925
8.899999744,0.9992437203772538,-101.81049909156029
8.910000128,0.9992734373040607,-102.13272183441865
8.920000512,0.9993401330096897,-102.45559782802259
8.929999872,0.9994407406813174,-102.77960529924057
8.940000256,0.9995700209503087,-103.10514024017611
8.949999616,0.9997215009320447,-103.4325637589722
8.96,0.9998874609015682,-103.76207586891506
8.970000384,1.0000595565247417,-104.09383629996584
8.979999744,1.0002289995586664,-104.42787380355081
8.990000128,1.0003872529316953,-104.76409250898611
8.999999488,1.0005263031947824,-105.10230457606163
9.009999872,1.0006389138063985,-105.44216449445794
9.020000256,1.0007193673571382,-105.78338587606359
9.029999616,1.000763618993337,-106.1254444480751
9.04,1.0007693389303685,-106.46787288955645
9.050000384,1.0007360264762488,-106.81021503574223
9.059999744,1.0006653070502889,-107.15194937342086
9.070000128,1.0005608462989977,-107.49260049948182
9.080000512,1.0004277222949163,-107.83175274240094
9.089999872,1.0002726909694517,-108.16909889401167
9.100000256,1.0001035566735845,-108.50439470686761
9.109999616,0.9999288035997527,-108.83753725483945
9.12,0.9997574907375378,-109.16843015769685
9.130000384,0.9995982189371608,-109.49726484878781
9.139999744,0.9994590038495015,-109.82418592549094
9.150000128,0.9993471136108634,-110.14952821569872
9.159999488,0.9992682262407674,-110.47367413597604
9.169999872,0.9992263954291181,-110.79706679632736
9.180000256,0.9992240146936,-111.12021230510858
9.189999616,0.9992611130107949,-111.44363107778422
9.2,0.9993359058837872,-111.76779215490578
9.210000384,0.9994446798955553,-112.09321230886745
9.219999744,0.9995820085255295,-112.4202975715231
9.230000128,0.9997409765841071,-112.74931359766967
9.240000512,0.9999135037612956,-113.08054585975805
9.249999872,1.0000909085376273,-113.41410009395028
9.260000256,1.0002640819569097,-113.74999775287353
9.269999616,1.0004243229256125,-114.08810589062253
9.28,1.0005635136780282,-114.42821069455245
9.290000384,1.0006743732376748,-114.77000498756816
9.299999744,1.000751397525472,-115.11307151532186
9.310000128,1.0007905612591343,-115.45694672786422
9.319999488,1.0007897657694937,-115.80113514753984
9.329999872,1.0007489105539795,-116.14512407446946
9.340000256,1.0006701757310592,-116.48840573737355
9.349999616,1.0005572926830757,-116.83048082802244
9.36,1.000415924283034,-117.17100185411097
9.370000384,1.0002532573823841,-117.50959759580392
9.379999744,1.000077477454789,-117.84604826519887
9.390000128,0.9998974219472991,-118.18025252433169
9.400000512,0.9997222178569211,-118.51218156391776
9.409999872,0.9995609337761212,-118.84197301542994
9.420000256,0.9994215962307531,-119.16987754708848
9.429999616,0.999311431369383,-119.49618224590249
9.44,0.9992361697474518,-119.82132618200775
9.450000384,0.9991995619001384,-120.14579317103683
9.459999744,0.9992037183090009,-120.4700785365429
9.470000128,0.9992484175301954,-120.7947514161606
9.479999488,0.999331517408021,-121.12025592698159
9.489999872,0.9994488672015196,-121.4471476028512
9.500000256,0.9995945895924581,-121.77576710550255
9.509999616,0.9997613227741823,-122.10648085335197
9.52,0.9999405421208866,-122.43948219055653
9.530000384,1.0001233577287392,-122.77487885812421
9.539999744,1.0003003539669744,-123.11269010379982
9.550000128,1.000462656810144,-123.45274025765585
9.560000512,1.0006019326755475,-123.79480207871383
9.569999872,1.000710978927308,-124.13855119679428
9.580000256,1.000784337577471,-124.48352962071937
9.589999616,1.000818165133396,-124.82926954834166
9.6,1.0008106708991067,-125.17525554219218
9.610000384,1.0007621238017659,-125.52095276118806
9.619999744,1.0006748977367967,-125.86581329038471
9.630000128,1.0005533006833454,-126.20938054152465
9.639999488,1.0004034491485585,-126.5512548491126
9.649999872,1.0002328605825328,-126.8911304922424
9.660000256,1.0000501685295153,-127.22875652023303
9.669999616,0.9998645338380638,-127.56403988764329
9.68,0.9996854734021461,-127.89702593741218
9.690000384,0.9995220315663028,-128.22782141060293
9.699999744,0.9993825962553355,-128.55670594335126
9.710000128,0.9992744007071502,-128.88399372576794
9.720000512,0.9992028467427506,-129.2101651251927
9.729999872,0.99917172888232,-129.5357345926818
9.740000256,0.9991827244101362,-129.8612117502012
9.749999616,0.9992353807242178,-130.18714113567057
9.76,0.9993270966414083,-130.51404000185127
9.770000384,0.9994534074085286,-130.84240064081914
9.779999744,0.9996077495474928,-131.17263210664134
9.790000128,0.9997825242839805,-131.50505805761446
9.799999488,0.9999689282173516,-131.83987482328956
9.809999872,1.0001573723376287,-132.17717935614655
9.820000256,1.000338337213225,-132.51694179256975
9.829999616,1.0005025975189563,-132.85900878332487
9.84,1.000641949946509,-133.20311198716362
9.850000384,1.000749150037189,-133.5488616776819
9.859999744,1.0008186614493133,-133.8958184220684
9.870000128,1.0008469236405009,-134.24347328573035
9.880000512,1.000832388851906,-134.5912972287014
9.889999872,1.000775762218162,-134.93872275096464
9.900000256,1.0006797371063076,-135.2852457955986
9.909999616,1.0005490547930591,-135.63033258982205
9.92,1.000390341854544,-135.97362111735674
9.930000384,1.0002115226597714,-136.31479549030539
9.939999744,1.0000216146205845,-136.6536227409516
9.950000128,0.9998302619437287,-136.9900076833569
9.959999488,0.9996471409898393,-137.32405894712574
9.969999872,0.9994816272724092,-137.65585826900892
9.980000256,0.9993421487100284,-137.98573655202497
9.989999616,0.9992357915282628,-138.3140523569313
10.0,0.9991681249744035,-138.64128941107583
10.010000384,0.9991427271792439,-138.96796440909645
10.019999744,0.9991608984880596,-139.2946243061951
10.030000128,0.9992218317903198,-139.62183957566626
10.040000512,0.9993225744126694,-139.95017388860322
10.049999872,0.9994581066674417,-140.28005373667187
10.060000256,0.9996215875958079,-140.611954724203
10.069999616,0.9998047853943046,-140.94613755640103
10.08,0.9999984682065338,-141.28282258604474
