freq,mag,phase
6.0,1.000054574337234,-68.41184692446919
6.003531776,1.0000487066254777,-68.58546666712817
6.007064064,1.0000396181553814,-68.75904877882323
6.01059584,1.0000280850117595,-68.93248021469249
6.014128128,1.0000150005234274,-69.10579852186734
6.017659904,1.0000009039993736,-69.27895062578241
6.021192192,0.9999870874281908,-69.45194142090554
6.024723968,0.9999742514235297,-69.62478779664936
6.028256256,0.9999629940352461,-69.79749299678947
6.031788032,0.9999542797389974,-69.97012201250908
6.03532032,0.9999484054405205,-70.14263610255333
6.038852096,0.9999457046025215,-70.31515139165958
6.042383872,0.9999465179676191,-70.48766384758623
6.04591616,0.9999510145997155,-70.66031054614456
6.049447936,0.9999585520544924,-70.83298210582075
6.052980224,0.9999685636729593,-71.00593092643162
6.056512,0.9999806395058056,-71.17901130596341
6.060044288,0.9999944746365993,-71.35231114916732
6.063576064,1.0000083791577903,-71.52586829878052
6.067108352,1.0000221479800353,-71.6996508451145
6.070640128,1.0000347328682253,-71.87365267408744
6.074172416,1.0000453386342787,-72.04786775246387
6.077704192,1.0000531761075864,-72.2222333731431
6.081235968,1.0000581623885265,-72.39673809837149
6.084768256,1.0000595665157221,-72.57129452557812
6.088300032,1.0000575451874847,-72.74592487533974
6.09183232,1.000052048323252,-72.92052786708815
6.095364096,1.000043465849526,-73.09510309936421
6.098896384,1.0000324170015789,-73.26951121478265
6.10242816,1.0000197289968922,-73.44383023252777
6.105960448,1.000005864942782,-73.61798167616283
6.109492224,0.9999914691470418,-73.79197005642217
6.113024512,0.9999780954147974,-73.96580372841602
6.116556288,0.9999659485483618,-74.13949992456936
6.120088064,0.9999560596490332,-74.31302156591472
6.123620352,0.9999491143192129,-74.48650270099867
6.127152128,0.9999453178150196,-74.65993786558633
6.130684416,0.9999450275063027,-74.8333804475015
6.134216192,0.9999481551298507,-75.00688894505001
6.13774848,0.999954788338188,-75.18047316801962
6.141280256,0.9999642565165514,-75.35422855268244
6.144812544,0.9999760527958798,-75.5281508327742
6.14834432,0.9999893765492177,-75.70232962313017
6.151876608,1.0000035252447186,-75.87673914454531
6.155408384,1.0000177618290045,-76.05134667075876
6.15894016,1.000030943821852,-76.22619879496425
6.162472448,1.0000425452772497,-76.40125734084889
6.166004224,1.0000514705167172,-76.57651633741426
6.169536512,1.000057718128034,-76.75192748898127
6.173068288,1.0000602404360668,-76.92741120959052
6.176600576,1.0000592851690595,-77.10297331939596
6.180132352,1.0000550690171595,-77.27850352874948
6.18366464,1.0000474220981697,-77.45401621972029
6.187196416,1.000037119518385,-77.62942323239855
6.190728704,1.0000245567534969,-77.80468292933234
6.19426048,1.00001062112361,-77.97981536409544
6.197792256,0.9999962064142508,-78.15478939213178
6.201324544,0.9999821291813831,-78.32957588800753
6.20485632,0.9999692957201413,-78.50420376900239
6.208388608,0.9999584898299452,-78.67870331852566
6.211920384,0.9999503069945308,-78.8531255637593
6.215452672,0.9999451577275431,-79.02743544248493
6.218984448,0.9999437984660758,-79.20178313028629
6.222516736,0.9999457280426121,-79.37617496913533
6.226048512,0.9999513114807639,-79.55059379714456
6.2295808,0.9999597845491349,-79.72522483526667
6.233112576,0.999970996743177,-79.89997176439344
6.236644352,0.9999843086244263,-80.07495124524236
6.24017664,0.9999985324478027,-80.25016905055541
6.243708416,1.0000131240780241,-80.42561895536389
6.247240704,1.0000269110968032,-80.60130302955928
6.25077248,1.0000393259528775,-80.77718136773787
6.254304768,1.0000493531634846,-80.95328568409829
6.257836544,1.0000566259673151,-81.12956775462509
6.261368832,1.0000605764335055,-81.30596068920744
6.264900608,1.0000609123592952,-81.48240223098504
6.268432896,1.0000576866667141,-81.65885492349908
6.271964672,1.0000509436740221,-81.83530542366769
6.275496448,1.0000414131415931,-82.01163123441846
6.279028736,1.0000292669185151,-82.1878809600149
6.282560512,1.0000156952745844,-82.363954907745
6.2860928,1.0000011008483698,-82.53985097867647
6.289624576,0.9999865730431254,-82.7156088250247
6.293156864,0.9999729549595219,-82.89116354592487
6.29668864,0.9999612774744707,-83.06658091921655
6.300220928,0.9999518032938844,-83.24189789566691
6.303752704,0.9999455915879852,-83.41714699588054
6.307284992,0.9999427797050485,-83.59231363522558
6.310816768,0.9999437068519494,-83.7675587689969
6.314348544,0.9999481167555095,-83.94286540696014
6.317880832,0.9999558191003447,-84.11827809356113
6.321412608,0.999966375926694,-84.29381729474346
6.324944896,0.9999791886209549,-84.46960151553286
6.328476672,0.999993310330722,-84.64561218247957
6.33200896,1.0000081068244018,-84.82185833442956
6.335540736,1.0000224682414822,-84.99834878744616
6.339073024,1.000035722451633,-85.17508155317597
6.3426048,1.0000468127486377,-85.35198867516324
6.346137088,1.0000551424537674,-85.5291369670792
6.349668864,1.0000602199470092,-85.70634193713914
6.35320064,1.0000619515238391,-85.88364167293993
6.356732928,1.000059736642591,-86.06100555368361
6.360264704,1.000054236587415,-86.23833886988528
6.363796992,1.0000454912426828,-86.41560416963397
6.367328768,1.0000339223310986,-86.59273322828582
6.370861056,1.000020504070242,-86.76974806795924
6.374392832,1.0000058753227232,-86.94658625412043
6.37792512,0.9999910893114395,-87.12324126071499
6.381456896,0.9999769477927665,-87.29971944807791
6.384989184,0.9999642314953239,-87.47605560185937
6.38852096,0.9999537908773874,-87.65228024997982
6.392052736,0.9999462953710063,-87.82834622189493
6.395585024,0.9999423967257245,-88.00441452862485
6.3991168,0.999941979350382,-88.18047874216033
6.402649088,0.9999451470836174,-88.35656811353897
6.406180864,0.9999519187968936,-88.53278278845352
6.409713152,0.9999615908278107,-88.7091443240154
6.413244928,0.9999739930634506,-88.88569767596826
6.416777216,0.9999878879812172,-89.06250249621895
6.420308992,1.0000027971072827,-89.23948662976817
6.42384128,1.0000177199538038,-89.41674506202962
6.427373056,1.000031513824393,-89.59424362481806
6.430904832,1.000043684866817,-89.77194056626362
6.43443712,1.000053192697444,-89.94985641583595
6.437968896,1.0000594751718073,-90.12793736166584
6.441501184,1.0000625490290924,-90.3060732635002
6.44503296,1.0000615921620246,-90.48428837749601
6.448565248,1.0000572459016142,-90.66245006512888
6.452097024,1.000049331065674,-90.8405938372182
6.455629312,1.0000385318978404,-91.01863221928066
6.459161088,1.0000255343028877,-91.19653470076442
6.462693376,1.0000110333282177,-91.37430852243203
6.466225152,0.9999958428301939,-91.55183052450359
6.469756928,0.9999812395296996,-91.72922723722802
6.473289216,0.9999676405903196,-91.90643236678032
6.476820992,0.9999562407352979,-92.08349930602203
6.48035328,0.9999475717844586,-92.2604541345179
6.483885056,0.999942230056702,-92.43732144469568
6.487417344,0.9999405276016652,-92.61421120416435
6.49094912,0.9999425006659781,-92.79109144648127
6.494481408,0.999948208585505,-92.96809510111821
6.498013184,0.9999570568948861,-93.14520349293842
6.501545472,0.9999687960199966,-93.3225068979531
6.505077248,0.9999825171550705,-93.50001923621129
6.508609024,0.9999973442686,-93.67778149305789
6.512141312,1.0000126304913104,-93.855768544519
6.515673088,1.000027058541117,-94.03399801373556
6.519205376,1.0000400146181836,-94.21247482224939
6.522737152,1.0000507654515458,-94.39115906649016
6.52626944,1.0000583777105088,-94.56996001914509
6.529801216,1.0000625571286075,-94.74891214553118
6.533333504,1.0000630929507084,-94.92794178564286
6.53686528,1.0000597053363558,-95.10697999877172
6.540397568,1.0000529715248256,-95.28594228002503
6.543929344,1.0000429619388047,-95.46484587107517
6.54746112,1.0000304672899651,-95.64360266642915
6.550993408,1.0000161456399141,-95.8222623874252
6.554525184,1.0000009431262282,-96.00063351987586
6.558057472,0.9999856673383433,-96.17888514494803
6.561589248,0.9999715027545057,-96.35695979494395
6.565121536,0.9999590802650008,-96.53488864028795
6.568653312,0.9999492690080306,-96.71263979366928
6.5721856,0.9999426262304486,-96.89034927140531
6.575717376,0.9999394976124927,-97.06798576729855
6.579249664,0.99994032572616,-97.24564564826359
6.58278144,0.9999447543365964,-97.42343452466982
6.586313216,0.9999527728163283,-97.60126111627882
6.589845504,0.9999637264386229,-97.77927688777173
6.59337728,0.9999770402895204,-97.957504933188
6.596909568,0.9999918263348359,-98.13593773361826
6.600441344,1.0000072602131476,-98.31464120989838
6.603973632,1.0000223070209953,-98.49357244667081
6.607505408,1.0000361242431774,-98.67278770534554
6.611037696,1.0000478222280123,-98.85218886758692
6.614569472,1.0000566461148923,-99.03175658405729
6.61810176,1.0000622031635051,-99.21145222436962
6.621633536,1.0000641060761963,-99.39126328014561
6.625165312,1.0000621052201961,-99.57106102540527
6.6286976,1.0000564632287934,-99.75087705036835
6.632229376,1.0000472696462193,-99.9305651473871
6.635761664,1.0000354808170038,-100.11019012725427
6.63929344,1.0000214040946673,-100.28962603085598
6.642825728,1.0000061869228496,-100.46888420953053
6.646357504,0.9999907391822251,-100.64797602544708
6.649889792,0.9999758219299377,-100.82686689419772
6.653421568,0.9999623889537214,-101.00559859527861
6.656953856,0.9999515184747538,-101.18417522567522
6.660485632,0.9999435390133588,-101.36262877812808
6.664017408,0.9999391491298075,-101.54104165792444
6.667549696,0.9999385106915674,-101.71947707066232
6.671081472,0.9999418205965708,-101.89788790347434
6.67461376,0.9999487156896322,-102.07648773142547
6.678145536,0.9999588550764771,-102.25516215985127
6.681677824,0.9999716096218532,-102.43407753642052
6.6852096,0.9999862479202061,-102.6131618292292
6.688741888,1.0000017335363405,-102.79256356208202
6.692273664,1.000017270042769,-102.97214890294421
6.695805952,1.000031813490611,-103.15203127760262
6.699337728,1.0000446259269025,-103.33212627030322
6.702869504,1.000054657758256,-103.51239708060582
6.706401792,1.0000614917076966,-103.69279962003948
6.709933568,1.000064757041699,-103.8733174574169
6.713465856,1.0000640719088958,-104.05393278390538
6.716997632,1.0000594661829372,-104.23451369685806
6.72052992,1.000051320840106,-104.41499936447218
6.724061696,1.0000402031982691,-104.59539979648181
6.727593984,1.0000267286673068,-104.77564089079216
6.73112576,1.0000116116760394,-104.9556993452735
6.734658048,0.9999958406273286,-105.13559741630097
6.738189824,0.99998040408737,-105.31525225226143
6.7417216,0.9999661717062895,-105.49477679814532
6.745253888,0.9999540500979346,-105.67413418622552
6.748785664,0.9999449197730013,-105.85334576482758
6.752317952,0.9999391358759862,-106.03251204191336
6.755849728,0.9999371882789655,-106.21160867904692
6.759382016,0.9999391462702536,-106.39074792561428
6.762913792,0.9999449144200276,-106.56999353495775
6.76644608,0.9999541556627232,-106.7493013892619
6.769977856,0.9999662384195591,-106.92887891339727
6.773510144,0.999980505967826,-107.1086189829731
6.77704192,0.9999960143781492,-107.28863069806025
6.780573696,1.0000118134968883,-107.46887043530138
6.784105984,1.00002713339438,-107.64932944494643
6.78763776,1.000040761712666,-107.8300883782129
6.791170048,1.0000520234381056,-108.01100004917274
6.794701824,1.0000601779757277,-108.19210892338178
6.798234112,1.0000647416299964,-108.37334016169899
6.801765888,1.0000654201965151,-108.55459011199463
6.805298176,1.0000622497984144,-108.73591074502636
6.808829952,1.0000551831040871,-108.91715912636083
6.81236224,1.0000449090345556,-109.09830902588926
6.815894016,1.0000319191369065,-109.27932306884873
6.819426304,1.000017086451829,-109.46014475375081
6.82295808,1.0000011886944629,-109.64082559341907
6.826489856,0.9999852009248554,-109.82125476793254
6.830022144,0.9999703139792427,-110.00148836305414
6.83355392,0.9999572776207752,-110.18158022503881
6.837086208,0.9999468776016565,-110.36152849347869
6.840617984,0.9999398711785837,-110.54137510554646
6.844150272,0.9999363227644591,-110.72114197650633
6.847682048,0.9999369821332015,-110.90095306943826
6.851214336,0.999941482604343,-111.08084725470323
6.854746112,0.9999496911939667,-111.26077436158492
6.8582784,0.9999609929461973,-111.44094258986343
6.861810176,0.9999747350732504,-111.62127041241861
6.865341952,0.9999902027579595,-111.80187274998912
6.86887424,1.0000063085150903,-111.98267168870034
6.872406016,1.000022133667945,-112.16377015848143
6.875938304,1.0000366951658357,-112.3450799683247
6.87947008,1.0000490645441151,-112.52664869444042
6.883002368,1.0000585170969465,-112.7083829955731
6.886534144,1.0000644213551568,-112.89026701752752
6.890066432,1.0000665533168833,-113.0721751261651
6.893598208,1.0000646480705988,-113.25415315218928
6.897130496,1.0000588549285687,-113.43610308850347
6.900662272,1.0000495023397704,-113.61797023526168
6.904194048,1.0000371244358428,-113.79969413740253
6.907726336,1.0000226172413307,-113.98127912309792
6.911258112,1.0000068301435374,-114.16264772913446
6.9147904,0.9999904950969853,-114.34385002909933
6.918322176,0.9999748646865669,-114.52480210572867
6.921854464,0.9999607993799253,-114.70556054427803
6.92538624,0.9999492269728424,-114.88620430873281
6.928918528,0.9999408105108195,-115.06672875596828
6.932450304,0.9999360284271125,-115.24715448928198
6.935982592,0.9999352887765746,-115.42756431106008
6.939514368,0.9999384893338855,-115.60802494105653
6.943046144,0.9999455110172114,-115.78856801187905
6.946578432,0.999955920906218,-115.96930447691523
6.950110208,0.999969117889743,-116.1501836168505
6.953642496,0.9999844646354709,-116.33132163091847
6.957174272,1.00000059212837,-116.51269462726934
6.96070656,1.0000167949919445,-116.6943407268219
6.964238336,1.0000321145435445,-116.87620854728166
6.967770624,1.0000455390866512,-117.05832533625711
6.9713024,1.0000562785787455,-117.24060134453714
6.974834688,1.0000635939922773,-117.42306649484203
6.978366464,1.0000670519907213,-117.60564402974963
6.98189824,1.000066604472935,-117.78826467071777
6.985430528,1.0000620552486503,-117.97083034502243
6.988962304,1.0000537468934447,-118.15338279045483
6.992494592,1.000042246839575,-118.33577058810447
6.996026368,1.0000281969430584,-118.51804645471178
6.999558656,1.000012454340864,-118.70006351181858
7.003090432,0.9999959275534792,-118.88194459655688
7.00662272,0.9999797686136129,-119.06358813329177
7.010154496,0.9999648300765984,-119.24505910045025
7.013686784,0.9999521665312071,-119.4263157904463
7.01721856,0.999942367056534,-119.60744253186915
7.020750336,0.9999361724603902,-119.78852278818441
7.024282624,0.9999339106693833,-119.96949406311333
7.0278144,0.9999357785709877,-120.15054043384703
7.031346688,0.999941663285137,-120.33162213641373
7.034878464,0.9999510895031976,-120.5128937966101
7.038410752,0.9999636150195823,-120.69427609009487
7.041942528,0.9999783756621808,-120.87591079989197
7.045474816,0.9999946055880912,-121.05777457347689
7.049006592,1.0000111713112296,-121.23990915562759
7.05253888,1.000027172086742,-121.42227327055664
7.056070656,1.0000415339088957,-121.6049283362231
7.059602432,1.0000534725256154,-121.78777409660786
7.06313472,1.0000622185403518,-121.97076591856579
7.066666496,1.0000671957023937,-122.15388469534464
7.070198784,1.0000681036594878,-122.3370732919937
7.07373056,1.0000649035474396,-122.52029312517462
7.077262848,1.0000577344591983,-122.70343383827267
7.080794624,1.0000471368671884,-122.8864667769229
7.084326912,1.0000336468313915,-123.069350571387
7.087858688,1.0000181553224479,-123.25203792586419
7.091390976,1.0000015855464255,-123.43456519038553
7.094922752,0.9999849048707189,-123.61682311139796
7.098454528,0.9999692285750129,-123.7989129233092
7.101986816,0.9999554835171075,-123.98079490775031
7.105518592,0.999944388776051,-124.16253958587708
7.10905088,0.9999368119927415,-124.34413728733752
7.112582656,0.9999330729795569,-124.5257070002187
7.116114944,0.9999335288296051,-124.70724240583188
7.11964672,0.9999380097323944,-124.88883703704496
7.123179008,0.9999463615519331,-125.0705722333657
7.126710784,0.9999581211183375,-125.25246741475775
7.130243072,0.9999724066569159,-125.43455539976179
7.133774848,0.9999883995092818,-125.61687997095693
7.137306624,1.0000053019945792,-125.79945136865726
7.140838912,1.000021806062368,-125.98228065554544
7.144370688,1.0000371095951988,-126.165367241873
7.147902976,1.000050092349413,-126.34868638852691
7.151434752,1.000060228006703,-126.53218025126414
7.15496704,1.000066689637144,-126.71582071684557
7.158498816,1.000069036825955,-126.8995420367045
7.162031104,1.0000671967494643,-127.08329647525856
7.16556288,1.0000613907677027,-127.26699730558566
7.169095168,1.0000517852234958,-127.45062801083571
7.172626944,1.0000391333140073,-127.63409840867315
7.17615872,1.000023930941124,-127.81740609826849
7.179691008,1.0000074290839809,-128.00049279608695
7.183222784,0.9999903906089882,-128.18336413284408
7.186755072,0.9999740546004774,-128.3660210394819
7.190286848,0.9999592509036769,-128.54845601599723
7.193819136,0.9999469960152518,-128.73076173985908
7.197350912,0.9999379263049173,-128.9129038271809
7.2008832,0.9999326966348695,-129.0949738289752
7.204414976,0.9999317099050327,-129.2770005700189
7.207947264,0.9999347716489093,-129.45909414288494
7.21147904,0.9999419546920607,-129.64124237482793
7.215010816,0.9999526736436442,-129.82355330660283
7.218543104,0.9999664007193332,-130.00605799516407
7.22207488,0.9999821952135219,-130.18878586145132
7.225607168,0.9999990731046239,-130.37174256103094
7.229138944,1.0000160699915217,-130.5550144910077
7.232671232,1.0000321689748664,-130.738516531375
7.236203008,1.0000463402695752,-130.92222730332435
7.239735296,1.00005765444373,-131.10617985936852
7.243267072,1.000065582318196,-131.29024728697664
7.24679936,1.000069429237269,-131.47446953322202
7.250331136,1.0000691117564406,-131.65871009160966
7.253862912,1.0000645697261181,-131.84290767154923
7.2573952,1.0000561241045776,-132.0270771602101
7.260926976,1.0000442423636084,-132.21106437424808
7.264459264,1.000029657370801,-132.39492102797644
7.26799104,1.0000133090379095,-132.57860449753667
7.271523328,0.9999960422700555,-132.76201084855518
7.275055104,0.999979130918656,-132.945188675134
7.278587392,0.9999634790543838,-133.12818732669336
7.282119168,0.9999500030368723,-133.3109709219235
7.285651456,0.9999396400921619,-133.49362373390045
7.289183232,0.9999328698201726,-133.67615624189543
7.292715008,0.9999303310424299,-133.85861256531658
7.296247296,0.9999320142867837,-134.04112508785482
7.299779072,0.9999378919351687,-134.22367158114702
7.30331136,0.9999476099305479,-134.40637696997152
7.306843136,0.9999604752750381,-134.58926726437292
7.310375424,0.9999758452657393,-134.7723376019002
7.3139072,0.9999927379651595,-134.95566568959086
7.317439488,1.000010101958842,-135.13926718316873
7.320971264,1.0000268441790048,-135.3231271458451
7.324503552,1.0000420368067244,-135.50723137787134
7.328035328,1.000054616746477,-135.69153990947825
7.331567104,1.0000639357897696,-135.87602286406818
7.335099392,1.0000693387901753,-136.06065086128817
7.338631168,1.0000705466155542,-136.24529310342194
7.342163456,1.000067406151582,-136.42998303899574
7.345695232,1.0000601624345455,-136.61460624517866
7.34922752,1.0000492833812586,-136.7991177328892
7.352759296,1.0000353832457247,-136.9834525196775
7.356291584,1.0000193117982727,-137.16760502793912
7.35982336,1.000001970370811,-137.3515254117111
7.363355648,0.9999845350993058,-137.53520593047375
7.366887424,0.9999680518157531,-137.71868666615183
7.3704192,0.9999535511688425,-137.90193203106236
7.373951488,0.9999417756129505,-138.08505648179244
7.377483264,0.9999336027085578,-138.26798730572304
7.381015552,0.9999295535082414,-138.45088941965906
7.384547328,0.9999297198596387,-138.63373545476404
7.388079616,0.9999342382705778,-138.816686569833
7.391611392,0.9999427430117719,-138.99970503725265
7.39514368,0.9999547328845578,-139.18291859170043
7.398675456,0.999969652881307,-139.3662982621989
7.402207744,0.9999863459025782,-139.54993449250085
7.40573952,1.0000038721294628,-139.73382071798557
7.409271296,1.0000212041282197,-139.9179781659909
