freq,mag,phase
6.0,1.0003760833225763,-45.55650138902684
6.00689664,1.0005762506631986,-45.857524476065336
6.01379328,1.000742984346177,-46.161161299865725
6.020689408,1.000868886095411,-46.46686979588675
6.027586048,1.0009469775646753,-46.774100203331294
6.034482688,1.0009725957195021,-47.082171909057244
6.041379328,1.0009448233988816,-47.390297331245634
6.048275968,1.000864694064525,-47.697816989696044
6.055172608,1.0007368206395577,-48.00406557411757
6.062068736,1.0005683891647779,-48.308415230700206
6.068965376,1.0003684008940417,-48.61036844380231
6.075862016,1.0001481644405208,-48.90955838090672
6.082758656,0.9999196931293345,-49.205861588390796
6.089655296,0.9996961421182364,-49.49913910952027
6.096551936,0.9994894642550989,-49.78965855761531
6.103448064,0.9993113722612632,-50.077643793226905
6.110344704,0.999171977082947,-50.3635668180932
6.117241344,0.9990785902073593,-50.648031528542674
6.124137984,0.999036794094358,-50.93163567700447
6.131034624,0.9990491845685352,-51.215161024514586
6.137931264,0.999114674707651,-51.49931484811212
6.144827392,0.9992298550222868,-51.78483260157681
6.151724032,0.9993882105432649,-52.07232845612493
6.158620672,0.9995810375604247,-52.362295106292116
6.165517312,0.9997977094459495,-52.655224160524995
6.172413952,1.0000259368147095,-52.95124385586358
6.179310592,1.00025326219303,-53.25047453169434
6.18620672,1.000467040612597,-53.55282929272111
6.19310336,1.0006553274195844,-53.85800128155942
6.2,1.0008074605646768,-54.16564741028543
6.20689664,1.0009154080435019,-54.475123954205934
6.21379328,1.0009727259456191,-54.785839031738284
6.220689408,1.000976473418289,-55.09712996207938
6.227586048,1.0009263762587617,-55.40815538516628
6.234482688,1.0008250972492378,-55.71829672820339
6.241379328,1.0006780316099235,-56.02692302619033
6.248275968,1.0004936675430505,-56.33333039893696
6.255172608,1.0002821825718105,-56.63720420850152
6.262068736,1.0000550202827638,-56.938194666078225
6.268965376,0.9998248880472025,-57.23623621199297
6.275862016,0.9996046521898801,-57.53128231471877
6.282758656,0.9994066031339558,-57.823585494210306
6.289655296,0.9992416630883872,-58.1135449197041
6.296551936,0.9991192559007078,-58.40160958801271
6.303448064,0.9990460304272836,-58.68847544874406
6.310344704,0.9990261054133985,-58.974850849347476
6.317241344,0.9990607120047957,-59.26138800578536
6.324137984,0.9991477900637266,-59.54887241567332
6.331034624,0.9992828695676238,-59.83798984897032
6.337931264,0.999458282238292,-60.12934261762862
6.344827392,0.9996638610806127,-60.42333874113223
6.351724032,0.9998890544023146,-60.72042526692775
6.358620672,1.0001205447156785,-61.020688970639824
6.365517312,1.000345897351534,-61.324194881388834
6.372413952,1.0005526359777281,-61.63075164466869
6.379310592,1.0007290377765543,-61.94003120809239
6.38620672,1.0008654202497942,-62.25153758297882
6.39310336,1.0009539203127973,-62.56470748155899
6.4,1.0009900936888256,-62.878836500515746
6.40689664,1.0009715975199325,-63.19313870331599
6.41379328,1.0008995799949967,-63.50699897960721
6.420689408,1.000777681032246,-63.819620989465584
6.427586048,1.0006129276947173,-64.13043105496138
6.434482688,1.0004143009458664,-64.43890923517475
6.441379328,1.0001928073304478,-64.74462122603934
6.448275968,0.9999608010814269,-65.04736928557965
6.455172608,0.9997310078507199,-65.34705665765166
6.462068736,0.9995162012355132,-65.64388400637989
6.468965376,0.9993286652638916,-65.93805950068445
6.475862016,0.9991784881472647,-66.23003119160948
6.482758656,0.9990742109871115,-66.52038483804215
6.489655296,0.9990216239671406,-66.80977247819848
6.496551936,0.999023746511375,-67.09889664253429
6.503448064,0.9990804853494002,-67.38855548616326
6.510344704,0.9991887552330373,-67.67943826497812
6.517241344,0.999342506146113,-67.97219211116486
6.524137984,0.9995332275282232,-68.26742535634874
6.531034624,0.9997501363336525,-68.5655415237082
6.537931264,0.9999816323938623,-68.86677928893488
6.544827392,1.0002146618307484,-69.17133723427189
6.551724032,1.0004360509789008,-69.47904291407472
6.558620672,1.000633753931694,-69.78973495552353
6.565517312,1.0007967428214335,-70.10297810815568
6.572413952,1.0009159221597033,-70.41828991840204
6.579310592,1.0009846136031553,-70.73492929133664
6.58620672,1.0009990181477428,-71.05225583949995
6.59310336,1.0009583921473069,-71.36956350179004
6.6,1.000864794711357,-71.6860260684432
6.60689664,1.0007235452975258,-72.00102100752076
6.61379328,1.0005421518446518,-72.31394125545361
6.620689408,1.0003309018020663,-72.62434849659417
6.627586048,1.0001014390966645,-72.93183157827005
6.634482688,0.9998664707653271,-73.23624168952081
6.641379328,0.9996388951248893,-73.53764403445079
6.648275968,0.9994315125215611,-73.83617464618997
6.655172608,0.9992559432840267,-74.13224129998183
6.662068736,0.9991218635003054,-74.42627562023324
6.668965376,0.9990367921291043,-74.71892578784312
6.675862016,0.9990054260434788,-75.01089240239034
6.682758656,0.9990296839285208,-75.30290101326007
6.689655296,0.9991081819855891,-75.59571573772841
6.696551936,0.9992367505263764,-75.89003034547389
6.703448064,0.9994079671362253,-76.18651712214455
6.710344704,0.9996126013320962,-76.48566106878303
6.717241344,0.9998390857314955,-76.78785696816503
6.724137984,1.000075094633822,-77.09328394515973
6.731034624,1.0003072319807464,-77.40197722436035
6.737931264,1.000522819935662,-77.7138710816066
6.744827392,1.0007098954616478,-78.02857124918361
6.751724032,1.0008579364136665,-78.34564801000539
6.758620672,1.0009589830830297,-78.66456710847969
6.765517312,1.0010070116051617,-78.98456716596307
6.772413952,1.0009996524605864,-79.30498251764536
6.779310592,1.000936928467929,-79.62503839727292
6.78620672,1.0008226072890793,-79.94397859019264
6.79310336,1.0006627202081466,-80.26117316590188
6.8,1.000466381339831,-80.57606281967131
6.80689664,1.0002442233089617,-80.88825231165572
6.81379328,1.0000086043922976,-81.19737364171867
6.820689408,0.9997726241805462,-81.50346869200321
6.827586048,0.9995492398112769,-81.80650785375025
6.834482688,0.9993509612505507,-82.10677824940122
6.841379328,0.9991890041377882,-82.40469209784493
6.848275968,0.9990720742762338,-82.70084773446439
6.855172608,0.9990069785178324,-82.99584352699299
6.862068736,0.9989973437473829,-83.2904075650821
6.868965376,0.999043634963529,-83.58533099208799
6.875862016,0.9991435001100083,-83.88136780664449
6.882758656,0.999291181430841,-84.17915735225141
6.889655296,0.9994787546041229,-84.4793532516993
6.896551936,0.9996955989288067,-84.78240175072791
6.903448064,0.9999298798535412,-85.08861274550395
6.910344704,1.00016843348339,-85.3981572421522
6.917241344,1.0003979640337197,-85.71097237035113
6.924137984,1.0006060493129492,-86.0268733152221
6.931034624,1.0007808537903438,-86.34548453953563
6.937931264,1.0009127941595408,-86.66626522386898
6.944827392,1.0009944957414643,-86.9885868224598
6.951724032,1.0010214126885215,-87.31178508076903
6.958620672,1.0009920373438297,-87.63508108348819
6.965517312,1.0009077108275835,-87.95768857467776
6.972413952,1.0007734530045138,-88.27892459034997
6.979310592,1.0005964208145754,-88.59816791690261
6.98620672,1.0003863475001513,-88.9148952317055
6.99310336,1.0001549903504263,-89.22871853132756
7.0,0.9999151174704423,-89.53946795833015
7.00689664,0.9996800274153977,-89.84706063262026
7.01379328,0.9994625307416811,-90.15168527577384
7.020689408,0.9992750614879635,-90.45367339472067
7.027586048,0.9991279494594666,-90.75347238576089
7.034482688,0.9990295922781893,-91.05164713528927
7.041379328,0.9989851343801536,-91.34902139413049
7.048275968,0.9989973616321367,-91.64621155988941
7.055172608,0.9990654463610988,-91.94408615052981
7.062068736,0.9991858793488868,-92.24330633602297
7.068965376,0.9993519363322798,-92.54460707309998
7.075862016,0.9995541732429017,-92.84850461389748
7.082758656,0.9997817433011316,-93.15540687804751
7.089655296,1.0000217520832844,-93.46561703397411
7.096551936,1.0002610242254406,-93.7791503127927
7.103448064,1.0004863396325516,-94.09594019455109
7.110344704,1.0006849988537907,-94.41571439546499
7.117241344,1.0008460606751826,-94.73805522160862
7.124137984,1.0009607042921396,-95.06233397783294
7.131034624,1.0010223595490135,-95.38789085869439
7.137931264,1.0010277012720776,-95.71406408985384
7.144827392,1.0009762966152584,-96.04002883230258
7.151724032,1.0008710577388085,-96.3650051208574
7.158620672,1.000717609670078,-96.688371257625
7.165517312,1.0005245480653975,-97.00946128727506
7.172413952,1.0003025288802807,-97.32783062502273
7.179310592,1.0000635567534644,-97.64318253389573
7.18620672,0.9998211750304365,-97.9553382094374
7.19310336,0.999588761012731,-98.2644169492503
7.2,0.999379182602828,-98.57055967697147
7.20689664,0.9992040298602421,-98.8741749799172
7.21379328,0.9990732630559883,-99.1757936350165
7.220689408,0.9989939899760824,-99.47608876421756
7.227586048,0.9989708433573484,-99.7757426664901
7.234482688,0.9990050405747886,-100.07557548761804
7.241379328,0.9990945954703228,-100.37636870380659
7.248275968,0.9992347564200751,-100.67880484812824
7.255172608,0.9994179350103868,-100.98355289845077
7.262068736,0.9996336077814808,-101.29107078332679
7.268965376,0.9998701880038587,-101.60178595066809
7.275862016,1.0001142062036832,-101.91582884628671
7.282758656,1.0003523527884282,-102.23329170200282
7.289655296,1.000571460680575,-102.55390009372701
7.296551936,1.000759178084382,-102.87738132049772
7.303448064,1.0009052788926542,-103.20323186560975
7.310344704,1.001001475634911,-103.53083001612777
7.317241344,1.001042573086044,-103.85945922904027
7.324137984,1.001026144499033,-104.1883250107
7.331034624,1.0009531109230514,-104.51670087305526
7.337931264,1.0008272262933822,-104.84388370632212
7.344827392,1.0006557776575593,-105.1690726931728
7.351724032,1.000447992145404,-105.49182239170037
7.358620672,1.000215503719363,-105.81167124727051
7.365517312,0.99997082700993,-106.12838875068296
7.372413952,0.9997277570624884,-106.44188423009625
7.379310592,0.9994999355952824,-106.75227415411831
7.38620672,0.9992997226787538,-107.05980455717632
7.39310336,0.9991382976098846,-107.36499788914357
7.4,0.9990249190151412,-107.6684200139531
7.40689664,0.9989657354834091,-107.97070218022486
7.41379328,0.998964157542952,-108.27268144826365
7.420689408,0.999020148529069,-108.57511718939195
7.427586048,0.9991308540332231,-108.8787968839981
7.434482688,0.9992900564162597,-109.18435416672743
7.441379328,0.9994890281742287,-109.4924438081592
7.448275968,0.9997166670043898,-109.80356339199844
7.455172608,0.999960422913835,-110.11794559134259
7.462068736,1.0002068271992195,-110.43576951630888
7.468965376,1.0004421648416093,-110.75691210002297
7.475862016,1.0006532420192265,-111.08119977853117
7.482758656,1.0008285968774566,-111.40820612500153
7.489655296,1.000958363824125,-111.73736891518556
7.496551936,1.0010353939487062,-112.06800210172024
7.503448064,1.001055357576304,-112.3993866166756
7.510344704,1.0010169933187054,-112.73078455614028
7.517241344,1.000922482896742,-113.06134614143144
7.524137984,1.00077706726937,-113.39038653993008
7.531034624,1.0005886396610688,-113.71725662273093
7.537931264,1.000367450693342,-114.04143982932021
7.544827392,1.0001259833192424,-114.36256464486942
7.551724032,0.999877397706911,-114.68045927564773
7.558620672,0.9996354804320882,-114.99508356425454
7.565517312,0.9994137597904578,-115.30668478482077
7.572413952,0.9992245749264645,-115.61553633187155
7.579310592,0.9990783941279836,-115.92222540731828
7.58620672,0.9989833437986747,-116.22731363088938
7.59310336,0.9989447537625719,-116.53158835791059
7.6,0.99896497305046,-116.83579937844414
7.60689664,0.9990427952155408,-117.14075073296988
7.61379328,0.9991739174438631,-117.44722753554078
7.620689408,0.9993511844950953,-117.75588103616235
7.627586048,0.9995648130997473,-118.06727092135682
7.634482688,0.9998028690684542,-118.38181676635612
7.641379328,1.000052199441779,-118.69973562770049
7.648275968,1.0002990371681695,-119.02111025450597
7.655172608,1.0005296362700995,-119.34582311461422
7.662068736,1.000731299434475,-119.67355359507347
7.668965376,1.0008928131382762,-120.00382390059397
7.675862016,1.0010051707845742,-120.33606259758251
7.682758656,1.0010621813091074,-120.66949105991304
7.689655296,1.0010605648737805,-121.0034097916799
7.696551936,1.0010003775009455,-121.3369736558231
7.703448064,1.0008849521239507,-121.66945361164939
7.710344704,1.0007204788838162,-122.0001351033512
7.717241344,1.0005161270205656,-122.32840574635591
7.724137984,1.0002831748010028,-122.6537558307739
7.731034624,1.000034388840678,-122.97593447660361
7.737931264,0.999783561502986,-123.29482709716761
7.744827392,0.9995446239962019,-123.61047029534282
7.751724032,0.9993308677531944,-123.92310172714274
7.758620672,0.9991541184936812,-124.23316886180062
7.765517312,0.9990242298165909,-124.54116064220416
7.772413952,0.9989485535764491,-124.84788261817647
7.779310592,0.9989312937879218,-125.15401621989267
7.78620672,0.9989733387520326,-125.46037977612613
7.79310336,0.9990725594616647,-125.76780571931496
7.8,0.9992234831973431,-126.0770025293744
7.80689664,0.9994177460630431,-126.3885936260513
7.81379328,0.9996445919658731,-126.7031289313056
7.820689408,0.9998914675720879,-127.02098912445975
7.827586048,1.0001447354519832,-127.34226856860919
7.834482688,1.0003903409504522,-127.66706138279007
7.841379328,1.0006146943632899,-127.99508956556585
7.848275968,1.0008053028626887,-128.32602693471082
7.855172608,1.0009516134677345,-128.6593089819702
7.862068736,1.001045611853473,-128.99433315470122
7.868965376,1.0010818347379487,-129.33028489706126
7.875862016,1.0010585026785714,-129.66640609634396
7.882758656,1.0009765016663288,-130.00189577872618
7.889655296,1.0008406271321095,-130.33599554777115
7.896551936,1.0006581735225688,-130.66801247867474
7.903448064,1.0004391526267256,-130.99740959316512
7.910344704,1.0001957137676627,-131.32371655007674
7.917241344,0.9999412798946246,-131.64670945534394
7.924137984,0.9996899721937956,-131.96639506037252
7.931034624,0.9994556809406958,-132.28279701183672
7.937931264,0.9992513776000026,-132.59633719188685
7.944827392,0.999088498303675,-132.90738634468948
7.951724032,0.9989760612905936,-133.21668362072353
7.958620672,0.9989204240336919,-133.52485873418553
7.965517312,0.9989247826379897,-133.83274982548872
7.972413952,0.9989888197831098,-134.1411949800152
7.979310592,0.999109145409411,-134.45093129103566
7.98620672,0.9992791165916209,-134.7627178845136
7.99310336,0.9994892262414838,-135.07714998986987
8.0,0.9997280425777707,-135.39468750487885
8.00689664,0.9999821450085761,-135.71565370549874
8.01379328,1.000237635124859,-136.0401601878743
8.020689408,1.0004802772252823,-136.36809367969738
8.027586048,1.0006966445213368,-136.69919494746242
8.034482688,1.0008748087900818,-137.03307577574606
8.041379328,1.0010047462718497,-137.36912149398432
8.048275968,1.0010793191284737,-137.70660080284864
8.055172608,1.001094421070658,-138.04475412565154
8.062068736,1.001049001529241,-138.3827490615298
8.068965376,1.0009456037142033,-138.71984881930592
8.075862016,1.000789854094023,-139.05526017044122
8.082758656,1.000590313912097,-139.388350847474
8.089655296,1.0003579315460835,-139.71855529255942
8.096551936,1.0001055261114902,-140.04555764491315
8.103448064,0.999847111638897,-140.3691575386691
8.110344704,0.9995969499140551,-140.68934480144154
8.117241344,0.9993689253803573,-141.0063672440894
8.124137984,0.9991757337903653,-141.32057503093765
8.131034624,0.9990280115978663,-141.63253382320815
8.137931264,0.9989341062580552,-141.94289187598721
8.144827392,0.9988993636195179,-142.2524281632509
8.151724032,0.9989256332042945,-142.56196361234151
8.158620672,0.999011544511121,-142.87229593074562
8.165517312,0.9991524266826747,-143.18422694252843
8.172413952,0.9993405434487488,-143.49849229202826
8.179310592,0.9995654964765918,-143.81554733682057
8.18620672,0.9998147743904303,-144.1359668336736
8.19310336,1.0000745759444896,-144.45982925477878
8.2,1.00033058578767,-144.78730042658879
8.20689664,1.0005686235925202,-145.1181431594901
8.21379328,1.0007754934204325,-145.45209951277573
8.220689408,1.0009396216844693,-145.7886097280094
8.227586048,1.0010521200262712,-146.12705423760391
8.234482688,1.0011065456692707,-146.4667167986088
8.241379328,1.0010998651931464,-146.8067529241116
8.248275968,1.0010324062841807,-147.1463385994586
8.255172608,1.0009077883801458,-147.48472161030307
8.262068736,1.0007328227189962,-147.82109334720408
8.268965376,1.0005172074636137,-148.15490630495424
8.275862016,1.000272834041981,-148.48565962049207
8.282758656,1.0000129585739088,-148.81306919247731
8.289655296,0.9997521728512607,-149.1369932323015
8.296551936,0.9995048539975371,-149.4574946191798
8.303448064,0.9992846950799142,-149.77487812721048
8.310344704,0.9991039718141599,-150.0895990073452
8.317241344,0.998972733736914,-150.40222321515765
8.324137984,0.9988983275064542,-150.71350624008767
8.331034624,0.99888501586691,-151.02422022806826
8.337931264,0.9989334753224107,-151.33522639299565
8.344827392,0.9990411165538567,-151.64731409414267
8.351724032,0.9992020923378374,-151.961325073479
8.358620672,0.9994075196554066,-152.27783609222377
8.365517312,0.9996459302781826,-152.59741976122092
8.372413952,0.9999042504259631,-152.9204416972798
8.379310592,1.0001681541208134,-153.24705784298646
8.38620672,1.000423077219946,-153.57721111770573
8.39310336,1.000654842775321,-153.91074833211118
8.4,1.0008506192581859,-154.24720566130372
8.40689664,1.0009995541021004,-154.5860761991568
8.41379328,1.001093407925145,-154.92662859221736
8.420689408,1.0011268485371787,-155.26810314045767
8.427586048,1.001098084632155,-155.60964834100488
8.434482688,1.0010085983675263,-155.95046736383102
8.441379328,1.0008632163231321,-156.28973822879973
8.448275968,1.000669893473143,-156.62680678172148
8.455172608,1.000439320578165,-156.96102824822597
8.462068736,1.000184148628026,-157.2920118569294
8.468965376,0.9999184190298821,-157.61948300119428
8.475862016,0.9996569530999061,-157.94344075119275
8.482758656,0.9994141512129315,-158.26400894902883
8.489655296,0.9992035409043526,-158.58155991042455
8.496551936,0.9990367702971308,-158.8965614267036
8.503448064,0.9989232136338826,-159.20969485772113
8.510344704,0.9988691794451042,-159.52170291554373
8.517241344,0.9988778798377448,-159.83345324562845
8.524137984,0.9989486731734483,-160.1457607192364
8.531034624,0.9990778667024774,-160.4595152248576
8.537931264,0.9992581846522705,-160.7753544352955
8.544827392,0.9994799523933505,-161.09398958546416
8.551724032,0.99973069935427,-161.4158549289018
8.558620672,0.9999965802016624,-161.74126820878573
8.565517312,1.0002629756254877,-162.07036144229716
8.572413952,1.0005150462800083,-162.40296594116714
8.579310592,1.0007389225885182,-162.73884846928826
8.58620672,1.0009221301279636,-163.07757555989545
8.593103872,1.00105445733089,-163.41844284199354
8.600000512,1.0011288086901102,-163.760786449987
8.606896128,1.0011406568912935,-164.10371626090324
8.613792768,1.001089491921926,-164.44646172171736
8.620689408,1.0009779863903838,-164.78813633402856
8.627586048,1.0008122363439536,-165.1279724980943
8.634482688,1.0006013081637297,-165.4653073507351
8.641379328,1.0003568205230964,-165.79961623265305
8.648275968,1.000092354634942,-166.1305068570063
8.655172608,0.9998223382733281,-166.4577956266122
8.662069248,0.9995618438442213,-166.78150875588398
8.668965888,0.9993251885446727,-167.10187704952358
8.675862528,0.9991255693343433,-167.4193169676403
8.682758144,0.9989742448586444,-167.73438317600292
8.689654784,0.9988794372525923,-168.04782334269137
8.696551424,0.9988466956117409,-168.36040557914902
8.703448064,0.9988777387002189,-168.67301282875465
8.710344704,0.9989708912273169,-168.9864647542857
8.717241344,0.9991213060703873,-169.30161251287277
8.724137984,0.9993204195625074,-169.61914045295126
8.731034624,0.9995574705767074,-169.93970206460594
8.737931264,0.9998191951899758,-170.26365832804134
8.744827904,1.0000911696615804,-170.5912585313164
8.751724544,1.0003583400113047,-170.92254108624485
8.758621184,1.000606004856505,-171.25733303518382
