freq,mag,phase
6.0,0.9999896797348742,-63.83817621877939
6.008,0.9999922628756659,-64.20661894884162
6.016,0.99999474481329,-64.57491812866478
6.024,0.9999971276732977,-64.94307259387534
6.032,0.9999994135560056,-65.31108119079373
6.04,0.9999999999999999,-65.67894277645685
6.048,1.0,-66.04665621864
6.056,1.0,-66.41422039587752
6.064,1.0,-66.78163419748292
6.072,0.9999999999999998,-67.1488965235678
6.08,1.0,-67.51600628506002
6.088,0.9999999999999999,-67.88296240372091
6.096,1.0,-68.2497638121617
6.104,1.0,-68.61640945385898
6.112,0.9999999999999999,-68.98289828316922
6.12,0.9999999999999999,-69.34922926534261
6.128,0.9999999999999999,-69.7154013765358
6.136,0.9999999999999999,-70.08141360382393
6.144,0.9999999999999999,-70.44726494521178
6.152,0.9999999999999999,-70.81295440964394
6.16,1.0,-71.1784810170143
6.168,1.0,-71.54384379817456
6.176,0.9999999999999999,-71.909041794942
6.184,1.0,-72.27407406010624
6.192,0.9999999999999999,-72.63893965743544
6.2,1.0,-73.0036376616814
6.208,1.0,-73.36816715858399
6.216,1.0000000000000002,-73.7325272448747
6.224,1.0,-74.09671702827949
6.232,0.9999999999999999,-74.46073562752063
6.24,1.0,-74.82458217231793
6.248,1.0,-75.18825580338913
6.256,0.9999999999999999,-75.55175567244932
6.264,1.0,-75.91508094220998
6.272,1.0,-76.2782307863768
6.28,0.9999999999999999,-76.64120438964697
6.288,0.9999999999999999,-77.00400094770572
6.296,1.0,-77.36661966722193
6.304,0.9999999999999998,-77.72905976584323
6.312,1.0,-78.09132047219019
6.32,1.0,-78.45340102584971
6.328,0.9999999999999998,-78.8153006773679
6.336,0.9999999999999999,-79.17701868824201
6.344,1.0,-79.53855433091185
6.352,0.9999999999999999,-79.89990688875027
6.36,1.0,-80.26107565605308
6.368,0.9999999999999999,-80.62205993802833
6.376,1.0,-80.98285905078468
6.384,0.9999999999999999,-81.34347232131931
6.392,1.0,-81.703899087505
6.4,1.0,-82.06413869807656
6.408,1.0,-82.42419051261678
6.416,1.0,-82.78405390154138
6.424,0.9999999999999999,-83.14372824608361
6.432,1.0,-83.50321293827812
6.44,0.9999999999999999,-83.86250738094408
6.448,0.9999999999999999,-84.22161098766776
6.456,1.0,-84.58052318278459
6.464,1.0,-84.93924340136046
6.472,1.0,-85.29777108917241
6.48,1.0,-85.6561057026888
6.4879999999999995,1.0,-86.01424670904886
6.496,1.0,-86.37219358604169
6.504,0.9999999999999999,-86.72994582208445
6.5120000000000005,0.9999999999999998,-87.08750291620053
6.52,0.9999999999999999,-87.44486437799632
6.5280000000000005,1.0,-87.80202972763843
6.536,0.9999999999999999,-88.15899849582925
6.5440000000000005,1.0,-88.51577022378318
6.552,1.0,-88.87234446320107
6.5600000000000005,1.0,-89.22872077624535
6.568,1.0,-89.58489873551348
6.5760000000000005,1.0,-89.94087792401201
6.584,0.9999999999999999,-90.29665793512903
6.592,1.0,-90.65223837260726
6.6,0.9999999999999999,-91.00761885051557
6.608,1.0,-91.36279899322079
6.616,0.9999999999999999,-91.71777843535871
6.624,1.0,-92.07255682180464
6.632,1.0,-92.4271338076436
6.64,0.9999999999999999,-92.78150905813996
6.648,1.0,-93.13568224870674
6.656,1.0,-93.48965306487432
6.664,1.0,-93.84342120225892
6.672,0.9999999999999999,-94.19698636653047
6.68,0.9999999999999999,-94.55034827338012
6.688,0.9999999999999999,-94.90350664848754
6.696,1.0,-95.2564612274874
6.704,0.9999999999999999,-95.60921175593593
6.712,0.9999999999999998,-95.96175798927669
6.72,0.9999999999999998,-96.31409969280624
6.728,1.0,-96.66623664163932
6.736,0.9999999999999999,-97.01816862067369
6.744,1.0,-97.36989542455453
6.752,0.9999999999999999,-97.72141685763872
6.76,0.9999999999999999,-98.07273273395843
6.768,0.9999999999999999,-98.42384287718475
6.776,1.0,-98.77474712059069
6.784,0.9999999999999999,-99.125445307014
6.792,1.0,-99.4759372888197
6.8,1.0,-99.82622292786219
6.808,0.9999994367739673,-100.1763020954472
6.816,0.9999988011857024,-100.5261746722933
6.824,0.9999981722556598,-100.87584054849317
6.832,0.9999975502377271,-101.22529962347477
6.84,0.9999969353755337,-101.5745518059619
6.848,0.9999963279026103,-101.92359701393478
6.856,0.9999957280425498,-102.27243517459023
6.864,0.9999951360091667,-102.62106622430159
6.872,0.999994552006656,-102.96949010857855
6.88,0.9999939762297508,-103.31770678202653
6.888,0.9999934088638807,-103.66571620830591
6.896,0.9999928500853262,-104.0135183600911
6.904,0.9999923000613757,-104.36111321902935
6.912,0.9999917589504795,-104.70850077569925
6.92,0.9999912269024046,-105.05568102956913
6.928,0.9999907040583849,-105.40265398895531
6.936,0.9999901905512767,-105.74941967097996
6.944,0.9999896865057071,-106.09597810152897
6.952,0.9999891920382256,-106.44232931520952
6.96,0.9999887072574523,-106.7884733553075
6.968,0.9999882322642268,-107.1344102737448
6.976,0.9999877671517553,-107.48014013103638
6.984,0.999987312005756,-107.82566299624722
6.992,0.9999868669046063,-108.1709789469491
7.0,0.9999864319194842,-108.51608806917721
7.008,0.9999860071145147,-108.86099045738668
7.016,0.9999855925469091,-109.20568621440896
7.024,0.999985188267108,-109.55017545140797
7.032,0.9999847943189204,-109.89445828783631
7.04,0.9999844107396636,-110.23853485139118
7.048,0.9999840375603001,-110.58240527797027
7.056,0.9999836748055748,-110.92606971162758
7.064,0.9999833224941513,-111.26952830452898
7.072,0.9999829806387459,-111.61278121690795
7.08,0.9999826492462608,-111.95582861702093
7.088,0.9999823283179178,-112.29867068110273
7.096,0.999982017849388,-112.64130759332197
7.104,0.9999817178309232,-112.98373954573611
7.112,0.9999814282474837,-113.32596673824688
7.12,0.9999811490788677,-113.66798937855513
7.128,0.9999808802998362,-114.00980768211612
7.136,0.9999806218802402,-114.35142187209433
7.144,0.9999803737851433,-114.69283217931851
7.152,0.9999801359749462,-115.03403884223658
7.16,0.9999799084055085,-115.37504210687044
7.168,0.999979691028269,-115.71584222677075
7.176,0.9999794837903652,-116.05643946297192
7.184,0.9999792866347531,-116.39683408394666
7.192,0.9999790995003219,-116.73702636556084
7.2,0.999978922322013,-117.0770165910282
7.208,0.9999787550309321,-117.41680505086512
7.216,0.9999785975544645,-117.7563920428452
7.224,0.9999784498163871,-118.0957778719541
7.232,0.9999783117369792,-118.43496285034416
7.24,0.9999781832331324,-118.77394729728911
7.248,0.9999780642184604,-119.11273153913893
7.256,0.9999779546034043,-119.45131590927433
7.264,0.9999778542953422,-119.78970074806179
7.272,0.9999777631986903,-120.12788640280809
7.28,0.9999776812150099,-120.46587322771522
7.288,0.9999776082431092,-120.80366158383518
7.296,0.9999775441791434,-121.14125183902486
7.304,0.9999774889167159,-121.47864436790096
7.312,0.9999774423469779,-121.8158395517947
7.32,0.9999774043587241,-122.15283777870724
7.328,0.9999773748384914,-122.48963944326422
7.336,0.9999773536706524,-122.82624494667118
7.344,0.9999773407375107,-123.16265469666853
7.352,0.9999773359193921,-123.49886910748673
7.36,0.9999773390947378,-123.83488859980167
7.368,0.999977350140194,-124.1707136006898
7.376,0.999977368930701,-124.50634454358368
7.384,0.9999773953395812,-124.8417818682273
7.392,0.9999774292386252,-125.17702602063171
7.4,0.999977470498179,-125.5120774530306
7.4079999999999995,0.9999775189872259,-125.84693662383579
7.416,0.9999775745734707,-126.18160399759343
7.4239999999999995,0.9999776371234221,-126.51608004493927
7.432,0.9999777065024726,-126.85036524255524
7.4399999999999995,0.9999777825749777,-127.1844600731249
7.448,0.999977865204335,-127.51836502529
7.4559999999999995,0.9999779542530596,-127.8520805936063
7.464,0.9999780495828622,-128.18560727850044
7.4719999999999995,0.9999781510547222,-128.51894558622573
7.48,0.9999782585289612,-128.85209602881932
7.4879999999999995,0.9999783718653161,-129.1850591240581
7.496,0.9999784909230092,-129.51783539541634
7.504,0.9999786155608194,-129.8504253720217
7.5120000000000005,0.9999787456371494,-130.18282958861286
7.52,0.9999788810100948,-130.51504858549603
7.5280000000000005,0.9999790215375094,-130.84708290850278
7.536,0.9999791670770717,-131.1789331089469
7.5440000000000005,0.9999793174863474,-131.510599743582
7.552,0.9999794726228541,-131.84208337455914
7.5600000000000005,0.9999796323441226,-132.17338456938464
7.568,0.9999797965077565,-132.50450390087755
7.5760000000000005,0.9999799649714939,-132.83544194712812
7.584,0.9999801375932642,-133.1661992914553
7.5920000000000005,0.9999803142312464,-133.49677652236585
7.6,0.9999804947439248,-133.82717423351167
7.6080000000000005,0.9999806789901448,-134.1573930236492
7.616,0.9999808668291663,-134.4874334965975
7.6240000000000006,0.9999810581207174,-134.81729626119753
7.632,0.9999812527250457,-135.14698193127052
7.640000000000001,0.9999814505029697,-135.47649112557772
7.648,0.9999816513159274,-135.80582446777896
7.656000000000001,0.9999818550260271,-136.1349825863927
7.664,0.9999820614960928,-136.46396611475495
7.672,0.9999822705897125,-136.79277569097945
7.68,0.9999824821712824,-137.12141195791725
7.688,0.9999826961060525,-137.44987556311668
7.696,0.9999829122601694,-137.77816715878373
7.704,0.9999831305007195,-138.1062874017421
7.712,0.9999833506957692,-138.4342369533938
7.72,0.9999835727144069,-138.76201647967977
7.728,0.9999837964267808,-139.08962665104065
7.736,0.999984021704139,-139.41706814237767
7.744,0.9999842484188656,-139.74434163301385
7.752,0.9999844764445183,-140.0714478066552
7.76,0.9999847056558625,-140.39838735135217
7.768,0.9999849359289082,-140.72516095946133
7.776,0.99998516714094,-141.05176932760696
7.784,0.9999853991705542,-141.3782131566432
7.792,0.9999856318976863,-141.70449315161596
7.8,0.999985865203645,-142.03061002172527
7.808,0.9999860989711397,-142.35656448028774
7.816,0.9999863330843111,-142.68235724469918
7.824,0.9999865674287585,-143.00798903639722
7.832,0.9999868018915667,-143.3334605808245
7.84,0.9999870363613331,-143.65877260739163
7.848,0.9999872707281925,-143.98392584944045
7.856,0.9999875048838408,-144.3089210442077
7.864,0.9999877387215602,-144.63375893278837
7.872,0.9999879721362412,-144.95844026009982
7.88,0.9999882050244039,-145.28296577484545
7.888,0.9999884372842199,-145.60733622947913
7.896,0.9999886688155328,-145.93155238016942
7.904,0.9999888995198759,-146.25561498676402
7.912,0.9999891293004932,-146.57952481275453
7.92,0.9999893580623544,-146.9032826252414
7.928,0.999989585712175,-147.22688919489866
7.936,0.9999898121584295,-147.55034529593954
7.944,0.9999900373113686,-147.87365170608152
7.952,0.9999902610830333,-148.19680920651209
7.96,0.9999904833872686,-148.5198185818544
7.968,0.9999907041397367,-148.8426806201332
7.976,0.9999909232579293,-149.16539611274095
7.984,0.9999911406611794,-149.48796585440405
7.992,0.9999913562706713,-149.81039064314928
8.0,0.9999915700094519,-150.13267128027056
8.008,0.9999917818024393,-150.4548085702955
8.016,0.9999919915764319,-150.7768033209527
8.024000000000001,0.9999921992601155,-151.09865634313843
8.032,0.9999924047840718,-151.42036845088444
8.04,0.9999926080807844,-151.7419404613252
8.048,0.999992809084644,-152.06337319466581
8.056000000000001,0.9999930077319558,-152.38466747414938
8.064,0.9999932039609408,-152.7058241260254
8.072,0.9999933977117432,-153.0268439795181
8.08,0.9999935889264311,-153.3477278667946
8.088000000000001,0.999993777549,-153.66847662293327
8.096,0.9999939635253755,-153.98909108589277
8.104,0.9999941468034136,-154.3095720964809
8.112,0.9999943273329018,-154.62992049832368
8.120000000000001,0.9999945050655601,-154.95013713783436
8.128,0.9999946799550392,-155.27022286418298
8.136,0.9999948519569202,-155.59017852926618
8.144,0.9999950210287134,-155.91000498767673
8.152000000000001,0.9999951871298551,-156.22970309667326
8.16,0.999995350221706,-156.54927371615076
8.168,0.9999955102675472,-156.86871770861075
8.176,0.999995667232576,-157.18803593913154
8.184000000000001,0.9999958210839028,-157.50722927533886
8.192,0.9999959717905448,-157.82629858737684
8.2,0.9999961193234214,-158.1452447478788
8.208,0.9999962636553481,-158.46406863193843
8.216000000000001,0.9999964047610294,-158.7827711170809
8.224,0.999996542617053,-159.1013530832344
8.232,0.9999966772018816,-159.41981541270195
8.24,0.9999968084958446,-159.7381589901329
8.248000000000001,0.9999969364811304,-160.05638470249482
8.256,0.9999970611417769,-160.37449343904584
8.264,0.9999971824636633,-160.69248609130673
8.272,0.9999973004344983,-161.0103635530335
8.280000000000001,0.9999974150438112,-161.3281267201897
8.288,0.9999975262829415,-161.64577649091916
8.296,0.9999976341450263,-161.96331376551936
8.304,0.9999977386249905,-162.28073944641406
8.312,0.9999978397195333,-162.59805443812638
8.32,0.9999979374271164,-162.9152596472527
8.328,0.9999980317479518,-163.2323559824356
8.336,0.9999981226839872,-163.549344354338
8.344,0.999998210238894,-163.86622567561656
8.352,0.9999982944180514,-164.18300086089627
8.36,0.9999983752285351,-164.49967082674377
8.368,0.9999984526790986,-164.81623649164243
8.376,0.999998526780161,-165.13269877596613
8.384,0.9999985975437916,-165.44905860195442
8.392,0.9999986649836924,-165.76531689368667
8.4,0.9999987291151831,-166.08147457705758
8.408,0.9999987899551843,-166.39753257975147
8.416,0.999998847522201,-166.71349183121825
8.424,0.999998901836306,-167.02935326264793
8.432,0.9999989529191209,-167.3451178069469
8.44,0.9999990007938,-167.66078639871256
8.448,0.9999990454850117,-167.97635997421014
8.456,0.9999990870189199,-168.29183947134757
8.464,0.9999991254231658,-168.60722582965232
8.472,0.9999991607268492,-168.92251999024677
8.48,0.9999991929605094,-169.2377228958254
8.488,0.9999992221561048,-169.55283549063026
8.496,0.9999992483469946,-169.8678587204283
8.504,0.9999992715679182,-170.18279353248755
8.512,0.9999992918549747,-170.4976408755543
8.52,0.9999993092456041,-170.81240169982973
8.528,0.9999993237785644,-171.12707695694735
8.536,0.999999335493913,-171.4416675999498
8.544,0.9999993444329836,-171.7561745832666
8.552,0.9999993506383668,-172.07059886269133
8.56,0.9999993541538869,-172.3849413953593
8.568,0.9999993550245815,-172.69920313972526
8.576,0.9999993532966795,-173.01338505554136
8.584,0.9999993490175785,-173.32748810383487
8.592,0.9999993422358221,-173.64151324688646
8.6,0.9999993330010793,-173.95546144820824
8.608,0.9999993213641197,-174.26933367252238
8.616,0.999999307376793,-174.58313088573894
8.624,0.9999992910920035,-174.89685405493523
8.632,0.9999992725636896,-175.21050414833365
8.64,0.9999992518467986,-175.52408213528122
8.648,0.9999992289972646,-175.8375889862277
8.656,0.9999992040719848,-176.15102567270537
8.664,0.9999991771287948,-176.4643931673074
8.672,0.9999991482264468,-176.7776924436678
8.68,0.9999991174245831,-177.0909244764399
8.688,0.999999084783715,-177.4040902412767
8.696,0.9999990503651972,-177.7171907148095
8.704,0.9999990142312031,-178.03022687462837
8.712,0.9999989764447013,-178.34319969926108
8.72,0.9999989370694321,-178.6561101681537
8.728,0.9999988961698807,-178.96895926164987
8.736,0.9999988538112545,-179.28174796097136
8.744,0.9999988100594589,-179.5944772481978
8.752,0.9999987649810702,-179.9071481062472
8.76,0.9999987186433128,179.78023848114398
8.768,0.9999986711140345,179.46768152944014
8.776,0.9999986224616808,179.1551800533264
8.784,0.99999857275527,178.84273306672756
8.792,0.9999985220643682,178.53033958282793
8.8,0.9999984704590654,178.21799861409
8.808,0.9999984180099494,177.9057091722742
8.815999999999999,0.99999836478808,177.59347026845734
8.824,0.9999983108649664,177.281280913052
8.832,0.9999982563125391,176.96914011582538
8.84,0.9999982012031274,176.65704688591808
8.847999999999999,0.9999981456094325,176.34500023186257
8.856,0.9999980896045031,176.0329991616022
8.864,0.9999980332617101,175.7210426825097
8.872,0.9999979766547215,175.40912980140564
8.879999999999999,0.9999979198574773,175.09725952457677
8.888,0.9999978629441644,174.78543085779444
8.896,0.9999978059891909,174.47364280633298
8.904,0.9999977490671621,174.16189437498795
8.911999999999999,0.9999976922528548,173.85018456809388
8.92,0.9999976356211929,173.53851238954275
8.928,0.9999975792472205,173.22687684280203
8.936,0.9999975232060798,172.9152769309324
8.943999999999999,0.9999974675729839,172.60371165660567
8.952,0.9999974124231932,172.29218002212252
8.96,0.99999735783199,171.98068102943068
8.968,0.9999973038746542,171.6692136801422
8.975999999999999,0.9999972506264381,171.35777697555113
8.984,0.9999971981625428,171.0463699166512
8.992,0.9999971465580919,170.7349915041534
9.0,0.9999970958881087,170.42364073850356
9.008,0.9999970462274912,170.11231661989927
9.016,0.9999969976509876,169.80101814830766
9.024000000000001,0.999996950233172,169.4897443234828
9.032,0.9999969040484209,169.17849414498275
9.04,0.9999968591708895,168.8672666121867
9.048,0.9999968156744854,168.55606072431232
9.056000000000001,0.9999967736328476,168.2448754804329
9.064,0.9999967331193208,167.9337098794945
9.072,0.9999966942069338,167.6225629203326
9.08,0.9999966569683736,167.3114336016894
9.088000000000001,0.9999966214759631,167.0003209222309
9.096,0.9999965878016387,166.68922388056373
9.104,0.9999965560169263,166.37814147525174
9.112,0.9999965261929171,166.06707270483312
9.120000000000001,0.9999964984002477,165.75601656783735
9.128,0.9999964727090744,165.44497206280172
9.136,0.9999964491890518,165.1339381882881
9.144,0.999996427909311,164.8229139428997
9.152000000000001,0.9999964089384367,164.5118983252979
9.16,0.9999963923444434,164.2008903342188
9.168,0.9999963781947572,163.88988896848971
9.176,0.9999963665561897,163.57889322704588
9.184000000000001,0.9999963574949196,163.26790210894723
9.192,0.9999963510764691,162.9569146133948
9.2,0.9999963473656832,162.645929739747
9.208,0.9999963464267096,162.33494648753657
9.216000000000001,0.9999963483229755,162.02396385648683
9.224,0.9999963531171687,161.71298084652844
9.232,0.9999963608712157,161.40199645781533
9.24,0.9999963716462613,161.09100969074152
9.248000000000001,0.9999963855026501,160.78001954595766
9.256,0.9999964024999037,160.4690250243873
9.264,0.9999964226967023,160.1580251272431
9.272,0.9999964461508656,159.84701885604343
9.280000000000001,0.9999964729193312,159.53600521262896
9.288,0.9999965030581377,159.22498319917872
9.296,0.9999965366224035,158.91395181822654
9.304,0.9999965736663096,158.6029100726774
9.312000000000001,0.99999661424308,158.29185696582405
9.32,0.9999966584049631,157.98079150136314
9.328,0.9999967062032141,157.66971268341157
9.336,0.9999967576880769,157.35861951652285
9.344,0.9999968129087651,157.04751100570374
9.352,0.9999968719134466,156.7363861564301
9.36,0.9999969347492237,156.42524397466386
9.368,0.9999970014621189,156.11408346686886
9.376,0.9999970720970549,155.80290364002764
9.384,0.9999971466978405,155.49170350165735
9.392,0.9999972253071526,155.18048205982683
9.4,0.9999973079665213,154.86923832317225
9.408,0.9999973947163123,154.5579713009142
9.416,0.9999974855957134,154.24668000287346
9.424,0.9999975806427178,153.93536343948816
9.432,0.9999976798941081,153.6240206218295
9.44,0.9999977833854434,153.3126505616188
9.448,0.9999978911510436,153.0012522712436
9.456,0.9999980032239749,152.68982476377445
9.464,0.9999981196360358,152.3783670529812
9.472,0.9999982404177432,152.06687815334962
9.48,0.9999983655983201,151.75535708009795
9.488,0.9999984952056796,151.44380284919367
9.496,0.9999986292664148,151.13221447736962
9.504,0.9999987678057837,150.82059098214125
9.512,0.9999989108476982,150.50893138182275
9.52,0.999999058414712,150.19723469554413
9.528,0.9999992105280072,149.8854999432675
9.536,0.9999993672073844,149.5737261458044
9.544,0.99999952847125,149.2619123248318
9.552,0.9999996943366061,148.95005750290977
9.56,0.9999998648190397,148.63816070349753
9.568,1.0,148.32622095097082
9.576,0.9999999999999999,148.0142372706385
9.584,1.0,147.7022086887597
9.592,0.9999999999999999,147.39013423256065
9.6,0.9999999999999998,147.0780129302519
9.608,1.0,146.76584381104487
9.616,1.0,146.4536259051697
9.624,0.9999999999999999,146.14135824389152
9.632,1.0000000000000002,145.82903985952836
9.64,0.9999999999999999,145.51666978546785
9.648,0.9999999999999999,145.20424705618487
9.656,1.0,144.89177070725836
9.664,0.9999999999999999,144.5792397753893
9.672,0.9999999999999999,144.26665329841742
9.68,1.0,143.95401031533927
