freq,mag,phase
6.0,0.9998664661229719,169.05866863729963
6.002287104,1.0000077809991759,168.90677668657813
6.004574208,1.000148778917752,168.75287720845145
6.006861312,1.0002805848484457,168.5970329527529
6.009147904,1.0003950654423317,168.4394316846525
6.011435008,1.00048506436472,168.28038014020115
6.013722112,1.0005444728545325,168.1202937015084
6.016009216,1.0005699437721192,167.95965483176295
6.01829632,1.0005595146865436,167.79890692690526
6.020583424,1.000513931873997,167.63863810442587
6.022870016,1.0004360163351984,167.47928140073665
6.02515712,1.0003307233442549,167.32129792782632
6.027444224,1.0002045331501708,167.16503860874516
6.029731328,1.0000655364783786,167.01073120393238
6.032018432,0.9999223514947294,166.85854454202675
6.034305536,0.9997843978974881,166.70842201486866
6.036592128,0.9996599146805818,166.56026121779132
6.038879232,0.999557182366917,166.41381454095904
6.041166336,0.9994824833453215,166.26864239474384
6.04345344,0.9994407393032114,166.12440078665998
6.045740544,0.9994346493801726,165.9805677389339
6.048027648,0.9994644726711164,165.83661164190895
6.05031424,0.9995285157890835,165.69201878420054
6.052601344,0.9996226324374956,165.54627944197222
6.054888448,0.9997410702047717,165.39909297517244
6.057175552,0.999876109381377,165.25007303567227
6.059462656,1.0000193697251438,165.09911997016414
6.06174976,1.0001618768325238,164.94608961766542
6.064036352,1.0002943831139737,164.79111773028788
6.066323456,1.000408572121441,164.63444467039923
6.06861056,1.0004975135713485,164.47627836873778
6.070897664,1.000555130367914,164.31711995779787
6.073184768,1.0005779066016205,164.15738000822105
6.075471872,1.0005644856191522,163.997650757517
6.077758464,1.0005155385159705,163.83840631197063
6.080045568,1.0004341555458764,163.68012792794138
6.082332672,1.0003254131968773,163.52324538482188
6.084619776,1.000196227054559,163.3682053664922
6.08690688,1.0000546210350982,163.21509115901887
6.089193984,0.9999097507785111,163.06418618042733
6.091481088,0.9997704624239026,162.91535163274673
6.09376768,0.9996459609418172,162.76842764091515
6.096054784,0.9995438696095117,162.62322349983666
6.098341888,0.9994707417805604,162.47936786424745
6.100628992,0.9994312925999961,162.3363630624991
6.102916096,0.9994280501286449,162.19374019402593
6.1052032,0.9994611974941563,162.05092916653993
6.107489792,0.9995287703068524,161.9074024577017
6.109776896,0.9996264841814165,161.7627677338586
6.112064,0.9997480891512309,161.6165485049422
6.114351104,0.9998860207883492,161.4685262807899
6.116638208,1.0000315991805488,161.31847212217622
6.118925312,1.0001755093198872,161.16632995865626
6.121211904,1.0003087062077618,161.01225787167533
6.123499008,1.0004225791870003,160.85641544889796
6.125786112,1.0005101251494948,160.69915392398946
6.128073216,1.0005658086771894,160.5409195078338
6.13036032,1.0005859967912862,160.38212990257287
6.132647424,1.0005693739008905,160.22337299800424
6.134934016,1.0005167840378877,160.06514690995203
6.13722112,1.0004317027411616,159.9079603868409
6.139508224,1.0003195548876762,159.7522533667929
6.141795328,1.0001872328788846,159.59836788529032
6.144082432,1.0000431464073298,159.44652598195998
6.146369536,0.9998964116996529,159.2968325650875
6.148656128,0.9997562831241893,159.14927912264827
6.150943232,0.999631556249358,159.00368410085406
6.153230336,0.9995303145544001,158.8597829004437
6.15551744,0.9994589767628547,158.71718169876397
6.157804544,0.9994219646599917,158.57540866443085
6.160091648,0.9994216770707361,158.43394653934752
6.162378752,0.9994583570641306,158.29229796894145
6.164665344,0.9995296134974749,158.149868309116
6.166952448,0.9996308774627907,158.00629454943856
6.169239552,0.9997559119840296,157.86106583896606
6.171526656,0.9998965805367497,157.71397384423216
6.17381376,1.000044408376264,157.56482257817413
6.176100864,1.000189589488884,157.41359112118388
6.178387456,1.000323318715997,157.26038188502457
6.18067456,1.0004369005414986,157.10541509295987
6.182961664,1.0005230745039702,156.94904684052312
6.185248768,1.000576556205751,156.7916932583685
6.187535872,1.0005937415715382,156.63386052506664
6.189822976,1.0005737773700925,156.47608798352542
6.192109568,1.0005176418269077,156.31891647981266
6.194396672,1.0004289662889916,156.1628511162619
6.196683776,1.0003132714051972,156.0082615686235
6.19897088,1.0001777056964143,155.85557992516564
6.201257984,1.0000310606678986,155.70497483529186
6.203545088,0.9998824746232514,155.55654031339043
6.20583168,0.9997414960567161,155.41028192470105
6.208118784,0.999616949188553,155.26595843463417
6.210405888,0.9995164798398356,155.1233630991461
6.212692992,0.9994469866046133,154.982010185096
6.214980096,0.9994126257266612,154.8415056169344
6.2172672,0.9994157386054311,154.70123820595114
6.219553792,0.9994558880448731,154.56073883401692
6.221840896,0.9995309751915443,154.41941464713767
6.224128,0.9996359182895174,154.27685023327948
6.226415104,0.9997643986337547,154.13260258082187
6.228702208,0.9999080431025089,153.98644506014926
6.230989312,1.0000578492058143,153.83819402657358
6.233275904,1.0002044935234355,153.68784855423135
6.235563008,1.0003384998202633,153.535481434984
6.237850112,1.0004514848584385,153.3813839130178
6.240137216,1.0005361707475238,153.22587699980298
6.24242432,1.0005873751943257,153.06943324252748
6.244711424,1.000601539897825,152.91255452532928
6.246998528,1.000577986524341,152.755782005188
6.24928512,1.0005180599185282,152.5996215579658
6.251572224,1.000425557348765,152.4446544015617
6.253859328,1.000306199931306,152.29125001653216
6.256146432,1.0001675066960183,152.13974762233
6.258433536,1.0000183392720048,151.99036211956007
6.26072064,0.9998681360366637,151.8432050275708
6.263007232,0.9997261962497426,151.69824821740139
6.265294336,0.9996016605373466,151.55525003795844
6.26758144,0.9995025547342826,151.4139317617426
6.269868544,0.999434977988572,151.27386325529483
6.272155648,0.9994034026929486,151.13455394288061
6.274442752,0.9994099425116589,150.99546521713788
6.276729344,0.9994538966509137,150.85609187163956
6.279016448,0.9995328800111953,150.7158440703861
6.281303552,0.9996415272247778,150.57428428800253
6.283590656,0.9997734829018821,150.43104561571954
6.28587776,0.9999199902316968,150.28579905499737
6.288164864,1.0000719331573413,150.13843126325898
6.290451456,1.0002197450671133,149.98894588803907
6.29273856,1.0003541337732782,149.83742281068902
6.295025664,1.0004662448602288,149.68416259613716
6.297312768,1.0005493584152325,149.5295297024537
6.299599872,1.0005980571537556,149.37398596837312
6.301886976,1.0006091186534105,149.21804352301328
6.304173568,1.0005818085230633,149.06225729716843
6.306460672,1.0005179749524467,148.90715111416483
6.308747776,1.0004214090784471,148.753261303617
6.31103488,1.000298339932799,148.6010197485218
6.313321984,1.0001565111109205,148.45069432630794
6.315609088,1.0000048286872512,148.30258877999267
6.317896192,0.9998528332745953,148.1567032433311
6.320182784,0.9997102780059931,148.01303087770432
6.322469888,0.9995859581801053,147.8713179155385
6.324756992,0.9994881388003498,147.7312782579644
6.327044096,0.999422752829387,147.59249481171193
6.3293312,0.999394150403482,147.45440371003932
6.331618304,0.9994041183928898,147.3165037940395
6.333904896,0.9994520345290272,147.1782392124153
6.336192,0.9995349401570549,147.0390490701046
6.338479104,0.9996477686480854,146.89852122673747
6.340766208,0.9997830424428591,146.75620902621716
6.343053312,0.9999325405835228,146.61186400875113
6.345340416,1.0000866420732633,146.46537080378786
6.347627008,1.0002356689258696,146.31670792740653
6.349914112,1.0003699605408376,146.16602510528375
6.352201216,1.0004813249123212,146.01360175648708
6.35448832,1.0005626804823722,145.85981463888206
6.356775424,1.0006085391998356,145.7051626210027
6.359062528,1.0006163397971297,145.55016014986123
6.36134912,1.0005853005473846,145.39534434736865
6.363636224,1.0005172650022243,145.24130215406933
6.365923328,1.0004167699476016,145.08850509016403
6.368210432,1.0002900416317277,144.93740759081254
6.370497536,1.0001448701350055,144.7883051055777
6.37278464,0.9999905838971453,144.64142884211498
6.375071232,0.9998370813769396,144.49684351976964
6.377358336,0.9996937891117958,144.35442828356835
6.37964544,0.9995699814379869,144.2140349666347
6.381932544,0.9994736267138253,144.0752708498279
6.384219648,0.9994106033843897,143.93769095707634
6.386506752,0.9993851330484173,143.80082707696275
6.388793344,0.9993988509623797,143.66409220873587
6.391080448,0.9994507801461339,143.5269553022646
6.393367552,0.9995379299056768,143.38881237095958
6.395654656,0.9996546180616293,143.24923271474904
6.39794176,0.9997934499333474,143.1078511484631
6.400228864,0.9999458284807574,142.96440641832064
6.402515968,1.0001018234034047,142.81876537258884
6.40480256,1.000251931629059,142.67092251295125
6.407089664,1.0003864539294638,142.52105561604955
6.409376768,1.0004968633005935,142.36945396991823
6.411663872,1.000576017432027,142.21651247656652
6.413950976,1.0006190830975628,142.062740501271
6.41623808,1.0006234109716223,141.90863798928166
6.418524672,1.0005882694206623,141.75479394076382
6.420811776,1.0005161464390746,141.6017870471495
6.42309888,1.0004113996407533,141.45008299533268
6.425385984,1.0002808879166578,141.30015120883596
6.427673088,1.0001324680663217,141.15225267651604
6.429960192,0.9999758538892879,141.00662746284888
6.432246784,0.9998207842177113,140.86327363868028
6.434533888,0.9996769983543227,140.7221682915433
6.436820992,0.9995538506244687,140.58306314546593
6.439108096,0.9994590193087942,140.44554468766702
6.4413952,0.9993986469746949,140.3092555380034
6.443682304,0.9993762154055816,140.17356436741014
6.445968896,0.9993939391855177,140.0379940357934
6.448256,0.9994501967375751,139.9019108273889
6.450543104,0.9995414814830168,139.76479412813293
6.452830208,0.9996621456844824,139.62621935420913
6.455117312,0.9998046561579368,139.48571714363308
6.457404416,0.9999598197887101,139.34312470305127
6.459691008,1.0001179578856787,139.1982981901732
6.461978112,1.0002689156203568,139.05129360657193
6.464265216,1.0004033414598885,138.90220120700334
6.46655232,1.0005124603069124,138.75139824738673
6.468839424,1.0005896153238885,138.5992845989858
6.471126528,1.0006296731752167,138.44636859164945
6.473413632,1.0006301322399707,138.2931799280116
6.475700224,1.0005907370195266,138.14031660669403
6.477987328,1.000514415418141,137.98833529954922
6.480274432,1.0004055470809734,137.83769128208746
6.482561536,1.0002709893622017,137.68887954880316
6.48484864,1.000119401209828,137.54222577325973
6.487135744,0.9999603591341865,137.39783409744646
6.489422336,0.9998038502993,137.25575793190137
6.49170944,0.9996595703458564,137.1159386540736
6.493996544,0.9995371859713462,136.9781103530451
6.496283648,0.9994441465590366,136.84188097696514
6.498570752,0.9993863774213749,136.70679964011595
6.500857856,0.9993677525618719,136.57228875890704
6.503144448,0.9993893183507463,136.43783488426212
6.505431552,0.9994499771793024,136.30283138077735
6.507718656,0.9995455851823011,136.16671117849793
6.51000576,0.9996704529903171,136.02904717413918
6.512292864,0.9998164051244575,135.88944808218335
6.514579968,0.999974451481481,135.74770269482195
6.51686656,1.0001345138961641,135.60364152007688
6.519153664,1.000286339530175,135.45739847855776
6.521440768,1.0004205437035183,135.30912271244176
6.523727872,1.0005283566291783,135.15907561729836
6.526014976,1.0006031556439237,135.00777349988712
6.52830208,1.0006397837884078,134.85571632557932
6.530588672,1.0006365281717602,134.7034354288161
6.532875776,1.0005928342629726,134.55150498176178
6.53516288,1.0005119931831485,134.40054475729912
6.537449984,1.0003987770218126,134.25101634524904
6.539737088,1.0002604100693528,134.10335798936367
6.542024192,1.000105352378873,133.9578595858153
6.544310784,0.9999440009122726,133.81468836126137
6.546597888,0.9997860473230584,133.6739275241759
6.548884992,0.999641728885269,133.53536704580324
6.551172096,0.9995202325168949,133.39879099110522
6.5534592,0.9994290620443312,133.26381839075995
6.555746304,0.9993743017447678,133.12994106171934
6.558033408,0.9993592717347825,132.99662387914947
6.56032,0.999385028725598,132.86325334190892
6.562607104,0.9994501534925634,132.7292832495777
6.564894208,0.9995503400518582,132.59414278964505
6.567181312,0.9996794577976849,132.45739702092987
6.569468416,0.999829102772341,132.31864290677058
6.57175552,0.9999898706894058,132.17769018365894
6.574042112,1.0001517273116813,132.03442857635878
6.576329216,1.000304484640091,131.88893013520604
6.57861632,1.0004381384431742,131.7413653605109
6.580903424,1.0005444914262018,131.59212474416896
6.583190528,1.0006166922590896,131.44161291644392
6.585477632,1.000650035171177,131.2903590837727
6.587764224,1.0006424405762337,131.1389433400808
6.590051328,1.0005945712253401,130.98799699279175
6.592338432,1.0005089806866474,130.83803444725956
6.594625536,1.0003913992147395,130.68959098022248
6.59691264,1.000249001412939,130.5430674109334
6.599199744,1.000090941327529,130.39876493069067
6.601486336,0.9999270748330061,130.25685111001536
6.60377344,0.9997679857387446,130.11730675760597
6.606060544,0.9996234663955245,129.98000549757677
6.608347648,0.9995029369585038,129.84470284204457
6.610634752,0.999414074788652,129.71095549635143
6.612921856,0.9993623788487445,129.57825337815524
6.615208448,0.9993512679067608,129.44606724185834
6.617495552,0.9993815169650606,129.31380778055865
6.619782656,0.9994512932197489,129.18085822068917
6.62206976,0.9995560137919282,129.04665450167192
6.624356864,0.9996892849220991,128.91078895220653
6.626643968,0.9998425973998188,128.77288580430167
6.628931072,1.0000062334555775,128.63267593417388
6.631217664,1.0001698516040238,128.49016010157322
6.633504768,1.0003230006311348,128.34536882366746
6.635791872,1.0004562664236047,128.19856195232185
6.638078976,1.0005608331664009,128.0500513399119
6.64036608,1.0006302160314537,127.90029631444466
6.642653184,1.0006600487146105,127.74987005638249
6.644939776,1.000648264861101,127.59933148850524
6.64722688,1.000595507963591,127.44930825735763
6.649513984,1.000505346291329,127.30034740562257
6.651801088,1.0003831754679469,127.15295768470352
6.654088192,1.0002368006472409,127.0075863759687
6.656375296,1.000075595097584,126.86447010479799
6.658661888,0.9999094356782966,126.72373869288279
6.660948992,0.9997490459279935,126.58545700033135
6.663236096,0.9996046682031773,126.44940599368974
6.6655232,0.9994854480199916,126.31533515525848
6.667810304,0.9993987442651004,126.18280866378426
6.670097408,0.9993503717920877,126.05128421293969
6.672384,0.9993434562793692,125.92022371493042
6.674671104,0.9993782536715129,125.78901903548649
6.676958208,0.9994527000273278,125.65705659700444
6.679245312,0.999562177589644,125.5237970775258
6.681532416,0.9996998071108055,125.38875717885972
6.68381952,0.9998566977061896,125.25163563104685
6.686106112,1.0000231176318706,125.11219617195464
6.688393216,1.0001884127135254,124.97038616112755
6.69068032,1.0003421351328163,124.82631809939993
6.692967424,1.0004745534262292,124.68016470585334
6.695254528,1.0005772344120856,124.53235941408477
6.697541632,1.000643642074302,124.38335620957564
6.699828224,1.0006697419988098,124.23373110540524
6.702115328,1.0006534776406446,124.0840632030358
6.704402432,1.0005960104839817,123.93496263796767
6.706689536,1.0005008514665747,123.78699951095498
6.70897664,1.0003742191556542,123.64068031148858
6.711263744,1.0002238021103846,123.4964156790989
6.713550848,1.000059386742898,123.35443733081954
6.71583744,0.9998909758406466,123.21494901299201
6.718124544,0.9997297022639405,123.07788063185185
6.720411648,0.999585496233733,122.94307915256141
6.722698752,0.9994676308596682,122.81024729656338
6.724985856,0.9993834763168022,122.67889227770003
6.72727296,0.999338702956868,122.54856161669879
6.729559552,0.9993359454706013,122.41859487254074
6.731846656,0.9993756135160458,122.28840923063346
6.73413376,0.9994549807784072,122.15739734400978
6.736420864,0.9995691896694181,122.02501057831296
6.738707968,0.9997112402376144,121.8907899326693
6.740995072,0.9998717471838953,121.75444090364107
6.743281664,1.0000409379068984,121.61570788975015
6.745568768,1.0002078177246103,121.47457087120223
6.747855872,1.0003619193810165,121.33115736404449
6.750142976,1.0004933690591242,121.18569909217352
6.75243008,1.0005939460956794,121.0385824251335
6.754717184,1.0006572002014298,120.89030438499934
6.757003776,1.0006792034119836,120.74143553526318
6.75929088,1.00065814419681,120.59261136205208
6.761577984,1.0005958417608833,120.44442722316292
6.763865088,1.000495816093353,120.29742715099562
6.766152192,1.0003643770833557,120.15213663662118
6.768439296,1.0002099216035663,120.00897392374695
6.770725888,1.000042321931745,119.86818777227558
6.773012992,0.9998718336977885,119.72988935998839
6.775300096,0.9997096144458958,119.59405991763309
6.7775872,0.9995658035761898,119.46050613875242
6.779874304,0.9994495186066124,119.32887607378377
6.782161408,0.9993681986558295,119.19869980430651
6.784448512,0.9993271113400936,119.06948287767888
6.786735104,0.9993288394300033,118.94058077523077
6.789022208,0.9993733317301504,118.81140531579824
6.791309312,0.999457865623326,118.68129936202568
6.793596416,0.9995770911006997,118.54976000794579
6.79588352,0.9997233627572758,118.4163674388163
6.798170624,0.9998876984189513,118.28070679583092
6.800457216,1.0000593728994804,118.1426565525298
6.80274432,1.0002277341943078,118.0021962731391
6.805031424,1.000382045535335,117.85939885512134
6.807318528,1.0005124616949077,117.71457556811723
6.809605632,1.0006106812788444,117.56810314573632
6.811892736,1.0006706628196889,117.4205279986166
6.814179328,1.0006882999099997,117.27242463774088
6.816466432,1.000662589139485,117.12441650553684
6.818753536,1.0005949577738988,116.97711930304257
6.82104064,1.0004899948486143,116.83108945521805
6.823327744,1.0003538281149154,116.68686041582849
6.825614848,1.0001954525697567,116.54476679722917
6.82790144,1.0000244996123127,116.40517497675599
6.830188544,0.9998520578800904,116.2680620777015
6.832475648,0.9996889696532696,116.13342815407255
6.834762752,0.9995457471729996,116.00106040211821
6.837049856,0.9994312015117802,115.87060034481546
6.83933696,0.9993529841530053,115.74161933908908
6.841623552,0.9993157453362472,115.61348302079192
6.843910656,0.9993221458780318,115.48563329261114
6.84619776,0.999371850019174,115.35741943105711
6.848484864,0.9994615479379576,115.22821717711693
6.850771968,0.9995856276853221,115.09752582864645
6.853059072,0.9997364912022868,114.9648465859796
6.855345664,0.9999043598498141,114.82987649947579
6.857632768,1.0000786071373455,114.69246496298605
6.859919872,1.0002483290676236,114.55258952965619
6.862206976,1.0004027037344772,114.41039588989138
6.86449408,1.000531872217664,114.26618132190315
6.866781184,1.0006274828312978,114.12036903270457
6.869068288,1.0006837254261838,113.97346149468206
6.87135488,1.0006970172502385,113.82612256130399
6.873641984,1.0006663463211736,113.67889771176792
6.875929088,1.0005935163495114,113.5324843791569
6.878216192,1.000483212522714,113.38741207854892
6.880503296,1.0003422603485925,113.24420876209751
6.8827904,1.0001798104118609,113.1032179923018
6.885076992,1.000005764069267,112.96472313256596
6.887364096,0.9998314918468404,112.82878802887208
6.8896512,0.9996677807746824,112.69535050297233
6.891938304,0.9995251709431879,112.56417534419383
6.894225408,0.9994128151851968,112.43490562087891
6.896512512,0.9993376999571562,112.30703056520483
6.898799104,0.9993045635861275,112.17998633946176
6.901086208,0.999315903610953,112.05313631366151
6.903373312,0.9993708755822059,111.92585820145588
6.905660416,0.9994658772717534,111.7975434409986
6.90794752,0.9995951339577275,111.66759697171169
6.910234624,0.9997504162085035,111.5356369485435
6.912521216,0.9999218596500085,111.40133790035992
6.91480832,1.0000985499336343,111.26451695055398
6.917095424,1.0002695009388238,111.12524404839847
6.919382528,1.0004235812641136,110.98360968967849
6.921669632,1.0005512394237233,110.8399753306677
