freq,mag,phase
6.0,1.0000423962709801,159.27727037485934
6.041451008,1.0000396722571063,156.60433035755955
6.082901504,1.0000375364061826,153.93242541262606
6.124352512,1.0000353089639424,151.2615500145436
6.165803008,1.00003284171879,148.59172656328505
6.207254016,1.0000301016221484,145.92299955918776
6.248704512,1.0000270063462744,143.25535791042134
6.29015552,1.0000238464681728,140.5888306951307
6.331606016,1.000020353210081,137.92340974851635
6.373057024,1.0000168266299125,135.25912055805583
6.41450752,1.0000131919850623,132.59597239709646
6.455958528,1.000009449311373,129.93396600459468
6.497409536,1.000005643853701,127.27313121074674
6.538860032,1.0000017828815744,124.61344696375508
6.58031104,0.9999978721022975,121.95491640947682
6.621761536,0.9999940818297878,119.29756417805432
6.663212544,0.9999902797402571,116.64138523252849
6.70466304,0.9999865140793551,113.98635022676335
6.746114048,0.999983051313914,111.33247821441084
6.787564544,0.9999796532248785,108.67978356007976
6.829015552,0.9999764002684608,106.02823144227207
6.87046656,0.9999732921623005,103.37784971085861
6.911917056,0.9999704867490109,100.72859454063436
6.953368064,0.9999679449932265,98.08047260615297
6.99481856,0.9999656677813717,95.43348955350412
7.036269568,0.9999636367650881,92.7875953975606
7.077720064,0.9999619799379059,90.14283235785388
7.119171072,0.9999605710494721,87.49914441000202
7.160621568,0.9999595141606482,84.85651975274325
7.202072576,0.9999587986826717,82.21497030465017
7.243523072,0.9999585469851409,79.57445302782729
7.28497408,0.9999585433254391,76.93496264936095
7.326425088,0.9999588933971173,74.29648612169926
7.367875584,0.9999596156279712,71.65898400648095
7.409326592,0.9999606164787828,69.02246776476034
7.450777088,0.9999620180922234,66.38687896678502
7.492228096,0.9999637677438772,63.752235353512816
7.533678592,0.9999657794459207,61.118493001022365
7.5751296,0.9999680956047824,58.48561775778083
7.616580096,0.9999706376529788,55.85361466098756
7.658031104,0.9999734753333823,53.222446952065965
7.699482112,0.9999764932786777,50.592073428492064
7.740932608,0.9999797546287156,47.962495813882285
7.782383616,0.9999832229857932,45.333675108183655
7.823834112,0.9999867217057639,42.70558040922585
7.86528512,0.9999904799524205,40.0782007414059
7.906735616,0.9999942396212111,37.451501591981284
7.948186624,0.9999980330167587,34.82545672130363
7.98963712,1.0000019097636847,32.2000425434797
8.031088128,1.0000057759668048,29.57522837512
8.072538624,1.0000096394052898,26.950988622774965
8.113989632,1.0000133658442463,24.327288530745097
8.15544064,1.00001700193962,21.704117804697752
8.196891136,1.0000206459356424,19.081428044120265
8.238342144,1.000024009761268,16.459225895336484
8.27979264,1.0000272615507608,13.837427653738692
8.321243648,1.0000302561047218,11.216049162902285
8.362694144,1.0000330583173807,8.595060410546544
8.404145152,1.000035720030375,5.974418919530615
8.445595648,1.0000380194865757,3.3540827497797716
8.487046656,1.0000401130772671,0.7340686333322811
8.528497664,1.000041886365455,-1.8856811453563074
8.56994816,1.0000434709476134,-4.505198932416967
8.611398656,1.0000446295257865,-7.124500015308318
8.652850176,1.0000454607718579,-9.743617140844984
8.694300672,1.0000461500140487,-12.362556092052195
8.735751168,1.0000463881028814,-14.981371172724668
8.777201664,1.0000463085041376,-17.60009354775895
8.818653184,1.000045962956044,-20.218721603761296
8.86010368,1.0000452317090174,-22.837307316539608
8.901554176,1.0000442615702225,-25.455856954037156
8.943004672,1.0000429930400427,-28.074405031661776
8.984456192,1.000041359292809,-30.69298221938009
9.025906688,1.000039478653051,-33.311612484823875
9.067357184,1.0000373662101867,-35.93031615873663
9.108808704,1.0000349741813317,-38.54909484434069
9.1502592,1.0000323772370299,-41.16802292750946
9.191709696,1.0000295797350605,-43.78710329503105
9.233160192,1.0000264998629445,-46.406345367443386
9.274611712,1.0000232801962237,-49.02576575961655
9.316062208,1.0000199380845878,-51.64541052722585
9.357512704,1.00001629107437,-54.26530073731359
9.398964224,1.00001268029411,-56.88544422463202
9.44041472,1.0000089416961213,-59.50586929709624
9.481865216,1.000005068675324,-62.12659177850349
9.523315712,1.0000011213967674,-64.74764351790401
9.564767232,0.9999971600519048,-67.3690301835607
9.606217728,0.9999931855239785,-69.9907494305436
9.647668224,0.9999892166900348,-72.61288131225365
9.68911872,0.999985350970688,-75.23538714771051
9.73057024,0.9999815993898151,-77.85831838312689
9.772020736,0.9999777702199312,-80.48166915831838
9.813471232,0.99997421332933,-83.10546403131279
9.854922752,0.9999707832244563,-85.72972841782416
9.896373248,0.9999675528363733,-88.35445557755907
9.937823744,0.9999644329862434,-90.97966168970582
9.97927424,0.9999615947529531,-93.60537713836541
10.02072576,0.9999590305600813,-96.23160971020741
10.062176256,0.9999566802548369,-98.8583588182848
10.103626752,0.99995468288929,-101.4856427715121
10.145077248,0.9999529655173369,-104.11347946017955
10.186528768,0.9999515870855583,-106.74185424290746
10.227979264,0.9999505747875983,-109.37080005723465
10.26942976,0.9999499079871623,-112.00032447213886
10.31088128,0.9999496094383061,-114.63042759351853
10.352331776,0.9999498013463517,-117.26111837229257
10.393782272,0.9999502414753577,-119.8923895253516
10.435232768,0.9999512181070972,-122.52426812625623
10.476684288,0.9999525962885696,-125.15674099380439
10.518134784,0.9999543962327246,-127.78981708657453
10.55958528,0.9999565412319192,-130.42350365601442
10.601035776,0.9999590886809692,-133.05780271662516
10.642487296,0.9999620493322943,-135.69271004689855
10.683937792,0.9999653891359261,-138.32822101493346
10.725388288,0.9999690728917854,-140.96436270754924
10.766839808,0.9999731547964996,-143.60108438465932
10.808290304,0.9999775431470793,-146.23842657730034
10.8497408,0.9999820235443346,-148.87636742651938
10.891191296,0.9999869196272878,-151.51490733932656
10.932642816,0.9999920449440752,-154.15403821370217
10.974093312,0.9999973603720363,-156.79377280736136
11.015543808,1.0000027611515403,-159.43406326874583
11.056995328,1.0000082252808542,-162.07492619548609
11.098445824,1.000013763844019,-164.7163427795492
11.13989632,1.0000192323241057,-167.3583283625774
11.181346816,1.0000247368515454,-170.00084369329284
11.222798336,1.0000301460539054,-172.64388290833915
11.264248832,1.0000354430595126,-175.28745730836204
11.305699328,1.0000404445056186,-177.9315113320613
11.347149824,1.00004524056723,179.42393648315831
11.388601344,1.0000497575022869,176.77891148651787
11.43005184,1.0000539339181926,174.1334458664589
11.471502336,1.0000576389464872,171.4875294125974
11.512953856,1.000060997110287,168.84120798746036
11.554404352,1.0000638312281807,166.19448111418225
11.595854848,1.0000662469906865,163.54737310803927
11.637305344,1.0000679817624891,160.89991896717765
11.678756864,1.0000692239593383,158.2521086211368
11.72020736,1.0000699623844023,155.60399772183032
11.761657856,1.0000700268542608,152.95559670585487
11.803108352,1.0000695507805712,150.30691978357916
11.844559872,1.0000683402048567,147.65799624706344
11.886010368,1.0000666229223705,145.0088576783154
11.927460864,1.0000641502411016,142.35950768074392
11.968912384,1.0000612374159183,139.70998574283155
12.01036288,1.0000576945630555,137.06031594935934
12.051813376,1.0000536263912176,134.4105233898938
12.093263872,1.0000489485750872,131.76063222052275
12.134715392,1.0000438761571728,129.1106520661911
12.176165888,1.000038434962237,126.46062925104061
12.217616384,1.0000324887434981,123.81058721355782
12.25906688,1.0000262451671516,121.16052631369695
12.3005184,1.0000196889066728,118.5105034134138
12.341968896,1.0000129605742745,115.86051896260236
12.383419392,1.0000060412527254,113.2105936276398
12.424870912,0.999999006926202,110.56077415292779
12.466321408,0.9999920256246729,107.91105848062007
12.507771904,0.9999850819608641,105.2614845733045
12.5492224,0.9999781676497311,102.61206243378217
12.59067392,0.9999713874896831,99.96283210858525
12.632124416,0.999964963408095,97.31378236529083
12.673574912,0.9999587282722511,94.66496716795167
12.715025408,0.9999529628457259,92.01638329632397
12.756476928,0.9999475713959626,89.36806091991133
12.797927424,0.9999425874935534,86.72001493009756
12.83937792,0.9999382714783909,84.07225972690522
12.88082944,0.999934393107108,81.4248152699678
12.922279936,0.9999311409891148,78.77770368890798
12.963730432,0.9999285788441606,76.13092846081487
13.005180928,0.9999266266667928,73.48452471771355
13.046632448,0.9999254083564322,70.83847777100759
13.088082944,0.999924816224588,68.19283596540996
13.12953344,0.9999249282751559,65.54759138886743
13.17098496,0.9999258109855446,62.902748074821986
13.212435456,0.9999273598027216,60.25835008498093
13.253885952,0.9999295405846849,57.61437680862404
13.295336448,0.9999324181288531,54.970869553889536
13.336787968,0.9999359113717878,52.327830616808924
13.378238464,0.9999400217892641,49.68526544132699
13.41968896,0.999944590334168,47.043193648170764
13.461139456,0.9999497388183438,44.40161567915487
13.502590976,0.9999553669540391,41.760539174667066
13.544041472,0.9999614093394936,39.119987225998926
13.585491968,0.999967784358043,36.47996706494323
13.626943488,0.9999744908578247,33.84049268650135
13.668393984,0.9999813769346919,31.2015604305589
13.70984448,0.9999884957154358,28.56319071986195
13.751294976,0.9999956394032591,25.925393279174642
13.792746496,1.0000028582675349,23.288154669879148
13.834196992,1.0000101058112325,20.651505024344047
13.875647488,1.0000172311966498,18.01544930698619
13.917097984,1.0000243401202726,15.379997189109266
13.958549504,1.0000311060199194,12.745152591280064
14.0,1.0000376392664385,10.110922547788618
