freq,mag,phase
6.0,0.9999892607451815,-125.94224434641262
6.008,0.9999889404940454,-126.35597611713216
6.016,0.9999886453226373,-126.76964428092951
6.024,0.9999883746196004,-127.18324881640638
6.032,0.9999881277808939,-127.59678970704492
6.04,0.9999879042097674,-128.01026694117695
6.048,0.9999877033167417,-128.42368051195314
6.056,0.9999875245195794,-128.83703041731223
6.064,0.9999873672432649,-129.2503166599501
6.072,0.9999872309199748,-129.66353924728895
6.08,0.9999871149890558,-130.07669819144638
6.088,0.9999870188969948,-130.4897935092045
6.096,0.9999869420973942,-130.9028252219789
6.104,0.9999868840509439,-131.31579335578766
6.112,0.9999868442253923,-131.7286979412205
6.12,0.9999868220955183,-132.14153901340768
6.128,0.9999868171431018,-132.55431661198884
6.136,0.9999868288568936,-132.96703078108237
6.144,0.9999868567325874,-133.37968156925388
6.152,0.999986900272785,-133.79226902948565
6.16,0.9999869589869701,-134.20479321914524
6.168,0.999987032391472,-134.61725419995457
6.176,0.9999871200094382,-135.02965203795895
6.184,0.9999872213707952,-135.441986803496
6.192,0.9999873360122229,-135.8542585711646
6.2,0.999987463477117,-136.26646741979386
6.208,0.9999876033155564,-136.67861343241228
6.216,0.9999877550842655,-137.0906966962165
6.224,0.9999879183465851,-137.5027173025406
6.232,0.9999880926724346,-137.91467534682488
6.24,0.999988277638275,-138.3265709285853
6.248,0.9999884728270726,-138.73840415138207
6.256,0.9999886778282696,-139.1501751227892
6.264,0.9999888922377375,-139.5618839543633
6.272,0.9999891156577468,-139.9735307616131
6.28,0.9999893476969278,-140.38511566396824
6.288,0.9999895879702302,-140.7966387847489
6.296,0.9999898360988918,-141.20810025113462
6.304,0.999990091710392,-141.61950019413408
6.312,0.9999903544384191,-142.03083874855398
6.32,0.9999906239228282,-142.44211605296866
6.328,0.9999908998096015,-142.85333224968946
6.336,0.999991181750812,-143.26448748473413
6.344,0.9999914694045796,-143.67558190779636
6.352,0.9999917624350346,-144.0866156722152
6.36,0.9999920605122739,-144.49758893494487
6.368,0.9999923633123208,-144.9085018565242
6.376,0.999992670517087,-145.31935460104626
6.384,0.9999929818143269,-145.7301473361282
6.392,0.9999932968975996,-146.14088023288113
6.4,0.9999936154662257,-146.5515534658798
6.408,0.9999939372252452,-146.9621672131324
6.416,0.999994261885377,-147.37272165605066
6.424,0.9999945891629731,-147.78321697941985
6.432,0.9999949187799764,-148.19365337136884
6.44,0.9999952504638856,-148.60403102334004
6.448,0.9999955839477008,-149.0143501300598
6.456,0.9999959189698867,-149.42461088950853
6.464,0.9999962552743286,-149.83481350289108
6.472,0.9999965926102881,-150.24495817460698
6.48,0.99999693073236,-150.6550451122211
6.4879999999999995,0.9999972694004278,-151.0650745264339
6.496,0.99999760837962,-151.47504663105218
6.504,0.9999979474402665,-151.8849616429595
6.5120000000000005,0.999998286357853,-152.2948197820874
6.52,0.9999986249129789,-152.7046212713853
6.5280000000000005,0.9999989628913091,-153.11436633679247
6.536,0.9999993000835327,-153.52405520720774
6.5440000000000005,0.9999996362853176,-153.93368811446166
6.552,0.999999971297265,-154.34326529328663
6.5600000000000005,0.9999999999999999,-154.75278698128878
6.568,1.0,-155.16225341891845
6.5760000000000005,1.0,-155.5716648494424
6.584,0.9999999999999999,-155.98102151891422
6.592,1.0,-156.39032367614658
6.6,0.9999999999999999,-156.79957157268234
6.608,0.9999999999999999,-157.2087654627662
6.616,0.9999999999999999,-157.6179056033166
6.624,1.0,-158.02699225389733
6.632,1.0,-158.4360256766894
6.64,1.0,-158.84500613646307
6.648,1.0,-159.25393390054975
6.656,0.9999999999999999,-159.66280923881433
6.664,0.9999999999999999,-160.07163242362708
6.672,0.9999999999999998,-160.48040372983615
6.68,1.0,-160.88912343474001
6.688,0.9999999999999999,-161.2977918180595
6.696,1.0,-161.70640916191087
6.704,0.9999999999999999,-162.11497575077806
6.712,1.0,-162.52349187148556
6.72,0.9999999999999999,-162.93195781317127
6.728,0.9999999999999999,-163.3403738672591
6.736,1.0,-163.7487403274324
6.744,1.0,-164.1570574896065
6.752,0.9999999999999999,-164.5653256519024
6.76,1.0,-164.97354511461964
6.768,1.0,-165.3817161802098
6.776,0.9999999999999999,-165.7898391532498
6.784,1.0,-166.1979143404156
6.792,1.0,-166.6059420504557
6.8,1.0,-167.0139225941648
6.808,1.0,-167.42185628435766
6.816,1.0,-167.82974343584297
6.824,0.9999999999999999,-168.23758436539734
6.832,0.9999999999999999,-168.64537939173925
6.84,0.9999999999999999,-169.05312883550337
6.848,1.0,-169.46083301921468
6.856,1.0,-169.8684922672629
6.864,1.0,-170.27610690587682
6.872,1.0000000000000002,-170.68367726309899
6.88,0.9999999999999999,-171.09120366876007
6.888,1.0,-171.49868645445386
6.896,0.9999999999999998,-171.9061259535118
6.904,1.0,-172.31352250097814
6.912,1.0,-172.7208764335846
6.92,1.0,-173.12818808972588
6.928,0.9999999999999999,-173.53545780943432
6.936,0.9999999999999999,-173.9426859343556
6.944,1.0,-174.34987280772387
6.952,0.9999999999999999,-174.7570187743372
6.96,1.0,-175.16412418053324
6.968,1.0,-175.5711893741647
6.976,1.0,-175.97821470457515
6.984,1.0,-176.38520052257488
6.992,1.0,-176.7921471804167
7.0,1.0,-177.19905503177196
7.008,1.0,-177.6059244317068
7.016,0.9999999999999999,-178.01275573665802
7.024,1.0,-178.4195493044096
7.032,1.0,-178.8263054940691
7.04,0.9999999999999999,-179.23302466604375
7.048,1.0,-179.63970718201742
7.056,0.9999999999999999,179.953646595073
7.064,1.0,179.54703630106073
7.072,0.9999999999999999,179.1404615705725
7.08,0.9999999999999999,178.73392203705146
7.088,1.0,178.3274173327802
7.096,1.0,177.92094708890377
7.104,0.9999999999999998,177.51451093545242
7.112,1.0000000000000002,177.10810850136448
7.12,1.0,176.7017394145088
7.128,1.0,176.29540330170755
7.136,0.9999999999999999,175.88909978875853
7.144,1.0,175.48282850045763
7.152,1.0,175.0765890606211
7.16,1.0,174.6703810921079
7.168,0.9999999999999998,174.26420421684162
7.176,1.0,173.85805805583274
7.184,1.0,173.45194222920037
7.192,0.9999999999999999,173.04585635619438
7.2,1.0,172.63980005521702
7.208,0.9999999999999999,172.23377294384468
7.216,1.0,171.82777463884943
7.224,1.0,171.42180475622072
7.232,0.9999999999999998,171.01586291118676
7.24,0.9999999999999999,170.6099487182358
7.248,1.0,170.20406179113755
7.256,0.9999999999999999,169.79820174296444
7.264,1.0,169.39236818611244
7.272,1.0,168.98656073232252
7.28,1.0,168.5807789927013
7.288,1.0,168.1750225777421
7.296,1.0,167.76929109734567
7.304,1.0,167.36358416084096
7.312,1.0,166.9579013770056
7.32,0.9999999999999999,166.55224235408681
7.328,1.0,166.1466066998216
7.336,1.0,165.74099402145723
7.344,1.0,165.33540392577154
7.352,1.0,164.92983601909336
7.36,0.9999999999999999,164.5242899073225
7.368,1.0,164.11876519594986
7.376,1.0,163.71326149007763
7.384,0.9999999999999998,163.30777839443908
7.392,1.0,162.90231551341844
7.4,1.0,162.49687245107074
7.4079999999999995,1.0,162.09144881114167
7.416,1.0,161.6860441970868
7.4239999999999995,0.9999999999999999,161.2806582120919
7.432,1.0,160.87529045909156
7.4399999999999995,1.0,160.46994054078948
7.448,0.9999999999999999,160.06460805967706
7.4559999999999995,1.0000000000000002,159.6592926180533
7.464,1.0,159.25399381804374
7.4719999999999995,1.0,158.84871126161963
7.48,1.0,158.44344455061696
7.4879999999999995,0.9999999999999999,158.0381932867557
7.496,1.0,157.63295707165838
7.504,1.0,157.22773550686944
7.5120000000000005,1.0,156.82252819387347
7.52,1.0,156.41733473411455
7.5280000000000005,1.0,156.01215472901427
7.536,1.0,155.60698777999096
7.5440000000000005,1.0,155.20183348847777
7.552,1.0,154.7966914559415
7.5600000000000005,1.0,154.39156128390053
7.568,0.9999999999999999,153.98644257394383
7.5760000000000005,0.9999999999999999,153.58133492774843
7.584,0.9999999999999999,153.17623794709849
7.5920000000000005,1.0,152.77115123390257
7.6,0.9999999999999999,152.36607439021262
7.6080000000000005,0.9999999999999999,151.9610070182411
7.616,1.0,151.5559487203798
7.6240000000000006,1.0,151.1508990992169
7.632,0.9999999999999999,150.74585775755563
7.640000000000001,0.9999999999999999,150.34082429843124
7.648,1.0,149.9357983251295
7.656000000000001,1.0,149.53077944120358
7.664,0.9999999999999999,149.1257672504924
7.672,1.0,148.7207613571375
7.68,0.9999999999999999,148.31576136560082
7.688,1.0,147.91076688068236
7.696,0.9999999999999999,147.505777507537
7.704,1.0,147.1007928516922
7.712,0.9999999999999999,146.69581251906507
7.72,1.0,146.2908361159796
7.728,1.0,145.8858632491838
7.736,1.0,145.48089352586672
7.744,1.0,145.0759265536756
7.752,0.9999999999999999,144.67096194073258
7.76,1.0,144.26599929565188
7.768,1.0,143.8610382275564
7.776,0.9999999331640254,143.45607834609478
7.784,0.9999997027651315,143.0511192614578
7.792,0.9999994729757908,142.6461605843954
7.8,0.9999992438720917,142.24120192623312
7.808,0.9999990155295635,141.8362428988887
7.816,0.9999987880231638,141.43128311488863
7.824,0.999998561427261,141.0263221873846
7.832,0.9999983358156203,140.62135973017
7.84,0.9999981112613895,140.2163953576962
7.848,0.9999978878370817,139.8114286850888
7.856,0.9999976656145648,139.4064593281641
7.864,0.999997444665045,139.00148690344506
7.872,0.9999972250590534,138.59651102817764
7.88,0.999997006866434,138.191531320347
7.888,0.9999967901563284,137.7865473986932
7.896,0.9999965749971652,137.3815588827275
7.904,0.9999963614566458,136.9765653927483
7.912,0.9999961496017321,136.57156654985698
7.92,0.9999959394986357,136.1665619759737
7.928,0.9999957312128046,135.76155129385336
7.936,0.999995524808913,135.35653412710127
7.944,0.9999953203508495,134.9515101001888
7.952,0.9999951179017051,134.54647883846926
7.96,0.9999949175237648,134.14143996819323
7.968,0.9999947192784948,133.73639311652434
7.976,0.9999945232265335,133.3313379115547
7.984,0.9999943294276818,132.92627398232045
7.992,0.9999941379408929,132.52120095881696
8.0,0.999993948824263,132.11611847201456
8.008,0.9999937621350219,131.71102615387358
8.016,0.9999935779295249,131.30592363735957
8.024000000000001,0.9999933962632432,130.90081055645894
8.032,0.9999932171907572,130.49568654619384
8.04,0.9999930407657454,130.09055124263722
8.048,0.99999286704098,129.68540428292806
8.056000000000001,0.9999926960683172,129.28024530528648
8.064,0.9999925278986904,128.87507394902883
8.072,0.9999923625821027,128.46988985458208
8.08,0.9999922001676211,128.06469266349933
8.088000000000001,0.9999920407033689,127.65948201847453
8.096,0.9999918842365199,127.25425756335723
8.104,0.9999917308132914,126.8490189431672
8.112,0.9999915804789407,126.44376580410923
8.120000000000001,0.9999914332777563,126.03849779358806
8.128,0.9999912892530552,125.63321456022288
8.136,0.9999911484471761,125.22791575386161
8.144,0.9999910109014754,124.82260102559563
8.152000000000001,0.9999908766563227,124.41727002777455
8.16,0.9999907457510948,124.01192241402042
8.168,0.9999906182241747,123.60655783924189
8.176,0.9999904941129442,123.20117595964885
8.184000000000001,0.9999903734537824,122.79577643276679
8.192,0.9999902562820618,122.39035891745104
8.2,0.9999901426321448,121.98492307390059
8.208,0.9999900325373806,121.5794685636727
8.216000000000001,0.9999899260301031,121.17399504969693
8.224,0.9999898231416271,120.76850219628925
8.232,0.9999897239022484,120.36298966916573
8.24,0.9999896283412386,119.95745713545686
8.248000000000001,0.9999895364868457,119.55190426372148
8.256,0.9999894483662919,119.14633072396062
8.264,0.9999893640057709,118.74073618763116
8.272,0.9999892834304484,118.33512032765968
8.280000000000001,0.99998920666446,117.92948281845659
8.288,0.9999891337309117,117.52382333592942
8.296,0.9999890646518775,117.11814155749647
8.304,0.9999889994484009,116.71243716210051
8.312,0.9999889381404935,116.30670983022259
8.32,0.999988880747136,115.90095924389503
8.328,0.9999888272862779,115.49518508671547
8.336,0.9999887777748377,115.08938704385956
8.344,0.9999887322287051,114.68356480209519
8.352,0.9999886906627407,114.27771804979498
8.36,0.9999886530907767,113.8718464769502
8.368,0.9999886195256196,113.4659497751834
8.376,0.9999885899790507,113.06002763776223
8.384,0.9999885644618283,112.65407975961186
8.392,0.9999885429836892,112.24810583732871
8.4,0.9999885255533518,111.8421055691928
8.408,0.9999885121785168,111.43607865518146
8.416,0.9999885028658705,111.03002479698142
8.424,0.9999884976210887,110.62394369800252
8.432,0.9999884964488374,110.2178350633897
8.44,0.9999884993527774,109.81169860003656
8.448,0.9999885063355669,109.40553401659729
8.456,0.9999885173988646,108.9993410235001
8.464,0.9999885325433349,108.59311933295896
8.472,0.9999885517686494,108.18686865898715
8.48,0.9999885750734925,107.7805887174087
8.488,0.9999886024555651,107.37427922587185
8.496,0.9999886339115893,106.96793990386051
8.504,0.9999886694373114,106.56157047270736
8.512,0.9999887090275082,106.15517065560556
8.52,0.9999887526759919,105.74874017762144
8.528,0.9999888003756127,105.34227876570614
8.536,0.9999888521182677,104.93578614870836
8.544,0.9999889078949031,104.52926205738572
8.552,0.9999889676955208,104.12270622441746
8.56,0.9999890315091841,103.71611838441567
8.568,0.9999890993240235,103.30949827393783
8.576,0.9999891711272427,102.90284563149807
8.584,0.9999892469051248,102.49616019757947
8.592,0.9999893266430374,102.08944171464516
8.6,0.9999894103254408,101.68268992715062
8.608,0.9999894979358935,101.27590458155456
8.616,0.9999895894570593,100.86908542633124
8.624,0.999989684870713,100.46223221198105
8.632,0.9999897841577501,100.05534469104276
8.64,0.9999898872981907,99.6484226181041
8.648,0.9999899942711887,99.24146574981373
8.656,0.9999901050550388,98.83447384489172
8.664,0.9999902196271843,98.42744666414148
8.672,0.9999903379642244,98.02038397046003
8.68,0.9999904600419213,97.6132855288498
8.688,0.99999058583521,97.20615110642883
8.696,0.9999907153182053,96.79898047244238
8.704,0.9999908484642087,96.39177339827297
8.712,0.9999909852457195,95.98452965745197
8.72,0.999991125634441,95.57724902566942
8.728,0.9999912696012905,95.1699312807854
8.736,0.9999914171164057,94.76257620283994
8.744,0.9999915681491569,94.35518357406404
8.752,0.9999917226681528,93.9477531788895
8.76,0.999991880641252,93.54028480395986
8.768,0.9999920420355696,93.13277823814
8.776,0.9999922068174883,92.72523327252699
8.784,0.9999923749526675,92.31764970045948
8.792,0.9999925464060521,91.91002731752853
8.8,0.9999927211418823,91.50236592158669
8.808,0.9999928991237034,91.09466531275876
8.815999999999999,0.9999930803143756,90.68692529345088
8.824,0.9999932646760836,90.27914566836053
8.832,0.9999934521703466,89.87132624448634
8.84,0.9999936427580285,89.46346683113757
8.847999999999999,0.9999938363993474,89.0555672399433
8.856,0.9999940330538866,88.6476272848621
8.864,0.9999942326806046,88.23964678219149
8.872,0.9999944352378454,87.83162555057707
8.879999999999999,0.9999946406833488,87.42356341102146
8.888,0.9999948489742616,87.01546018689353
8.896,0.9999950600671467,86.60731570393766
8.904,0.9999952739179957,86.1991297902824
8.911999999999999,0.9999954904822385,85.79090227644912
8.92,0.999995709714754,85.38263299536104
8.928,0.9999959315698822,84.97432178235188
8.936,0.9999961560014333,84.56596847517442
8.943999999999999,0.9999963829627007,84.15757291400868
8.952,0.9999966124064706,83.74913494147057
8.96,0.9999968442850335,83.34065440262029
8.968,0.9999970785501968,82.93213114497043
8.975999999999999,0.9999973151532933,82.52356501849383
8.984,0.9999975540451955,82.11495587563186
8.992,0.9999977951763249,81.70630357130247
9.0,0.999998038496664,81.29760796290788
9.008,0.9999982839557688,80.88886891034213
9.016,0.9999985315027778,80.48008627599884
9.024000000000001,0.9999987810864271,80.07125992477908
9.032,0.9999990326550589,79.66238972409849
9.04,0.9999992861566347,79.25347554389454
9.048,0.9999995415387467,78.84451725663389
9.056000000000001,0.9999997987486294,78.43551473731983
9.064,1.0,78.02646786349904
9.072,0.9999999999999999,77.61737651526836
9.08,1.0,77.20824057528192
9.088000000000001,1.0,76.79905992875793
9.096,1.0,76.38983446348524
9.104,1.0,75.98056406982965
9.112,1.0,75.57124864074046
9.120000000000001,1.0,75.16188807175708
9.128,1.0,74.7524822610149
9.136,0.9999999999999999,74.3430311092514
9.144,1.0,73.9335345198122
9.152000000000001,1.0,73.52399239865709
9.16,1.0,73.11440465436573
9.168,0.9999999999999999,72.70477119814302
9.176,0.9999999999999999,72.29509194382489
9.184000000000001,1.0,71.88536680788388
9.192,1.0,71.47559570943426
9.2,1.0,71.06577857023703
9.208,1.0,70.65591531470527
9.216000000000001,0.9999999999999999,70.24600586990915
9.224,1.0,69.83605016558072
9.232,1.0,69.42604813411833
9.24,0.9999999999999999,69.01599971059154
9.248000000000001,0.9999999999999998,68.60590483274564
9.256,0.9999999999999999,68.19576344100591
9.264,0.9999999999999999,67.78557547848172
9.272,1.0,67.37534089097072
9.280000000000001,1.0,66.96505962696307
9.288,1.0000000000000002,66.55473163764508
9.296,1.0,66.1443568769028
9.304,1.0,65.73393530132579
9.312000000000001,1.0,65.32346687021074
9.32,1.0,64.91295154556472
9.328,0.9999999999999999,64.50238929210819
9.336,1.0,64.09178007727816
9.344,0.9999999999999999,63.68112387123159
9.352,0.9999999999999999,63.27042064684745
9.36,1.0,62.859670379730176
9.368,1.0,62.44887304821152
9.376,0.9999999999999999,62.03802863335363
9.384,1.0,61.62713711895069
9.392,1.0,61.216198491531735
9.4,1.0,60.80521274036192
9.408,1.0,60.394179857445174
9.416,1.0,59.98309983752512
9.424,0.9999999999999999,59.571972678087484
9.432,1.0,59.16079837936077
9.44,1.0,58.749576944318235
9.448,1.0,58.33830837867843
9.456,0.9999999999999999,57.92699269090688
9.464,1.0,57.51562989221624
9.472,1.0,57.104219996567764
9.48,1.0,56.69276302067112
9.488,1.0,56.28125898398561
9.496,0.9999999999999999,55.869707908719754
9.504,1.0,55.45810981983202
9.512,1.0,55.046464745030235
9.52,1.0,54.63477271477205
9.528,1.0,54.22303376226398
9.536,0.9999999999999999,53.81124792346167
9.544,1.0,53.39941523706846
9.552,1.0,52.98753574453542
9.56,0.9999999999999999,52.57560949005971
9.568,1.0,52.1636365205842
9.576,1.0,51.75161688579552
9.584,0.9999999999999999,51.33955063812344
9.592,1.0,50.92743783273856
9.6,0.9999999999999999,50.515278527551345
9.608,1.0,50.1030727832095
9.616,1.0,49.69082066309684
9.624,1.0,49.27852223333018
9.632,1.0,48.866177562757876
9.64,1.0,48.45378672295656
9.648,1.0,48.0413497882292
9.656,0.9999999999999999,47.628866835601585
9.664,0.9999999999999999,47.216337944820026
9.672,0.9999999999999999,46.80376319834755
9.68,0.9999999999999999,46.39114268136133
9.688,1.0,45.97847648174839
9.696,0.9999999999999999,45.56576469010283
9.704,1.0,45.1530073997212
9.712,1.0,44.74020470659928
9.72,0.9999999999999999,44.327356709427384
9.728,0.9999999999999998,43.91446350958651
9.736,1.0,43.50152521114341
9.744,1.0,43.088541920846495
9.752,1.0,42.67551374812051
9.76,1.0,42.262440805062084
9.768,1.0,41.84932320643403
9.776,1.0,41.436161069660756
9.784,0.9999999999999999,41.02295451482191
9.792,1.0000000000000002,40.60970366464769
9.8,1.0,40.196408644512154
9.808,1.0,39.783069582428006
9.816,0.9999999999999999,39.369686609039725
9.824,0.9999999999999999,38.956259857617944
9.832,0.9999999999999999,38.542789464052284
9.84,1.0,38.12927556684534
9.847999999999999,1.0,37.715718307105206
9.856,1.0,37.30211782853885
9.864,1.0,36.888474277444914
9.872,1.0000000000000002,36.4747878027064
9.879999999999999,1.0,36.06105855578275
9.888,0.9999999999999999,35.64728669070245
9.896,0.9999999999999999,35.233472364055274
9.904,1.0,34.81961573498409
9.911999999999999,1.0,34.405716965176424
9.92,1.0,33.9917762188562
9.928,1.0000000000000002,33.57779366277545
9.936,1.0,33.16376946620527
9.943999999999999,0.9999999999999999,32.74970380092681
9.952,1.0,32.33559684122226
9.96,1.0,31.921448763865854
9.968,1.0,31.507259748114162
9.975999999999999,1.0,31.093029975696282
9.984,1.0,30.678759630804304
9.992,0.9999999999999999,30.26444890008347
10.0,1.0,29.85009797262177
10.008,0.9999999999999999,29.43570703993958
10.016,1.0,29.021276295979227
10.024000000000001,1.0,28.606805937094556
10.032,1.0,28.192296162039874
10.04,0.9999999999999999,27.777747171958783
