freq,mag,phase
6.0,0.9999910091975777,141.87195565315187
6.008,0.9999914230784357,141.4566435981996
6.016,0.9999918164929605,141.04019940654646
6.024,0.9999921896388935,140.62261219117863
6.032,0.9999925427136941,140.20387100386446
6.04,0.9999928759145549,139.78396483526123
6.048,0.9999931894384146,139.3628826150403
6.056,0.9999934834819767,138.94061321203122
6.064,0.9999937582417215,138.51714543438507
6.072,0.999994013913926,138.09246802975863
6.08,0.9999942506946735,137.6665696855187
6.088,0.9999944687798762,137.2394390289683
6.096,0.9999946683652882,136.81106462759521
6.104,0.9999948496465215,136.38143498934323
6.112,0.999995012819065,135.95053856290693
6.12,0.9999951580782988,135.51836373805108
6.128,0.9999952856195133,135.08489884595505
6.136,0.9999953956379247,134.65013215958317
6.144,0.9999954883286948,134.21405189408145
6.152,0.9999955638869448,133.77664620720213
6.16,0.9999956225077783,133.3379031997566
6.168,0.9999956643862933,132.89781091609674
6.176,0.9999956897176059,132.45635734462695
6.184,0.9999956986968641,132.01353041834693
6.192,0.9999956915192688,131.56931801542558
6.2,0.999995668380093,131.12370795980814
6.208,0.9999956294746961,130.67668802185662
6.216,0.9999955749985507,130.22824591902474
6.224,0.9999955051472526,129.77836931656807
6.232,0.9999954201165451,129.327045828291
6.24,0.9999953201023397,128.87426301733072
6.248,0.9999952053007314,128.42000839697968
6.256,0.9999950759080195,127.96426943154745
6.264,0.9999949321207303,127.50703353726333
6.272,0.9999947741356326,127.04828808321979
6.28,0.9999946021497575,126.58802039235935
6.288,0.9999944163604251,126.12621774250448
6.296,0.9999942169652533,125.66286736743254
6.304,0.99999400416219,125.19795645799678
6.312,0.9999937781495208,124.73147216329416
6.32,0.9999935391259022,124.2634015918816
6.328,0.9999932872903715,123.7937318130416
6.336,0.9999930228423692,123.32244985809837
6.344,0.9999927459817641,122.84954272178604
6.352,0.9999924569088688,122.37499736366966
6.36,0.9999921558244605,121.89880070962059
6.368,0.9999918429298018,121.42093965334772
6.376,0.999991518426663,120.941401057985
6.384,0.9999911825173363,120.46017175773761
6.392,0.9999908354046637,119.97723855958736
6.4,0.9999904772920513,119.49258824505881
6.408,0.9999901083834896,119.0062075720474
6.416,0.9999897288835753,118.51808327671148
6.424,0.9999893389975301,118.02820207542823
6.432,0.99998893893122,117.53655066681677
6.44,0.9999885288911741,117.0431157338279
6.448,0.999988109084605,116.54788394590341
6.456,0.999987679719426,116.05084196120497
6.464,0.9999872410042703,115.55197642891558
6.472,0.9999867931485116,115.05127399161333
6.48,0.9999863363622769,114.54872128772014
6.4879999999999995,0.999985870856471,114.0443049540262
6.496,0.999985396842789,113.53801162829164
6.504,0.9999849145337335,113.0298279519275
6.5120000000000005,0.9999844241426374,112.51974057275594
6.52,0.9999839258836722,112.00773614785314
6.5280000000000005,0.9999834199718673,111.4938013464738
6.536,0.9999829066231282,110.97792285306183
6.5440000000000005,0.9999823860542468,110.46008737034485
6.552,0.9999818584829188,109.94028162251772
6.5600000000000005,0.9999813241277591,109.418492358513
6.568,0.9999807832083093,108.89470635536296
6.5760000000000005,0.9999802359450551,108.36891042165115
6.584,0.9999796825594403,107.84109140105853
6.592,0.9999791232738722,107.31123617600151
6.6,0.9999785583117351,106.77933167136706
6.608,0.9999779878974037,106.2453648583432
6.616,0.9999774122562475,105.7093227583478
6.624,0.9999768316146388,105.17119244705603
6.632,0.9999762461999632,104.63096105852847
6.64,0.9999756562406288,104.08861578944008
6.648,0.9999750619660631,103.54414390341202
6.656,0.9999744636067237,102.99753273544665
6.664,0.9999738613941036,102.44876969646769
6.672,0.9999732555607267,101.89784227796514
6.68,0.9999726463401557,101.34473805674753
6.688,0.9999720339669902,100.78944469980102
6.696,0.9999714186768638,100.23194996925697
6.704,0.9999708007064454,99.67224172746837
6.712,0.9999701802934315,99.110307942196
6.72,0.9999695576765452,98.54613669190508
6.728,0.9999689330955265,97.97971617117246
6.736,0.9999683067911285,97.41103469620548
6.744,0.9999676790051029,96.84008071047244
6.752,0.9999670499801929,96.26684279044517
6.76,0.9999664199601198,95.69130965145393
6.768,0.9999657891895692,95.11347015365472
6.776,0.9999651579141734,94.53331330810903
6.784,0.999964526380496,93.95082828297596
6.792,0.9999638948360111,93.36600440981661
6.8,0.9999632635290817,92.77883119001035
6.808,0.9999626327089389,92.18929830128232
6.816,0.999962002625652,91.59739560434241
6.824,0.9999613735301064,91.00311314963383
6.832,0.9999607456739705,90.40644118419166
6.84,0.9999601193096653,89.80737015860964
6.848,0.9999594946903322,89.20589073411436
6.856,0.999958872069794,88.60199378974573
6.864,0.9999582517025188,87.99567042964208
6.872,0.9999576338435795,87.38691199042852
6.88,0.9999570187486094,86.77571004870676
6.888,0.9999564066737576,86.16205642864435
6.896,0.9999557978756408,85.5459432096616
6.904,0.9999551926112926,84.92736273421346
6.912,0.9999545911381106,84.30630761566437
6.92,0.9999539937138003,83.68277074625287
6.928,0.9999534005963175,83.05674530514389
6.936,0.9999528120438058,82.42822476656482
6.944,0.9999522283145335,81.79720290802264
6.952,0.9999516496668265,81.16367381859854
6.96,0.9999510763589987,80.52763190731618
6.968,0.99995050864928,79.88907191157973
6.976,0.9999499467957405,79.24798890567776
6.984,0.9999493910562117,78.60437830934806
6.992,0.9999488416882064,77.95823589639944
7.0,0.9999482989488333,77.30955780338503
7.008,0.9999477630947111,76.65834053832252
7.016,0.9999472343818767,76.00458098945545
7.024,0.9999467130656933,75.34827643405035
7.032,0.999946199400753,74.68942454722385
7.04,0.9999456936407787,74.02802341079318
7.048,0.9999451960385212,73.36407152214454
7.056,0.9999447068456536,72.69756780311167
7.064,0.9999442263126638,72.0285116088587
7.072,0.999943754688742,71.35690273675952
7.08,0.9999432922216677,70.68274143526652
7.088,0.9999428391576914,70.00602841276088
7.096,0.9999423957414167,69.32676484637672
7.104,0.9999419622156742,68.64495239079068
7.112,0.9999415388213976,67.9605931869686
7.12,0.9999411257974959,67.27368987086068
7.128,0.9999407233807208,66.58424558203616
7.136,0.9999403318055332,65.89226397224807
7.144,0.9999399513039674,65.19774921391922
7.152,0.9999395821054905,64.50070600853915
7.16,0.9999392244368657,63.801139594962535
7.168,0.999938878522002,63.09905575759886
7.176,0.9999385445818144,62.394460834483
7.184,0.9999382228340725,61.687361725216306
7.192,0.9999379134932521,60.97776589876734
7.2,0.9999376167703838,60.26568140112144
7.208,0.9999373328728995,59.551116862768076
7.216,0.9999370620044753,58.8340815060147
7.224,0.9999368043648786,58.11458515211569
7.232,0.9999365601498083,57.39263822820508
7.24,0.9999363295507376,56.668251774021186
7.248,0.9999361127547505,55.9414374484113
7.256,0.9999359099443862,55.21220753560512
7.264,0.9999357212974764,54.480574951244535
7.272,0.9999355469869817,53.74655324815788
7.28,0.9999353871808327,53.01015662186687
7.288,0.9999352420417666,52.27139991581401
7.296,0.999935111727169,51.530298626298574
7.304,0.9999349963889079,50.78686890710914
7.312,0.9999348961731789,50.0411275738406
7.32,0.9999348112203409,49.29309210788403
7.328,0.9999347416647637,48.54278066007756
7.336,0.9999346876346664,47.7902120540065
7.344,0.999934649251965,47.03540578894111
7.352,0.9999346266321184,46.27838204240092
7.36,0.9999346198839794,45.51916167233443
7.368,0.9999346291096433,44.75776621890288
7.376,0.9999346544043063,43.99421790585773
7.384,0.9999346958561166,43.22853964150149
7.392,0.9999347535460438,42.460755019221324
7.4,0.9999348275477358,41.69088831758598
7.4079999999999995,0.9999349179273903,40.918964499996754
7.416,0.999935024743625,40.145009213882425
7.4239999999999995,0.9999351480473572,39.36904878943169
7.432,0.9999352878816834,38.591110237851275
7.4399999999999995,0.9999354442817636,37.81122124914635
7.448,0.9999356172747175,37.02941018941153
7.4559999999999995,0.9999358068795159,36.24570609763003
7.464,0.9999360131068902,35.460138681970065
7.4719999999999995,0.9999362359592325,34.67273831557819
7.48,0.9999364754305203,33.88353603185857
7.4879999999999995,0.9999367315062317,33.09256351923991
7.496,0.9999370041632764,32.29985311541992
7.504,0.9999372933699306,31.505437801090675
7.5120000000000005,0.9999375990857811,30.709351193135713
7.52,0.9999379212616737,29.911627537303666
7.5280000000000005,0.9999382598396748,29.112301700351267
7.536,0.9999386147530341,28.31140916166084
7.5440000000000005,0.9999389859261615,27.50898600432797
7.552,0.9999393732746078,26.705068905724932
7.5600000000000005,0.9999397767050571,25.899695127537417
7.568,0.9999401961153269,25.09290250528238
7.5760000000000005,0.9999406313943764,24.284729437304843
7.584,0.9999410824223229,23.47521487326427
7.5920000000000005,0.9999415490704716,22.66439830210954
7.6,0.9999420312013476,21.852319739554527
7.6080000000000005,0.9999425286687443,21.039019715055385
7.616,0.9999430413177752,20.224539258303118
7.6240000000000006,0.9999435689849401,19.408919885233814
7.632,0.999944111498197,18.59220358357213
7.640000000000001,0.9999446686770442,17.7744327979122
7.648,0.9999452403326127,16.955650414352547
7.656000000000001,0.9999458262677681,16.135899744691304
7.664,0.9999464262772204,15.315224510199789
7.672,0.9999470401476457,14.49366882498237
7.68,0.9999476676578122,13.671277178941262
7.688,0.999948308578721,12.848094420358034
7.696,0.9999489626737539,12.024165738108573
7.704,0.9999496296988254,11.199536643527525
7.712,0.9999503094025537,10.374252951938988
7.72,0.9999510015264278,9.548360763870905
7.728,0.9999517058049927,8.72190644597137
7.736,0.9999524219660375,7.894936611645286
7.744,0.9999531497307949,7.067498101430926
7.752,0.9999538888141433,6.239637963135619
7.76,0.9999546389248215,5.411403431751204
7.768,0.9999553997656482,4.582841909169608
7.776,0.999956171033747,3.7540009437195168
7.784,0.999956952420781,2.9249282095456417
7.792,0.9999577436131897,2.0956714858521845
7.8,0.9999585442924355,1.2662786360323581
7.808,0.9999593541352528,0.4367975867062278
7.816,0.9999601728139055,-0.39272369331079043
7.824,0.9999609999964427,-1.2222372140863982
7.832,0.9999618353469675,-2.051694985674105
7.84,0.9999626785259023,-2.881049039217715
7.848,0.9999635291902625,-3.7102514480347795
7.856,0.9999643869939306,-4.539254348656583
7.864,0.9999652515879336,-5.368009961802087
7.872,0.9999661226207229,-6.196470613263527
7.88,0.9999669997384578,-7.024588754681365
7.888,0.9999678825852861,-7.852316984186794
7.896,0.9999687708036307,-8.679608066889935
7.904,0.9999696640344731,-9.506414955192371
7.912,0.9999705619176386,-10.332690808903097
7.92,0.9999714640920822,-11.15838901513699
7.928,0.999972370196171,-11.9834632079758
7.936,0.9999732798679691,-12.807867287871701
7.944,0.9999741927455177,-13.631555440774289
7.952,0.9999751084671152,-14.454482156962172
7.96,0.9999760266715945,-15.276602249561096
7.968,0.9999769469985975,-16.097870872730898
7.976,0.9999778690888469,-16.918243539504562
7.984,0.9999787925844142,-17.737676139262888
7.992,0.9999797171289834,-18.55612495482931
8.0,0.9999806423681115,-19.373546679170005
8.008,0.999981567949484,-20.18989843168483
8.016,0.999982493523166,-21.005137774076612
8.024000000000001,0.9999834187418466,-21.819222725784165
8.032,0.9999843432610808,-22.632111778969612
8.04,0.9999852667395215,-23.44376391304785
8.048,0.9999861888391508,-24.254138608746956
8.056000000000001,0.9999871092254988,-25.06319586169111
8.064,0.9999880275678623,-25.870896195497753
8.072,0.999988943539512,-26.677200674380874
8.08,0.9999898568178943,-27.482070915252272
8.088000000000001,0.9999907670848277,-28.28546909931575
8.096,0.9999916740266892,-29.08735798314936
8.104,0.9999925773345938,-29.887700909270496
8.112,0.9999934767045692,-30.68646181617955
8.120000000000001,0.9999943718377189,-31.483605247879805
8.128,0.9999952624403806,-32.27909636287227
8.136,0.9999961482242739,-33.07290094262324
8.144,0.999997028906643,-33.86498539950372
8.152000000000001,0.9999979042103897,-34.6553167842011
8.16,0.999998773864198,-35.44386279260521
8.168,0.9999996376026518,-36.2305917721694
8.176,1.0,-37.01547272774869
8.184000000000001,1.0,-37.79847532691813
8.192,1.0,-38.579569904776655
8.2,0.9999999999999999,-39.358727468239366
8.208,0.9999999999999998,-40.135919699822736
8.216000000000001,1.0,-40.91111896092951
8.224,0.9999999999999999,-41.684298294639305
8.232,0.9999999999999999,-42.4554314280116
8.24,1.0,-43.22449277390736
8.248000000000001,1.0,-43.991457432337704
8.256,0.9999999999999999,-44.75630119134852
8.264,1.0,-45.519000527449016
8.272,1.0,-46.27953260559238
8.280000000000001,1.0,-47.03787527871881
8.288,0.9999999999999998,-47.79400708687127
8.296,1.0,-48.54790725589351
8.304,1.0,-49.29955569571966
8.312,0.9999999999999999,-50.04893299826735
8.32,1.0,-50.79602043494628
8.328,1.0,-51.54079995378964
8.336,1.0,-52.283254176225
8.344,1.0,-53.023366393490356
8.352,1.0,-53.761120562712875
8.36,1.0,-54.496501302656306
8.368,0.9999999999999999,-55.22949388915459
8.376,1.0,-55.96008425023798
8.384,1.0,-56.68825896096923
8.392,1.0,-57.41400523799643
8.4,1.0,-58.13731093383982
8.408,1.0,-58.858164530919176
8.416,0.9999999999999999,-59.57655513533927
8.424,0.9999999999999999,-60.29247247043992
8.432,0.9999999999999999,-61.00590687012767
8.44,1.0,-61.716849271995564
8.448,0.9999999999999999,-62.42529121024828
8.456,1.0,-63.13122480843844
8.464,0.9999999999999999,-63.834642772030996
8.472,1.0,-64.53553838080175
8.48,0.9999999999999999,-65.23390548108615
8.488,0.9999999999999999,-65.92973847788427
8.496,0.9999999999999999,-66.62303232683762
8.504,0.9999999999999999,-67.31378252608374
8.512,0.9999999999999999,-68.00198510800311
8.52,0.9999999999999999,-68.68763663086452
8.528,1.0,-69.37073417038297
8.536,1.0,-70.05127531119527
8.544,1.0,-70.72925813826753
8.552,1.0,-71.40468122823894
8.56,1.0,-72.07754364071583
8.568,1.0,-72.74784490951936
8.576,0.9999999999999999,-73.41558503390084
8.584,1.0,-74.08076446972768
8.592,1.0,-74.74338412065252
8.6,1.0,-75.40344532926918
8.608,0.9999999999999999,-76.06094986826682
8.616,1.0,-76.71589993158535
8.624,0.9999999999999999,-77.36829812558344
8.632,0.9999999999999999,-78.0181474602211
8.64,0.9999999999999998,-78.6654513402682
8.648,0.9999999999999999,-79.31021355653995
8.656,1.0,-79.9524382771703
8.664,1.0,-80.59213003892411
8.672,1.0,-81.22929373855808
8.68,1.0,-81.86393462423092
8.688,0.9999999999999999,-82.49605828697248
8.696,1.0,-83.12567065221174
8.704,0.9999999999999999,-83.75277797137251
8.712,1.0,-84.37738681353697
8.72,1.0,-84.99950405718494
8.728,0.9999999999999999,-85.61913688200853
8.736,1.0,-86.23629276081004
8.744,0.9999999999999999,-86.85097945148182
8.752,1.0,-87.46320498907589
8.76,0.9999999999999998,-88.07297767796156
8.768,0.9999999999999999,-88.68030608407814
8.776,0.9999999999999999,-89.28519902728105
8.784,0.9999999999999999,-89.88766557378783
8.792,0.9999999999999999,-90.4877150287216
8.8,1.0,-91.08535692875893
8.808,0.9999999999999999,-91.68060103487869
8.815999999999999,0.9999999999999999,-92.27345732521832
8.824,1.0,-92.86393598803518
8.832,0.9999999999999999,-93.45204741477609
8.84,0.9999999999999999,-94.03780219325616
8.847999999999999,1.0,-94.62121110094768
8.856,1.0,-95.2022850983793
8.864,0.9999999999999998,-95.78103532264666
8.872,1.0,-96.35747308103547
8.879999999999999,0.9999999999999999,-96.93160984475732
8.888,1.0,-97.50345724279761
8.896,1.0,-98.07302705587658
8.904,1.0,-98.64033121052383
8.911999999999999,1.0,-99.20538177326621
8.92,1.0,-99.76819094492801
8.928,1.0,-100.32877105504386
8.936,1.0,-100.8871345563849
8.943999999999999,1.0,-101.44329401959688
8.952,1.0,-101.99726212794941
8.96,0.9999999999999998,-102.54905167219646
8.968,1.0,-103.0986755455476
8.975999999999999,1.0,-103.64614673874937
8.984,1.0,-104.19147833527491
8.992,1.0,-104.73468350662205
9.0,0.9999999999999999,-105.27577550771919
9.008,0.9999999999999999,-105.81476767243748
9.016,1.0,-106.35167340920837
9.024000000000001,0.9999999999999999,-106.88650619674519
9.032,1.0,-107.41927957986884
9.04,0.9999999999999999,-107.95000716543576
9.048,1.0,-108.47870261836643
9.056000000000001,1.0,-109.00537965777393
9.064,0.9999999999999999,-109.53005205319168
9.072,0.9999999999999999,-110.05273362089874
9.08,0.9999999999999999,-110.57343822034082
9.088000000000001,1.0,-111.09217975064621
9.096,1.0,-111.60897214723595
9.104,1.0,-112.12382937852624
9.112,1.0,-112.63676544272127
9.120000000000001,0.9999999999999999,-113.14779436469581
9.128,1.0,-113.65693019296636
9.136,0.9999999999999999,-114.16418699674925
9.144,1.0,-114.66957886310374
9.152000000000001,1.0,-115.17311989415909
9.16,0.9999999999999999,-115.67482420442472
9.168,1.0,-116.17470591818194
9.176,1.0,-116.67277916695456
9.184000000000001,1.0,-117.1690580870584
9.192,1.0,-117.66355681722806
9.2,1.0,-118.1562894963192
9.208,1.0,-118.64727026108496
9.216000000000001,1.0,-119.13651324402485
9.224,0.9999999999999999,-119.62403257130563
9.232,1.0,-120.10984236075252
9.24,1.0,-120.59395671990802
9.248000000000001,0.9999999999999999,-121.07638974415875
9.256,0.9999999999999999,-121.55715551492825
9.264,1.0,-122.03626809793454
9.272,1.0,-122.51374154151034
9.280000000000001,1.0,-122.9895898749857
9.288,1.0,-123.46382710713111
9.296,0.9999999999999999,-123.93646722466042
9.304,0.9999999999999999,-124.40752419079125
9.312000000000001,1.0,-124.87701194386207
9.32,1.0,-125.34494439600552
9.328,0.9999999999999999,-125.81133543187579
9.336,1.0,-126.2761989074288
9.344,1.0,-126.73954864875428
9.352,1.0,-127.20139845095908
9.36,1.0,-127.66176207709916
9.368,0.9999999999999999,-128.12065325716117
9.376,1.0,-128.5780856870895
9.384,1.0,-129.03407302786147
9.392,1.0,-129.48862890460552
9.4,1.0000000000000002,-129.94176690576518
9.408,1.0,-130.3935005823041
9.416,0.9999999999999999,-130.84384344695474
9.424,1.0,-131.2928089735057
9.432,1.0,-131.74041059613106
9.44,1.0,-132.18666170875628
9.448,1.0,-132.63157566446398
9.456,0.9999999999999999,-133.07516577493436
9.464,1.0,-133.51744530992354
9.472,1.0,-133.95842749677507
9.48,1.0,-134.39812551996695
9.488,1.0,-134.8365525206904
9.496,1.0,-135.27372159646222
9.504,1.0,-135.70964580076733
9.512,1.0,-136.144338142733
9.52,1.0,-136.57781158683136
9.528,1.0,-137.01007905261295
9.536,0.9999999999999999,-137.44115341446596
9.544,1.0,-137.87104750140497
9.552,1.0000000000000002,-138.29977409688473
9.56,1.0,-138.72734593864112
9.568,1.0,-139.15377571855583
9.576,0.9999999999999999,-139.5790760825472
9.584,1.0,-140.00325963048272
9.592,1.0,-140.42633891611698
9.6,1.0,-140.84832644704974
9.608,0.9999999999999999,-141.26923468470764
9.616,1.0,-141.68907604434548
9.624,1.0,-142.10786289506956
9.632,0.9999999999999999,-142.5256075598793
9.64,1.0,-142.94232231572985
9.648,1.0,-143.3580193936119
9.656,1.0,-143.77271097865102
9.664,1.0,-144.18640921022342
9.672,0.9999999999999999,-144.5991261820902
9.68,1.0,-145.01087394254665
9.688,1.0,-145.42166449458912
9.696,1.0,-145.83150979609616
9.704,1.0,-146.24042176002604
9.712,1.0,-146.64841225462766
9.72,0.9999999999999999,-147.05549310366683
9.728,1.0,-147.4616760866652
9.736,1.0,-147.86697293915353
9.744,1.0,-148.2713953529367
9.752,1.0,-148.6749549763727
9.76,0.9999999999999999,-149.07766341466177
9.768,0.9999999999999999,-149.47953223014918
9.776,0.9999999999999999,-149.88057294263774
9.784,1.0,-150.28079702971243
9.792,1.0,-150.68021592707444
9.8,1.0,-151.07884102888684
9.808,1.0,-151.47668368812847
9.816,1.0,-151.87375521695927
9.824,1.0,-152.2700668870927
9.832,1.0,-152.6656299301794
9.84,1.0,-153.06045553819723
9.847999999999999,1.0,-153.4545548638514
9.856,1.0,-153.84793902098184
9.864,0.9999999999999999,-154.24061908497796
9.872,0.9999999999999999,-154.63260609320173
9.879999999999999,0.9999999999999999,-155.0239110454177
9.888,1.0,-155.41454490422973
9.896,1.0,-155.80451859552454
9.904,1.0,-156.19384300892182
9.911999999999999,0.9999999999999999,-156.58252899823094
9.92,1.0000000000000002,-156.97058738191313
9.928,0.9999999999999999,-157.35802894354947
