freq,mag,phase
6.0,0.9999934987886939,53.4690418450431
6.008,0.9999943361738499,53.26919344606676
6.016,0.9999951565275829,53.069236320692845
6.024,0.9999959600164738,52.86917056666906
6.032,0.9999967468065819,52.66899628262948
6.04,0.9999975170634381,52.468713568096724
6.048,0.9999982709520431,52.26832252348443
6.056,0.9999990086368615,52.06782325009953
6.064,0.9999997302818199,51.86721585014456
6.072,1.0,51.666500426720035
6.08,1.0000000000000002,51.46567708382664
6.088,1.0,51.26474592636753
6.096,1.0,51.06370706015068
6.104,0.9999999999999998,50.86256059189108
6.112,0.9999999999999999,50.661306629212895
6.12,0.9999999999999999,50.45994528065186
6.128,0.9999999999999999,50.258476655657354
6.136,1.0,50.05690086459466
6.144,1.0,49.85521801874715
6.152,0.9999999999999999,49.653428230318426
6.16,1.0,49.45153161243442
6.168,1.0,49.24952827914571
6.176,1.0,49.04741834542954
6.184,1.0,48.84520192719173
6.192,1.0,48.642879141269326
6.2,1.0,48.440450105432014
6.208,1.0,48.23791493838465
6.216,0.9999999999999999,48.035273759769126
6.224,1.0,47.83252669016643
6.232,1.0,47.62967385109868
6.24,0.9999999999999999,47.42671536503106
6.248,1.0,47.223651355373974
6.256,1.0,47.02048194648486
6.264,0.9999999999999999,46.81720726366998
6.272,1.0,46.61382743318693
6.28,0.9999999999999999,46.41034258224589
6.288,0.9999999999999999,46.20675283901201
6.296,1.0,46.003058332606955
6.304,0.9999999999999999,45.799259193111006
6.312,1.0,45.59535555156482
6.32,1.0,45.391347539971285
6.328,1.0,45.18723529129722
6.336,1.0,44.98301893947534
6.344,1.0,44.77869861940585
6.352,0.9999999999999999,44.57427446695863
6.36,1.0,44.369746618974176
6.368,1.0000000000000002,44.165115213266105
6.376,1.0,43.96038038862238
6.384,0.9999999999999999,43.75554228480743
6.392,1.0,43.550601042563116
6.4,1.0,43.3455568036111
6.408,1.0,43.14040971065409
6.416,0.9999999999999999,42.93515990737747
6.424,1.0,42.72980753845094
6.432,1.0,42.52435274953002
6.44,0.9999999999999998,42.318795687257555
6.448,1.0,42.113136499265615
6.456,1.0,41.9073753341764
6.464,0.9999999999999999,41.70151234160398
6.472,1.0,41.49554767215597
6.48,1.0,41.28948147743477
6.4879999999999995,0.9999999999999999,41.08331391003876
6.496,0.9999999999999999,40.87704512356401
6.504,1.0,40.670675272605706
6.5120000000000005,1.0,40.46420451275909
6.52,1.0,40.25763300062116
6.5280000000000005,0.9999999999999999,40.05096089379194
6.536,1.0,39.844188350875505
6.5440000000000005,1.0,39.63731553148146
6.552,0.9999999999999999,39.43034259622621
6.5600000000000005,0.9999999999999999,39.223269706733895
6.568,1.0,39.016097025637855
6.5760000000000005,1.0,38.80882471658175
6.584,0.9999999999999999,38.601452944220526
6.592,0.9999999999999998,38.39398187422182
6.6,1.0,38.18641167326665
6.608,0.9999999999999999,37.97874250905087
6.616,1.0,37.770974550286056
6.624,1.0,37.56310796670061
6.632,1.0,37.35514292904037
6.64,1.0,37.147079609070204
6.648,0.9999999999999999,36.9389181795745
6.656,0.9999999999999999,36.730658814358186
6.664,1.0,36.522301688247644
6.672,0.9999999999999999,36.31384697709175
6.68,1.0,36.105294857762225
6.688,1.0,35.89664550815521
6.696,1.0,35.68789910719124
6.704,0.9999999999999999,35.47905583481659
6.712,1.0,35.27011587200381
6.72,0.9999999999999999,35.06107940075222
6.728,1.0,34.851946604089164
6.736,0.9999999999999999,34.642717666069984
6.744,0.9999999999999999,34.43339277177917
6.752,1.0,34.22397210733066
6.76,1.0,34.01445585986865
6.768,0.9999999999999999,33.80484421756791
6.776,1.0,33.5951373696344
6.784,0.9999999999999999,33.38533550630577
6.792,1.0,33.17543881885187
6.8,0.9999999999999999,32.965447499575184
6.808,1.0,32.755361741810944
6.816,0.9999999999999999,32.545181739928026
6.824,0.9999999999999999,32.33490768932891
6.832,1.0,32.124539786449965
6.84,1.0,31.914078228762175
6.848,0.9999999999999999,31.703523214770936
6.856,1.0,31.49287494401644
6.864,1.0,31.282133617074013
6.872,1.0,31.07129943555396
6.88,0.9999999999999999,30.86037260210229
6.888,0.9999999999999999,30.64935332040001
6.896,1.0,30.438241795163993
6.904,1.0,30.227038232146658
6.912,1.0,30.015742838135914
6.92,1.0,29.804355820955255
6.928,1.0,29.592877389463812
6.936,0.9999999999999999,29.381307753556207
6.944,1.0,29.169647124162413
6.952,1.0,28.957895713247716
6.96,1.0,28.746053733812374
6.968,1.0,28.534121399891642
6.976,1.0,28.32209892655541
6.984,0.9999999999999999,28.109986529907907
6.992,0.9999999999999999,27.897784427087625
7.0,0.9999999999999999,27.68549283626669
7.008,1.0,27.47311197665086
7.016,1.0,27.260642068478724
7.024,1.0,27.048083333021687
7.032,1.0,26.835435992583108
7.04,0.9999999999999999,26.622700270498353
7.048,0.9999999999999999,26.409876391133736
7.056,1.0,26.196964579886306
7.064,1.0,25.98396506318304
7.072,0.9999999999999999,25.770878068480467
7.08,1.0,25.55770382426383
7.088,1.0,25.344442560046456
7.096,1.0,25.13109450636909
7.104,0.9999999999999999,24.917659894798966
7.112,1.0,24.70413895792942
7.12,0.9999999999999999,24.490531929378538
7.128,1.0,24.27683904378871
7.136,1.0,24.063060536825486
7.144,1.0,23.849196645177084
7.152,1.0,23.63524760655265
7.16,1.0,23.42121365968213
7.168,0.9999999999999999,23.207095044314684
7.176,1.0,22.992892001217815
7.184,0.9999999999999999,22.778604772176248
7.192,0.9999999999999999,22.564233599990864
7.2,0.9999999999999998,22.349778728477403
7.208,0.9999999999999999,22.135240402465428
7.216,1.0,21.920618867796918
7.224,1.0,21.705914371325136
7.232,1.0000000000000002,21.49112716091324
7.24,0.9999999999999999,21.276257485433003
7.248,1.0,21.061305594763336
7.256,0.9999999999999999,20.84627173978902
7.264,1.0,20.63115617239906
7.272,1.0,20.41595914548556
7.28,0.9999999999999999,20.20068091294166
7.288,0.9999999999999999,19.985321729660466
7.296,0.9999999999999999,19.76988185153324
7.304,1.0,19.554361535447722
7.312,0.9999999999999999,19.33876103928667
7.32,1.0,19.123080621925936
7.328,1.0000000000000002,18.907320543232895
7.336,0.9999999999999999,18.691481064064437
7.344,0.9999999999999999,18.475562446265574
7.352,1.0,18.259564952667056
7.36,1.0,18.043488847083957
7.368,0.9999999999999999,17.827334394313525
7.376,1.0,17.611101860133104
7.384,1.0,17.39479151129846
7.392,0.9999999999999999,17.17840361554149
7.4,0.9999999999999999,16.9619384415683
7.4079999999999995,1.0,16.745396259056918
7.416,1.0,16.528777338655395
7.4239999999999995,1.0,16.312081951979412
7.432,0.9999999999999999,16.095310371610104
7.4399999999999995,1.0,15.878462871091978
7.448,1.0,15.661539724930263
7.4559999999999995,1.0,15.444541208589037
7.464,1.0,15.227467598488406
7.4719999999999995,0.9999999999999999,15.010319172002475
7.48,1.0,14.79309620745649
7.4879999999999995,1.0,14.57579898412494
7.496,1.0000000000000002,14.35842778222832
7.504,0.9999999999999999,14.140982882931263
7.5120000000000005,1.0,13.923464568339389
7.52,1.0,13.70587312149709
7.5280000000000005,0.9999999918234992,13.488208826384506
7.536,0.9999998304743014,13.270471967915158
7.5440000000000005,0.9999996711230514,13.05266283193286
7.552,0.9999995137935446,12.834781705209267
7.5600000000000005,0.999999358508819,12.616828875440703
7.568,0.9999992052911617,12.398804631245703
7.5760000000000005,0.9999990541621093,12.180709262161656
7.584,0.999998905142451,11.96254305864235
7.5920000000000005,0.999998758252233,11.744306312054485
7.6,0.9999986135107585,11.525999314675179
7.6080000000000005,0.999998470936593,11.307622359688486
7.616,0.9999983305475663,11.089175741182611
7.6240000000000006,0.9999981923607747,10.870659754146516
7.632,0.9999980563925858,10.65207469446708
7.640000000000001,0.9999979226586391,10.433420858925494
7.648,0.999997791173852,10.214698545194468
7.656000000000001,0.9999976619524206,9.995908051834482
7.664,0.9999975350078228,9.777049678290966
7.672,0.9999974103528237,9.558123724890425
7.68,0.9999972879994774,9.339130492837471
7.688,0.9999971679591289,9.12007028421118
7.696,0.9999970502424207,8.900943401961676
7.704,0.9999969348592929,8.681750149906616
7.712,0.9999968218189893,8.462490832727621
7.72,0.9999967111300591,8.243165755966743
7.728,0.9999966028003605,8.023775226022824
7.736,0.9999964968370655,7.804319550147818
7.744,0.9999963932466619,7.584799036443102
7.752,0.9999962920349585,7.365213993855766
7.76,0.999996193207088,7.145564732174812
7.768,0.9999960967675092,6.925851562027344
7.776,0.9999960027200142,6.70607479487475
7.784,0.9999959110677287,6.4862347430088
7.792,0.9999958218131181,6.266331719547711
7.8,0.9999957349579901,6.046366038432206
7.808,0.9999956505034997,5.826338014421499
7.816,0.9999955684501523,5.606247963089279
7.824,0.9999954887978071,5.386096200819638
7.832,0.9999954115456836,5.165883044802933
7.84,0.9999953366923625,4.9456088130316695
7.848,0.999995264235792,4.725273824296306
7.856,0.9999951941732913,4.50487839818104
7.864,0.9999951265015545,4.284422855059531
7.872,0.999995061216655,4.06390751609064
7.88,0.9999949983140503,3.843332703214049
7.888,0.9999949377885853,3.622698739145947
7.896,0.9999948796344967,3.40200594737458
7.904,0.9999948238454189,3.1812546521558422
7.912,0.9999947704143867,2.9604451785087673
7.92,0.99999471933384,2.739577852211039
7.928,0.9999946705956292,2.518652999794426
7.936,0.9999946241910187,2.2976709485401967
7.944,0.9999945801106918,2.0766320264745026
7.952,0.9999945383447559,1.855536562363703
7.96,0.9999944988827459,1.6343848857096857
7.968,0.99999446171363,1.4131773267451249
7.976,0.9999944268258136,1.1919142164287158
7.984,0.9999943942071444,0.9705958864403736
7.992,0.9999943638449168,0.7492226691763921
8.0,0.9999943357258773,0.5277948977445691
8.008,0.999994309836229,0.30631290595932237
8.016,0.9999942861616362,0.0847770283366219
8.024000000000001,0.9999942646872297,-0.13681239991077104
8.032,0.9999942453976114,-0.3584550428784404
8.04,0.9999942282768591,-0.5801505639754626
8.048,0.9999942133085327,-0.8018986259293988
8.056000000000001,0.9999942004756776,-1.0236988907913058
8.064,0.9999941897608301,-1.2455510199410034
8.072,0.9999941811460233,-1.4674546740923433
8.08,0.9999941746127923,-1.6894095132983487
8.088000000000001,0.9999941701421773,-1.9114151969563695
8.096,0.9999941677147313,-2.1334713838134602
8.104,0.999994167310524,-2.3555777319718194
8.112,0.9999941689091476,-2.5777338988940373
8.120000000000001,0.9999941724897207,-2.7999395414084
8.128,0.9999941780308955,-3.0221943157143945
8.136,0.9999941855108617,-3.2444978773882944
8.144,0.9999941949073524,-3.4668498813885305
8.152000000000001,0.9999942061976502,-3.6892499820611167
8.16,0.9999942193585905,-3.9116978331453174
8.168,0.9999942343665694,-4.134193087779334
8.176,0.999994251197547,-4.35673539850583
8.184000000000001,0.9999942698270544,-4.579324417277463
8.192,0.9999942902301984,-4.801959795462718
8.2,0.9999943123816676,-5.024641183851674
8.208,0.9999943362557376,-5.247368232661684
8.216000000000001,0.999994361826276,-5.470140591543062
8.224,0.9999943890667493,-5.692957909584976
8.232,0.9999944179502271,-5.915819835321408
8.24,0.9999944484493893,-6.13872601673692
8.248000000000001,0.9999944805365302,-6.361676101272477
8.256,0.9999945141835653,-6.584669735831463
8.264,0.9999945493620367,-6.807706566785753
8.272,0.999994586043118,-7.030786239981631
8.280000000000001,0.9999946241976215,-7.2539084007457015
8.288,0.9999946637960037,-7.477072693891039
8.296,0.9999947048083698,-7.700278763723403
8.304,0.9999947472044808,-7.923526254047232
8.312,0.9999947909537582,-8.146814808171651
8.32,0.9999948360252923,-8.370144068916991
8.328,0.999994882387845,-8.593513678620592
8.336,0.9999949300098567,-8.816923279143472
8.344,0.9999949788594542,-9.040372511876104
8.352,0.9999950289044531,-9.26386101774523
8.36,0.9999950801123674,-9.487388437219666
8.368,0.9999951324504123,-9.710954410317077
8.376,0.9999951858855121,-9.934558576610012
8.384,0.9999952403843059,-10.158200575232646
8.392,0.999995295913153,-10.381880044886802
8.4,0.9999953524381395,-10.605596623848845
8.408,0.9999954099250836,-10.829349949975754
8.416,0.9999954683395439,-11.053139660711981
8.424,0.9999955276468208,-11.276965393095683
8.432,0.9999955878119685,-11.500826783765573
8.44,0.9999956487997962,-11.72472346896721
8.448,0.9999957105748767,-11.94865508455992
8.456,0.9999957731015522,-12.1726212660231
8.464,0.9999958363439396,-12.396621648463247
8.472,0.9999959002659378,-12.62065586662025
8.48,0.9999959648312325,-12.844723554874516
8.488,0.9999960300033042,-13.068824347253281
8.496,0.9999960957454315,-13.292957877437804
8.504,0.9999961620207009,-13.51712377876972
8.512,0.9999962287920097,-13.741321684258258
8.52,0.9999962960220748,-13.965551226586683
8.528,0.9999963636734361,-14.189812038119541
8.536,0.9999964317084663,-14.414103750909122
8.544,0.999996500089373,-14.638425996702802
8.552,0.9999965687782091,-14.86277840694949
8.56,0.9999966377368753,-15.087160612807082
8.568,0.9999967069271284,-15.311572245148907
8.576,0.9999967763105877,-15.536012934571195
8.584,0.9999968458487398,-15.760482311399654
8.592,0.9999969155029461,-15.984980005696915
8.6,0.9999969852344496,-16.20950564726916
8.608,0.9999970550043776,-16.434058865673602
8.616,0.9999971247737532,-16.658639290225192
8.624,0.9999971945034972,-16.88324655000411
8.632,0.9999972641544366,-17.1078802738625
8.64,0.9999973336873105,-17.332540090431998
8.648,0.9999974030627753,-17.557225628130556
8.656,0.9999974722414126,-17.78193651516997
8.664,0.999997541183734,-18.006672379562705
8.672,0.9999976098501885,-18.23143284912955
8.68,0.9999976782011676,-18.456217551506395
8.688,0.9999977461970128,-18.68102611415195
8.696,0.9999978137980204,-18.905858164354605
8.704,0.9999978809644494,-19.13071332924008
8.712,0.999997947656526,-19.355591235778398
8.72,0.9999980138344516,-19.580491510791575
8.728,0.999998079458407,-19.80541378096057
8.736,0.9999981444885606,-20.030357672833063
8.744,0.999998208885074,-20.255322812830357
8.752,0.9999982726081066,-20.48030882725527
8.76,0.9999983356178244,-20.705315342299066
8.768,0.9999983978744043,-20.930341984049303
8.776,0.9999984593380417,-21.15538837849683
8.784,0.9999985199689547,-21.38045415154371
8.792,0.9999985797273924,-21.605538929010176
8.8,0.9999986385736401,-21.8306423366426
8.808,0.9999986964680251,-22.05576400012052
8.815999999999999,0.9999987533709234,-22.280903545064515
8.824,0.9999988092427653,-22.506060597043557
8.832,0.999998864044043,-22.731234781582437
8.84,0.999998917735314,-22.95642572416941
8.847999999999999,0.9999989702772105,-23.18163305026382
8.856,0.999999021630442,-23.406856385303602
8.864,0.9999990717558044,-23.632095354712682
8.872,0.9999991206141842,-23.857349583908725
8.879999999999999,0.999999168166565,-24.082618698310814
8.888,0.9999992143740347,-24.30790232334688
8.896,0.999999259197789,-24.533200084461328
8.904,0.9999993025991394,-24.75851160712265
8.911999999999999,0.9999993445395193,-24.98383651683124
8.92,0.9999993849804883,-25.209174439126823
8.928,0.9999994238837399,-25.434524999596146
8.936,0.9999994612111062,-25.65988782388058
8.943999999999999,0.9999994969245642,-25.885262537684014
8.952,0.9999995309862424,-26.11064876678032
8.96,0.9999995633584257,-26.33604613702097
8.968,0.999999594003561,-26.561454274342843
8.975999999999999,0.9999996228842645,-26.786872804775975
8.984,0.9999996499633266,-27.012301354451157
8.992,0.9999996752037169,-27.237739549607564
9.0,0.9999996985685916,-27.46318701660053
9.008,0.9999997200212984,-27.688643381909376
9.016,0.999999739525382,-27.91410827214501
9.024000000000001,0.99999975704459,-28.1395813140576
9.032,0.9999997725428791,-28.36506213454428
9.04,0.99999978598442,-28.590550360657133
9.048,0.9999997973336034,-28.816045619610687
9.056000000000001,0.9999998065550461,-29.041547538789626
9.064,0.9999998136135949,-29.267055745756636
9.072,0.9999998184743348,-29.49256986826016
9.08,0.9999998211025917,-29.71808953424215
9.088000000000001,0.9999998214639398,-29.943614371845612
9.096,0.9999998195242074,-30.169144009422546
9.104,0.9999998152494799,-30.394678075541677
9.112,0.9999998086061079,-30.620216198996264
9.120000000000001,0.9999997995607113,-30.845758008811547
9.128,0.9999997880801849,-31.07130313425279
9.136,0.9999997741317033,-31.296851204832986
9.144,0.9999997576827274,-31.52240185032057
9.152000000000001,0.9999997387010089,-31.74795470074705
9.16,0.9999997171545945,-31.973509386414904
9.168,0.9999996930118334,-32.199065537905305
9.176,0.999999666241381,-32.42462278608587
9.184000000000001,0.9999996368122038,-32.65018076211827
9.192,0.9999996046935861,-32.87573909746605
9.2,0.999999569855133,-33.101297423902494
9.208,0.9999995322667773,-33.326855373518214
9.216000000000001,0.9999994918987835,-33.55241257872882
9.224,0.9999994487217531,-33.77796867228271
9.232,0.9999994027066296,-34.00352328726895
9.24,0.9999993538247035,-34.22907605712481
9.248000000000001,0.9999993020476167,-34.4546266156434
9.256,0.9999992473473678,-34.68017459698154
9.264,0.9999991896963173,-34.90571963566748
9.272,0.9999991290671918,-35.13126136660853
9.280000000000001,0.9999990654330886,-35.35679942509862
9.288,0.9999989987674806,-35.582333446826176
9.296,0.999998929044222,-35.80786306788174
9.304,0.9999988562375514,-36.03338792476569
9.312000000000001,0.9999987803220965,-36.25890765439571
9.32,0.9999987012728808,-36.48442189411457
9.328,0.9999986190653247,-36.7099302816979
9.336,0.9999985336752534,-36.93543245536165
9.344,0.9999984450788992,-37.16092805376966
9.352,0.9999983532529066,-37.38641671604158
9.36,0.9999982581743365,-37.611898081760096
9.368,0.9999981598206706,-37.837371790978914
9.376,0.9999980581698164,-38.06283748422994
9.384,0.9999979532001096,-38.28829480253132
9.392,0.9999978448903208,-38.51374338739458
9.4,0.999997733219658,-38.73918288083252
9.408,0.9999976181677706,-38.96461292536651
9.416,0.9999974997147548,-39.19003316403422
9.424,0.9999973778411566,-39.41544324039698
9.432,0.999997252527976,-39.64084279854751
9.44,0.9999971237566715,-39.86623148311711
9.448,0.999996991509163,-40.0916089392835
9.456,0.9999968557678368,-40.31697481277794
9.464,0.9999967165155486,-40.54232874989305
9.472,0.9999965737356284,-40.767670397489916
9.48,0.9999964274118825,-40.992999403005854
9.488,0.9999962775285993,-41.218315414461436
9.496,0.9999961240705506,-41.44361808046836
9.504,0.9999959670229975,-41.6689070502364
9.512,0.9999958063716934,-41.894181973581155
9.52,0.9999956421028855,-42.11944250093105
9.528,0.9999954742033219,-42.344688283335046
9.536,0.9999953026602515,-42.5699189724696
9.544,0.99999512746143,-42.79513422064637
9.552,0.9999949485951221,-43.02033368081906
9.56,0.9999947660501045,-43.24551700659117
9.568,0.9999945798156702,-43.47068385222283
9.576,0.9999943898816311,-43.69583387263838
9.584,0.9999941962383211,-43.9209667234333
9.592,0.9999939988765996,-44.1460820608818
9.6,0.9999937977878539,-44.371179541943455
9.608,0.9999935929640035,-44.59625882427103
9.616,0.9999933843975013,-44.821319566216985
9.624,0.9999931720813389,-45.04636142684122
9.632,0.9999929560090474,-45.27138406591758
9.64,0.9999927361747011,-45.496387143941504
9.648,0.99999251257292,-45.721370322136636
9.656,0.9999922851988735,-45.946333262462254
9.664,0.9999920540482822,-46.17127562762
9.672,0.9999918191174202,-46.39619708106113
9.68,0.9999915804031196,-46.62109728699323
9.688,0.9999913379027707,-46.84597591038757
9.696,0.9999910916143263,-47.07083261698558
9.704,0.9999908415363035,-47.29566707330622
9.712,0.9999905876677856,-47.520478946652474
9.72,0.9999903300084261,-47.745267905118666
9.728,0.9999900685584496,-47.97003361759683
9.736,0.9999898033186542,-48.19477575378404
9.744,0.9999895342904145,-48.41949398418872
9.752,0.9999892614756835,-48.64418798013789
9.76,0.9999889848769945,-48.86885741378356
9.768,0.9999887044974637,-49.09350195810976
9.776,0.9999884203407915,-49.31812128693893
9.784,0.9999881324112658,-49.54271507493907
9.792,0.9999878407137619,-49.767282997629785
9.8,0.9999875452537474,-49.99182473138958
9.808,0.9999872460372813,-50.216339953461926
9.816,0.9999869430710173,-50.44082834196225
9.824,0.999986636362205,-50.66528957588413
9.832,0.9999863259186927,-50.88972333510626
9.84,0.9999860117489277,-51.114129300398474
9.847999999999999,0.9999856938619585,-51.338507153428644
9.856,0.9999853722674373,-51.56285657676897
