freq,mag,phase
6.0,1.0004222222445363,-17.910611216021838
6.0089088,1.0003074998981003,-18.228946358095303
6.0178176,1.0001764678537328,-18.54574871580072
6.026725888,1.00003638051293,-18.860877815310886
6.035634688,0.9998943974320277,-19.174177120428617
6.044543488,0.9997577978817305,-19.485775987293565
6.053452288,0.9996341472483404,-19.795680666804277
6.062360576,0.999529559795612,-20.10417670336736
6.071269376,0.99944995902418,-20.41157399480404
6.080178176,0.9993992650661649,-20.718201086782894
6.089086976,0.9993804570007517,-21.024403410243785
6.097995776,0.999394166542136,-21.330684630490367
6.106904064,0.9994400182757944,-21.637411220673762
6.115812864,0.9995156475231136,-21.945067342551344
6.124721664,0.9996169076732467,-22.253909155454664
6.133630464,0.99973871978394,-22.564366710548104
6.142538752,0.9998746520092694,-22.876590419074873
6.151447552,1.000017529689484,-23.190743681562953
6.160356352,1.0001599537129613,-23.506883438428087
6.169265152,1.0002943830529736,-23.824910729663483
6.178173952,1.0004138773412194,-24.14474279758882
6.18708224,1.0005120065062012,-24.466085942187
6.19599104,1.0005835984341578,-24.78863033587298
6.20489984,1.0006251634825098,-25.111996642439422
6.21380864,1.0006340694895741,-25.435852881179873
6.222716928,1.0006100427710958,-25.759640768879407
6.231625728,1.0005542930007603,-26.083041435983578
6.240534528,1.0004695978468543,-26.405562103271315
6.249443328,1.0003605181872872,-26.726931710432066
6.258352128,1.0002324834426581,-27.04683273020289
6.267260416,1.0000923026870054,-27.365055027037563
6.276169216,0.9999475517136642,-27.681450127736404
6.285078016,0.9998054460186513,-27.996052471028214
6.293986816,0.9996735364552307,-28.308964485683166
6.302895104,0.9995587634318762,-28.62032462163238
6.311803904,0.9994673453559615,-28.93038676146111
6.320712704,0.9994040146217613,-29.239563453705816
6.329621504,0.9993720005749124,-29.548120985938063
6.338530304,0.9993732047133593,-29.85659731121826
6.347438592,0.9994076523037276,-30.165370083286756
6.356347392,0.9994732583665801,-30.4749068208584
6.365256192,0.999566903705917,-30.78557377527986
6.374164992,0.9996837574920201,-31.097723255288077
6.38307328,0.9998173467479986,-31.41161169818781
6.39198208,0.999961315769982,-31.727426853248648
6.40089088,1.0001074332689208,-32.04523722479777
6.40979968,1.000248535186943,-32.3650561538688
6.41870848,1.0003770005292636,-32.686700581406484
6.427616768,1.000485985578619,-33.01005996511013
6.436525568,1.000570218094625,-33.334776279332935
6.445434368,1.0006246459619934,-33.66046874149489
6.454343168,1.0006468093844487,-33.98680170056535
6.463251456,1.0006352827970109,-34.313269137070776
6.472160256,1.00059083497902,-34.63950019558488
6.481069056,1.0005153991126399,-34.96498683893821
6.489977856,1.0004131788159687,-35.289418863160094
6.498886656,1.0002895366615647,-35.612448354212866
6.507794944,1.0001507316658842,-35.93388346709561
6.516703744,1.000003806496257,-36.25350451084372
6.525612544,0.9998569614244868,-36.57129303634104
6.534521344,0.9997175913564433,-36.88724986097874
6.543429632,0.999593028916283,-37.20155341230282
6.552338432,0.999489909599923,-37.514466881044896
6.561247232,0.9994136235253301,-37.82627920483221
6.570156032,0.9993681240489836,-38.13736410986502
6.579064832,0.9993562048625347,-38.44812801000033
6.58797312,0.9993779815691226,-38.759060532786734
6.59688192,0.9994328352494514,-39.07062365913027
6.60579072,0.9995178412069151,-39.38314940098595
6.61469952,0.9996284253274419,-39.69708022308142
6.623607808,0.9997587570410978,-40.01266537861693
6.632516608,0.9999023245771236,-40.33017710629045
6.641425408,1.0000514904372584,-40.64971370182814
6.650334208,1.000198293078592,-40.971270597766654
6.659243008,1.0003353342880485,-41.294843829549436
6.668151296,1.0004551295074415,-41.62015628583213
6.677060096,1.0005516044219893,-41.94698701954336
6.685968896,1.0006194252539107,-42.27503894774107
6.694877696,1.0006550244165449,-42.60386287555863
6.703785984,1.0006569383633428,-42.932995390599565
6.712694784,1.0006245649320922,-43.26205438376064
6.721603584,1.000559661104705,-43.59058247129344
6.730512384,1.0004655531584326,-43.9181506606948
6.739421184,1.0003472199805243,-44.24442799896744
6.748329472,1.0002105950810567,-44.56910597468329
6.757238272,1.0000631673794207,-44.89200319369488
6.766147072,0.9999123159673015,-45.21301741104503
6.775055872,0.9997662493192766,-45.53220023253799
6.78396416,0.9996322676099719,-45.849583595525665
6.79287296,0.9995176548240524,-46.16545820614363
6.80178176,0.9994284660024905,-46.48002289635019
6.81069056,0.9993693018272094,-46.79374719958938
6.81959936,0.9993433063063866,-47.10697018412424
6.828507648,0.9993520114585716,-47.42017629722277
6.837416448,0.999394985912212,-47.73379579918856
6.846325248,0.9994700988010922,-48.0482916522496
6.855234048,0.9995733780684007,-48.36404896511295
6.864142336,0.9996993198706705,-48.68142271130076
6.873051136,0.9998411834019261,-49.00064703888308
6.881959936,0.9999922820090146,-49.3218994675136
6.890868736,1.0001440244250026,-49.64525187858384
6.899777536,1.0002887533618425,-49.97068372221838
6.908685824,1.0004187695429714,-50.29795236831107
6.917594624,1.0005273916653168,-50.626931232039894
6.926503424,1.0006087861937425,-50.957298804178315
6.935412224,1.0006586933450312,-51.28859282394837
6.944320512,1.0006743048801943,-51.620414374683705
6.953229312,1.000655050573823,-51.95234211466139
6.962138112,1.0006015994710342,-52.28386738440708
6.971046912,1.0005168388226435,-52.614556889964746
6.979955712,1.000405122842587,-52.944108681259344
6.988864,1.0002721771380485,-53.272150896612764
6.9977728,1.0001251593127765,-53.59838751628531
7.0066816,0.9999714614497339,-53.922797815337624
7.0155904,0.9998192636505225,-54.24524079545688
7.024498688,0.9996765961098926,-54.565837293523394
7.033407488,0.9995508528207705,-54.884753497844905
7.042316288,0.9994487456655189,-55.202261786017175
7.051225088,0.999375675097978,-55.518690249533265
7.060133376,0.9993352540480578,-55.83447960550451
7.069042176,0.9993299808968007,-56.15005346463786
7.077950976,0.9993601272774866,-56.465884718426025
7.086859776,0.9994240442006569,-56.78238705358732
7.095768576,0.9995184849640146,-57.100069373344496
7.104676864,0.9996386207538631,-57.41924927826415
7.113585664,0.9997781484816644,-57.74024886095404
7.122494464,0.9999296375060496,-58.06323643226906
7.131403264,1.0000853594250805,-58.38835283283414
7.140311552,1.0002370372388456,-58.71561603876896
7.149220352,1.000376875809495,-59.044864414205165
7.158129152,1.0004974472622592,-59.37594590770913
7.167037952,1.0005924060215925,-59.7085595662791
7.175946752,1.0006566500780987,-60.04230510981778
7.18485504,1.0006870839351805,-60.37679179348322
7.19376384,1.0006816083352839,-60.71153581162493
7.20267264,1.0006407763587457,-61.0460708984777
7.21158144,1.0005666356947216,-61.37999462540711
7.220489728,1.0004627611020471,-61.712814419082314
7.229398528,1.000334983844215,-62.04419626545109
7.238307328,1.0001894840529253,-62.37389152826931
7.247216128,1.0000342176330168,-62.70170223107409
7.256124928,0.9998769767966178,-63.02754918549036
7.265033216,0.9997261589131534,-63.35147553454915
7.273942016,0.999589651464925,-63.67357445704551
7.282850816,0.9994749176613983,-63.994100176413006
7.291759616,0.9993874781338343,-64.31342287696971
7.300667904,0.9993324650822927,-64.63185894753695
7.309576704,0.9993124823767396,-64.9499148997743
7.318485504,0.999328531709174,-65.26801614946275
7.327394304,0.9993802857516282,-65.58661901581902
7.336303104,0.9994647038048515,-65.9062667442013
7.345211392,0.9995776574077363,-66.22732013499589
7.354120192,0.9997131542452281,-66.55005037022389
7.363028992,0.9998641936691134,-66.8747737703626
7.371937792,1.0000226628712647,-67.20168566708307
7.38084608,1.0001806185717321,-67.53073917657328
7.38975488,1.0003295026106047,-67.86193772548539
7.39866368,1.000461636904445,-68.19507948265759
7.40757248,1.0005699986415948,-68.52991311392024
7.41648128,1.0006489991386762,-68.86608328045102
7.425389568,1.0006944771811745,-69.20314939471417
7.434298368,1.0007038972164697,-69.54075038775326
7.443207168,1.000676676201536,-69.87827880977919
7.452115968,1.0006143378217698,-70.21533643090689
7.461024256,1.0005198171739065,-70.55146072432167
7.469933056,1.00039830661841,-70.886300389374
7.478841856,1.0002560136637655,-71.21943819386247
7.487750656,1.000100091778796,-71.55077353710064
7.496659456,0.9999389693684252,-71.88008572468098
7.505567744,0.9997811337596479,-72.20741774093081
7.514476544,0.9996345521667686,-72.5327967350072
7.523385344,0.9995071762107511,-72.85647646573585
7.532294144,0.9994054923843582,-73.17874985218016
7.541202432,0.9993350463380861,-73.4999743025557
7.550111232,0.9992996655205465,-73.82056163182045
7.559020032,0.9993010868240852,-74.14103651434283
7.567928832,0.9993392540344962,-74.4618751723074
7.576837632,0.9994125927352133,-74.78348456347484
7.58574592,0.9995168280176245,-75.10642598007101
7.59465472,0.9996467974478909,-75.43096865807212
7.60356352,0.9997957746131606,-75.75746177359325
7.61247232,0.9999558837536094,-76.08610839999797
7.621380608,1.0001188861617536,-76.41693837606032
7.630289408,1.0002761110257414,-76.75002791216026
7.639198208,1.0004193539713828,-77.08515914768672
7.648107008,1.0005412290794269,-77.42216025014544
7.657015808,1.0006351611100628,-77.76066973520342
7.665924096,1.0006961515767516,-78.10032964507838
7.674832896,1.0007212063735167,-78.4406623533136
7.683741696,1.0007086702934773,-78.78113493661003
7.692650496,1.0006593730488145,-79.12134847882085
7.701558784,1.0005756676675157,-79.46079079259935
7.710467584,1.0004618883767697,-79.79903564214106
7.719376384,1.0003240345199989,-80.1357190628945
7.728285184,1.0001691336021459,-80.47058014932595
7.737193984,1.0000053174331753,-80.80343096435527
7.746102272,0.9998410940801745,-81.13423778945055
7.755011072,0.9996851950500198,-81.46300297788206
7.763919872,0.9995456398241983,-81.78992947163232
7.772828672,0.9994298967512919,-82.11524850026373
7.78173696,0.9993439877987611,-82.43932834575426
7.79064576,0.9992925216673613,-82.76263867617453
7.79955456,0.9992782021475841,-83.08555504493653
7.80846336,0.9993018213861055,-83.40864047957244
7.81737216,0.9993623575177549,-83.73233309382685
7.826280448,0.9994566060982876,-84.05718470500967
7.835189248,0.999579666634217,-84.38354445326662
7.844098048,0.9997252344867181,-84.71176414650479
7.853006848,0.9998856397774661,-85.04209716627153
7.861915136,1.0000524388260263,-85.37471297871488
7.870823936,1.0002171116640408,-85.70958936707903
7.879732736,1.0003708236744733,-86.04667712281714
7.888641536,1.0005056970387887,-86.3857613777052
7.897550336,1.0006146133914515,-86.72656801363225
7.906458624,1.0006916592942792,-87.0686920700494
7.915367424,1.0007331115576246,-87.41169147976942
7.924276224,1.0007362736263783,-87.75509312945141
7.933185024,1.0007011843925824,-88.0983940776254
7.942093312,1.0006297342022903,-88.44112397150487
7.951002112,1.0005253502601887,-88.78277209067468
7.959910912,1.0003933933292029,-89.12301285895552
7.968819712,1.0002410045180516,-89.46142175174523
7.977728512,1.0000758415820772,-89.79786861863575
7.9866368,0.9999065789613589,-90.13220058706938
7.9955456,0.9997420937177994,-90.46444107358113
8.0044544,0.9995909448092578,-90.79471815116365
8.0133632,0.9994612315717504,-91.12321298860924
8.022271488,0.9993596580678579,-91.45027273506567
8.031180288,0.9992914779068963,-91.77626578786199
8.040089088,0.9992606619708712,-92.1017353573714
8.048997888,0.9992687098804459,-92.42712839679805
8.057906688,0.9993151686995849,-92.75297577797333
8.066814976,0.9993977789002941,-93.07975114773393
8.075723776,0.9995123437209246,-93.4079468894368
8.084632576,0.9996528927103646,-93.73789701610808
8.093541376,0.9998119182109759,-94.0699378703024
8.102449664,0.999981363087393,-94.40421061402805
8.111358464,1.0001523505104917,-94.74083427623974
8.120267264,1.0003158813756814,-95.07978681701545
8.129176064,1.0004632329660095,-95.42086671264806
8.138084864,1.000587054422133,-95.76382571133692
8.146993152,1.0006804950871706,-96.10836486543481
8.155901952,1.0007387720496692,-96.45394086052984
8.164810752,1.0007587521273968,-96.80020206224681
8.173719552,1.0007392999719806,-97.14655101150313
8.18262784,1.0006813248344057,-97.4924800897378
8.19153664,1.0005878521397207,-97.83752775148788
8.20044544,1.0004637142727726,-98.18123720256023
8.20935424,1.00031515161773,-98.52329802647212
8.21826304,1.0001501575065426,-98.86335296874118
8.227171328,0.9999770133860402,-99.2012954376331
8.236080128,0.9998050276298888,-99.5370633694788
8.244988928,0.9996431857529556,-99.87070256114787
8.253897728,0.9994996538953662,-100.20246084887701
8.262806016,0.9993823319879362,-100.53253559462657
8.271714816,0.9992972847088916,-100.86141055669458
8.280623616,0.9992490958145945,-101.18947956880226
8.289532416,0.9992403043611925,-101.5172451865289
8.298441216,0.9992713101513111,-101.84526445711018
8.307349504,0.9993409415977095,-102.17400411700385
8.316258304,0.9994452660599692,-102.50400476796128
8.325167104,0.9995790074221719,-102.83566326985768
8.334075904,0.9997352130147574,-103.1693360411348
8.342984192,0.9999057771969025,-103.50526695175894
8.351892992,1.0000818099115245,-103.8435317064645
8.360801792,1.0002540775391018,-104.18422915499102
8.369710592,1.0004135793634021,-104.5272127395844
8.378619392,1.0005519123214213,-104.87223752076257
8.38752768,1.0006619730754582,-105.21902798185569
8.39643648,1.0007377229756729,-105.56714282272111
8.40534528,1.0007753633308538,-105.9161031884527
8.41425408,1.00077268769638,-106.26537581040236
8.423162368,1.0007297439359044,-106.61447910557428
8.432071168,1.0006488963239184,-106.96285690453888
8.440979968,1.0005340658655146,-107.31005133744546
8.449888768,1.0003913409914127,-107.65569863161012
8.458797568,1.000227970404659,-107.99941568034575
8.467705856,1.0000524745978636,-108.34098097992806
8.476614656,0.9998742239761927,-108.68030999954664
8.485523456,0.9997022936681137,-109.01742927865803
8.494432256,0.9995457096372165,-109.3524662133155
8.503340544,0.9994127294731447,-109.68569793305721
8.512249344,0.9993104100019622,-110.01745257034997
8.521158144,0.9992441546781,-110.34819452203968
8.530066944,0.9992174956866675,-110.67839650904014
8.538975744,0.9992318754552774,-111.00864279527677
8.547884032,0.9992867750101768,-111.33936130435195
8.556792832,0.9993791576495991,-111.67117427371592
8.565701632,0.9995044528965751,-112.00452617615329
8.574610432,0.9996560628823206,-112.33978281165336
8.58351872,0.9998261965203256,-112.67723065343871
8.592428032,1.0000058671996674,-113.0170930516591
8.601335808,1.0001857784235548,-113.35943919044807
8.610244608,1.0003565502893101,-113.70418290087211
8.619153408,1.0005092053554967,-114.05115646165284
8.628062208,1.0006357433010464,-114.40005650455218
8.636971008,1.0007294209476216,-114.75054390398249
8.645879808,1.0007854690720976,-115.1020746839433
8.654788608,1.000800756692829,-115.4541953408409
8.663697408,1.0007743726165141,-115.8063522597942
8.672606208,1.0007077291341462,-116.15799891159068
8.681513984,1.0006040580396958,-116.50865541372198
8.690422784,1.0004688011664973,-116.85783159977346
8.699331584,1.0003089669108907,-117.20515305802913
8.708240384,1.0001328213217002,-117.55035407701853
8.717149184,0.9999494711597811,-117.89331128219004
8.726057984,0.9997685144572799,-118.23396056937756
8.734966784,0.9995995179419905,-118.57236640255844
8.743875584,0.9994511927580675,-118.90877778940128
8.752784384,0.9993314125385198,-119.2435170305866
8.76169216,0.9992465355324814,-119.57697125189473
8.77060096,0.9992010945661595,-119.90966358578827
8.77950976,0.9991974468425745,-120.24211995193801
8.78841856,0.9992359580890235,-120.57489031924513
8.79732736,0.9993147102636116,-120.90848279736815
8.80623616,0.9994296446657394,-121.24348167633558
8.81514496,0.9995747922448928,-121.58025552464532
8.82405376,0.9997426252822934,-121.91920986887696
8.83296256,0.9999244470817962,-122.26051002679779
8.841870336,1.000110753477799,-122.60436169156922
8.850779136,1.0002917812161292,-122.95072032995101
8.859687936,1.0004581453912416,-123.29947144495793
8.868596736,1.000601145863132,-123.65036773958448
8.877505536,1.0007131210550053,-124.00302802517899
8.886414336,1.0007882656186462,-124.35702857314955
8.895323136,1.000822567927547,-124.7118429228936
8.904231936,1.0008141724983555,-125.0669382049004
8.913140736,1.0007634157307068,-125.42175663256411
8.922048512,1.0006727843827898,-125.77572070161091
8.930957312,1.000546985740374,-126.1284030854825
8.939866112,1.0003924925887804,-126.47933718596059
8.948774912,1.0002173335979647,-126.82815854819587
8.957683712,1.000030603718498,-127.17472451281694
8.966592512,0.9998419859131105,-127.51891073389943
8.975501312,0.9996613097418894,-127.86076044796086
8.984410112,0.9994980757835062,-128.20041011279906
8.993318912,0.999360843780142,-128.53814675347292
9.002226688,0.9992569484477762,-128.87440030619038
9.011135488,0.9991917763322754,-129.2095979172928
9.020044288,0.9991688444484197,-129.54432310877337
9.028953088,0.9991896165285974,-129.87910886162507
9.037861888,0.999252854678996,-130.21452049669008
9.046770688,0.999355433322822,-130.55110310701397
9.055679488,0.9994922164644973,-130.88934067199676
9.064588288,0.9996558539818247,-131.2296637565087
9.073497088,0.9998380592158292,-131.57233698089513
9.082404864,1.00002921457886,-131.91756408134825
9.091313664,1.0002194695193374,-132.26539939266047
9.100222464,1.0003986888319976,-132.61576572171478
9.109131264,1.0005577851151597,-132.96843155360702
9.118040064,1.000688188579987,-133.3231319144752
9.126948864,1.0007831202436637,-133.67938339580058
9.135857664,1.000837475286262,-134.03674164071663
9.144766464,1.0008484640115667,-134.39461023042645
9.153675264,1.0008152989558163,-134.75244124939067
9.16258304,1.0007395548416127,-135.10967810445032
9.17149184,1.000625287864151,-135.46573389930631
9.18040064,1.0004782327498534,-135.82020447874444
9.18930944,1.0003059530892784,-136.17264544460966
9.19821824,1.0001174718481938,-136.5228084066413
9.20712704,0.9999224484896965,-136.87055570371808
9.21603584,0.9997313235710341,-137.21585448573902
9.22494464,0.999553774431937,-137.55877492234734
9.23385344,0.9993993045972244,-137.8996160928112
9.242761216,0.9992760024491073,-138.23868112503877
9.251670016,0.999190442374747,-138.57645693914557
9.260578816,0.999147169939254,-138.91345946412034
9.269487616,0.9991484451486821,-139.25025522284656
9.278396416,0.9991943263248152,-139.58744548840437
9.287305216,0.9992827050644733,-139.92556797866675
9.296214016,0.9994088575888473,-140.26520950081445
9.305122816,0.9995663087454614,-140.60680660922793
9.314031616,0.9997469352939777,-140.95070121627194
9.322939392,0.9999413168478706,-141.29717522107865
9.331848192,1.0001393574575559,-141.6462737287137
9.340756992,1.0003306918018884,-141.998056026056
9.349665792,1.0005053313053809,-142.3523531056212
9.358574592,1.0006540875875214,-142.7088387296122
9.367483392,1.0007692174769776,-143.06717094113677
9.376392192,1.0008445874082486,-143.4268610873939
9.385300992,1.0008761842402563,-143.78733390324672
9.394209792,1.0008623281845943,-144.1480479914795
9.403117568,1.0008034580872776,-144.50836859144653
9.412026368,1.0007028485368925,-144.86773195753867
9.420935168,1.0005652206682314,-145.22566191492805
9.429843968,1.0003980060151445,-145.58166555935716
9.438752768,1.0002096683004031,-145.93540653115733
9.447661568,1.0000100581466218,-146.28669277671952
9.456570368,0.9998095157825858,-146.63542913204253
9.465479168,0.9996186252632338,-146.98167473822951
9.474387968,0.999447217943908,-147.32561944071514
9.483295744,0.9993045562207307,-147.66753693321857
9.492204544,0.9991979138055588,-148.00789471649404
9.501113344,0.9991330347997367,-148.34721373755906
9.510022144,0.9991134311411886,-148.68602156727997
9.518930944,0.9991403455862032,-149.02496638679582
9.527839744,0.9992122329427215,-149.36462222129288
9.536748544,0.9993256490697443,-149.70557217350174
9.545657344,0.9994747214327275,-150.04834859419137
