freq,mag,phase
6.0,0.9999923945807759,-175.72193325584925
6.008,0.9999931637244027,-176.15335547288802
6.016,0.9999939037761386,-176.58465789104315
6.024,0.9999946152935715,-177.01584363170704
6.032,0.9999952988283827,-177.44691582929832
6.04,0.999995954926366,-177.87787763104603
6.048,0.9999965841274446,-178.3087321967751
6.056,0.9999971869656913,-178.73948269869354
6.064,0.9999977639693447,-179.17013232118046
6.072,0.9999983156608323,-179.60068426057612
6.08,0.9999988425567878,179.96885827502726
6.088,0.9999993451680758,179.53849206599276
6.096,0.9999998239998087,179.10821388134536
6.104,0.9999999999999998,178.6780204789764
6.112,0.9999999999999999,178.24790860584767
6.12,1.0,177.81787499819333
6.128,1.0,177.38791638172128
6.136,1.0,176.9580294718128
6.144,1.0,176.5282109737213
6.152,0.9999999999999999,176.09845758276938
6.16,1.0,175.66876598454562
6.168,0.9999999999999999,175.2391328550989
6.176,1.0,174.80955486113274
6.184,0.9999999999999999,174.38002866019787
6.192,1.0,173.95055090088397
6.2,0.9999999999999999,173.52111822301006
6.208,1.0,173.0917272578139
6.216,0.9999999999999999,172.6623746281407
6.224,0.9999999999999999,172.23305694863024
6.232,1.0,171.80377082590334
6.24,0.9999999999999999,171.37451285874727
6.248,1.0,170.94527963830015
6.256,1.0,170.51606774823446
6.264,1.0,170.08687376493975
6.272,1.0,169.657694257704
6.28,1.0,169.2285257888948
6.288,1.0,168.79936491413918
6.296,1.0,168.3702081825026
6.304,0.9999999999999999,167.9410521366677
6.312,1.0,167.51189331311156
6.32,1.0,167.08272824228257
6.328,1.0,166.65355344877665
6.336,1.0,166.22436545151274
6.344,1.0,165.79516076390732
6.352,1.0,165.36593589404865
6.36,1.0,164.9366873448703
6.368,1.0,164.50741161432393
6.376,1.0,164.07810519555153
6.384,1.0,163.64876457705753
6.392,0.9999999999999999,163.21938624287952
6.4,1.0,162.78996667275962
6.408,1.0,162.36050234231425
6.416,1.0,161.93098972320436
6.424,0.9999999999999999,161.50142528330457
6.432,1.0,161.0718054868726
6.44,0.9999999999999999,160.6421267947176
6.448,1.0,160.21238566436884
6.456,1.0,159.78257855024367
6.464,0.9999999999999999,159.35270190381522
6.472,1.0,158.92275217378014
6.48,0.9999999999999999,158.49272580622585
6.4879999999999995,1.0,158.06261924479773
6.496,0.9999999999999999,157.63242893086593
6.504,1.0,157.20215130369266
6.5120000000000005,0.9999999999999999,156.7717828005982
6.52,1.0,156.34131985712852
6.5280000000000005,1.0,155.9107589072208
6.536,1.0,155.48009638337115
6.5440000000000005,0.9999999999999999,155.04932871680012
6.552,1.0,154.61845233762025
6.5600000000000005,1.0,154.18746367500194
6.568,1.0,153.75635915734105
6.5760000000000005,1.0000000000000002,153.32513521242487
6.584,0.9999999999999999,152.89378826760014
6.592,1.0,152.4623147499393
6.6,0.9999999999999999,152.0307110864087
6.608,0.9999999865236706,151.59897370403567
6.616,0.9999997494774976,151.16709903007674
6.624,0.9999995106588645,150.73508349218577
6.632,0.999999270253141,150.30292351858225
6.64,0.999999028442016,149.87061553822048
6.648,0.9999987854035267,149.43815598095853
6.656,0.9999985413120928,149.0055412777279
6.664,0.9999982963385472,148.5727678607037
6.672,0.9999980506501697,148.1398321634749
6.68,0.9999978044107177,147.7067306212155
6.688,0.9999975577804603,147.27345967085606
6.696,0.9999973109162077,146.8400157512556
6.704,0.999997063971345,146.4063953033742
6.712,0.9999968170958634,145.97259477044628
6.72,0.9999965704363909,145.53861059815443
6.728,0.9999963241362257,145.1044392348038
6.736,0.9999960783353671,144.67007713149727
6.744,0.999995833170545,144.23552074231134
6.752,0.9999955887752546,143.80076652447266
6.76,0.9999953452797853,143.36581093853542
6.768,0.9999951028112517,142.93065044855948
6.776,0.9999948614936258,142.49528152228925
6.784,0.9999946214477684,142.05970063133358
6.792,0.9999943827914574,141.62390425134635
6.8,0.9999941456394204,141.18788886220793
6.808,0.9999939101033656,140.75165094820784
6.816,0.9999936762920114,140.31518699822797
6.824,0.9999934443111169,139.87849350592714
6.832,0.9999932142635121,139.44156696992624
6.84,0.9999929862491291,139.00440389399486
6.848,0.9999927603650304,138.56700078723867
6.856,0.9999925367054409,138.12935416428778
6.864,0.9999923153617756,137.69146054548668
6.872,0.9999920964226712,137.25331645708468
6.88,0.9999918799740146,136.81491843142794
6.888,0.9999916660989727,136.37626300715252
6.896,0.9999914548780221,135.93734672937867
6.904,0.9999912463889782,135.49816614990618
6.912,0.9999910407070236,135.05871782741127
6.92,0.9999908379047385,134.6189983276444
6.928,0.9999906380521295,134.1790042236297
6.936,0.9999904412166564,133.73873209586543
6.944,0.9999902474632639,133.29817853252604
6.952,0.9999900568544081,132.8573401296653
6.96,0.9999898694500858,132.416213491421
6.968,0.9999896853078633,131.974795230221
6.976,0.999989504482902,131.53308196699075
6.984,0.9999893270279921,131.0910703313622
6.992,0.9999891529935753,130.64875696188406
7.0,0.9999889824277735,130.20613850623374
7.008,0.9999888153764203,129.7632116214307
7.016,0.9999886518830846,129.31997297405132
7.024,0.9999884919891006,128.87641924044533
7.032,0.9999883357335935,128.4325471069536
7.04,0.9999881831535089,127.98835327012803
7.048,0.9999880342836396,127.54383443695228
7.056,0.9999878891566507,127.09898732506487
7.064,0.9999877478031092,126.6538086629833
7.072,0.9999876102515105,126.20829519033013
7.08,0.9999874765283028,125.76244365806063
7.088,0.9999873466579192,125.3162508286923
7.096,0.9999872206627967,124.86971347653551
7.104,0.9999870985634112,124.42282838792664
7.112,0.9999869803782965,123.97559236146212
7.12,0.9999868661240756,123.52800220823502
7.128,0.9999867558154858,123.08005475207263
7.136,0.9999866494654027,122.63174682977615
7.144,0.999986547084869,122.18307529136234
7.152,0.9999864486831186,121.73403700030642
7.16,0.9999863542676035,121.28462883378721
7.168,0.9999862638440201,120.83484768293391
7.176,0.9999861774163314,120.38469045307458
7.184,0.999986094986798,119.93415406398667
7.192,0.999986016556,119.48323545014898
7.2,0.9999859421228616,119.0319315609959
7.208,0.9999858716846792,118.58023936117321
7.216,0.999985805237146,118.1281558307957
7.224,0.9999857427743744,117.67567796570683
7.232,0.9999856842889245,117.22280277773989
7.24,0.9999856297718278,116.76952729498146
7.248,0.999985579212611,116.31584856203634
7.256,0.9999855325993218,115.86176364029458
7.264,0.9999854899185532,115.40726960820002
7.272,0.9999854511554696,114.95236356152134
7.28,0.9999854162938282,114.49704261362409
7.288,0.9999853853160061,114.04130389574523
7.296,0.999985358203024,113.58514455726944
7.304,0.9999853349345699,113.12856176600692
7.312,0.9999853154890244,112.6715527084733
7.32,0.9999852998434832,112.21411459017143
7.328,0.999985287973782,111.75624463587489
7.336,0.9999852798545225,111.29794008991324
7.344,0.9999852754590903,110.83919821645927
7.352,0.9999852747596871,110.38001629981794
7.36,0.9999852777273477,109.92039164471718
7.368,0.9999852843319658,109.46032157660036
7.376,0.9999852945423197,108.99980344192078
7.384,0.9999853083260921,108.5388346084374
7.392,0.9999853256498963,108.07741246551309
7.4,0.9999853464792985,107.6155344244139
7.4079999999999995,0.9999853707788419,107.15319791861047
7.416,0.9999853985120685,106.69040040408075
7.4239999999999995,0.9999854296415436,106.22713935961514
7.432,0.9999854641288791,105.76341228712212
7.4399999999999995,0.9999855019347546,105.29921671193695
7.448,0.9999855430189433,104.83455018313036
7.4559999999999995,0.9999855873403315,104.36941027382066
7.464,0.9999856348569452,103.90379458148551
7.4719999999999995,0.9999856855259699,103.43770072827704
7.48,0.999985739303774,102.97112636133677
7.4879999999999995,0.9999857961459331,102.50406915311389
7.496,0.9999858560072503,102.03652680168287
7.504,0.99998591884178,101.56849703106474
7.5120000000000005,0.9999859846028507,101.09997759154756
7.52,0.9999860532430861,100.63096626001038
7.5280000000000005,0.9999861247144284,100.16146084024656
7.536,0.9999861989681602,99.69145916329019
7.5440000000000005,0.9999862759549271,99.22095908774203
7.552,0.9999863556247592,98.74995850009844
7.5600000000000005,0.9999864379270943,98.27845531507978
7.568,0.9999865228107979,97.80644747596149
7.5760000000000005,0.999986610224188,97.33393295490477
7.584,0.9999867001150539,96.86090975328995
7.5920000000000005,0.9999867924306799,96.3873759020492
7.6,0.999986887117868,95.91332946200177
7.6080000000000005,0.9999869841229563,95.4387685241886
7.616,0.9999870833918433,94.9636912102094
7.6240000000000006,0.9999871848700089,94.48809567255898
7.632,0.999987288502537,94.0119800949658
7.640000000000001,0.9999873942341324,93.5353426927298
7.648,0.9999875020091483,93.05818171306234
7.656000000000001,0.9999876117716034,92.58049543542533
7.664,0.9999877234652048,92.10228217187223
7.672,0.9999878370333682,91.62354026738828
7.68,0.9999879524192402,91.14426810023214
7.688,0.9999880695657174,90.66446408227736
7.696,0.9999881884154699,90.1841266593543
7.704,0.9999883089109595,89.70325431159225
7.712,0.9999884309944622,89.22184555376164
7.72,0.9999885546080886,88.73989893561658
7.728,0.9999886796938037,88.25741304223706
7.736,0.9999888061934479,87.77438649437148
7.744,0.9999889340487582,87.29081794877872
7.752,0.9999890632013873,86.80670609857022
7.76,0.9999891935929248,86.32204967355173
7.768,0.9999893251649167,85.83684744056471
7.776,0.9999894578588858,85.35109820382723
7.784,0.9999895916163518,84.86480080527453
7.792,0.999989726378851,84.3779541248987
7.8,0.9999898620879561,83.89055708108802
7.808,0.9999899986852967,83.40260863096526
7.816,0.999990136112577,82.91410777072525
7.824,0.9999902743115978,82.42505353597153
7.832,0.9999904132242736,81.93544500205182
7.84,0.9999905527926536,81.44528128439265
7.848,0.99999069295894,80.95456153883245
7.856,0.9999908336655071,80.46328496195353
7.864,0.9999909748549203,79.97145079141268
7.872,0.9999911164699562,79.47905830627003
7.88,0.9999912584536187,78.98610682731668
7.888,0.9999914007491598,78.49259571740023
7.896,0.999991543300098,77.99852438174885
7.904,0.999991686050235,77.50389226829319
7.912,0.9999918289436752,77.00869886798642
7.92,0.9999919719248442,76.5129437151222
7.928,0.9999921149385053,76.0166263876502
7.936,0.9999922579297786,75.51974650748956
7.944,0.9999924008441581,75.02230374083972
7.952,0.9999925436275288,74.52429779848885
7.96,0.9999926862261849,74.02572843611941
7.968,0.9999928285868467,73.52659545461123
7.976,0.9999929706566776,73.02689870034139
7.984,0.9999931123833006,72.52663806548138
7.992,0.9999932537148158,72.02581348829086
8.0,0.9999933945998167,71.52442495340847
8.008,0.999993534987406,71.02247249213907
8.016,0.9999936748272125,70.51995618273742
8.024000000000001,0.9999938140694068,70.01687615068883
8.032,0.9999939526647176,69.51323256898546
8.04,0.9999940905644464,69.00902565839877
8.048,0.9999942277204843,68.5042556877485
8.056000000000001,0.9999943640853259,67.99892297416746
8.064,0.9999944996120854,67.49302788336185
8.072,0.9999946342545117,66.98657082986705
8.08,0.9999947679670013,66.4795522772995
8.088000000000001,0.9999949007046143,65.97197273860404
8.096,0.999995032423089,65.46383277629592
8.104,0.9999951630788542,64.95513300269816
8.112,0.999995292629045,64.44587408017428
8.120000000000001,0.9999954210315146,63.93605672135595
8.128,0.9999955482448488,63.42568168936496
8.136,0.9999956742283787,62.914749798029874
8.144,0.9999957989421933,62.403261912097584
8.152000000000001,0.9999959223471525,61.89121894743936
8.16,0.9999960444048995,61.37862187125056
8.168,0.9999961650778733,60.86547170224455
8.176,0.9999962843293183,60.35176951084111
8.184000000000001,0.9999964021232995,59.83751641934866
8.192,0.9999965184247109,59.322713602139714
8.2,0.9999966331992881,58.80736228582005
8.208,0.999996746413618,58.291463749391745
8.216000000000001,0.9999968580351505,57.775019324409676
8.224,0.9999969680322075,57.25803039513052
8.232,0.9999970763739936,56.74049839865521
8.24,0.9999971830306058,56.222424825064536
8.248000000000001,0.9999972879730424,55.703811217547674
8.256,0.9999973911732124,55.18465917252307
8.264,0.9999974926039432,54.66497033975174
8.272,0.9999975922389911,54.144746422443646
8.280000000000001,0.9999976900530473,53.6239891773563
8.288,0.9999977860217468,53.102700414885255
8.296,0.9999978801216758,52.58088199914654
8.304,0.9999979723303782,52.05853584805168
8.312,0.9999980626263637,51.53566393337462
8.32,0.9999981509891124,51.012268280809195
8.328,0.999998237399083,50.48835097002002
8.336,0.9999983218377172,49.96391413468313
8.344,0.9999984042874451,49.4389599625196
8.352,0.9999984847316922,48.913490695318906
8.36,0.9999985631548803,48.38750862895507
8.368,0.9999986395424374,47.861016113392196
8.376,0.9999987138807964,47.33401555268267
8.384,0.999998786157402,46.806509404954504
8.392,0.9999988563607128,46.27850018239116
8.4,0.9999989244802053,45.7499904512003
8.408,0.9999989905063744,45.22098283157479
8.416,0.9999990544307384,44.691479997642446
8.424,0.9999991162458387,44.16148467740797
8.432,0.9999991759452421,43.63099965268318
8.44,0.9999992335235414,43.10002775900949
8.448,0.9999992889763571,42.56857188556848
8.456,0.9999993423003369,42.03663497508439
8.464,0.9999993934931553,41.50422002371461
8.472,0.9999994425535147,40.97133008093215
8.48,0.999999489481142,40.43796824939562
8.488,0.9999995342767902,39.9041376848111
8.496,0.9999995769422346,39.369841595781764
8.504,0.9999996174802716,38.83508324364875
8.512,0.9999996558947171,38.299865942319876
8.52,0.9999996921904017,37.76419305808957
8.528,0.9999997263731694,37.228068009446375
8.536,0.9999997584498728,36.691494266871686
8.544,0.999999788428369,36.1544753526258
8.552,0.9999998163175172,35.6170148405253
8.56,0.9999998421271706,35.07911635570752
8.568,0.9999998658681736,34.54078357438633
8.576,0.9999998875523558,34.00202022359494
8.584,0.9999999071925254,33.46283008091982
8.592,0.9999999248024627,32.923216974221866
8.6,0.9999999403969141,32.38318478134836
8.608,0.999999953991584,31.842737429832212
8.616,0.9999999656031289,31.301878896582114
8.624,0.9999999752491457,30.760613207559672
8.632,0.9999999829481688,30.21894443744772
8.64,0.9999999887196559,29.676876709305475
8.648,0.9999999925839819,29.134414194214756
8.656,0.9999999945624289,28.591561110913293
8.664,0.9999999946771763,28.048321725418948
8.672,0.9999999929512889,27.504700350641144
8.68,0.9999999894087092,26.960701345983153
8.688,0.9999999840742433,26.416329116931756
8.696,0.9999999769735515,25.87158811463772
8.704,0.999999968133135,25.32648283548367
8.712,0.9999999575803256,24.781017820643033
8.72,0.9999999453432709,24.235197655626326
8.728,0.9999999314509233,23.689026969818592
8.736,0.9999999159330255,23.142510436004297
8.744,0.9999998988200978,22.595652769883564
8.752,0.9999998801434231,22.048458729575927
8.76,0.9999998599350338,21.500933115115508
8.768,0.9999998382276964,20.95308076793393
8.776,0.9999998150548968,20.40490657033475
8.784,0.9999997904508249,19.856415444955815
8.792,0.9999997644503592,19.30761235422329
8.8,0.9999997370890504,18.758502299793776
8.808,0.9999997084031061,18.20909032198833
8.815999999999999,0.9999996784293735,17.659381499214785
8.824,0.9999996472053229,17.10938094738159
8.832,0.9999996147690304,16.559093819301765
8.84,0.9999995811591608,16.008525304086916
8.847999999999999,0.9999995464149499,15.457680626531744
8.856,0.9999995105761864,14.90656504648978
8.864,0.9999994736831944,14.35518385823993
8.872,0.9999994357768129,13.803542389843493
8.879999999999999,0.999999396898381,13.25164600249222
8.888,0.9999993570897145,12.69950008984817
8.896,0.9999993163930904,12.147110077374856
8.904,0.9999992748512251,11.594481421659482
8.911999999999999,0.9999992325072565,11.041619609726846
8.92,0.9999991894047239,10.488530158345528
8.928,0.9999991455875467,9.935218613326128
8.936,0.9999991011000061,9.38169054881115
8.943999999999999,0.9999990559867239,8.82795156655718
8.952,0.9999990102926416,8.274007295210136
8.96,0.999998964063001,7.719863389573137
8.968,0.9999989173433229,7.165525529866777
8.975999999999999,0.9999988701793847,6.610999420982412
8.984,0.9999988226172021,6.056290791729234
8.992,0.9999987747030056,5.50140539407471
9.0,0.9999987264832203,4.946349002378204
9.008,0.9999986780044445,4.391127412618389
9.016,0.9999986293134283,3.8357464416152034
9.024000000000001,0.999998580457051,3.280211926246011
9.032,0.9999985314823009,2.7245297226557375
9.04,0.9999984824362534,2.1687057054616456
9.048,0.9999984333660484,1.612745766953458
9.056000000000001,0.9999983843188684,1.0566558162885715
9.064,0.9999983353419192,0.5004417786820974
9.072,0.9999982864824039,-0.05589040540759569
9.08,0.9999982377875061,-0.6123347810971115
9.088000000000001,0.9999981893043631,-1.168885379900222
9.096,0.999998141080048,-1.725536220554415
9.104,0.9999980931615454,-2.2822813098509775
9.112,0.9999980455957308,-2.839114643467908
9.120000000000001,0.9999979984293497,-3.3960302068059502
9.128,0.9999979517089936,-3.9530219758279572
9.136,0.9999979054810808,-4.510083917900875
9.144,0.9999978597918332,-5.067209992639669
9.152000000000001,0.9999978146872563,-5.624394152753306
9.16,0.9999977702131168,-6.181630344893185
9.168,0.9999977264149215,-6.738912510503234
9.176,0.9999976833378972,-7.296234586670894
9.184000000000001,0.9999976410269689,-7.853590506979272
9.192,0.9999975995267382,-8.41097420236076
9.2,0.9999975588814642,-8.96837960195125
9.208,0.9999975191350426,-9.52580063394436
9.216000000000001,0.9999974803309846,-10.083231226445832
9.224,0.9999974425123971,-10.640665308328316
9.232,0.999997405721963,-11.198096810085925
9.24,0.9999973700019203,-11.755519664687649
9.248000000000001,0.999997335394045,-12.312927808430059
9.256,0.9999973019396287,-12.87031518178942
9.264,0.9999972696794609,-13.4276757302725
9.272,0.9999972386538108,-13.985003405265374
9.280000000000001,0.9999972089024073,-14.54229216488047
9.288,0.999997180464421,-15.099535974802045
9.296,0.9999971533784465,-15.656728809129438
9.304,0.9999971276824834,-16.213864651217314
9.312000000000001,0.99999710341392,-16.770937494513213
9.32,0.9999970806095154,-17.327941343392478
9.328,0.9999970593053815,-17.884870213990215
9.336,0.9999970395369687,-18.441718135029046
9.344,0.9999970213390459,-18.99847914864337
9.352,0.9999970047456878,-19.55514731120052
9.36,0.9999969897902571,-20.111716694116474
9.368,0.999996976505389,-20.668181384668742
9.376,0.9999969649229778,-21.224535486802917
9.384,0.9999969550741601,-21.780773121936342
9.392,0.9999969469893006,-22.33688842975479
9.4,0.9999969406979797,-22.892875569005927
9.408,0.9999969362289776,-23.44872871828525
9.416,0.9999969336102621,-24.00444207681848
9.424,0.9999969328689756,-24.56000986523603
9.432,0.9999969340314214,-25.11542632634342
9.44,0.9999969371230542,-25.670685725883416
9.448,0.9999969421684636,-26.225782353293773
9.456,0.9999969491913668,-26.780710522456225
9.464,0.9999969582145966,-27.335464572440735
9.472,0.9999969692600886,-27.890038868240634
9.48,0.9999969823488737,-28.444427801502624
9.488,0.9999969975010665,-28.998625791247335
9.496,0.9999970147358559,-29.552627284584307
9.504,0.9999970340714972,-30.106426757417356
9.512,0.9999970555253023,-30.660018715143856
9.52,0.9999970791136316,-31.213397693344124
9.528,0.999997104851887,-31.766558258464453
9.536,0.9999971327545041,-32.31949500848993
9.544,0.9999971628349449,-32.872202573610494
9.552,0.9999971951056914,-33.42467561687655
9.56,0.9999972295782394,-33.97690883484765
9.568,0.9999972662630939,-34.52889695823022
9.576,0.9999973051697619,-35.08063475250823
9.584,0.9999973463067502,-35.632117018562724
9.592,0.9999973896815578,-36.183338593283786
9.6,0.9999974353006752,-36.73429435017138
9.608,0.9999974831695783,-37.284979199928316
9.616,0.9999975332927267,-37.835388091041715
9.624,0.9999975856735611,-38.38551601035662
9.632,0.9999976403144999,-38.93535798363778
9.64,0.9999976972169388,-39.48490907612335
9.648,0.9999977563812491,-40.03416439306664
9.656,0.9999978178067753,-40.58311908026957
9.664,0.9999978814918369,-41.13176832460406
9.672,0.9999979474337267,-41.68010735452487
9.68,0.9999980156287117,-42.22813144057034
9.688,0.9999980860720333,-42.775835895854314
