freq,mag,phase
6.0,0.9999930562519497,-50.4695813170814
6.00775936,0.9999461745443882,-50.804267646110944
6.01551872,0.9999010559779873,-51.13840095049944
6.023278592,0.9998612942465063,-51.472114629876344
6.031037952,0.9998290436323599,-51.805513350597685
6.038797312,0.9998061606401858,-52.13860147947061
6.046556672,0.999793637963653,-52.47159686568319
6.054316032,0.9997924348624814,-52.80462917475159
6.062075904,0.9998026701489702,-53.137878009862135
6.069835264,0.9998234546266311,-53.47143435223329
6.077594624,0.9998539138767604,-53.80550790229746
6.085353984,0.9998925470225328,-54.14016199216089
6.093113344,0.9999372218671313,-54.475426700284785
6.100872704,0.9999851450636615,-54.81150838501686
6.108632576,1.0000343062569794,-55.14837455959964
6.116391936,1.000081632224506,-55.485962546930985
6.124151296,1.00012465030054,-55.82433743082706
6.131910656,1.000161089133988,-56.16334432249596
6.139670016,1.0001889978254055,-56.50292815730721
6.147429888,1.0002068356928113,-56.84296732962051
6.155189248,1.000213422391767,-57.1832805775935
6.162948608,1.0002085780303636,-57.52374390618645
6.170707968,1.0001928085845888,-57.86419175784933
6.178467328,1.000166339962113,-58.20447063541475
6.1862272,1.0001311074661092,-58.54450899543788
6.19398656,1.0000887019384688,-58.884110165599594
6.20174592,1.000041427701288,-59.22326541699964
6.20950528,0.9999920626973997,-59.561895762508236
6.21726464,0.9999429854063909,-59.900008864292396
6.225024,0.999897071242548,-60.23760758145625
6.232783872,0.9998567058786701,-60.57474750199382
6.240543232,0.9998240596401851,-60.911512415130645
6.248302592,0.9998010578836057,-61.24806199160161
6.256061952,0.9997886944584581,-61.584500964573195
6.263821312,0.9997879122248888,-61.920935603178236
6.271581184,0.999798633068626,-62.25757963341714
6.279340544,0.9998203875826104,-62.594596033304455
6.287099904,0.9998519878222564,-62.93206399875245
6.294859264,0.9998916221749615,-63.27015437672798
6.302618624,0.9999372387383986,-63.60893821133636
6.310378496,0.9999866018145288,-63.94848341506316
6.318137856,1.0000368690734889,-64.28882645923777
6.325897216,1.0000851431732085,-64.62996056137769
6.333656576,1.000129004564566,-64.97185636192185
6.341415936,1.0001660054648946,-65.3143917793289
6.349175808,1.0001941950918665,-65.65751126232455
6.356935168,1.000212009704476,-66.00107546250199
6.364694528,1.0002185653158855,-66.34491003522852
6.372453888,1.0002130521864732,-66.68889961615618
6.380213248,1.000196533674102,-67.03287108134326
6.387972608,1.0001692354487137,-67.37668350085602
6.39573248,1.0001327625155332,-67.72017411557835
6.40349184,1.0000890869807042,-68.06327085746973
6.4112512,1.000040811430537,-68.40589554989175
6.41901056,0.9999901295421877,-68.74798366896462
6.42676992,0.9999402156391224,-69.08951709443001
6.434529792,0.9998931009596967,-69.43052000511892
6.442289152,0.9998521725032254,-69.77105123638759
6.450048512,0.9998190854962737,-70.1112120641346
6.457807872,0.9997956910880328,-70.45114806098479
6.465567232,0.9997835466702356,-70.79094631100217
6.473327104,0.9997831783393992,-71.13078633545904
6.481086464,0.9997943967183527,-71.47082090028738
6.488845824,0.9998169924628368,-71.81120681098562
6.496605184,0.9998496349757676,-72.15210077058019
6.504364544,0.9998905123626328,-72.49359052671117
6.512123904,0.9999374816257621,-72.83581166138548
6.519883776,0.9999878132431327,-73.17880061883109
6.527643136,1.0000391664679644,-73.52262184006887
6.535402496,1.0000885975291232,-73.86719759981901
6.543161856,1.0001332829261647,-74.21257401849776
6.550921216,1.0001709654978304,-74.55863638205051
6.558681088,1.0001994900713413,-74.90522793768113
6.566440448,1.0002174443538097,-75.25228680749437
6.574199808,1.0002237547498665,-75.5996299768414
6.581959168,1.0002180508326242,-75.94710755054834
6.589718528,1.000200550183459,-76.29454600179186
6.5974784,1.000172313350927,-76.64180072634204
6.60523776,1.0001347966853054,-76.98877816431387
6.61299712,1.0000899620755326,-77.33532061582922
6.62075648,1.0000403523709658,-77.68133688062227
6.62851584,0.9999884298424899,-78.02682502494187
6.636275712,0.9999372042411115,-78.37167711302719
6.644035072,0.9998893773583346,-78.71604785905286
6.651794432,0.9998474698272971,-79.05996279809945
6.659553792,0.9998137633404729,-79.40342733679667
6.667313152,0.9997901832245862,-79.74669161399741
6.675072512,0.9997780781855937,-80.08980983870613
6.682832384,0.9997778537292793,-80.43295749518958
6.690591744,0.9997899444936339,-80.77632548327463
6.698351104,0.9998133263375943,-81.12002719628352
6.706110464,0.9998468773844262,-81.46425648432441
6.713869824,0.9998889134496299,-81.8091059440878
6.721629696,0.9999371167138935,-82.15467557895931
6.729389056,0.9999889782200149,-82.50106604874338
6.737148416,1.000041517665534,-82.84826002083184
6.744907776,1.000091814079122,-83.19627029671034
6.752667136,1.0001375798014707,-83.54500846254304
6.760427008,1.0001759687193388,-83.89450738146175
6.768186368,1.000204971423084,-84.24453988183895
6.775945728,1.0002230839008994,-84.59502317166907
6.783705088,1.000229205570496,-84.9457842823165
6.791464448,1.0002230377340995,-85.29666421505235
6.799223808,1.0002048629247695,-85.64755269591632
6.80698368,1.000175794829716,-85.99820357079535
6.81474304,1.0001371342919656,-86.34853186022666
6.8225024,1.0000910860833931,-86.6984024983364
6.83026176,1.0000401140098838,-87.04778567358213
6.83802112,0.9999869821864517,-87.3965505446093
6.845780992,0.9999343936103757,-87.74474042999337
6.853540352,0.999885491140421,-88.09238487715947
6.861299712,0.999842694504929,-88.43954880170077
6.869059072,0.9998083952009014,-88.78628173992854
6.876818432,0.9997843714671211,-89.1327739852364
6.884578304,0.999772081215671,-89.47911172236724
6.892337664,0.9997721789704294,-89.82549422439651
6.900097024,0.9997846267229578,-90.1720635681372
6.907856384,0.9998089180959886,-90.5190042776006
6.915615744,0.9998435487730397,-90.86648475344533
6.923375616,0.999886755101108,-91.21458320076665
6.931134976,0.9999363470824885,-91.5634141015681
6.938894336,0.9999894585277919,-91.91307724066782
6.946653696,1.0000434151242024,-92.26354584120513
6.954413056,1.0000950244294207,-92.61483470961379
6.962172416,1.0001418270331301,-92.96690923666505
6.969932288,1.0001809808537918,-93.31973009235246
6.977691648,1.000210614138061,-93.67307870403558
6.985451008,1.0002289341770474,-94.02688243907207
6.993210368,1.000234977523087,-94.38100208648959
7.000969728,1.0002284174418483,-94.7352054052856
7.0087296,1.0002096615347305,-95.08937684186405
7.01648896,1.0001795186874327,-95.4433141958465
7.02424832,1.000139793695687,-95.7969206040768
7.03200768,1.0000923945469589,-96.15008019661417
7.03976704,1.000040039585312,-96.50265619890205
7.047526912,0.9999854771725863,-96.85463751036457
7.055286272,0.9999315477986348,-97.20602679831265
7.063045632,0.9998814024087218,-97.55682712591312
7.070804992,0.9998376260977621,-97.90710142991574
7.078564352,0.9998025241773416,-98.25700206335745
7.086323712,0.9997780859360916,-98.60657945111753
7.094083584,0.9997655556815319,-98.95604111754577
7.101842944,0.9997658929654017,-99.3055253334724
7.109602304,0.9997788408983606,-99.65520742477153
7.117361664,0.9998038450620969,-100.00523994597656
7.125121024,0.9998395304155927,-100.35580200758288
7.132880896,0.9998840963898515,-100.70703231946871
7.140640256,0.9999350081440114,-101.05899929807796
7.148399616,0.9999895017913158,-101.41178761620681
7.156158976,1.0000448319403321,-101.76541381368854
7.163918336,1.000097818292145,-102.11989432734713
7.171678208,1.0001457445938178,-102.47516319600346
7.179437568,1.0001859797195045,-102.83114129958663
7.187196928,1.0002162159500605,-103.18767678154843
7.194956288,1.0002348538387156,-103.54471857927743
7.202715648,1.0002409682478173,-103.90198217949133
7.21047552,1.0002342183584128,-104.25940053814298
7.21823488,1.000214680104816,-104.61673548232822
7.22599424,1.0001836549596737,-104.97386264402951
7.2337536,1.0001426981848693,-105.33060482578
7.24151296,1.000093955435767,-105.68683113225087
7.24927232,1.0000401047628367,-106.04252563329224
7.257032192,0.9999840139778859,-106.39757429785467
7.264791552,0.9999287756246097,-106.75201816732468
7.272550912,0.9998772701750918,-107.10582808713605
7.280310272,0.9998323559314657,-107.459094375642
7.288069632,0.9997964035747073,-107.81194337344162
7.295829504,0.9997714324457957,-108.164503810243
7.303588864,0.999758754586888,-108.51691073786914
7.311348224,0.999759214126131,-108.86930401173802
7.319107584,0.9997726456712056,-109.22191600289905
7.326866944,0.9997984211086217,-109.57492913627793
7.334626816,0.9998352453489345,-109.92843869101698
7.342386176,0.9998809313859476,-110.28262351157512
7.350145536,0.9999333923945918,-110.63754285458931
7.357904896,0.9999894464238162,-110.99332029591882
7.365664256,1.0000463085866633,-111.34992788665443
7.373423616,1.000100814713811,-111.70741822665856
7.381183488,1.000149868878874,-112.06572782402077
7.388942848,1.0001911492268802,-112.42471240558551
7.396702208,1.0002222357986024,-112.78430615182573
7.404461568,1.00024134354036,-113.14437120603887
7.412220928,1.0002475500816763,-113.50468052154022
7.4199808,1.0002405101614054,-113.86510515697687
7.42774016,1.0002203867332198,-114.22544778366208
7.43549952,1.0001884055587102,-114.58556510038319
7.44325888,1.0001462752507635,-114.94525026055821
7.45101824,1.0000961327552018,-115.3044931005247
7.458778112,1.0000407674708864,-115.66310673173912
7.466537472,0.999983206001807,-116.02104691532735
7.474296832,0.9999262894045283,-116.3783305578225
7.482056192,0.9998733729354644,-116.73501302964144
7.489815552,0.9998271856459591,-117.09108706840958
7.497575424,0.9997902356932821,-117.44672492714838
7.505334784,0.9997645585931839,-117.80205766076766
7.513094144,0.9997516609870015,-118.1571867778648
7.520853504,0.9997520761192963,-118.51238324065235
7.528612864,0.9997660088474036,-118.86773628044105
7.536372224,0.9997925798224716,-119.22347851179921
7.544132096,0.9998304560546192,-119.57973225479495
7.551891456,0.9998775713731648,-119.93667338296044
7.559650816,0.9999314498040425,-120.29439227226514
7.567410176,0.9999892060497464,-120.65293272647807
7.575169536,1.0000475612264041,-121.0123630605234
7.582929408,1.0001036751644623,-121.37267021402658
7.590688768,1.0001542266675458,-121.73378197466424
7.598448128,1.0001966695796882,-122.09560215406105
7.606207488,1.000228541178227,-122.45805002425658
7.613966848,1.0002482356002529,-122.8209140055689
7.62172672,1.0002546274136679,-123.18409805300622
7.62948608,1.000247329407564,-123.54732240823218
7.63724544,1.000226583486342,-123.91051330648234
7.6450048,1.0001937407014967,-124.27344444736727
7.65276416,1.000150306484875,-124.63592707375125
7.66052352,1.000098797243219,-124.99787196328458
7.668283392,1.0000416921881257,-125.35919841243985
7.676042752,0.9999823331115861,-125.7198353044041
7.683802112,0.9999238929851635,-126.07977131933785
7.691561472,0.9998693474663571,-126.43907912487605
7.699320832,0.9998217753929859,-126.7977811988881
7.707080704,0.9997837238231776,-127.15597897646907
7.714840064,0.9997572842895441,-127.51389548533014
7.722599424,0.9997439354549048,-127.87157030457901
7.730358784,0.9997444731641193,-128.2292768858013
7.738118144,0.9997586991195154,-128.5871854911802
7.745878016,0.9997860325406565,-128.9454395625794
7.753637376,0.9998250387139052,-129.30419996710194
7.761396736,0.9998735829261413,-129.66366189397485
7.769156096,0.9999289935721348,-130.02393324766237
7.776915456,0.9999885247509823,-130.3850332495699
7.784675328,1.0000487439166028,-130.74703313472045
7.792434688,1.0001064709364065,-131.10993027097066
7.800194048,1.0001585676706914,-131.4736471955497
7.807953408,1.0002023582339987,-131.83807658120872
7.815712768,1.0002353006613012,-132.2031472011888
7.823472128,1.0002556208034636,-132.5686197437186
7.831232,1.000262219812346,-132.93441637272275
7.83899136,1.0002546928141336,-133.30026660635596
7.84675072,1.0002334656992236,-133.66603717549276
7.85451008,1.000199555423118,-134.03151515044178
7.86226944,1.000154878098196,-134.3965542804901
7.870029312,1.0001017402839496,-134.76105139403
7.877788672,1.0000429450315087,-135.12486351918983
7.885548032,0.9999818357443842,-135.48795904794582
7.893307392,0.9999214999662703,-135.85035466901437
7.901066752,0.9998652674507763,-136.2120186519497
7.908826624,0.999816196730633,-136.57308382273334
7.916585984,0.9997769631797148,-136.93364546917388
7.924345344,0.9997496542099581,-137.29379877363465
7.932104704,0.999735822599325,-137.65380903660454
7.939864064,0.999736208248982,-138.0137993313909
7.947623424,0.9997508543343325,-138.37394013990237
7.955383296,0.9997789929307539,-138.73447536001345
7.963142656,0.9998191030616301,-139.09553484679878
7.970902016,0.9998690893081289,-139.45725108736679
7.978661376,0.9999262212153569,-139.81983329493934
7.986420736,0.9999875427388658,-140.18323933463608
7.994180608,1.0000496291011092,-140.54756508619118
8.001939968,1.0001092573074455,-140.912764990312
8.009699328,1.000163089510106,-141.27885976388905
8.017458688,1.0002082661785054,-141.64562661190254
8.025218048,1.000242311009384,-142.01303356333756
8.03297792,1.0002633829613756,-142.38090890046357
8.04073728,1.0002702569029656,-142.7490369928011
8.04849664,1.0002626789585392,-143.1172588249634
8.056256,1.0002408382863688,-143.48536990603804
8.06401536,1.00020605793018,-143.85317893993067
8.07177472,1.0001599759202715,-144.22053043649777
8.079534592,1.0001052298535702,-144.58726823151034
8.087293952,1.00004458203269,-144.9533110300163
8.095053312,0.999981501492877,-145.31861951308693
8.102812672,0.9999191836765011,-145.68317641176367
8.110572032,0.999861176633059,-146.0469777055873
8.118331904,0.9998104834016751,-146.4101287229336
8.126091264,0.9997698249048793,-146.77274654000894
8.133850624,0.9997415119138812,-147.13494739033266
8.141609984,0.999727060348132,-147.49697110469432
8.149369344,0.9997273401489274,-147.85893129068765
8.157129216,0.9997423357444589,-148.22109181946564
8.164888576,0.9997712961795248,-148.5836065838621
8.172647936,0.9998125890506534,-148.94666151968647
8.180407296,0.9998641808484134,-149.3103847360908
8.188166656,0.9999230968886527,-149.67491736607954
8.195926528,0.9999863779509374,-150.0403619563452
8.203685888,1.0000505230089842,-150.40672585549135
8.211445248,1.0001121553239491,-150.77398844336312
8.219204608,1.0001678129808143,-151.14212801768028
8.226963968,1.0002145422573143,-151.511016172706
8.234723328,1.000249922171866,-151.88051632877122
8.2424832,1.0002718333723999,-152.25047785455686
8.25024256,1.0002791208835282,-152.62071309107114
8.25800192,1.0002714095769998,-152.99101374120036
8.26576128,1.0002490510421709,-153.36118443489173
8.27352064,1.000213182706619,-153.73102750697183
8.281280512,1.0001657667114618,-154.10040707377757
8.289039872,1.0001092640848652,-154.46911643904295
8.296799232,1.0000467163705757,-154.83712746589666
8.304558592,0.9999813988496966,-155.20435188701794
8.312317952,0.9999171021641381,-155.57077470440316
8.320077824,0.9998569894820241,-155.93642105192734
8.327837184,0.9998044138515526,-156.30136427159215
8.335596544,0.9997623623947296,-156.66574279517263
8.343355904,0.9997328100254468,-157.02972199109433
8.351115264,0.9997178012466545,-157.3934382353332
8.358874624,0.9997178839596024,-157.75708982043267
8.366634496,0.9997331187018424,-158.1209381950141
8.374393856,0.9997628777223782,-158.48513832032722
8.382153216,0.9998053992909248,-158.84985414205377
8.389912576,0.9998585546392329,-159.2152900612855
8.397671936,0.9999195223792366,-159.58154939031272
8.405431808,0.9999848526651289,-159.9486964497264
8.413191168,1.000051196013774,-160.3167895274183
8.420950528,1.0001149263324425,-160.6858280498669
8.428709888,1.000172602949263,-161.05571239638775
8.436469248,1.0002210576843693,-161.42639048625645
8.44422912,1.0002578040697512,-161.79769195822945
8.45198848,1.000280650167523,-162.16943940750932
8.45974784,1.0002884387276272,-162.54148266330483
8.4675072,1.0002807319886278,-162.91356059860306
8.47526656,1.0002577242850197,-163.2855060547339
8.483026432,1.0002208347409758,-163.65711482067024
8.490785792,1.0001718673350928,-164.0281831017082
8.498545152,1.0001134643463327,-164.39860433962662
8.506304512,1.0000488452054483,-164.7682653114246
8.514063872,0.9999813213679275,-165.13709598719532
8.521823232,0.9999146236753664,-165.50508439228767
8.529583104,0.999852394338563,-165.8722733126472
8.537342464,0.9997978741200294,-166.238697625024
8.545101824,0.9997540973689646,-166.60452911231738
8.552861184,0.9997234372619579,-166.9699208059582
8.560620544,0.9997074448289714,-167.3350001793937
8.568380416,0.9997073104203831,-167.7000505779137
8.576139776,0.9997229386304178,-168.06524125064016
8.583899136,0.9997534421240867,-168.43079759394416
8.591659008,0.9997973271815299,-168.79688772404583
8.599417856,0.9998522012253683,-169.16370167353344
8.607177728,0.9999151107733715,-169.5313332450678
8.614936576,0.9999827276732878,-169.8998790210775
8.622696448,1.0000515218263948,-170.26940182739418
8.63045632,1.0001175305324614,-170.63985739470792
8.638215168,1.0001774464987114,-171.01120334786737
8.64597504,1.0002277901870888,-171.38334593331047
8.653733888,1.000266044731608,-171.75613192594767
8.66149376,1.0002900153998509,-172.12937305172008
8.669253632,1.0002983408198196,-172.50287516047356
8.67701248,1.000290535467024,-172.87644249600947
8.684772352,1.0002670282136372,-173.24985645120407
8.6925312,1.000229069585968,-173.62291446043653
8.700291072,1.0001785437775073,-173.9954052665804
8.708050944,1.0001182378475006,-174.36719238282444
8.715809792,1.000051254125132,-174.7381952852015
8.723569664,0.9999813243646548,-175.1083207620286
8.731328512,0.9999122177240047,-175.47754001789605
8.739088384,0.9998475274778763,-175.84589826854946
8.746847232,0.9997909068363208,-176.21350342211147
8.754607104,0.9997452930994066,-176.5804460313739
8.762366976,0.9997132631921378,-176.946922792325
8.770125824,0.9996964875378331,-177.31310330846858
8.777885696,0.9996961089417619,-177.67916649034407
8.785644544,0.9997119125039902,-178.04540332826838
8.793404416,0.9997433444300043,-178.4119695302545
8.801164288,0.9997885898524962,-178.77907922854726
8.808923136,0.9998453436047153,-179.14692036131132
8.816683008,0.9999105667263375,-179.5155887358162
8.824441856,0.9999806087025113,-179.8852135268905
8.832201728,1.000051929153383,179.74418884602045
8.8399616,1.0001206294627518,179.37264233703453
8.847720448,1.0001829278675651,179.00013663565863
8.85548032,1.000235268527365,178.62683648104505
8.863239168,1.000275271001066,178.25290024227505
8.87099904,1.0003004145763637,177.87848993110705
8.878758912,1.000309332763937,177.50379022137636
8.88651776,1.0003015634826191,177.12907507662837
8.894277632,1.0002773950064219,176.75451131213336
8.90203648,1.0002383504515697,176.3803714465758
8.909796352,1.000185999546488,176.0067851755852
8.917556224,1.0001235983600885,175.63391655052595
8.925315072,1.0000543027334394,175.26190760804144
8.933074944,0.9999817003291065,174.89081488654455
8.940833792,0.9999098483365672,174.5206890902772
8.948593664,0.9998426213315206,174.15144075762333
8.956353536,0.9997835496501197,173.78303035494955
8.964112384,0.9997359390490478,173.41530564586554
8.971872256,0.9997024408747816,173.0480924149736
8.979631104,0.9996848081347173,172.68120078083442
8.987390976,0.9996839483298823,172.3144307204649
8.995150848,0.9997001213633386,171.9475172507879
9.002909696,0.9997324372222359,171.58026794330308
9.010669568,0.9997791521665126,171.21248074475335
9.018428416,0.9998379470229396,170.84395265765156
9.026188288,0.99990547495641,170.474571225543
9.033947136,0.9999782863463136,170.10421045803977
9.041707008,1.0000524104346145,169.73286498355526
9.04946688,1.0001237453628737,169.3605088241322
9.057225728,1.0001885346487052,168.98724380404187
9.0649856,1.0002432790232605,168.61313101814807
9.072744448,1.0002850552515339,168.23834397739276
9.08050432,1.0003114976727012,167.86310826987503
9.088264192,1.000321102120618,167.4875530757586
9.09602304,1.0003134080738412,167.11198690162706
