freq,mag,phase
6.0,0.999994655706453,15.68843306385212
6.008,0.9999966355515535,15.372673320388945
6.016,0.9999985265030439,15.056760881540002
6.024,0.9999999999999999,14.740697824897588
6.032,1.0,14.424486235789843
6.04,1.0,14.108128207180455
6.048,1.0,13.791625839567343
6.056,1.0,13.474981240880252
6.064,1.0,13.158196526377322
6.072,1.0,12.841273818540701
6.08,0.9999999999999999,12.524215246971071
6.088,0.9999999999999999,12.207022948281244
6.096,0.9999999999999999,11.889699065988784
6.104,1.0,11.572245750407587
6.112,0.9999999999999999,11.254665158538568
6.12,0.9999999999999999,10.936959453959414
6.128,0.9999999999999999,10.619130806713327
6.136,0.9999999999999999,10.30118139319698
6.144,0.9999999999999999,9.983113396047392
6.152,0.9999999999999999,9.664929004028089
6.16,1.0,9.346630411914282
6.168,1.0,9.028219820377183
6.176,0.9999999999999999,8.709699435867538
6.184,0.9999999999999999,8.39107147049826
6.192,1.0,8.072338141926245
6.2,1.0,7.753501673233449
6.208,1.0,7.434564292807071
6.216,1.0,7.115528234219047
6.224,0.9999999999999998,6.79639573610474
6.232,0.9999999999999999,6.4771690420408925
6.24,0.9999999999999999,6.157850400422876
6.248,1.0,5.838442064341159
6.256,1.0,5.518946291457135
6.264,1.0,5.1993653438783065
6.272,1.0,4.87970148803268
6.28,0.9999999999999998,4.559956994542649
6.288,1.0,4.240134138098115
6.296,0.9999999999999998,3.9202351973291263
6.304,1.0,3.6002624546778406
6.312,0.9999999999999999,3.2802181962698946
6.32,1.0,2.9601047117852657
6.328,0.9999999999999999,2.639924294328553
6.336,1.0,2.3196792402987576
6.344,0.9999999999999999,1.9993718492584989
6.352,0.9999999999999999,1.6790044238028237
6.36,0.9999999999999999,1.3585792694274619
6.368,1.0,1.0380986943966506
6.376,1.0,0.7175650096105877
6.384,1.0,0.3969805284723538
6.392,0.9999999999999998,0.07634756675453074
6.4,1.0,-0.24433155753462915
6.408,1.0,-0.5650545242853605
6.416,1.0,-0.8858190114208474
6.424,0.9999999999999999,-1.2066226950321242
6.432,0.9999999999999999,-1.5274632495131701
6.44,1.0,-1.8483383476963156
6.448,1.0,-2.169245660987981
6.456,1.0,-2.4901828595045594
6.464,1.0,-2.811147612208619
6.472,1.0,-3.132137587045245
6.48,1.0,-3.453150451078627
6.4879999999999995,1.0,-3.7741838706287436
6.496,1.0,-4.095235511408431
6.504,1.0,-4.41630303865996
6.5120000000000005,1.0,-4.737384117292771
6.52,1.0,-5.058476412020035
6.5280000000000005,0.9999998420611174,-5.379577587496582
6.536,0.9999988591267459,-5.7006853084556015
6.5440000000000005,0.9999978672118335,-6.021797239846638
6.552,0.9999968670938502,-6.342911046972354
6.5600000000000005,0.9999958595374863,-6.66402439562651
6.568,0.9999948452946867,-6.9851349522307205
6.5760000000000005,0.9999938251046885,-7.306240383972331
6.584,0.9999927996940576,-7.627338358941087
6.592,0.9999917697767309,-7.9484265462667825
6.6,0.9999907360540564,-8.26950261625593
6.608,0.9999896992148358,-8.59056424052889
6.616,0.9999886599353703,-8.911609092156521
6.624,0.999987618879506,-9.232634845796845
6.632,0.9999865766986807,-9.553639177831453
6.64,0.9999855340319743,-9.874619766501699
6.648,0.9999844915061583,-10.195574292044721
6.656,0.9999834497357476,-10.516500436829162
6.664,0.9999824093230547,-10.837395885490684
6.672,0.9999813708582436,-11.158258325067143
6.68,0.9999803349193868,-11.479085445133503
6.688,0.9999793020725225,-11.799874937936425
6.696,0.9999782728717133,-12.12062449852852
6.704,0.9999772478591069,-12.441331824902212
6.712,0.9999762275649979,-12.761994618123271
6.72,0.9999752125078907,-13.08261058246392
6.728,0.9999742031945636,-13.403177425535537
6.736,0.9999732001201355,-13.723692858420922
6.744,0.9999722037681308,-14.044154595806132
6.752,0.9999712146105502,-14.3645603561118
6.76,0.9999702331079378,-14.684907861624042
6.768,0.9999692597094537,-15.005194838624766
6.776,0.9999682948529446,-15.325419017521545
6.784,0.9999673389650175,-15.645578132976887
6.792,0.999966392461114,-15.965669924037002
6.8,0.9999654557455853,-16.28569213425992
6.808,0.9999645292117693,-16.605642511843083
6.816,0.999963613242068,-16.92551880975031
6.824,0.9999627082080262,-17.2453187858381
6.832,0.9999618144704128,-17.565040202981336
6.84,0.9999609323792984,-17.884680829198313
6.848,0.9999600622741412,-18.204238437775068
6.856,0.9999592044838672,-18.523710807389048
6.864,0.9999583593269558,-18.843095722232043
6.872,0.9999575271115235,-19.16239097213241
6.88,0.999956708135411,-19.48159435267657
6.888,0.9999559026862693,-19.800703665329692
6.896,0.999955111041648,-20.119716717555654
6.904,0.999954333469083,-20.438631322936217
6.912,0.9999535702261871,-20.757445301289376
6.92,0.9999528215607403,-21.076156478786867
6.928,0.9999520877107797,-21.39476268807094
6.936,0.9999513689046936,-21.713261768370153
6.944,0.999950665361312,-22.031651565614442
6.952,0.9999499772900027,-22.349929932549173
6.96,0.9999493048907627,-22.66809472884846
6.968,0.9999486483543154,-22.98614382122741
6.976,0.9999480078622055,-23.30407508355367
6.984,0.9999473835868955,-23.62188639695776
6.992,0.9999467756918617,-23.939575649942793
7.0,0.9999461843316941,-24.257140738492968
7.008,0.9999456096521921,-24.574579566181217
7.016,0.9999450517904643,-24.891890044275943
7.024,0.999944510875029,-25.209070091846566
7.032,0.9999439870259118,-25.52611763586825
7.04,0.9999434803547476,-25.843030611325617
7.048,0.999942990964881,-26.159806961315244
7.056,0.9999425189514677,-26.47644463714739
7.064,0.999942064401576,-26.792941598446454
7.072,0.9999416273942889,-27.10929581325052
7.08,0.999941208000808,-27.42550525810974
7.088,0.9999408062845538,-27.741567918183765
7.096,0.999940422301271,-28.057481787337945
7.104,0.999940056099132,-28.373244868238487
7.112,0.9999397077188401,-28.688855172446594
7.12,0.9999393771937336,-29.004310720511384
7.128,0.9999390645498911,-29.319609542061706
7.136,0.9999387698062349,-29.634749675896895
7.144,0.9999384929746368,-29.949729170076267
7.152,0.999938234060023,-30.264546082007637
7.16,0.9999379930604791,-30.579198478534504
7.168,0.9999377699673557,-30.893684436022177
7.176,0.9999375647653727,-31.20800204044275
7.184,0.9999373774327266,-31.522149387458864
7.192,0.9999372079411954,-31.836124582506244
7.2,0.9999370562562436,-32.149925740875176
7.208,0.9999369223371289,-32.46355098779059
7.216,0.9999368061370077,-32.77699845849124
7.224,0.9999367076030398,-33.090266298307334
7.232,0.9999366266764954,-33.403352662737284
7.24,0.9999365632928603,-33.716255717522905
7.248,0.9999365173819408,-34.02897363872379
7.256,0.9999364888679697,-34.34150461279008
7.264,0.9999364776697116,-34.65384683663424
7.272,0.9999364837005681,-34.965998517701486
7.28,0.9999365068686825,-35.277957874039146
7.288,0.9999365470770446,-35.589723134364554
7.296,0.9999366042235958,-35.90129253813183
7.304,0.9999366782013328,-36.212664335597424
7.312,0.9999367688984131,-36.523836787884434
7.32,0.9999368761982568,-36.834808167045495
7.328,0.9999369999796518,-37.14557675612473
7.336,0.999937140116857,-37.45614084921807
7.344,0.999937296479705,-37.76649875153272
7.352,0.9999374689337038,-38.076648779444994
7.36,0.9999376573401417,-38.38658926055718
7.368,0.9999378615561866,-38.69631853375298
7.376,0.9999380814349884,-39.00583494925176
7.384,0.999938316825781,-39.31513686866154
7.392,0.999938567573982,-39.62422266503068
7.4,0.9999388335212932,-39.93309072289834
7.4079999999999995,0.9999391145058011,-40.241739438343686
7.416,0.9999394103620751,-40.55016721903397
7.4239999999999995,0.9999397209212677,-40.85837248427086
7.432,0.9999400460112107,-41.166353665036326
7.4399999999999995,0.9999403854565164,-41.47410920403633
7.448,0.9999407390786706,-41.781637555744304
7.4559999999999995,0.999941106696134,-42.08893718644219
7.464,0.9999414881244342,-42.39600657426151
7.4719999999999995,0.999941883176264,-42.7028442092219
7.48,0.999942291661575,-43.00944859326971
7.4879999999999995,0.9999427133876729,-43.31581824031397
7.496,0.9999431481593102,-43.62195167626254
7.504,0.9999435957787802,-43.92784743905572
7.5120000000000005,0.9999440560460089,-44.23350407869975
7.52,0.9999445287586471,-44.53892015729808
7.5280000000000005,0.9999450137121616,-44.84409424908238
7.536,0.9999455106999245,-45.149024940441336
7.5440000000000005,0.999946019513305,-45.453710829949244
7.552,0.9999465399417561,-45.758150528392406
7.5600000000000005,0.9999470717729046,-46.062342658795245
7.568,0.9999476147926379,-46.366285856444335
7.5760000000000005,0.9999481687851902,-46.66997876891212
7.584,0.9999487335332297,-46.973420056078446
7.5920000000000005,0.9999493088179433,-47.276608390152035
7.6,0.9999498944191206,-47.57954245568962
7.6080000000000005,0.9999504901152386,-47.88222094961495
7.616,0.9999510956835432,-48.18464258123567
7.6240000000000006,0.9999517109001327,-48.48680607226001
7.632,0.9999523355400384,-48.78871015681126
7.640000000000001,0.999952969377304,-49.09035358144217
7.648,0.9999536121850672,-49.39173510514716
7.656000000000001,0.9999542637356372,-49.69285349937445
7.664,0.9999549238005718,-49.993707548035864
7.672,0.9999555921507571,-50.29429604751679
7.68,0.9999562685564809,-50.59461780668388
7.688,0.9999569527875086,-50.89467164689245
7.696,0.9999576446131593,-51.19445640199226
7.704,0.9999583438023768,-51.49397091833254
7.712,0.9999590501238046,-51.79321405476569
7.72,0.9999597633458559,-52.09218468265
7.728,0.9999604832367851,-52.39088168585131
7.736,0.9999612095647578,-52.68930396074359
7.744,0.9999619420979196,-52.98745041620837
7.752,0.9999626806044646,-53.285319973633314
7.76,0.9999634248527016,-53.582911566909516
7.768,0.9999641746111219,-53.88022414242797
7.776,0.9999649296484625,-54.17725665907486
7.784,0.9999656897337733,-54.47400808822595
7.792,0.9999664546364773,-54.770477413739876
7.8,0.999967224126436,-55.06666363195053
7.808,0.9999679979740085,-55.362565751658316
7.816,0.9999687759501147,-55.65818279412063
7.824,0.9999695578262923,-55.95351379304114
7.832,0.9999703433747577,-56.248557794558266
7.84,0.9999711323684625,-56.54331385723264
7.848,0.9999719245811507,-56.837781052033684
7.856,0.9999727197874148,-57.13195846232511
7.864,0.9999735177627499,-57.42584518384966
7.872,0.9999743182836093,-57.71944032471288
7.88,0.9999751211274558,-58.01274300536593
7.888,0.9999759260728139,-58.305752358587526
7.896,0.9999767328993223,-58.598467529465054
7.904,0.9999775413877828,-58.89088767537476
7.912,0.9999783513202098,-59.183011965961036
7.92,0.9999791624798784,-59.47483958311492
7.928,0.9999799746513723,-59.76636972095174
7.936,0.9999807876206293,-60.05760158578791
7.944,0.9999816011749867,-60.34853439611679
7.952,0.999982415103227,-60.63916738258402
7.96,0.9999832291956195,-60.92949978796169
7.968,0.9999840432439645,-61.21953086712198
7.976,0.9999848570416339,-61.50925988700995
7.984,0.9999856703836124,-61.79868612661543
7.992,0.9999864830665365,-62.08780887694433
8.0,0.9999872948887341,-62.37662744098912
8.008,0.9999881056502619,-62.66514113369845
8.016,0.9999889151529424,-62.953349281946366
8.024000000000001,0.9999897232004005,-63.24125122450034
8.032,0.9999905295980969,-63.528846311988836
8.04,0.9999913341533646,-63.81613390686853
8.048,0.99999213667544,-64.10311338339014
8.056000000000001,0.9999929369754968,-64.3897841275639
8.064,0.9999937348666763,-64.6761455371245
8.072,0.9999945301641192,-64.96219702149536
8.08,0.9999953226849941,-65.24793800175202
8.088000000000001,0.9999961122485258,-65.53336791058487
8.096,0.9999968986760257,-65.81848619226153
8.104,0.9999976817909157,-66.10329230258868
8.112,0.9999984614187563,-66.38778570887283
8.120000000000001,0.9999992373872711,-66.67196588988068
8.128,0.9999999999999999,-66.95583233579913
8.136,0.9999999999999999,-67.23938454819458
8.144,0.9999999999999998,-67.52262203997158
8.152000000000001,0.9999999999999999,-67.80554433533081
8.16,1.0,-68.08815096972684
8.168,0.9999999999999999,-68.37044148982524
8.176,0.9999999999999999,-68.65241545345911
8.184000000000001,1.0,-68.93407242958489
8.192,1.0,-69.21541199823805
8.2,1.0,-69.49643375048828
8.208,0.9999999999999999,-69.77713728839383
8.216000000000001,1.0,-70.05752222495552
8.224,1.0,-70.33758818407051
8.232,1.0,-70.6173348004855
8.24,0.9999999999999999,-70.89676171974938
8.248000000000001,1.0,-71.1758685981654
8.256,1.0,-71.45465510274313
8.264,1.0,-71.73312091115007
8.272,1.0,-72.01126571166252
8.280000000000001,0.9999999999999998,-72.28908920311616
8.288,1.0,-72.56659109485649
8.296,1.0,-72.84377110668872
8.304,1.0,-73.12062896882728
8.312,1.0,-73.39716442184482
8.32,1.0,-73.67337721662147
8.328,1.0000000000000002,-73.94926711429281
8.336,1.0000000000000002,-74.2248338861986
8.344,1.0,-74.50007731383006
8.352,0.9999999999999998,-74.77499718877802
8.36,0.9999999999999999,-75.04959331267962
8.368,1.0,-75.32386549716583
8.376,1.0,-75.59781356380753
8.384,1.0,-75.87143734406254
8.392,0.9999999999999999,-76.14473667922123
8.4,1.0,-76.4177114203529
8.408,1.0,-76.69036142825102
8.416,1.0,-76.96268657337906
8.424,1.0,-77.23468673581522
8.432,0.9999999999999999,-77.50636180519798
8.44,1.0,-77.77771168067027
8.448,0.9999999999999999,-78.0487362708246
8.456,0.9999999999999999,-78.31943549364698
8.464,1.0,-78.58980927646148
8.472,0.9999999999999998,-78.85985755587393
8.48,1.0,-79.1295802777161
8.488,1.0,-79.39897739698908
8.496,1.0,-79.66804887780717
8.504,1.0,-79.9367946933408
8.512,1.0,-80.20521482576042
8.52,0.9999999999999999,-80.47330926617902
8.528,1.0,-80.74107801459567
8.536,1.0,-81.00852107983796
8.544,1.0,-81.27563847950529
8.552,1.0,-81.54243023991106
8.56,0.9999999999999999,-81.80889639602583
8.568,1.0,-82.07503699141934
8.576,1.0,-82.34085207820341
8.584,0.9999999999999999,-82.60634171697392
8.592,0.9999999999999999,-82.87150597675361
8.6,0.9999999999999998,-83.13634493493387
8.608,1.0,-83.40085867721743
8.616,1.0,-83.66504729756011
8.624,0.9999999999999999,-83.92891089811344
8.632,0.9999999999999999,-84.19244958916634
8.64,0.9999999999999999,-84.45566348908768
8.648,1.0,-84.71855272426794
8.656,0.9999999999999999,-84.9811174290617
8.664,1.0,-85.24335774572941
8.672,1.0,-85.50527382437983
8.68,0.9999999999999999,-85.76686582291171
8.688,1.0,-86.02813390695644
8.696,1.0,-86.28907824981967
8.704,0.9999999999999999,-86.54969903242396
8.712,1.0,-86.80999644325065
8.72,1.0,-87.06997067828243
8.728,1.0,-87.32962194094532
8.736,0.9999999999999999,-87.58895044205138
8.744,0.9999999999999999,-87.84795639974082
8.752,0.9999999999999999,-88.10664003942478
8.76,0.9999999999999998,-88.36500159372757
8.768,0.9999999999999999,-88.62304130242968
8.776,0.9999999999999999,-88.88075941241007
8.784,0.9999999999999999,-89.13815617758941
8.792,1.0,-89.39523185887249
8.8,1.0,-89.65198672409173
8.808,0.9999999999999999,-89.90842104794973
8.815999999999999,1.0,-90.1645351119629
8.824,1.0,-90.42032920440461
8.832,1.0,-90.67580362024837
8.84,1.0,-90.93095866111165
8.847999999999999,1.0,-91.18579463519951
8.856,1.0,-91.44031185724836
8.864,0.9999999999999999,-91.69451064846966
8.872,1.0,-91.9483913364942
8.879999999999999,1.0,-92.2019542553163
8.888,1.0000000000000002,-92.45519974523813
8.896,1.0,-92.708128152814
8.904,1.0,-92.96073983079516
8.911999999999999,1.0,-93.21303513807467
8.92,0.9999999999999999,-93.46501443963228
8.928,1.0,-93.71667810647943
8.936,0.9999999999999999,-93.96802651560462
8.943999999999999,0.9999999999999999,-94.21906004991897
8.952,1.0,-94.4697790982018
8.96,0.9999999999999999,-94.72018405504629
8.968,1.0,-94.97027532080561
8.975999999999999,1.0,-95.22005330153912
8.984,1.0,-95.46951840895876
8.992,0.9999999999999998,-95.7186710603754
9.0,1.0,-95.9675116786457
9.008,1.0,-96.21604069211924
9.016,1.0,-96.4642585345855
9.024000000000001,1.0,-96.71216564522112
9.032,0.9999999999999998,-96.9597624685375
9.04,0.9999999999999999,-97.20704945432887
9.048,1.0,-97.45402705761991
9.056000000000001,1.0,-97.70069573861402
9.064,1.0,-97.9470559626417
9.072,1.0,-98.19310820010945
9.08,1.0,-98.43885292644835
9.088000000000001,1.0,-98.6842906220631
9.096,0.9999999999999999,-98.92942177228144
9.104,0.9999999999999999,-99.17424686730375
9.112,0.9999999999999999,-99.41876640215274
9.120000000000001,1.0,-99.66298087662327
9.128,1.0,-99.90689079523274
9.136,1.0,-100.15049666717167
9.144,1.0,-100.39379900625427
9.152000000000001,1.0,-100.63679833086924
9.16,1.0,-100.8794951639311
9.168,1.0,-101.12189003283176
9.176,1.0,-101.36398346939202
9.184000000000001,1.0,-101.60577600981343
9.192,0.9999999999999999,-101.84726819463059
9.2,0.9999999999999998,-102.08846056866355
9.208,0.9999999999999999,-102.32935368097058
9.216000000000001,1.0,-102.56994808480083
9.224,1.0,-102.81024433754767
9.232,1.0,-103.0502430007023
9.24,1.0,-103.2899446398072
9.248000000000001,1.0,-103.52934982441015
9.256,1.0,-103.7684591280184
9.264,1.0,-104.00727312805336
9.272,0.9999999999999998,-104.24579240580518
9.280000000000001,1.0,-104.48401754638765
9.288,1.0,-104.72194913869362
9.296,1.0,-104.95958777535061
9.304,0.9999999999999999,-105.19693405267647
9.312000000000001,1.0,-105.43398857063536
9.32,1.0,-105.67075193279423
9.328,1.0,-105.90722474627952
9.336,0.9999999999999999,-106.14340762173387
9.344,0.9999999999999999,-106.37930117327315
9.352,0.9999999999999998,-106.6149060184442
9.36,0.9999999999999999,-106.85022277818223
9.368,1.0,-107.08525207676895
9.376,1.0,-107.31999454179063
9.384,1.0,-107.55445080409689
9.392,0.9999999999999999,-107.78862149775902
9.4,0.9999999999999999,-108.02250726002961
9.408,0.9999999999999999,-108.25610873130124
9.416,1.0,-108.48942655506667
9.424,1.0,-108.72246137787819
9.432,0.9999999999999999,-108.95521384930831
9.44,0.9999999999999999,-109.18768462190951
9.448,0.9999999999999999,-109.41987435117566
9.456,0.9999999999999999,-109.65178369550239
9.464,1.0,-109.88341331614879
9.472,0.9999999999999999,-110.11476387719851
9.48,1.0,-110.345836045522
9.488,1.0,-110.57663049073818
9.496,1.0,-110.80714788517717
9.504,1.0,-111.0373889038425
9.512,1.0,-111.26735422437442
9.52,0.9999999999999999,-111.49704452701272
9.528,0.9999999999999999,-111.72646049456054
9.536,1.0,-111.9556028123477
9.544,0.9999999999999999,-112.18447216819513
9.552,1.0,-112.41306925237866
9.56,0.9999999999999999,-112.6413947575941
9.568,0.9999999999999999,-112.86944937892157
9.576,1.0,-113.09723381379106
9.584,0.9999999999999999,-113.3247487619473
9.592,1.0,-113.55199492541593
9.6,1.0,-113.77897300846897
9.608,1.0,-114.00568371759138
9.616,0.9999999999999999,-114.23212776144713
9.624,0.9999999999999999,-114.45830585084639
9.632,1.0,-114.68421869871207
9.64,1.0,-114.9098670200475
9.648,1.0,-115.13525153190369
9.656,1.0,-115.36037295334732
9.664,1.0,-115.58523200542861
9.672,1.0,-115.80982941115008
9.68,1.0,-116.03416589543458
9.688,1.0,-116.25824218509484
9.696,0.9999999999999998,-116.48205900880195
9.704,1.0,-116.70561709705542
9.712,0.9999999999999999,-116.92891718215232
9.72,1.0,-117.15195999815771
9.728,1.0,-117.37474628087429
9.736,1.0,-117.59727676781357
9.744,0.9999999999999999,-117.81955219816587
9.752,1.0,-118.04157331277203
9.76,1.0,-118.26334085409401
9.768,0.9999999999999999,-118.484855566187
9.776,1.0,-118.7061181946707
9.784,0.9999999832579382,-118.92712948670176
9.792,0.9999994874519202,-119.14789019094572
9.8,0.99999899269043,-119.36840105754995
9.808,0.9999984990550133,-119.588662838116
9.816,0.9999980066264218,-119.80867628567319
9.824,0.9999975154846013,-120.02844215465136
9.832,0.9999970257086799,-120.24796120085493
9.84,0.9999965373769566,-120.46723418143644
9.847999999999999,0.9999960505668903,-120.68626185487071
9.856,0.9999955653550883,-120.9050449809292
9.864,0.999995081817296,-121.12358432065443
9.872,0.9999946000283861,-121.34188063633499
9.879999999999999,0.9999941200623486,-121.55993469148049
9.888,0.99999364199228,-121.77774725079705
9.896,0.9999931658903741,-121.9953190801625
9.904,0.9999926918279122,-122.21265094660257
9.911999999999999,0.999992219875253,-122.4297436182667
9.92,0.9999917501018245,-122.64659786440454
9.928,0.9999912825761138,-122.86321445534229
9.936,0.9999908173656585,-123.0795941624594
9.943999999999999,0.9999903545370398,-123.29573775816593
9.952,0.9999898941558706,-123.51164601587962
9.96,0.9999894362867915,-123.72731971000321
9.968,0.9999889809934597,-123.94275961590229
