freq,mag,phase
6.0,0.9999935909046463,-129.41248676186623
6.008,0.9999943710791849,-129.80914755242446
6.016,0.9999951267965802,-130.20541330458192
6.024,0.9999958583906047,-130.6012857568205
6.032,0.9999965661929299,-130.99676666511567
6.04,0.999997250533116,-131.39185780270526
6.048,0.9999979117386024,-131.7865609598599
6.056,0.9999985501346932,-132.18087794365505
6.064,0.999999166044551,-132.57481057774496
6.072,0.9999997597891847,-132.9683607021382
6.08,1.0,-133.361530172975
6.088,1.0,-133.75432086230626
6.096,0.9999999999999999,-134.14673465787428
6.104,1.0,-134.5387734628955
6.112,0.9999999999999999,-134.93043919584449
6.12,1.0,-135.3217337902404
6.128,1.0,-135.7126591944345
6.136,1.0,-136.1032173714001
6.144,1.0,-136.49341029852368
6.152,1.0,-136.8832399673986
6.16,1.0,-137.2727083836195
6.168,0.9999999999999999,-137.66181756657974
6.176,1.0,-138.05056954926965
6.184,1.0,-138.43896637807725
6.192,0.9999999999999999,-138.82701011259027
6.2,1.0,-139.2147028254004
6.208,1.0,-139.60204660190914
6.216,1.0,-139.98904354013553
6.224,1.0,-140.3756957505257
6.232,1.0,-140.76200535576405
6.24,0.9999999999999999,-141.1479744905867
6.248,1.0,-141.53360530159625
6.256,1.0,-141.91889994707853
6.264,1.0,-142.30386059682147
6.272,1.0000000000000002,-142.68848943193512
6.28,1.0,-143.0727886446742
6.288,1.0,-143.4567604382619
6.296,0.9999999999999999,-143.8404070267159
6.304,1.0,-144.22373063467555
6.312,0.9999999999999999,-144.60673349723177
6.32,1.0,-144.989417859758
6.328,1.0,-145.37178597774306
6.336,0.9999999999999999,-145.75384011662604
6.344,1.0,-146.13558255163275
6.352,1.0,-146.51701556761384
6.36,0.9999999999999999,-146.89814145888522
6.368,0.9999999999999999,-147.27896252906925
6.376,1.0,-147.6594810909388
6.384,0.9999999999999999,-148.03969946626216
6.392,1.0,-148.41961998565003
6.4,0.9999999999999999,-148.79924498840438
6.408,0.9999999999999999,-149.1785768223687
6.416,1.0,-149.55761784378024
6.424,1.0,-149.93637041712356
6.432,1.0,-150.31483691498636
6.44,0.9999999999999999,-150.6930197179163
6.448,1.0,-151.07092121428013
6.456,1.0,-151.44854380012384
6.464,1.0,-151.82588987903515
6.472,0.9999999999999999,-152.20296186200684
6.48,1.0,-152.5797621673027
6.4879999999999995,1.0,-152.95629322032391
6.496,1.0,-153.3325574534783
6.504,1.0,-153.7085573060498
6.5120000000000005,1.0,-154.08429522407107
6.52,0.9999999999999999,-154.45977366019605
6.5280000000000005,0.9999999999999999,-154.8349950735756
6.536,0.9999999999999999,-155.20996192973328
6.5440000000000005,0.9999999999999999,-155.58467670044408
6.552,1.0,-155.95914186361318
6.5600000000000005,1.0,-156.33335990315774
6.568,1.0,-156.7073333088888
6.5760000000000005,0.9999999999999999,-157.08106457639585
6.584,0.9999999999999998,-157.45455620693187
6.592,1.0,-157.8278107073007
6.6,1.0,-158.20083058974515
6.608,0.9999999999999999,-158.57361837183709
6.616,1.0,-158.94617657636863
6.624,1.0,-159.31850773124475
6.632,1.0,-159.6906143693776
6.64,1.0,-160.06249902858175
6.648,1.0,-160.4341642514713
6.656,1.0,-160.80561258535778
6.664,1.0,-161.17684658215
6.672,1.0,-161.54786879825488
6.68,1.0,-161.91868179447948
6.688,1.0,-162.28928813593473
6.696,1.0,-162.65969039194016
6.704,1.0000000000000002,-163.02989113592997
6.712,0.9999998148492925,-163.3998929453604
6.72,0.9999994770076933,-163.76969840161826
6.728,0.9999991359053312,-164.13931008993094
6.736,0.9999987916880982,-164.50873059927724
6.744,0.999998444500092,-164.8779625222998
6.752,0.9999980944836291,-165.24700845521852
6.76,0.9999977417792545,-165.61587099774508
6.768,0.9999973865257534,-165.98455275299892
6.776,0.9999970288601613,-166.35305632742407
6.784,0.9999966689177759,-166.72138433070722
6.792,0.9999963068321674,-167.089539375697
6.8,0.9999959427351897,-167.45752407832435
6.808,0.9999955767569917,-167.82534105752373
6.816,0.9999952090260279,-168.19299293515573
6.824,0.9999948396690695,-168.56048233593066
6.832,0.9999944688112162,-168.9278118873331
6.84,0.9999940965759063,-169.29498421954753
6.848,0.999993723084928,-169.66200196538492
6.856,0.9999933484584306,-170.0288677602106
6.864,0.9999929728149358,-170.39558424187268
6.872,0.9999925962713478,-170.76215405063184
6.88,0.9999922189429667,-171.12857982909185
6.888,0.9999918409434962,-171.49486422213113
6.896,0.9999914623850575,-171.86100987683523
6.904,0.9999910833781979,-172.22701944243028
6.912,0.9999907040319044,-172.59289557021714
6.92,0.9999903244536131,-172.95864091350685
6.928,0.9999899447492199,-173.32425812755636
6.936,0.9999895650230928,-173.68974986950582
6.944,0.9999891853780816,-174.05511879831604
6.952,0.9999888059155296,-174.42036757470734
6.96,0.9999884267352838,-174.7854988610988
6.968,0.999988047935707,-175.15051532154865
6.976,0.999987669613687,-175.51541962169517
6.984,0.9999872918646492,-175.88021442869845
6.992,0.9999869147825653,-176.24490241118318
7.0,0.9999865384599667,-176.60948623918168
7.008,0.9999861629879525,-176.97396858407802
7.016,0.9999857884562023,-177.3383521185529
7.024,0.9999854149529859,-177.70263951652888
7.032,0.9999850425651741,-178.06683345311671
7.04,0.9999846713782496,-178.43093660456205
7.048,0.9999843014763161,-178.79495164819295
7.056,0.999983932942112,-179.158881262368
7.064,0.9999835658570172,-179.52272812642505
7.072,0.9999832003010656,-179.8864949206306
7.08,0.9999828363529559,179.7498156738702
7.088,0.9999824740900605,179.38620097510307
7.096,0.9999821135884374,179.02265830031342
7.104,0.9999817549228383,178.65918496601466
7.112,0.9999813981667207,178.2957782880359
7.12,0.9999810433922584,177.9324355815693
7.128,0.9999806906703496,177.56915416121666
7.136,0.999980340070629,177.20593134103567
7.144,0.9999799916614767,176.84276443458572
7.152,0.9999796455100279,176.47965075497297
7.16,0.9999793016821852,176.1165876148952
7.168,0.9999789602426251,175.75357232668614
7.176,0.9999786212548096,175.3906022023594
7.184,0.9999782847809975,175.02767455365193
7.192,0.9999779508822514,174.66478669206705
7.2,0.9999776196184479,174.30193592891706
7.208,0.9999772910482895,173.93911957536574
7.216,0.9999769652293119,173.5763349424701
7.224,0.9999766422178936,173.21357934122196
7.232,0.9999763220692676,172.85085008258937
7.24,0.9999760048375272,172.4881444775573
7.248,0.9999756905756395,172.12545983716842
7.256,0.9999753793354513,171.76279347256326
7.264,0.9999750711677002,171.4001426950204
7.272,0.9999747661220243,171.03750481599607
7.28,0.9999744642469683,170.6748771471638
7.288,0.9999741655899959,170.31225700045357
7.296,0.9999738701974983,169.94964168809082
7.304,0.9999735781148017,169.5870285226354
7.312,0.9999732893861774,169.22441481702006
7.32,0.9999730040548497,168.86179788458887
7.328,0.9999727221630066,168.49917503913562
7.336,0.9999724437518058,168.1365435949417
7.344,0.9999721688613865,167.77390086681416
7.352,0.9999718975308757,167.41124417012355
7.36,0.9999716297983972,167.0485708208414
7.368,0.999971365701081,166.68587813557806
7.376,0.9999711052750716,166.32316343162003
7.384,0.9999708485555359,165.9604240269673
7.392,0.9999705955766709,165.59765724037075
7.4,0.9999703463717142,165.23486039136952
7.4079999999999995,0.9999701009729501,164.87203080032808
7.416,0.999969859411719,164.50916578847335
7.4239999999999995,0.9999696217184249,164.1462626779322
7.432,0.9999693879225438,163.78331879176835
7.4399999999999995,0.9999691580526316,163.4203314540197
7.448,0.9999689321363325,163.0572979897353
7.4559999999999995,0.9999687102003862,162.69421572501304
7.464,0.9999684922706351,162.33108198703644
7.4719999999999995,0.9999682783720347,161.96789410411247
7.48,0.9999680685286594,161.60464940570853
7.4879999999999995,0.9999678627637091,161.2413452224904
7.496,0.99996766109952,160.87797888635944
7.504,0.9999674635575689,160.51454773049073
7.5120000000000005,0.9999672701584826,160.15104908937056
7.52,0.9999670809220456,159.78748029883474
7.5280000000000005,0.9999668958672057,159.4238386961064
7.536,0.9999667150120837,159.06012161983477
7.5440000000000005,0.9999665383739784,158.69632641013303
7.552,0.9999663659693754,158.33245040861775
7.5600000000000005,0.9999661978139535,157.96849095844706
7.568,0.9999660339225924,157.60444540436023
7.5760000000000005,0.9999658743093797,157.2403110927167
7.584,0.9999657189876168,156.87608537153596
7.5920000000000005,0.9999655679698275,156.51176559053687
7.6,0.9999654212677647,156.14734910117838
7.6080000000000005,0.9999652788924152,155.78283325669923
7.616,0.9999651408540089,155.41821541215924
7.6240000000000006,0.9999650071620255,155.05349292447966
7.632,0.9999648778251992,154.688663152485
7.640000000000001,0.999964752851527,154.32372345694407
7.648,0.9999646322482755,153.95867120061257
7.656000000000001,0.9999645160219854,153.59350374827466
7.664,0.9999644041784809,153.2282184667863
7.672,0.9999642967228739,152.86281272511778
7.68,0.9999641936595717,152.49728389439736
7.688,0.9999640949922824,152.13162934795517
7.696,0.9999640007240225,151.7658464613674
7.704,0.9999639108571207,151.39993261250078
7.712,0.9999638253932275,151.03388518155796
7.72,0.9999637443333187,150.66770155112306
7.728,0.9999636676777031,150.30137910620746
7.736,0.999963595426027,149.9349152342966
7.744,0.9999635275772817,149.56830732539677
7.752,0.9999634641298095,149.20155277208275
7.76,0.9999634050813077,148.83464896954558
7.768,0.9999633504288368,148.46759331564152
7.776,0.9999633001688257,148.10038321094072
7.784,0.9999632542970762,147.7330160587769
7.792,0.9999632128087708,147.3654892652979
7.8,0.9999631756984766,146.99780023951593
7.808,0.9999631429601527,146.62994639335918
7.816,0.9999631145871541,146.26192514172385
7.824,0.9999630905722386,145.8937339025265
7.832,0.9999630709075719,145.52537009675726
7.84,0.9999630555847328,145.15683114853368
7.848,0.9999630445947187,144.78811448515526
7.856,0.9999630379279528,144.4192175371584
7.864,0.9999630355742863,144.05013773837217
7.872,0.9999630375230069,143.68087252597496
7.88,0.9999630437628414,143.3114193405514
7.888,0.9999630542819639,142.9417756261504
7.896,0.9999630690679979,142.57193883034344
7.904,0.9999630881080238,142.20190640428422
7.912,0.9999631113885838,141.83167580276842
7.92,0.9999631388956861,141.46124448429453
7.928,0.9999631706148108,141.09060991112548
7.936,0.9999632065309143,140.71976954935081
7.944,0.9999632466284357,140.34872086894993
7.952,0.9999632908912998,139.97746134385585
7.96,0.9999633393029238,139.6059884520199
7.968,0.9999633918462217,139.23429967547733
7.976,0.9999634485036097,138.86239250041365
7.984,0.9999635092570092,138.4902644172316
7.992,0.9999635740878542,138.1179129206195
8.0,0.9999636429770944,137.7453355096198
8.008,0.9999637159052011,137.37252968769917
8.016,0.999963792852171,136.99949296281878
8.024000000000001,0.9999638737975317,136.62622284750626
8.032,0.9999639587203464,136.2527168589278
8.04,0.999964047599218,135.8789725189617
8.048,0.999964140412294,135.5049873542723
8.056000000000001,0.9999642371372722,135.1307588963858
8.064,0.9999643377514034,134.7562846817661
8.072,0.999964442231498,134.3815622518916
8.08,0.9999645505539292,134.00658915333375
8.088000000000001,0.9999646626946378,133.6313629378361
8.096,0.9999647786291376,133.25588116239408
8.104,0.9999648983325186,132.8801413893361
8.112,0.9999650217794526,132.50414118640572
8.120000000000001,0.9999651489441974,132.1278781268447
8.128,0.9999652798006012,131.75134978947713
8.136,0.9999654143221063,131.37455375879438
8.144,0.9999655524817556,130.9974876250413
8.152000000000001,0.9999656942521936,130.62014898430365
8.16,0.9999658396056753,130.2425354385964
8.168,0.9999659885140664,129.86464459595277
8.176,0.99996614094885,129.4864740705148
8.184000000000001,0.9999662968811301,129.10802148262513
8.192,0.9999664562816367,128.72928445891955
8.2,0.9999666191207297,128.35026063242037
8.208,0.9999667853684022,127.97094764263161
8.216000000000001,0.9999669549942869,127.59134313563516
8.224,0.9999671279676583,127.2114447641876
8.232,0.9999673042574386,126.83125018781837
8.24,0.9999674838322011,126.45075707292939
8.248000000000001,0.9999676666601749,126.06996309289563
8.256,0.9999678527092483,125.68886592816693
8.264,0.9999680419469745,125.30746326637048
8.272,0.9999682343405747,124.92575280241516
8.280000000000001,0.9999684298569426,124.543732238597
8.288,0.9999686284626482,124.16139928470551
8.296,0.9999688301239436,123.7787516581311
8.304,0.9999690348067655,123.39578708397401
8.312,0.9999692424767398,123.01250329515494
8.32,0.9999694530991867,122.6288980325255
8.328,0.9999696666391239,122.24496904498147
8.336,0.9999698830612715,121.86071408957598
8.344,0.9999701023300556,121.47613093163498
8.352,0.9999703244096129,121.09121734487314
8.36,0.9999705492637944,120.70597111151159
8.368,0.999970776856171,120.32039002239634
8.376,0.9999710071500354,119.93447187711871
8.384,0.9999712401084093,119.54821448413607
8.392,0.9999714756940445,119.16161566089505
8.4,0.9999717138694294,118.77467323395447
8.408,0.9999719545967917,118.38738503911131
8.416,0.9999721978381038,117.99974892152629
8.424,0.9999724435550865,117.61176273585215
8.432,0.9999726917092133,117.22342434636198
8.44,0.9999729422617145,116.83473162708006
8.448,0.9999731951735813,116.44568246191268
8.456,0.9999734504055705,116.05627474478165
8.464,0.9999737079182096,115.66650637975758
8.472,0.9999739676717979,115.27637528119617
8.48,0.9999742296264148,114.88587937387405
8.488,0.9999744937419213,114.49501659312749
8.496,0.9999747599779656,114.10378488499099
8.504,0.9999750282939864,113.7121822063386
8.512,0.9999752986492192,113.3202065250251
8.52,0.9999755710026975,112.92785582002986
8.528,0.9999758453132604,112.53512808160066
8.536,0.9999761215395545,112.1420213114002
8.544,0.99997639964004,111.74853352265248
8.552,0.9999766795729939,111.3546627402919
8.56,0.9999769612965146,110.9604070011122
8.568,0.9999772447685272,110.56576435391827
8.576,0.9999775299467871,110.1707328596776
8.584,0.9999778167888841,109.77531059167458
8.592,0.9999781052522486,109.37949563566474
8.6,0.9999783952941536,108.98328609003146
8.608,0.9999786868717208,108.58668006594274
8.616,0.9999789799419255,108.18967568751066
8.624,0.9999792744616002,107.7922710919505
8.632,0.9999795703874388,107.39446442974277
8.64,0.9999798676760022,106.99625386479497
8.648,0.9999801662837224,106.597637574606
8.656,0.9999804661669074,106.19861375043045
8.664,0.9999807672817457,105.79918059744553
8.672,0.9999810695843105,105.39933633491785
8.68,0.9999813730305649,104.99907919637272
8.688,0.9999816775763666,104.59840742976343
8.696,0.9999819831774722,104.197319297643
8.704,0.9999822897895435,103.7958130773358
8.712,0.9999825973681485,103.39388706111171
8.72,0.999982905868772,102.99153955636014
8.728,0.9999832152468138,102.58876888576648
8.736,0.9999835254575997,102.1855733874885
8.744,0.9999838364563817,101.78195141533507
8.752,0.9999841481983456,101.37790133894481
8.76,0.9999844606386147,100.97342154396715
8.768,0.999984773732256,100.56851043224309
8.776,0.9999850874342827,100.16316642198858
8.784,0.9999854016996624,99.75738794797738
8.792,0.9999857164833192,99.35117346172656
8.8,0.9999860317401413,98.94452143168155
8.808,0.9999863474249839,98.53743034340364
8.815999999999999,0.9999866634926757,98.12989869975726
8.824,0.9999869798980234,97.72192502109895
8.832,0.9999872965958171,97.31350784546748
8.84,0.9999876135408351,96.90464572877433
8.847999999999999,0.9999879306878504,96.49533724499528
8.856,0.9999882479916335,96.0855809863633
8.864,0.9999885654069611,95.67537556356204
8.872,0.9999888828886173,95.26471960592039
8.879999999999999,0.999989200391403,94.85361176160735
8.888,0.9999895178701379,94.44205069782844
8.896,0.9999898352796679,94.0300351010228
8.904,0.9999901525748703,93.6175636770608
8.911999999999999,0.9999904697106583,93.20463515144235
8.92,0.9999907866419872,92.79124826949631
8.928,0.9999911033238597,92.37740179658068
8.936,0.9999914197113315,91.96309451828317
8.943999999999999,0.9999917357595173,91.54832524062222
8.952,0.9999920514235948,91.13309279024931
8.96,0.9999923666588125,90.71739601465171
8.968,0.9999926814204934,90.30123378235545
8.975999999999999,0.9999929956640419,89.88460498312898
8.984,0.9999933093449491,89.46750852818748
8.992,0.9999936224187986,89.04994335039802
9.0,0.9999939348412715,88.63190840448446
9.008,0.9999942465681535,88.21340266723304
9.016,0.99999455755534,87.7944251376986
9.024000000000001,0.9999948677588416,87.37497483741119
9.032,0.9999951771347902,86.95505081058273
9.04,0.9999954856394454,86.53465212431392
9.048,0.9999957932291994,86.11377786880165
9.056000000000001,0.9999960998605839,85.69242715754692
9.064,0.9999964054902752,85.27059912756233
9.072,0.9999967100751015,84.84829293957985
9.08,0.9999970135720467,84.42550777825903
9.088000000000001,0.9999973159382586,84.00224285239534
9.096,0.9999976171310537,83.57849739512815
9.104,0.9999979171079237,83.15427066414861
9.112,0.9999982158265412,82.72956194190805
9.120000000000001,0.9999985132447663,82.30437053582618
9.128,0.9999988093206527,81.87869577849875
9.136,0.999999104012453,81.45253702790517
9.144,0.9999993972786262,81.02589366761619
9.152000000000001,0.9999996890778429,80.5987651070013
9.16,0.999999979368991,80.1711507814356
9.168,0.9999999999999999,79.74305015250611
9.176,0.9999999999999999,79.31446270821829
9.184000000000001,1.0,78.88538796320186
9.192,0.9999999999999999,78.45582545891605
9.2,1.0,78.02577476385402
9.208,0.9999999999999999,77.59523547374727
9.216000000000001,1.0,77.16420721176931
9.224,1.0,76.73268962873833
9.232,0.9999999999999999,76.30068240331906
9.24,1.0,75.8681852422242
9.248000000000001,1.0,75.43519788041523
9.256,0.9999999999999999,75.00172008130151
9.264,1.0,74.5677516369389
9.272,0.9999999999999999,74.1332923682274
9.280000000000001,1.0,73.69834212510794
9.288,0.9999999999999998,73.26290078675756
9.296,1.0,72.82696826178339
9.304,1.0,72.39054448841596
9.312000000000001,0.9999999999999999,71.95362943470096
9.32,1.0,71.51622309868948
9.328,0.9999999999999998,71.0783255086268
9.336,0.9999999999999999,70.63993672314
9.344,1.0,70.20105683142418
9.352,1.0,69.76168595342627
9.36,0.9999999999999999,69.32182424002836
9.368,0.9999999999999999,68.8814718732282
9.376,1.0,68.44062906631888
9.384,0.9999999999999998,67.99929606406575
9.392,0.9999999999999999,67.55747314288254
9.4,0.9999999999999999,67.11516061100427
9.408,1.0,66.67235880865942
9.416,1.0,66.2290681082387
9.424,0.9999999999999999,65.7852889144631
9.432,0.9999999999999999,65.3410216645481
9.44,0.9999999999999999,64.89626682836742
9.448,0.9999999999999999,64.45102490861248
9.456,1.0,64.00529644095144
9.464,1.0,63.55908199418372
9.472,1.0,63.11238217039403
9.48,1.0,62.66519760510179
9.488,1.0,62.217528967409756
9.496,1.0,61.769376960148136
9.504,0.9999999999999999,61.32074232001755
9.512,1.0,60.87162581772751
9.52,1.0,60.42202825813352
9.528,0.9999999999999999,59.97195048036963
9.536,1.0,59.521393357979306
9.544,1.0,59.070357799041936
9.552,1.0,58.618844746297235
9.56,1.0000000000000002,58.1668551772651
9.568,1.0,57.714390104363595
9.576,0.9999999999999999,57.26145057502196
9.584,0.9999999999999999,56.80803767179154
9.592,1.0,56.35415251245182
9.6,1.0,55.899796250114285
9.608,1.0,55.444970073320945
9.616,0.9999999999999999,54.989675206140774
9.624,1.0,54.53391290826071
9.632,1.0,54.077684475074335
9.64,1.0,53.62099123776492
9.648,1.0,53.16383456338621
9.656,1.0,52.70621585493729
9.664,1.0,52.248136551435145
9.672,1.0,51.78959812798109
9.68,1.0000000000000002,51.33060209582473
9.688,0.9999999999999999,50.871150002421906
9.696,1.0,50.41124343148979
9.704,0.9999999999999999,49.950884003055826
9.712,1.0,49.49007337350391
9.72,1.0,49.02881323561417
9.728,1.0,48.56710531859975
9.736,0.9999999999999999,48.104951388137174
9.744,1.0,47.642353246393796
9.752,0.9999999999999999,47.17931273204831
9.76,0.9999999999999999,46.71583172030846
9.768,0.9999999999999999,46.25191212292171
9.776,1.0,45.787555888182936
9.784,1.0,45.32276500093503
9.792,1.0,44.85754148256614
9.8,0.9999999999999999,44.391887391000175
9.808,0.9999999999999999,43.92580482068356
9.816,1.0,43.45929590256509
9.824,0.9999999999999999,42.99236280407203
9.832,1.0,42.525007729079256
9.84,0.9999999999999999,42.057232917874515
