freq,mag,phase
6.0,0.9999968510764654,110.2930704717391
6.008,0.9999973231964301,110.19088396649339
6.016,0.9999977799073992,110.08866115999332
6.024,0.9999982214279237,109.98640199827119
6.032,0.9999986479752139,109.88410642737522
6.04,0.9999990597651389,109.78177439336991
6.048,0.9999994570122298,109.67940584233655
6.056,0.9999998399296801,109.57700072037346
6.064,1.0000000000000002,109.47455897359647
6.072,1.0,109.37208054813937
6.08,0.9999999999999999,109.26956539015414
6.088,0.9999999999999999,109.16701344581155
6.096,1.0,109.06442466130139
6.104,1.0,108.96179898283295
6.112,1.0,108.85913635663542
6.12,0.9999999999999999,108.75643672895825
6.128,1.0,108.65370004607152
6.136,0.9999999999999999,108.55092625426647
6.144,1.0,108.44811529985573
6.152,1.0,108.34526712917383
6.16,0.9999999999999999,108.24238168857755
6.168,1.0,108.13945892444636
6.176,0.9999999999999999,108.03649878318275
6.184,1.0,107.93350121121267
6.192,1.0000000000000002,107.83046615498598
6.2,1.0000000000000002,107.72739356097674
6.208,1.0,107.62428337568367
6.216,1.0,107.52113554563056
6.224,1.0,107.41795001736665
6.232,1.0,107.31472673746704
6.24,1.0,107.21146565253306
6.248,1.0,107.1081667091927
6.256,0.9999999999999999,107.00482985410105
6.264,1.0,106.90145503394055
6.272,1.0,106.7980421954216
6.28,0.9999999999999999,106.69459128528278
6.288,1.0,106.59110225029137
6.296,1.0,106.48757503724369
6.304,0.9999999999999999,106.38400959296553
6.312,0.9999999999999999,106.2804058643125
6.32,0.9999999999999999,106.1767637981705
6.328,0.9999999999999999,106.07308334145613
6.336,1.0,105.96936444111697
6.344,1.0,105.86560704413216
6.352,0.9999999999999998,105.76181109751262
6.36,0.9999999999999999,105.65797654830165
6.368,0.9999999999999999,105.55410334357514
6.376,1.0,105.45019143044205
6.384,1.0,105.34624075604492
6.392,1.0,105.2422512675601
6.4,0.9999999999999999,105.13822291219826
6.408,0.9999999999999999,105.03415563720473
6.416,1.0,104.93004938986
6.424,1.0,104.82590411748002
6.432,1.0,104.72171976741669
6.44,1.0,104.61749628705819
6.448,1.0,104.51323362382944
6.456,0.9999999999999999,104.40893172519246
6.464,1.0,104.30459053864685
6.472,1.0,104.20021001173012
6.48,1.0,104.09579009201815
6.4879999999999995,1.0,103.99133072712556
6.496,1.0,103.88683186470608
6.504,1.0,103.78229345245313
6.5120000000000005,0.9999999999999999,103.67771543809998
6.52,1.0,103.5730977694204
6.5280000000000005,0.9999999999999999,103.46844039422884
6.536,0.9999999999999999,103.36374326038104
6.5440000000000005,0.9999999999999999,103.25900631577431
6.552,0.9999999999999999,103.15422950834801
6.5600000000000005,0.9999999999999999,103.04941278608386
6.568,0.9999999999999999,102.94455609700655
6.5760000000000005,1.0,102.83965938918388
6.584,1.0,102.73472261072742
6.592,1.0,102.62974570979274
6.6,0.9999999999999999,102.52472863457996
6.608,1.0,102.41967133333402
6.616,0.9999999999999999,102.31457375434526
6.624,1.0,102.20943584594967
6.632,1.0,102.10425755652939
6.64,1.0,101.99903883451316
6.648,1.0,101.8937796283766
6.656,1.0,101.78847988664278
6.664,1.0,101.68313955788253
6.672,0.9999999999999999,101.5777585907149
6.68,0.9999999999999999,101.47233693380753
6.688,1.0,101.36687453587714
6.696,1.0,101.26137134568991
6.704,1.0,101.15582731206185
6.712,1.0,101.05024238385931
6.72,0.9999999336205371,100.94461650999932
6.728,0.9999997399914474,100.83894963945005
6.736,0.9999995454074153,100.73324172123122
6.744,0.9999993499717429,100.62749270441451
6.752,0.9999991537865173,100.521702538124
6.76,0.9999989569526132,100.41587117153658
6.768,0.9999987595696949,100.30999855388237
6.776,0.999998561736216,100.20408463444511
6.784,0.9999983635494222,100.09812936256267
6.792,0.9999981651053513,99.99213268762742
6.8,0.9999979664988365,99.88609455908662
6.808,0.9999977678235069,99.78001492644287
6.816,0.9999975691717881,99.67389373925462
6.824,0.9999973706349043,99.56773094713645
6.832,0.9999971723028805,99.4615264997596
6.84,0.9999969742645425,99.35528034685237
6.848,0.9999967766075188,99.24899243820053
6.856,0.9999965794182419,99.14266272364779
6.864,0.9999963827819498,99.03629115309617
6.872,0.9999961867826874,98.92987767650654
6.88,0.9999959915033074,98.82342224389889
6.888,0.9999957970254717,98.71692480535292
6.896,0.9999956034296537,98.61038531100839
6.904,0.9999954107951373,98.50380371106554
6.912,0.999995219200021,98.39717995578565
6.92,0.9999950287212174,98.29051399549124
6.928,0.9999948394344547,98.1838057805668
6.936,0.9999946514142776,98.077055261459
6.944,0.99999446473405,97.97026238867721
6.952,0.9999942794659553,97.863427112794
6.96,0.9999940956809965,97.75654938444548
6.968,0.9999939134489991,97.64962915433182
6.976,0.999993732838612,97.54266637321761
6.984,0.9999935539173074,97.43566099193245
6.992,0.9999933767513839,97.3286129613712
7.0,0.9999932014059658,97.22152223249466
7.008,0.9999930279450053,97.11438875632979
7.016,0.9999928564312835,97.00721248397032
7.024,0.999992686926411,96.89999336657712
7.032,0.9999925194908296,96.79273135537875
7.04,0.9999923541838126,96.68542640167178
7.048,0.9999921910634669,96.57807845682136
7.056,0.9999920301867332,96.47068747226162
7.064,0.9999918716093873,96.36325339949614
7.072,0.9999917153860406,96.25577619009846
7.08,0.999991561570142,96.14825579571247
7.088,0.9999914102139782,96.04069216805291
7.096,0.9999912613686751,95.93308525890585
7.104,0.9999911150841977,95.82543502012915
7.112,0.9999909714093524,95.71774140365292
7.12,0.9999908303917873,95.61000436148
7.128,0.9999906920779924,95.50222384568644
7.136,0.999990556513301,95.394399808422
7.144,0.9999904237418914,95.28653220191056
7.152,0.999990293806786,95.17862097845068
7.16,0.9999901667498529,95.07066609041605
7.168,0.9999900426118075,94.96266749025595
7.176,0.9999899214322118,94.85462513049578
7.184,0.9999898032494754,94.74653896373755
7.192,0.9999896881008576,94.63840894266038
7.2,0.9999895760224662,94.53023502002091
7.208,0.9999894670492585,94.42201714865395
7.216,0.9999893612150433,94.31375528147282
7.224,0.999989258552481,94.20544937147
7.232,0.9999891590930818,94.09709937171752
7.24,0.9999890628672105,93.98870523536758
7.248,0.9999889699040836,93.88026691565294
7.256,0.9999888802317706,93.77178436588756
7.264,0.9999887938771955,93.66325753946701
7.272,0.9999887108661366,93.5546863898691
7.28,0.999988631223227,93.44607087065432
7.288,0.9999885549719545,93.33741093546642
7.296,0.9999884821346631,93.2287065380329
7.304,0.9999884127325522,93.11995763216561
7.312,0.9999883467856776,93.01116417176122
7.32,0.999988284312952,92.90232611080185
7.328,0.9999882253321446,92.79344340335552
7.336,0.9999881698598817,92.68451600357679
7.344,0.9999881179116478,92.57554386570726
7.352,0.9999880695017838,92.46652694407616
7.36,0.9999880246434896,92.35746519310092
7.368,0.9999879833488218,92.24835856728774
7.376,0.9999879456286964,92.1392070212321
7.384,0.9999879114928868,92.03001050961947
7.392,0.999987880950025,91.9207689872258
7.4,0.9999878540076016,91.81148240891807
7.4079999999999995,0.9999878306719652,91.70215072965507
7.416,0.9999878109483236,91.59277390448777
7.4239999999999995,0.9999877948407423,91.4833518885601
7.432,0.9999877823521456,91.37388463710946
7.4399999999999995,0.9999877734843169,91.2643721054674
7.448,0.9999877682378966,91.15481424906022
7.4559999999999995,0.9999877666123848,91.0452110234096
7.464,0.999987768606139,90.93556238413319
7.4719999999999995,0.9999877742163747,90.82586828694542
7.48,0.9999877834391663,90.71612868765784
7.4879999999999995,0.9999877962694446,90.60634354218016
7.496,0.9999878127009989,90.49651280652056
7.504,0.9999878327264761,90.38663643678663
7.5120000000000005,0.9999878563373791,90.27671438918584
7.52,0.9999878835240692,90.16674662002642
7.5280000000000005,0.9999879142757636,90.0567330857178
7.536,0.9999879485805366,89.94667374277162
7.5440000000000005,0.9999879864253177,89.83656854780219
7.552,0.9999880277958936,89.7264174575273
7.5600000000000005,0.9999880726769054,89.61622042876894
7.568,0.9999881210518511,89.50597741845405
7.5760000000000005,0.9999881729030825,89.39568838361521
7.584,0.9999882282118068,89.28535328139147
7.5920000000000005,0.9999882869580854,89.17497206902897
7.6,0.9999883491208343,89.06454470388194
7.6080000000000005,0.9999884146778234,88.95407114341322
7.616,0.9999884836056757,88.84355134519525
7.6240000000000006,0.9999885558798681,88.73298526691073
7.632,0.9999886314747304,88.62237286635357
7.640000000000001,0.9999887103634449,88.51171410142955
7.648,0.9999887925180471,88.40100893015727
7.656000000000001,0.9999888779094238,88.29025731066896
7.664,0.9999889665073147,88.17945920121134
7.672,0.9999890582803116,88.06861456014646
7.68,0.9999891531958569,87.95772334595259
7.688,0.9999892512202458,87.84678551722511
7.696,0.9999893523186243,87.73580103267746
7.704,0.9999894564549894,87.62476985114195
7.712,0.9999895635921906,87.51369193157082
7.72,0.999989673691928,87.40256723303706
7.728,0.9999897867147532,87.29139571473544
7.736,0.9999899026200696,87.18017733598344
7.744,0.9999900213661321,87.06891205622232
7.752,0.9999901429100475,86.95759983501797
7.76,0.9999902672077751,86.84624063206205
7.768,0.9999903942141265,86.73483440717295
7.776,0.9999905238827668,86.62338112029688
7.784,0.9999906561662141,86.51188073150891
7.792,0.9999907910158412,86.40033320101402
7.8,0.9999909283818761,86.28873848914824
7.808,0.9999910682134017,86.17709655637974
7.816,0.9999912104583585,86.06540736330993
7.824,0.9999913550635442,85.95367087067464
7.832,0.9999915019746157,85.8418870393453
7.84,0.99999165113609,85.73005583033002
7.848,0.9999918024913461,85.61817720477494
7.856,0.9999919559826264,85.50625112396533
7.864,0.9999921115510376,85.39427754932683
7.872,0.999992269136554,85.2822564424268
7.88,0.9999924286780195,85.17018776497551
7.888,0.9999925901131487,85.05807147882746
7.896,0.9999927533785302,84.94590754598269
7.904,0.9999929184096292,84.83369592858814
7.912,0.9999930851407909,84.721436588939
7.92,0.9999932535052429,84.60912948948008
7.928,0.9999934234350989,84.49677459280721
7.936,0.9999935948613622,84.38437186166868
7.944,0.9999937677139304,84.27192125896669
7.952,0.9999939419215985,84.15942274775878
7.96,0.9999941174120637,84.04687629125938
7.968,0.9999942941119312,83.9342818528413
7.976,0.9999944719467181,83.82163939603721
7.984,0.9999946508408595,83.70894888454134
7.992,0.9999948307177141,83.59621028221096
8.0,0.9999950114995707,83.48342355306798
8.008,0.9999951931076551,83.3705886613007
8.016,0.9999953754621361,83.25770557126532
8.024000000000001,0.9999955584821337,83.14477424748775
8.032,0.9999957420857274,83.03179465466532
8.04,0.9999959261899638,82.91876675766841
8.048,0.9999961107108651,82.80569052154226
8.056000000000001,0.9999962955634405,82.69256591150886
8.064,0.999996480661694,82.57939289296868
8.072,0.9999966659186356,82.46617143150245
8.08,0.999996851246292,82.35290149287306
8.088000000000001,0.9999970365557199,82.23958304302762
8.096,0.9999972217570159,82.12621604809921
8.104,0.9999974067593307,82.01280047440873
8.112,0.9999975914708831,81.89933628846714
8.120000000000001,0.9999977757989734,81.78582345697725
8.128,0.9999979596499986,81.67226194683589
8.136,0.9999981429294688,81.55865172513577
8.144,0.9999983255420235,81.44499275916773
8.152000000000001,0.9999985073914484,81.33128501642275
8.16,0.9999986883806944,81.21752846459414
8.168,0.9999988684118972,81.10372307157958
8.176,0.9999990473863958,80.98986880548335
8.184000000000001,0.9999992252047547,80.8759656346186
8.192,0.9999994017667863,80.7620135275095
8.2,0.999999576971572,80.64801245289337
8.208,0.9999997507174886,80.53396237972312
8.216000000000001,0.9999999229022316,80.41986327716948
8.224,1.0,80.30571511462331
8.232,1.0,80.1915178616978
8.24,1.0,80.07727148823095
8.248000000000001,0.9999999999999998,79.96297596428792
8.256,1.0,79.84863126016336
8.264,1.0,79.73423734638375
8.272,1.0,79.61979419370988
8.280000000000001,1.0,79.50530177313924
8.288,1.0,79.39076005590847
8.296,1.0,79.2761690134957
8.304,0.9999999999999999,79.16152861762305
8.312,0.9999999999999999,79.04683884025911
8.32,1.0,78.93209965362125
8.328,1.0,78.8173110301783
8.336,1.0,78.70247294265266
8.344,1.0,78.5875853640231
8.352,0.9999999999999999,78.47264826752686
8.36,1.0,78.35766162666238
8.368,1.0,78.24262541519136
8.376,0.9999999999999999,78.12753960714153
8.384,1.0,78.01240417680869
8.392,1.0,77.89721909875932
8.4,0.9999999999999999,77.78198434783268
8.408,0.9999999999999999,77.66669989914331
8.416,0.9999999999999999,77.55136572808307
8.424,0.9999999999999999,77.43598181032363
8.432,0.9999999999999999,77.32054812181829
8.44,0.9999999999999999,77.20506463880453
8.448,1.0,77.08953133780568
8.456,0.9999999999999999,76.97394819563331
8.464,1.0,76.85831518938879
8.472,0.9999999999999999,76.7426322964656
8.48,1.0,76.62689949455078
8.488,1.0,76.51111676162691
8.496,0.9999999999999999,76.3952840759736
8.504,1.0,76.2794014161692
8.512,1.0,76.16346876109203
8.52,1.0,76.04748608992203
8.528,1.0,75.93145338214167
8.536,1.0,75.81537061753737
8.544,1.0,75.69923777620022
8.552,1.0,75.58305483852708
8.56,0.9999999999999999,75.46682178522107
8.568,0.9999999999999998,75.35053859729226
8.576,1.0,75.23420525605798
8.584,0.9999999999999998,75.11782174314315
8.592,1.0,75.00138804048021
8.6,0.9999999999999999,74.8849041303091
8.608,1.0,74.76836999517671
8.616,0.9999999999999999,74.65178561793667
8.624,0.9999999999999999,74.5351509817482
8.632,0.9999999999999999,74.41846607007548
8.64,0.9999999999999999,74.30173086668611
8.648,1.0,74.18494535564993
8.656,0.9999999999999999,74.06810952133702
8.664,0.9999999999999998,73.95122334841597
8.672,0.9999999999999999,73.83428682185134
8.68,0.9999999999999998,73.71729992690135
8.688,0.9999999999999999,73.60026264911482
8.696,0.9999999999999999,73.48317497432818
8.704,1.0,73.3660368886618
8.712,1.0,73.24884837851637
8.72,0.9999999999999999,73.13160943056856
8.728,0.9999999999999999,73.01432003176672
8.736,0.9999999999999999,72.89698016932572
8.744,1.0,72.77958983072209
8.752,1.0,72.66214900368807
8.76,1.0,72.54465767620583
8.768,0.9999999999999999,72.42711583650093
8.776,0.9999999999999999,72.30952347303571
8.784,0.9999999999999999,72.19188057450174
8.792,1.0,72.0741871298126
8.8,1.0,71.9564431280954
8.808,1.0,71.83864855868265
8.815999999999999,1.0,71.72080341110306
8.824,1.0,71.60290767507222
8.832,1.0,71.48496134048283
8.84,1.0,71.3669643973944
8.847999999999999,1.0,71.24891683602242
8.856,0.9999997937872863,71.13081864672722
8.864,0.9999995396361088,71.01266982000236
8.872,0.999999279094812,70.89447034646248
8.879999999999999,0.9999990122679716,70.77622021683068
8.888,0.9999987392676787,70.65791942192554
8.896,0.9999984602136359,70.53956795264774
8.904,0.9999981752332437,70.42116579996608
8.911999999999999,0.9999978844616828,70.30271295490311
8.92,0.9999975880419842,70.18420940852039
8.928,0.9999972861250962,70.0656551519034
8.936,0.9999969788699378,69.94705017614585
8.943999999999999,0.9999966664434461,69.82839447233377
8.952,0.9999963490206122,69.70968803152911
8.96,0.9999960267845073,69.5909308447531
8.968,0.9999956999262982,69.47212290296926
8.975999999999999,0.9999953686452515,69.35326419706584
8.984,0.9999950331487262,69.23435471783836
8.992,0.9999946936521542,69.11539445597163
9.0,0.9999943503790064,68.99638340202158
9.008,0.9999940035607505,68.8773215463968
9.016,0.9999936534367896,68.75820887934
9.024000000000001,0.9999933002543911,68.63904539090936
9.032,0.9999929442686003,68.51983107095961
9.04,0.9999925857421372,68.40056590912297
9.048,0.9999922249452831,68.28124989479032
9.056000000000001,0.9999918621557464,68.16188301709214
9.064,0.9999914976585194,68.04246526487948
9.072,0.999991131745712,67.92299662670511
9.08,0.9999907647163763,67.80347709080458
9.088000000000001,0.9999903968763111,67.68390664507785
9.096,0.9999900285378517,67.56428527707062
9.104,0.9999896600196422,67.44461297395623
9.112,0.9999892916463938,67.32488972251771
9.120000000000001,0.9999889237486251,67.20511550913042
9.128,0.9999885566623858,67.0852903197448
9.136,0.9999881907289663,66.96541413986968
9.144,0.9999878262945883,66.84548695455611
9.152000000000001,0.9999874637100834,66.7255087483819
9.16,0.9999871033305535,66.6054795054364
9.168,0.9999867455150161,66.48539920930632
9.176,0.9999863906260367,66.36526784306191
9.184000000000001,0.9999860390293444,66.24508538924437
9.192,0.9999856910934365,66.12485182985354
9.2,0.9999853471891671,66.00456714633683
9.208,0.9999850076893246,65.88423131957883
9.216000000000001,0.9999846729681968,65.76384432989218
9.224,0.9999843434011244,65.64340615700914
9.232,0.9999840193640437,65.52291678007417
9.24,0.9999837012330215,65.40237617763802
9.248000000000001,0.9999833893837782,65.28178432765253
9.256,0.9999830841912053,65.16114120746673
9.264,0.9999827860288757,65.0404467938242
9.272,0.999982495268546,64.91970106286153
9.280000000000001,0.9999822122796571,64.79890399010823
9.288,0.9999819374288288,64.67805555048777
9.296,0.9999816710793525,64.55715571831985
9.304,0.9999814135906827,64.43620446732422
9.312000000000001,0.9999811653179274,64.31520177062573
9.32,0.9999809266113406,64.19414760076062
9.328,0.9999806978158166,64.07304192968425
9.336,0.9999804792703861,63.951884728780215
9.344,0.9999802713077209,63.830675968870814
9.352,0.99998007425364,63.709415620228654
9.36,0.9999798884266261,63.588103652589915
9.368,0.9999797141373482,63.466740035168534
9.376,0.999979551688198,63.34532473667214
9.384,0.9999794013728313,63.22385772531872
9.392,0.9999792634757261,63.1023389688551
9.4,0.999979138271753,62.980768434576014
9.408,0.9999790260257593,62.85914608934494
9.416,0.9999789269921671,62.73747189961549
9.424,0.9999788414145937,62.61574583145449
9.432,0.9999787695254818,62.49396785056533
9.44,0.9999787115457552,62.37213792231315
9.448,0.9999786676844893,62.250256011750054
9.456,0.9999786381386043,62.12832208364206
9.464,0.9999786230925792,62.00633610249599
9.472,0.9999786227181862,61.88429803258793
9.48,0.9999786371742503,61.76220783799152
9.488,0.999978666606429,61.640065482607596
9.496,0.9999787111470171,61.51787093019375
9.504,0.999978770914776,61.39562414439482
9.512,0.9999788460147861,61.27332508877328
9.52,0.9999789365383231,61.15097372684041
9.528,0.9999790425627623,61.02857002208727
9.536,0.9999791641515033,60.90611393801623
9.544,0.9999793013539241,60.783605438172096
9.552,0.9999794542053558,60.66104448617371
9.56,0.9999796227270856,60.53843104574509
9.568,0.9999798069263812,60.41576508074676
9.576,0.9999800067965424,60.29304655520644
9.584,0.9999802223169728,60.17027543334999
9.592,0.9999804534532797,60.04745167963136
9.6,0.9999807001573916,59.92457525876269
9.608,0.9999809623677034,59.80164613574344
9.616,0.9999812400092369,59.67866427588943
9.624,0.99998153299383,59.555629644860694
9.632,0.999981841220339,59.43254220868931
9.64,0.9999821645748654,59.30940193380585
9.648,0.9999825029309984,59.18620878706569
9.656,0.9999828561500766,59.062962735773844
9.664,0.999983224081466,58.93966374770952
9.672,0.9999836065628542,58.816311791149374
9.68,0.9999840034205599,58.692906834890024
9.688,0.9999844144698551,58.5694488482694
9.696,0.9999848395153005,58.445937801187405
9.704,0.9999852783510947,58.3223736641251
9.712,0.9999857307614323,58.19875640816328
9.72,0.9999861965208703,58.075086004999655
9.728,0.9999866753947084,57.95136242696514
9.736,0.9999871671393713,57.8275856470389
9.744,0.9999876715028011,57.70375563886251
9.752,0.9999881882248534,57.579872376752725
9.76,0.9999887170376996,57.45593583571341
9.768,0.9999892576662325,57.33194599144616
9.776,0.9999898098284725,57.207902820360026
9.784,0.9999903732359782,57.0838062995799
9.792,0.9999909475942552,56.95965640695417
9.8,0.9999915326031678,56.83545312106087
9.808,0.9999921279573455,56.71119642121336
9.816,0.9999927333465914,56.586886287464324
9.824,0.9999933484562858,56.462522700609384
9.832,0.9999939729677868,56.338105642189305
9.84,0.999994606558826,56.213635094491494
9.847999999999999,0.9999952489039011,56.089111040550456
9.856,0.9999958996746608,55.96453346414733
9.864,0.999996558540285,55.83990234980887
9.872,0.9999972251678566,55.7152176828051
9.879999999999999,0.999997899222729,55.59047944914655
