freq,mag,phase
6.0,0.999997436940933,171.43261681791813
6.008,0.9999961160047391,171.03593006683198
6.016,0.9999948343971158,170.63912215366594
6.024,0.9999935914495774,170.24218821569576
6.032,0.999992386500686,169.8451233804699
6.04,0.9999912188960093,169.44792276589283
6.048,0.9999900879880804,169.05058148030912
6.056,0.9999889931363548,168.65309462258688
6.064,0.9999879337071715,168.2554572822015
6.072,0.9999869090737086,167.85766453931967
6.08,0.9999859186159411,167.45971146488333
6.088,0.9999849617206044,167.061593120694
6.096,0.9999840377811444,166.66330455949722
6.104,0.9999831461976835,166.26484082506775
6.112,0.9999822863769741,165.86619695229453
6.12,0.9999814577323557,165.4673679672664
6.128,0.9999806596837181,165.06834888735864
6.136,0.9999798916574543,164.66913472131938
6.144,0.9999791530864222,164.26972046935708
6.152,0.9999784434098985,163.8701011232286
6.16,0.9999777620735418,163.47027166632785
6.168,0.999977108529346,163.07022707377533
6.176,0.9999764822356033,162.66996231250843
6.184,0.999975882656858,162.26947234137268
6.192,0.9999753092638652,161.8687521112138
6.2,0.999974761533554,161.46779656497105
6.208,0.9999742389489782,161.0666006377712
6.216,0.9999737409992825,160.66515925702396
6.224,0.9999732671796532,160.26346734251854
6.232,0.9999728169912859,159.86151980652133
6.24,0.9999723899413343,159.4593115538749
6.248,0.9999719855428761,159.05683748209847
6.256,0.9999716033148709,158.65409248148967
6.264,0.9999712427821155,158.25107143522789
6.272,0.9999709034752056,157.84776921947892
6.28,0.999970584930498,157.44418070350184
6.288,0.9999702866900633,157.0403007497567
6.296,0.9999700083016524,156.63612421401461
6.304,0.9999697493186483,156.23164594546924
6.312,0.9999695093000357,155.82686078685052
6.32,0.9999692878103501,155.42176357454002
6.328,0.9999690844196485,155.01634913868833
6.336,0.9999688987034601,154.6106123033347
6.344,0.9999687302427548,154.20454788652862
6.352,0.9999685786238971,153.79815070045362
6.36,0.9999684434386115,153.3914155515535
6.368,0.9999683242839411,152.98433724066066
6.376,0.9999682207622083,152.5769105631271
6.384,0.9999681324809802,152.16913030895756
6.392,0.999968059053022,151.76099126294554
6.4,0.9999680000962665,151.35248820481172
6.408,0.9999679552337732,150.94361590934523
6.416,0.9999679240936876,150.5343691465475
6.424,0.9999679063092073,150.12474268177908
6.432,0.9999679015185431,149.71473127590932
6.44,0.9999679093648787,149.3043296854689
6.448,0.999967929496339,148.8935326628058
6.456,0.9999679615659475,148.48233495624385
6.464,0.9999680052315928,148.0707313102451
6.472,0.9999680601559913,147.6587164655748
6.48,0.9999681260066513,147.24628515947032
6.4879999999999995,0.9999682024558337,146.83343212581306
6.496,0.9999682891805205,146.42015209530422
6.504,0.9999683858623762,146.00643979564416
6.5120000000000005,0.9999684921877122,145.59228995171463
6.52,0.9999686078474523,145.17769728576621
6.5280000000000005,0.9999687325370977,144.76265651760804
6.536,0.9999688659566911,144.34716236480276
6.5440000000000005,0.9999690078107814,143.93120954286402
6.552,0.9999691578083928,143.51479276545993
6.5600000000000005,0.9999693156629856,143.09790674461843
6.568,0.9999694810924245,142.680546190939
6.5760000000000005,0.9999696538189456,142.26270581380695
6.584,0.9999698335691212,141.84438032161341
6.592,0.9999700200738268,141.4255644219789
6.6,0.999970213068207,141.00625282198186
6.608,0.9999704122916446,140.58644022839178
6.616,0.9999706174877262,140.16612134790714
6.624,0.9999708284042095,139.74529088739754
6.632,0.9999710447929918,139.3239435541518
6.64,0.9999712664100766,138.90207405613012
6.648,0.9999714930155434,138.4796771022215
6.656,0.9999717243735139,138.0567474025067
6.664,0.9999719602521226,137.63327966852594
6.672,0.9999722004234839,137.20926861355213
6.68,0.9999724446636608,136.7847089528695
6.688,0.9999726927526357,136.3595954040578
6.696,0.999972944474278,135.93392268728175
6.704,0.9999731996163147,135.50768552558645
6.712,0.9999734579702991,135.08087864519862
6.72,0.9999737193315816,134.65349677583322
6.728,0.9999739834992798,134.2255346510064
6.736,0.9999742502762479,133.79698700835422
6.744,0.9999745194690478,133.3678485899578
6.752,0.9999747908879203,132.93811414267404
6.76,0.9999750643467552,132.5077784184732
6.768,0.999975339663063,132.07683617478258
6.776,0.9999756166579452,131.64528217483655
6.784,0.999975895156067,131.21311118803317
6.792,0.9999761749856279,130.7803179902976
6.8,0.9999764559783352,130.34689736445193
6.808,0.9999767379693729,129.91284410059188
6.816,0.9999770207973779,129.4781529964704
6.824,0.9999773043044091,129.04281885788836
6.832,0.9999775883359212,128.60683649909177
6.84,0.9999778727407375,128.1702007431768
6.848,0.9999781573710235,127.73290642250153
6.856,0.9999784420822574,127.29494837910498
6.864,0.9999787267332068,126.85632146513383
6.872,0.9999790111858987,126.41702054327632
6.88,0.9999792953055963,125.97704048720358
6.888,0.9999795789607694,125.536376182019
6.896,0.9999798620230704,125.09502252471482
6.904,0.9999801443673085,124.65297442463674
6.912,0.9999804258714216,124.21022680395622
6.92,0.9999807064164532,123.76677459815092
6.928,0.999980985886525,123.3226127564929
6.936,0.9999812641688118,122.877736242545
6.944,0.9999815411535166,122.43214003466525
6.952,0.9999818167338452,121.98581912651971
6.96,0.9999820908059808,121.53876852760348
6.968,0.9999823632690591,121.09098326376976
6.976,0.9999826340251448,120.64245837776797
6.984,0.9999829029792039,120.19318892978976
6.992,0.9999831700390815,119.74316999802386
7.0,0.9999834351154766,119.29239667921941
7.008,0.9999836981219181,118.84086408925825
7.016,0.9999839589747388,118.3885673637353
7.024,0.9999842175930529,117.93550165854865
7.032,0.9999844738987312,117.48166215049758
7.04,0.9999847278163765,117.02704403789016
7.048,0.9999849792733005,116.57164254115922
7.056,0.9999852281994998,116.11545290348799
7.064,0.9999854745276301,115.65847039144411
7.072,0.9999857181929852,115.20069029562308
7.08,0.999985959133472,114.74210793130081
7.088,0.9999861972895849,114.28271863909539
7.096,0.9999864326043866,113.82251778563777
7.104,0.9999866650234801,113.36150076425199
7.112,0.9999868944949867,112.89966299564446
7.12,0.9999871209695239,112.43699992860276
7.128,0.9999873444001791,111.97350704070337
7.136,0.9999875647424887,111.50917983902922
7.144,0.9999877819544128,111.04401386089614
7.152,0.9999879959963142,110.57800467458895
7.16,0.9999882068309299,110.1111478801068
7.168,0.999988414423354,109.64343910991784
7.176,0.999988618741011,109.1748740297235
7.184,0.99998881975363,108.70544833923181
7.192,0.9999890174332282,108.2351577729404
7.2,0.9999892117540792,107.76399810092865
7.208,0.9999894026926954,107.2919651296591
7.216,0.9999895902278015,106.81905470278865
7.224,0.9999897743403147,106.3452627019885
7.232,0.9999899550133141,105.87058504777357
7.24,0.9999901322320246,105.39501770034134
7.248,0.9999903059837904,104.91855666041964
7.256,0.9999904762580482,104.44119797012358
7.264,0.9999906430463081,103.96293771382186
7.272,0.9999908063421281,103.48377201901187
7.28,0.999990966141089,103.00369705720372
7.288,0.999991122440772,102.52270904481358
7.296,0.9999912752407343,102.04080424406544
7.304,0.9999914245424844,101.5579789639018
7.312,0.9999915703494584,101.0742295609032
7.32,0.9999917126669947,100.58955244021612
7.328,0.9999918515023136,100.10394405648955
7.336,0.9999919868644854,99.61740091481981
7.344,0.9999921187644139,99.12991957170381
7.352,0.9999922472148046,98.64149663600037
7.36,0.9999923722301475,98.15212876989972
7.368,0.9999924938266828,97.66181268990077
7.376,0.9999926120223862,97.17054516779629
7.384,0.9999927268369335,96.67832303166571
7.392,0.9999928382916843,96.18514316687528
7.4,0.9999929464096489,95.6910025170858
7.4079999999999995,0.9999930512154699,95.1958980852674
7.416,0.9999931527353909,94.69982693472102
7.4239999999999995,0.999993250997232,94.20278619010753
7.432,0.999993346030366,93.70477303848222
7.4399999999999995,0.9999934378656892,93.20578473033716
7.448,0.999993526535597,92.70581858064824
7.4559999999999995,0.9999936120739562,92.20487196992983
7.464,0.9999936945160799,91.70294234529347
7.4719999999999995,0.9999937738986984,91.20002722151405
7.48,0.9999938502599329,90.69612418209913
7.4879999999999995,0.9999939236392712,90.1912308803656
7.496,0.9999939940775355,89.68534504051884
7.504,0.9999940616168572,89.17846445873869
7.5120000000000005,0.9999941263006502,88.67058700426746
7.52,0.9999941881735814,88.161710620504
7.5280000000000005,0.9999942472815424,87.65183332609942
7.536,0.9999943036716216,87.14095321605821
7.5440000000000005,0.9999943573920769,86.62906846284046
7.552,0.9999944084923041,86.11617731746858
7.5600000000000005,0.9999944570228114,85.60227811063487
7.568,0.9999945030351862,85.08736925381258
7.5760000000000005,0.9999945465820708,84.57144924036724
7.584,0.9999945877171283,84.05451664667098
7.5920000000000005,0.9999946264950148,83.53657013321586
7.6,0.9999946629713494,83.01760844573008
7.6080000000000005,0.9999946972026844,82.497630416292
7.616,0.9999947292464739,81.97663496444629
7.6240000000000006,0.9999947591610444,81.45462109831735
7.632,0.9999947870055621,80.93158791572367
7.640000000000001,0.9999948128400045,80.407534605289
7.648,0.9999948367251281,79.88246044755319
7.656000000000001,0.9999948587224362,79.3563648160792
7.664,0.9999948788941475,78.82924717855894
7.672,0.9999948973031659,78.3011070979142
7.68,0.999994914013047,77.77194423339523
7.688,0.9999949290879668,77.2417583416744
7.696,0.9999949425926881,76.71054927793523
7.704,0.9999949545925294,76.17831699695631
7.712,0.999994965153331,75.64506155418958
7.72,0.9999949743414243,75.11078310683217
7.728,0.999994982223595,74.57548191489158
7.736,0.9999949888670526,74.03915834224357
7.744,0.9999949943393982,73.50181285768215
7.752,0.9999949987085855,72.96344603596116
7.76,0.9999950020428942,72.42405855882686
7.768,0.9999950044108904,71.88365121604103
7.776,0.9999950058813954,71.34222490639384
7.784,0.9999950065234513,70.79978063870615
7.792,0.9999950064062852,70.2563195328203
7.8,0.9999950055992772,69.7118428205792
7.808,0.9999950041719236,69.16635184679274
7.816,0.999995002193804,68.61984807019111
7.824,0.9999949997345445,68.07233306436441
7.832,0.9999949968637855,67.52380851868784
7.84,0.9999949936511454,66.97427623923183
7.848,0.9999949901661852,66.42373814965653
7.856,0.9999949864783735,65.87219629209011
7.864,0.9999949826570534,65.31965282798993
7.872,0.9999949787714048,64.76611003898618
7.88,0.9999949748904099,64.2115703277074
7.888,0.9999949710828199,63.65603621858686
7.896,0.9999949674171169,63.099510358649425
7.904,0.9999949639614812,62.5419955182783
7.912,0.9999949607837547,61.98349459196068
7.92,0.9999949579514066,61.42401059901196
7.928,0.9999949555314972,60.86354668427758
7.936,0.9999949535906446,60.302106118812
7.944,0.9999949521949881,59.73969230053401
7.952,0.9999949514101545,59.17630875485793
7.96,0.9999949513012223,58.611959135299614
7.968,0.9999949519326886,58.046647224057025
7.976,0.9999949533684334,57.48037693256445
7.984,0.9999949556716845,56.91315230201975
7.992,0.9999949589049857,56.34497750388416
8.0,0.9999949631301601,55.77585684035341
8.008,0.9999949684082791,55.20579474480047
8.016,0.9999949747996262,54.63479578218796
8.024000000000001,0.9999949823636649,54.062864649451356
8.032,0.9999949911590058,53.490006175850496
8.04,0.9999950012433727,52.91622532328941
8.048,0.9999950126735717,52.34152718660484
8.056000000000001,0.9999950255054572,51.7659169938217
8.064,0.9999950397939001,51.18940010637484
8.072,0.9999950555927583,50.61198201929678
8.08,0.9999950729548422,50.03366836137141
8.088000000000001,0.9999950919318872,49.45446489525246
8.096,0.9999951125745203,48.87437751754585
8.104,0.9999951349322316,48.29341225885565
8.112,0.9999951590533447,47.71157528379386
8.120000000000001,0.999995184984987,47.12887289095264
8.128,0.9999952127730608,46.54531151283834
8.136,0.9999952424622159,45.960897715766876
8.144,0.9999952740958212,45.37563819972105
8.152000000000001,0.9999953077159379,44.789539798168256
8.16,0.9999953433632925,44.20260947783801
8.168,0.9999953810772514,43.61485433845896
8.176,0.9999954208957946,43.02628161245606
8.184000000000001,0.9999954628554913,42.43689866460649
8.192,0.9999955069914757,41.8467129916534
8.2,0.9999955533374232,41.255732221878056
8.208,0.9999956019255283,40.66396411463021
8.216000000000001,0.9999956527864804,40.07141655981583
8.224,0.9999957059494448,39.47809757734161
8.232,0.9999957614420395,38.88401531651627
8.24,0.9999958192903171,38.28917805540907
8.248000000000001,0.9999958795187441,37.693594200164554
8.256,0.9999959421501835,37.09727228427315
8.264,0.9999960072058758,36.50022096779749
8.272,0.9999960747054223,35.90244903655524
8.280000000000001,0.9999961446667707,35.30396540125752
8.288,0.9999962171061972,34.70477909660244
8.296,0.999996292038294,34.10489928032391
8.304,0.999996369475955,33.5043352321966
8.312,0.9999964494303628,32.90309635299623
8.32,0.9999965319109786,32.30119216341404
8.328,0.999996616925528,31.69863230292857
8.336,0.9999967044799957,31.09542652863063
8.344,0.9999967945786122,30.491584714006233
8.352,0.9999968872238484,29.8871168476727
8.36,0.9999969824164074,29.282033032072867
8.368,0.9999970801552193,28.676343482122977
8.376,0.9999971804374348,28.070058523818933
8.384,0.9999972832584229,27.463188592796673
8.392,0.9999973886117657,26.85574423285145
8.4,0.9999974964892584,26.24773609441169
8.408,0.9999976068809064,25.63917493297231
8.416,0.9999977197749267,25.03007160748365
8.424,0.9999978351577479,24.420437078700132
8.432,0.9999979530140133,23.810282407485417
8.44,0.9999980733265823,23.199618753078465
8.448,0.9999981960765372,22.588457371316707
8.456,0.9999983212431852,21.976809612821132
8.464,0.9999984488040666,21.36468692113958
8.472,0.9999985787349626,20.75210083085305
8.48,0.9999987110099013,20.139062965641326
8.488,0.9999988456011704,19.525585036312908
8.496,0.9999989824793234,18.911678838795396
8.504,0.9999991216131956,18.297356252091674
8.512,0.9999992629699134,17.682629236197876
8.52,0.99999940651491,17.06750982998854
8.528,0.9999995522119376,16.45201014906516
8.536,0.9999997000230858,15.836142383573367
8.544,0.9999998499087964,15.219918795985244
8.552,1.0,14.603351718851906
8.56,0.9999999999999999,13.986453552522839
8.568,1.0,13.369236762837382
8.576,1.0,12.75171387878482
8.584,1.0,12.133897490138384
8.592,1.0,11.515800245059836
8.6,1.0,10.897434847679957
8.608,0.9999999999999999,10.278814055651596
8.616,1.0,9.659950677680708
8.624,1.0,9.040857571032
8.632,1.0,8.421547639014733
8.64,1.0,7.802033828445365
8.648,0.9999999999999999,7.182329127092449
8.656,1.0,6.562446561100698
8.664,0.9999999999999999,5.942399192399612
8.672,0.9999999999999998,5.3222001160934775
8.68,1.0,4.701862457838356
8.688,0.9999999999999999,4.081399371202823
8.696,0.9999999999999998,3.460824035018045
8.704,1.0,2.8401496507140203
8.712,0.9999999999999999,2.2193894396476472
8.72,0.9999999999999999,1.5985566404193878
8.728,1.0,0.9776645061842034
8.736,0.9999999999999999,0.3567263019536394
8.744,0.9999999999999999,-0.2642446981053558
8.752,1.0,-0.8852352133779461
8.76,0.9999999999999999,-1.506231959509648
8.768,1.0,-2.127221651118404
8.776,0.9999999999999998,-2.748191004504822
8.784,0.9999999999999999,-3.3691267403637197
8.792,0.9999999999999999,-3.9900155864913116
8.8,0.9999999999999999,-4.610844280491161
8.808,1.0,-5.231599572473257
8.815999999999999,1.0,-5.8522682277491915
8.824,1.0000000000000002,-6.4728370295187565
8.832,1.0,-7.093292781548274
8.84,1.0,-7.713622310839745
8.847999999999999,0.9999999999999999,-8.333812470289113
8.856,0.9999999999999999,-8.953850141331845
8.864,0.9999999999999998,-9.573722236575147
8.872,1.0,-10.193415702416223
8.879999999999999,1.0,-10.812917521644778
8.888,1.0,-11.432214716028072
8.896,1.0,-12.051294348877974
8.904,1.0,-12.67014352759926
8.911999999999999,1.0,-13.288749406217725
8.92,1.0,-13.907099187886173
8.928,0.9999999999999999,-14.52518012736804
8.936,0.9999999999999998,-15.142979533497808
8.943999999999999,1.0,-15.760484771616966
8.952,1.0,-16.377683265983578
8.96,1.0000000000000002,-16.9945625021553
8.968,1.0,-17.61111002934527
8.975999999999999,0.9999999999999999,-18.227313462749258
8.984,1.0,-18.843160485842912
8.992,1.0,-19.458638852648328
9.0,1.0,-20.07373638996996
9.008,0.9999999999999999,-20.68844099959821
9.016,1.0,-21.30274066047947
9.024000000000001,1.0,-21.916623430852248
9.032,1.0,-22.53007745034921
9.04,1.0,-23.143090942063857
9.048,1.0,-23.755652214580447
9.056000000000001,1.0,-24.367749663967153
9.064,1.0,-24.979371775732208
9.072,1.0,-25.590507126741986
9.08,1.0,-26.20114438709976
9.088000000000001,1.0,-26.81127232198512
9.096,0.9999999999999999,-27.420879793454045
9.104,0.9999999999999999,-28.029955762198675
9.112,1.0,-28.638489289265543
9.120000000000001,1.0,-29.24646953773251
9.128,0.9999999999999999,-29.853885774344523
9.136,1.0,-30.460727371107183
9.144,1.0,-31.066983806837104
9.152000000000001,0.9999999999999998,-31.67264466866967
9.16,0.9999999999999999,-32.277699653523925
9.168,0.9999999999999999,-32.882138569524145
9.176,1.0,-33.48595133737712
9.184000000000001,1.0,-34.08912799170551
9.192,1.0,-34.69165868233787
9.2,1.0,-35.29353367555398
9.208,1.0,-35.89474335528576
9.216000000000001,1.0,-36.4952782242734
9.224,1.0,-37.095128905177624
9.232,1.0,-37.69428614164737
9.24,1.0,-38.29274079934235
9.248000000000001,1.0,-38.89048386691103
9.256,1.0,-39.4875064569246
9.264,1.0,-40.0837998067667
9.272,1.0,-40.67935527947799
9.280000000000001,1.0,-41.27416436455671
9.288,0.9999999999999999,-41.86821867871561
9.296,1.0000000000000002,-42.46150996659504
9.304,0.9999999999999999,-43.054030101431806
9.312000000000001,1.0,-43.64577108568464
9.32,0.9999999999999999,-44.23672505161676
9.328,1.0,-44.826884261835886
9.336,1.0,-45.416241109790654
9.344,0.9999999999999999,-46.00478812022491
9.352,1.0,-46.59251794959115
9.36,0.9999999999999999,-47.179423386420396
9.368,1.0000000000000002,-47.765497351653025
9.376,1.0,-48.350732898926445
9.384,1.0,-48.93512321482462
9.392,1.0,-49.51866161908544
9.4,1.0,-50.10134156477058
9.408,1.0,-50.68315663839424
9.416,0.9999999999999999,-51.264100560015365
9.424,1.0,-51.844167183289805
9.432,1.0,-52.423350495486574
9.44,1.0,-53.00164461746557
9.448,0.9999999999999999,-53.57904380362037
9.456,1.0000000000000002,-54.15554244178324
9.464,1.0,-54.73113505309669
9.472,1.0,-55.30581629184836
9.48,0.9999999999999999,-55.87958094527353
9.488,1.0,-56.45242393332197
9.496,0.9999999999999999,-57.024340308393974
9.504,0.9999999999999998,-57.595325255041814
9.512,0.9999999999999999,-58.16537408964157
9.52,0.9999999999999999,-58.73448226003161
9.528,1.0,-59.30264534512279
9.536,1.0,-59.8698590544767
9.544,1.0,-60.436119227856544
9.552,1.0,-61.0014218347478
9.56,1.0,-61.56576297385281
9.568,0.9999999999999998,-62.129138872555956
9.576,0.9999999999999998,-62.69154588636461
9.584,1.0,-63.25298049832199
9.592,1.0,-63.81343931839683
9.6,1.0,-64.37291908284651
9.608,1.0,-64.93141665355832
9.616,0.9999999999999999,-65.48892901736544
9.624,1.0,-66.04545328534255
9.632,1.0,-66.60098669207741
9.64,0.9999999999999999,-67.15552659492339
9.648,1.0,-67.70907047322939
9.656,1.0,-68.2616159275519
9.664,1.0,-68.81316067884615
9.672,1.0,-69.36370256764023
9.68,1.0,-69.91323955318988
9.688,0.9999999999999998,-70.46176971261772
9.696,1.0,-71.00929124003416
9.704,1.0,-71.5558024456442
9.712,0.9999999999999999,-72.10130175483721
9.72,0.9999999999999999,-72.64578770726385
9.728,1.0,-73.18925895589719
9.736,0.9999999999999999,-73.73171426608236
9.744,0.9999999999999999,-74.27315251457146
9.752,0.9999999999999999,-74.81357268854845
9.76,0.9999999999999999,-75.35297388464038
9.768,1.0,-75.89135530791977
9.776,1.0,-76.42871627089465
9.784,0.9999999999999999,-76.9650561924909
9.792,0.9999999999999999,-77.50037459702337
9.8,1.0,-78.0346711131603
9.808,1.0,-78.56794547287802
9.816,1.0,-79.10019751040987
9.824,0.9999999999999999,-79.63142716118631
9.832,1.0,-80.1616344607706
9.84,1.0,-80.69081954378663
9.847999999999999,0.9999999999999999,-81.21898264284334
