freq,mag,phase
6.0,0.9999972534108104,-148.26914641599058
6.008,0.9999972735274703,-148.57312994103376
6.016,0.9999972931039405,-148.8766235881125
6.024,0.9999973121616134,-149.17963235995015
6.032,0.9999973307213654,-149.48216124512254
6.04,0.999997348803562,-149.7842152181265
6.048,0.9999973664280692,-150.08579923945044
6.056,0.9999973836142604,-150.38691825564752
6.064,0.9999974003810234,-150.68757719941098
6.072,0.9999974167467702,-150.9877809896516
6.08,0.9999974327294454,-151.28753453157722
6.088,0.9999974483465301,-151.58684271677436
6.096,0.9999974636150548,-151.88571042329198
6.104,0.9999974785516038,-152.18414251572722
6.112,0.9999974931723224,-152.48214384531266
6.12,0.9999975074929262,-152.77971925000597
6.128,0.9999975215287078,-153.07687355458106
6.136,0.9999975352945419,-153.3736115707211
6.144,0.9999975488048961,-153.66993809711335
6.152,0.9999975620738347,-153.96585791954544
6.16,0.9999975751150271,-154.26137581100355
6.168,0.9999975879417535,-154.55649653177198
6.176,0.9999976005669146,-154.85122482953452
6.184,0.9999976130030331,-155.1455654394771
6.192,0.9999976252622649,-155.43952308439196
6.2,0.9999976373564032,-155.73310247478346
6.208,0.9999976492968858,-156.02630830897496
6.216,0.9999976610948004,-156.3191452732174
6.224,0.9999976727608904,-156.611618041799
6.232,0.9999976843055631,-156.90373127715623
6.24,0.999997695738895,-157.19548962998618
6.248,0.9999977070706348,-157.4868977393602
6.256,0.9999977183102137,-157.7779602328383
6.264,0.9999977294667474,-158.06868172658528
6.272,0.999997740549044,-158.3590668254878
6.28,0.9999977515656093,-158.64912012327213
6.288,0.9999977625246506,-158.93884620262364
6.296,0.999997773434085,-159.22824963530684
6.304,0.999997784301541,-159.51733498228668
6.312,0.9999977951343669,-159.80610679385055
6.32,0.9999978059396353,-160.09456960973168
6.328,0.9999978167241474,-160.38272795923297
6.336,0.999997827494438,-160.67058636135212
6.344,0.9999978382567813,-160.95814932490728
6.352,0.9999978490171952,-161.245421348664
6.36,0.999997859781446,-161.5324069214624
6.368,0.9999978705550534,-161.81911052234588
6.376,0.9999978813432958,-162.10553662068983
6.384,0.9999978921512126,-162.3916896763317
6.392,0.999997902983613,-162.67757413970153
6.4,0.9999979138450745,-162.96319445195326
6.408,0.9999979247399531,-163.24855504509657
6.416,0.9999979356723837,-163.53366034212974
6.424,0.9999979466462865,-163.81851475717292
6.432,0.9999979576653703,-164.10312269560188
6.44,0.9999979687331367,-164.3874885541828
6.448,0.9999979798528839,-164.67161672120722
6.456,0.9999979910277118,-164.95551157662794
6.464,0.9999980022605244,-165.23917749219515
6.472,0.9999980135540347,-165.52261883159335
6.48,0.9999980249107691,-165.8058399505787
6.4879999999999995,0.999998036333069,-166.0888451971167
6.496,0.999998047823097,-166.37163891152105
6.504,0.999998059382839,-166.6542254265916
6.5120000000000005,0.9999980710141085,-166.93660906775472
6.52,0.9999980827185495,-167.21879415320208
6.5280000000000005,0.9999980944976403,-167.50078499403156
6.536,0.9999981063526977,-167.7825858943873
6.5440000000000005,0.9999981182848792,-168.06420115160125
6.552,0.9999981302951868,-168.345635056334
6.5600000000000005,0.9999981423844704,-168.6268918927171
6.568,0.999998154553431,-168.9079759384948
6.5760000000000005,0.9999981668026239,-169.18889146516685
6.584,0.9999981791324615,-169.4696427381312
6.592,0.9999981915432165,-169.75023401682733
6.6,0.9999982040350256,-170.03066955487967
6.608,0.9999982166078915,-170.31095360024148
6.616,0.9999982292616862,-170.5910903953389
6.624,0.9999982419961546,-170.87108417721555
6.632,0.9999982548109163,-171.1509391776771
6.64,0.9999982677054688,-171.43065962343627
6.648,0.9999982806791903,-171.71024973625813
6.656,0.9999982937313426,-171.98971373310556
6.664,0.9999983068610733,-172.26905582628504
6.672,0.9999983200674192,-172.54828022359254
6.68,0.9999983333493074,-172.8273911284598
6.688,0.9999983467055608,-173.1063927401007
6.696,0.9999983601348965,-173.38528925365796
6.704,0.9999983736359318,-173.66408486035
6.712,0.999998387207185,-173.9427837476178
6.72,0.9999984008470778,-174.22139009927233
6.728,0.9999984145539385,-174.49990809564173
6.736,0.9999984283260034,-174.7783419137192
6.744,0.9999984421614194,-175.05669572731043
6.752,0.9999984560582466,-175.3349737071816
6.76,0.9999984700144593,-175.61318002120748
6.768,0.9999984840279511,-175.89131883451958
6.776,0.9999984980965334,-176.16939430965445
6.784,0.9999985122179389,-176.44741060670228
6.792,0.9999985263898253,-176.7253718834553
6.8,0.9999985406097756,-177.0032822955566
6.808,0.9999985548752993,-177.28114599664903
6.816,0.9999985691838373,-177.55896713852397
6.824,0.9999985835327612,-177.83674987127046
6.832,0.9999985979193762,-178.1144983434243
6.84,0.9999986123409229,-178.39221670211742
6.848,0.9999986267945807,-178.66990909322692
6.856,0.9999986412774654,-178.94757966152468
6.864,0.9999986557866356,-179.22523255082683
6.872,0.999998670319093,-179.50287190414312
6.88,0.9999986848717827,-179.78050186382666
6.888,0.9999986994415961,179.94187342827647
6.896,0.9999987140253737,179.66424983067742
6.904,0.9999987286199042,179.38662320209494
6.912,0.9999987432219278,179.10898940130545
6.92,0.9999987578281382,178.83134428699321
6.928,0.9999987724351828,178.55368371760068
6.936,0.999998787039666,178.27600355117812
6.944,0.9999988016381482,177.9982996452341
6.952,0.9999988162271507,177.72056785658532
6.96,0.9999988308031542,177.44280404120673
6.968,0.9999988453626018,177.1650040540815
6.976,0.9999988599018999,176.88716374905104
6.984,0.9999988744174201,176.6092789786651
6.992,0.9999988889055007,176.33134559403172
7.0,0.9999989033624465,176.0533594446672
7.008,0.999998917784533,175.77531637834642
7.016,0.9999989321680048,175.4972122409526
7.024,0.9999989465090788,175.21904287632753
7.032,0.9999989608039459,174.94080412612186
7.04,0.9999989750487708,174.6624918296451
7.048,0.9999989892396925,174.38410182371572
7.056,0.9999990033728279,174.10562994251183
7.064,0.9999990174442738,173.82707201742102
7.072,0.9999990314501036,173.54842387689115
7.08,0.9999990453863725,173.26968134628058
7.088,0.999999059249118,172.9908402477087
7.096,0.9999990730343594,172.71189639990664
7.104,0.9999990867381001,172.4328456180678
7.112,0.9999991003563302,172.1536837136989
7.12,0.9999991138850245,171.8744064944705
7.128,0.9999991273201452,171.59500976406827
7.136,0.9999991406576443,171.31548932204393
7.144,0.9999991538934628,171.03584096366657
7.152,0.999999167023531,170.75606047977382
7.16,0.9999991800437731,170.47614365662355
7.168,0.9999991929501042,170.19608627574524
7.176,0.9999992057384332,169.9158841137919
7.184,0.9999992184046648,169.63553294239188
7.192,0.9999992309446993,169.3550285280011
7.2,0.9999992433544328,169.07436663175505
7.208,0.9999992556297587,168.79354300932147
7.216,0.9999992677665707,168.51255341075273
7.224,0.9999992797607602,168.23139358033885
7.232,0.99999929160822,167.95005925646038
7.24,0.9999993033048438,167.66854617144173
7.248,0.9999993148465278,167.3868500514044
7.256,0.9999993262291722,167.1049666161211
7.264,0.9999993374486786,166.82289157886925
7.272,0.9999993485009567,166.54062064628533
7.28,0.9999993593819198,166.2581495182196
7.288,0.9999993700874888,165.9754738875904
7.296,0.9999993806135915,165.69258944023937
7.304,0.9999993909561639,165.4094918547869
7.312,0.9999994011111515,165.12617680248752
7.32,0.9999994110745098,164.8426399470861
7.328,0.9999994208422046,164.55887694467395
7.336,0.9999994304102143,164.2748834435456
7.344,0.9999994397745273,163.99065508405576
7.352,0.9999994489311469,163.70618749847662
7.36,0.9999994578760903,163.42147631085572
7.368,0.9999994666053891,163.13651713687423
7.376,0.9999994751150891,162.85130558370525
7.384,0.9999994834012544,162.56583724987317
7.392,0.9999994914599638,162.2801077251128
7.4,0.9999994992873158,161.99411259022966
7.4079999999999995,0.9999995068794246,161.70784741696022
7.416,0.9999995142324264,161.4213077678327
7.4239999999999995,0.9999995213424749,161.13448919602894
7.432,0.9999995282057461,160.84738724524573
7.4399999999999995,0.999999534818436,160.55999744955804
7.448,0.9999995411767616,160.27231533328148
7.4559999999999995,0.999999547276966,159.98433641083653
7.464,0.9999995531153124,159.69605618661228
7.4719999999999995,0.9999995586880885,159.4074701548319
7.48,0.9999995639916077,159.1185737994176
7.4879999999999995,0.9999995690222075,158.82936259385752
7.496,0.9999995737762543,158.53983200107223
7.504,0.9999995782501366,158.24997747328248
7.5120000000000005,0.9999995824402741,157.95979445187749
7.52,0.9999995863431124,157.6692783672844
7.5280000000000005,0.9999995899551276,157.37842463883769
7.536,0.9999995932728237,157.0872286746505
7.5440000000000005,0.999999596292735,156.7956858714857
7.552,0.9999995990114277,156.50379161462868
7.5600000000000005,0.9999996014254968,156.21154127776026
7.568,0.9999996035315707,155.91893022283142
7.5760000000000005,0.9999996053263126,155.62595379993812
7.584,0.9999996068064146,155.33260734719752
7.5920000000000005,0.9999996079686055,155.03888619062508
7.6,0.9999996088096487,154.744785644013
7.6080000000000005,0.9999996093263416,154.4503010088089
7.616,0.9999996095155181,154.1554275739969
7.6240000000000006,0.9999996093740481,153.86016061597815
7.632,0.9999996088988388,153.56449539845434
7.640000000000001,0.9999996080868355,153.26842717231082
7.648,0.9999996069350217,152.97195117550208
7.656000000000001,0.9999996054404187,152.67506263293745
7.664,0.9999996036000892,152.37775675636956
7.672,0.9999996014111355,152.08002874428217
7.68,0.9999995988706999,151.78187378178134
7.688,0.9999995959759671,151.48328704048663
7.696,0.999999592724164,151.18426367842446
7.704,0.9999995891125595,150.88479883992247
7.712,0.9999995851384668,150.584887655506
7.72,0.9999995807992423,150.28452524179562
7.728,0.9999995760922876,149.98370670140648
7.736,0.9999995710150494,149.68242712284936
7.744,0.999999565565021,149.3806815804334
7.752,0.9999995597397404,149.07846513417041
7.76,0.9999995535367947,148.77577282968147
7.768,0.9999995469538188,148.47259969810466
7.776,0.9999995399884943,148.16894075600527
7.784,0.9999995326385539,147.86479100528777
7.792,0.9999995249017786,147.56014543310962
7.8,0.9999995167760015,147.25499901179757
7.808,0.9999995082591048,146.94934669876537
7.816,0.999999499349024,146.64318343643444
7.824,0.9999994900437461,146.3365041521561
7.832,0.9999994803413113,146.02930375813642
7.84,0.9999994702398137,145.72157715136345
7.848,0.9999994597374016,145.41331921353648
7.856,0.9999994488322784,145.10452481099816
7.864,0.9999994375227031,144.79518879466895
7.872,0.9999994258069913,144.48530599998412
7.88,0.9999994136835153,144.17487124683353
7.888,0.999999401150705,143.8638793395038
7.896,0.9999993882070491,143.5523250666239
7.904,0.9999993748510957,143.24020320111273
7.912,0.9999993610814517,142.92750850013047
7.92,0.9999993468967846,142.61423570503226
7.928,0.9999993322958239,142.30037954132519
7.936,0.9999993172773605,141.9859347186287
7.944,0.9999993018402475,141.67089593063767
7.952,0.9999992859834017,141.35525785508915
7.96,0.9999992697058037,141.0390151537324
7.968,0.9999992530064988,140.72216247230244
7.976,0.999999235884598,140.40469444049677
7.984,0.9999992183392779,140.08660567195628
7.992,0.9999992003697823,139.76789076424942
8.0,0.9999991819754227,139.44854429886033
8.008,0.9999991631555786,139.1285608411809
8.016,0.999999143909699,138.8079349405064
8.024000000000001,0.9999991242373028,138.48666113003605
8.032,0.9999991041379785,138.16473392687675
8.04,0.9999990836113875,137.8421478320515
8.048,0.999999062657262,137.5188973305122
8.056000000000001,0.9999990412754078,137.19497689115715
8.064,0.9999990194657041,136.87038096685234
8.072,0.9999989972281044,136.545103994458
8.08,0.9999989745626381,136.21914039485978
8.088000000000001,0.9999989514694095,135.89248457300465
8.096,0.999998927948601,135.56513091794216
8.104,0.9999989040004714,135.23707380286976
8.112,0.999998879625359,134.90830758518467
8.120000000000001,0.9999988548236802,134.57882660654013
8.128,0.9999988295959322,134.24862519290744
8.136,0.9999988039426929,133.91769765464298
8.144,0.9999987778646221,133.58603828656175
8.152000000000001,0.9999987513624617,133.253641368016
8.16,0.9999987244370369,132.92050116298014
8.168,0.9999986970892576,132.58661192014128
8.176,0.9999986693201184,132.25196787299603
8.184000000000001,0.9999986411306991,131.9165632399542
8.192,0.9999986125221686,131.58039222444788
8.2,0.9999985834957806,131.2434490150476
8.208,0.9999985540528787,130.90572778558513
8.216000000000001,0.9999985241948958,130.56722269528325
8.224,0.9999984939233547,130.22792788889217
8.232,0.9999984632398701,129.88783749683284
8.24,0.999998432146147,129.5469456353481
8.248000000000001,0.9999984006439849,129.20524640666082
8.256,0.999998368735277,128.86273389913976
8.264,0.9999983364220102,128.51940218747245
8.272,0.9999983037062679,128.17524533284688
8.280000000000001,0.9999982705902289,127.83025738314059
8.288,0.9999982370761706,127.48443237311803
8.296,0.9999982031664686,127.13776432463577
8.304,0.9999981688635969,126.79024724685694
8.312,0.9999981341701303,126.44187513647384
8.32,0.9999980990887444,126.0926419779391
8.328,0.9999980636222173,125.7425417437064
8.336,0.9999980277734297,125.39156839447945
8.344,0.9999979915453665,125.03971587947129
8.352,0.9999979549411167,124.68697813667184
8.36,0.9999979179638754,124.33334909312624
8.368,0.9999978806169454,123.97882266522198
8.376,0.9999978429037356,123.62339275898691
8.384,0.9999978048277651,123.26705327039637
8.392,0.9999977663926614,122.90979808569188
8.4,0.9999977276021623,122.55162108170902
8.408,0.9999976884601185,122.19251612621734
8.416,0.9999976489704921,121.83247707826985
8.424,0.9999976091373582,121.47149778856483
8.432,0.9999975689649078,121.10957209981778
8.44,0.9999975284574449,120.74669384714585
8.448,0.9999974876193919,120.38285685846299
8.456,0.9999974464552871,120.01805495488779
8.464,0.9999974049697873,119.65228195116254
8.472,0.9999973631676686,119.28553165608545
8.48,0.9999973210538265,118.91779787295435
8.488,0.9999972786332784,118.549074400024
8.496,0.9999972359111623,118.17935503097516
8.504,0.9999971928927401,117.80863355539809
8.512,0.9999971495833972,117.4369037592877
8.52,0.9999971059886436,117.06415942555387
8.528,0.9999970621141149,116.6903943345437
8.536,0.999997017965573,116.31560226457938
8.544,0.9999969735489077,115.93977699250857
8.552,0.999996928870137,115.56291229427046
8.56,0.9999968839354079,115.18500194547505
8.568,0.9999968387509972,114.80603972199857
8.576,0.9999967933233136,114.42601940059228
8.584,0.9999967476588968,114.04493475950798
8.592,0.9999967017644203,113.66277957913746
8.6,0.9999966556466896,113.27954764266896
8.608,0.9999966093126452,112.89523273675779
8.616,0.9999965627693641,112.50982865221486
8.624,0.9999965160240568,112.12332918470945
8.632,0.9999964690840735,111.73572813549023
8.64,0.9999964219568996,111.34701931212142
8.648,0.99999637465016,110.95719652923715
8.656,0.9999963271716188,110.56625360931156
8.664,0.9999962795291792,110.17418438344758
8.672,0.9999962317308859,109.78098269218182
8.68,0.9999961837849242,109.3866423863085
8.688,0.9999961356996214,108.99115732772003
8.696,0.9999960874834476,108.594521390267
8.704,0.999996039145016,108.1967284606351
8.712,0.9999959906930841,107.79777243924207
8.72,0.9999959421365527,107.3976472411518
8.728,0.999995893484469,106.99634679700904
8.736,0.9999958447460244,106.59386505399156
8.744,0.9999957959305577,106.1901959767831
8.752,0.9999957470475527,105.7853335485646
8.76,0.9999956981066414,105.37927177202624
8.768,0.9999956491176023,104.97200467039828
8.776,0.9999956000903628,104.563526288503
8.784,0.999995551034997,104.15383069382582
8.792,0.999995501961729,103.74291197760805
8.8,0.9999954528809302,103.33076425595868
8.808,0.9999954038031219,102.9173816709887
8.815999999999999,0.9999953547389747,102.5027583919646
8.824,0.999995305699308,102.08688861648399
8.832,0.999995256695091,101.66976657167233
8.84,0.999995207737443,101.25138651540053
8.847999999999999,0.9999951588376318,100.83174273752418
8.856,0.9999951100070763,100.41082956114451
8.864,0.9999950612573439,99.98864134389137
8.872,0.9999950126001521,99.56517247922734
8.879999999999999,0.999994964047368,99.14041739777403
8.888,0.9999949156110072,98.71437056866068
8.896,0.9999948673032347,98.28702650089484
8.904,0.9999948191363642,97.858379744755
8.911999999999999,0.9999947711228584,97.42842489320542
8.92,0.999994723275326,96.99715658333372
8.928,0.9999946756065254,96.56456949781072
8.936,0.9999946281293605,96.13065836637259
8.943999999999999,0.9999945808568814,95.69541796732524
8.952,0.9999945338022856,95.25884312907172
8.96,0.9999944869789135,94.82092873166201
8.968,0.9999944404002508,94.38166970836504
8.975999999999999,0.9999943940799262,93.94106104726309
8.984,0.9999943480317112,93.4990977928691
8.992,0.9999943022695181,93.05577504776632
9.0,0.9999942568074003,92.61108797427008
9.008,0.9999942116595494,92.16503179611163
9.016,0.9999941668402955,91.71760180014478
9.024000000000001,0.9999941223641061,91.26879333807454
9.032,0.9999940782455824,90.81860182820746
9.04,0.999994034499461,90.36702275722368
9.048,0.9999939911406096,89.9140516819713
9.056000000000001,0.9999939481840271,89.45968423128217
9.064,0.9999939056448413,89.00391610780873
9.072,0.9999938635383064,88.54674308988199
9.08,0.9999938218798036,88.08816103339097
9.088000000000001,0.9999937806848349,87.62816587368275
9.096,0.9999937399690247,87.16675362748273
9.104,0.9999936997481169,86.70392039483498
9.112,0.9999936600379704,86.23966236106301
9.120000000000001,0.9999936208545599,85.77397579875009
9.128,0.999993582213971,85.30685706973846
9.136,0.9999935441323984,84.83830262714737
9.144,0.9999935066261431,84.36830901741021
9.152000000000001,0.9999934697116104,83.89687288232957
9.16,0.9999934334053061,83.42399096114981
9.168,0.9999933977238336,82.94966009264668
9.176,0.9999933626838906,82.47387721723425
9.184000000000001,0.9999933283022662,81.99663937908815
9.192,0.999993294595838,81.51794372828408
9.2,0.9999932615815675,81.0377875229515
9.208,0.9999932292764971,80.55616813144258
9.216000000000001,0.9999931976977466,80.07308303451491
9.224,0.9999931668625095,79.58852982752748
9.232,0.9999931367880477,79.1025062226492
9.24,0.999993107491689,78.61501005108012
9.248000000000001,0.9999930789908226,78.12603926528386
9.256,0.9999930513028936,77.63559194123042
9.264,0.9999930244454007,77.14366628064867
9.272,0.9999929984358894,76.6502606132886
9.280000000000001,0.9999929732919483,76.15537339919162
9.288,0.999992949031205,75.65900323096794
9.296,0.9999929256713197,75.16114883608054
9.304,0.9999929032299811,74.66180907913511
9.312000000000001,0.9999928817249013,74.16098296417469
9.32,0.9999928611738094,73.65866963697763
9.328,0.9999928415944471,73.15486838735833
9.336,0.9999928230045626,72.64957865146995
9.344,0.9999928054219058,72.14280001410802
9.352,0.9999927888642203,71.63453221101241
9.36,0.99999277334924,71.1247751311695
9.368,0.9999927588946813,70.61352881910966
9.376,0.9999927455182375,70.10079347720281
9.384,0.9999927332375723,69.58656946794693
9.392,0.9999927220703132,69.07085731625216
9.4,0.9999927120340455,68.5536577117154
9.408,0.9999927031463044,68.03497151088773
9.416,0.9999926954245698,67.51479973953002
9.424,0.9999926888862575,66.99314359485845
9.432,0.9999926835487132,66.4700044477755
9.44,0.999992679429206,65.94538384508817
9.448,0.9999926765449185,65.4192835117087
9.456,0.9999926749129425,64.89170535283968
9.464,0.9999926745502695,64.36265145613866
9.472,0.9999926754737836,63.83212409386419
9.48,0.9999926777002528,63.30012572499821
9.488,0.9999926812463233,62.766658997346845
9.496,0.9999926861285098,62.23172674961431
9.504,0.9999926923631871,61.6953320134521
9.512,0.9999926999665841,61.15747801547791
9.52,0.999992708954773,60.61816817926671
9.528,0.999992719343662,60.077406127308066
9.536,0.9999927311489876,59.53519568293225
9.544,0.9999927443863059,58.991540872199224
9.552,0.9999927590709824,58.446445925753075
9.56,0.9999927752181851,57.89991528063561
