freq,mag,phase
6.0,0.9999975951253025,-162.42494552613917
6.008,0.9999951222427232,-162.79884838194104
6.016,0.9999927291649727,-163.1725525915954
6.024,0.9999904144122299,-163.54606192530733
6.032,0.9999881765228034,-163.91938015735548
6.04,0.9999860140529895,-164.29251106600591
6.048,0.999983925576935,-164.66545843342772
6.056,0.9999819096864965,-165.03822604561014
6.064,0.9999799649910999,-165.4108176922822
6.072,0.9999780901176035,-165.78323716683326
6.08,0.9999762837101563,-166.15548826623612
6.088,0.9999745444300597,-166.52757479097122
6.096,0.9999728709556271,-166.89950054495304
6.104,0.9999712619820484,-167.27126933545756
6.112,0.9999697162212472,-167.64288497305216
6.12,0.999968232401743,-168.01435127152627
6.128,0.9999668092685183,-168.38567204782416
6.136,0.9999654455828705,-168.7568511219791
6.144,0.9999641401222842,-169.12789231704895
6.152,0.9999628916802885,-169.49879945905334
6.16,0.9999616990663214,-169.86957637691233
6.168,0.9999605611055936,-170.24022690238633
6.176,0.9999594766389486,-170.61075487001753
6.184,0.9999584445227335,-170.98116411707267
6.192,0.9999574636286583,-171.3514584834873
6.2,0.9999565328436615,-171.72164181181088
6.208,0.9999556510697776,-172.09171794715382
6.216,0.9999548172240017,-172.46169073713511
6.224,0.9999540302381554,-172.8315640318318
6.232,0.9999532890587555,-173.20134168372886
6.24,0.9999525926468779,-173.5710275476712
6.248,0.9999519399780329,-173.94062548081595
6.256,0.9999513300420216,-174.3101393425863
6.264,0.9999507618428175,-174.67957299462643
6.272,0.9999502343984283,-175.048930300757
6.28,0.9999497467407684,-175.41821512693244
6.288,0.9999492979155307,-175.78743134119847
6.296,0.9999488869820552,-176.15658281365114
6.304,0.9999485130132063,-176.52567341639627
6.312,0.999948175095237,-176.89470702351042
6.32,0.9999478723276708,-177.26368751100222
6.328,0.9999476038231709,-177.63261875677475
6.336,0.9999473687074156,-178.0015046405885
6.344,0.9999471661189723,-178.37034904402577
6.352,0.9999469952091785,-178.73915585045506
6.36,0.9999468551420119,-179.10792894499647
6.368,0.9999467450939686,-179.47667221448808
6.376,0.9999466642539506,-179.84538954745258
6.384,0.9999466118231279,179.7859151659352
6.392,0.999946587014833,179.4172380338802
6.4,0.999946589054433,179.04857516299853
6.408,0.9999466171792111,178.6799226583481
6.416,0.9999466706382508,178.3112766234588
6.424,0.9999467486923184,177.94263316036262
6.432,0.9999468506137403,177.57398836962247
6.44,0.9999469756862959,177.2053383503613
6.448,0.9999471232050923,176.83667920028992
6.456,0.9999472924764571,176.46800701573582
6.464,0.9999474828178208,176.0993178916701
6.472,0.9999476935576055,175.73060792173496
6.48,0.9999479240351103,175.36187319827076
6.4879999999999995,0.9999481736004002,174.9931098123427
6.496,0.9999484416141976,174.62431385376698
6.504,0.9999487274477663,174.25548141113737
6.5120000000000005,0.9999490304828105,173.8866085718509
6.52,0.9999493501113583,173.51769142213405
6.5280000000000005,0.9999496857356589,173.14872604706787
6.536,0.9999500367680694,172.77970853061422
6.5440000000000005,0.9999504026309588,172.41063495564066
6.552,0.9999507827565911,172.0415014039464
6.5600000000000005,0.9999511765870283,171.67230395628718
6.568,0.9999515835740224,171.3030386924012
6.5760000000000005,0.9999520031789139,170.93370169103395
6.584,0.9999524348725277,170.56428902996416
6.592,0.9999528781350748,170.19479678602903
6.6,0.9999533324560453,169.82522103515007
6.608,0.9999537973341154,169.45555785235888
6.616,0.9999542722770428,169.08580331182296
6.624,0.9999547568015683,168.71595348687202
6.632,0.9999552504333218,168.34600445002417
6.64,0.9999557527067214,167.9759522730128
6.648,0.999956263164878,167.60579302681325
6.656,0.9999567813595002,167.23552278166994
6.664,0.9999573068507996,166.86513760712438
6.672,0.9999578392073953,166.4946335720425
6.68,0.9999583780062221,166.1240067446431
6.688,0.9999589228324378,165.75325319252693
6.696,0.9999594732793292,165.38236898270534
6.704,0.9999600289482257,165.01135018163023
6.712,0.9999605894484026,164.64019285522411
6.72,0.9999611543969971,164.26889306891078
6.728,0.9999617234189164,163.89744688764657
6.736,0.9999622961467491,163.52585037595207
6.744,0.9999628722206816,163.15409959794493
6.752,0.9999634512884062,162.7821906173726
6.76,0.9999640330050396,162.4101194976463
6.768,0.9999646170330344,162.03788230187544
6.776,0.9999652030420974,161.665475092903
6.784,0.9999657907091029,161.29289393334147
6.792,0.9999663797180115,160.92013488560963
6.8,0.9999669697597877,160.54719401197022
6.808,0.9999675605323174,160.1740673745684
6.816,0.9999681517403268,159.8007510354713
6.824,0.9999687430953041,159.4272410567081
6.832,0.9999693343154162,159.05353350031146
6.84,0.9999699251254333,158.67962442835966
6.848,0.999970515256648,158.30550990301995
6.856,0.9999711044468006,157.9311859865927
6.864,0.999971692439999,157.55664874155687
6.872,0.9999722789866444,157.1818942306164
6.88,0.9999728638433558,156.8069185167479
6.888,0.9999734467728938,156.43171766324926
6.896,0.9999740275440874,156.05628773378973
6.904,0.9999746059317604,155.680624792461
6.912,0.9999751817166568,155.30472490382968
6.92,0.9999757546853711,154.92858413299103
6.928,0.9999763246302744,154.55219854562398
6.936,0.9999768913494443,154.17556420804746
6.944,0.9999774546465936,153.79867718727826
6.952,0.9999780143310025,153.42153355109025
6.96,0.9999785702174459,153.04412936807486
6.968,0.9999791221261283,152.66646070770332
6.976,0.9999796698826138,152.28852364039022
6.984,0.999980213317759,151.91031423755874
6.992,0.9999807522676456,151.53182857170728
7.0,0.9999812865735157,151.15306271647802
7.008,0.9999818160817049,150.77401274672658
7.016,0.9999823406435775,150.39467473859403
7.024,0.9999828601154617,150.01504476958007
7.032,0.9999833743585855,149.63511891861813
7.04,0.9999838832390149,149.25489326615238
7.048,0.9999843866275885,148.87436389421634
7.056,0.9999848843998573,148.49352688651334
7.064,0.9999853764360213,148.11237832849903
7.072,0.9999858626208696,147.73091430746578
7.08,0.9999863428437187,147.34913091262862
7.088,0.9999868169983539,146.96702423521378
7.096,0.9999872849829673,146.58459036854873
7.104,0.9999877467000999,146.20182540815458
7.112,0.9999882020565833,145.81872545184032
7.12,0.9999886509634818,145.43528659979935
7.128,0.9999890933360328,145.05150495470804
7.136,0.9999895290935923,144.66737662182663
7.144,0.9999899581595759,144.28289770910203
7.152,0.9999903804614049,143.8980643272732
7.16,0.9999907959304484,143.51287258997877
7.168,0.9999912045019697,143.12731861386652
7.176,0.9999916061150704,142.7413985187061
7.184,0.9999920007126369,142.35510842750318
7.192,0.9999923882412868,141.96844446661666
7.2,0.9999927686513143,141.58140276587804
7.208,0.9999931418966383,141.19397945871356
7.216,0.9999935079347491,140.80617068226834
7.224,0.999993866726658,140.41797257753387
7.232,0.9999942182368431,140.02938128947721
7.24,0.9999945624331994,139.6403929671735
7.248,0.9999948992869893,139.25100376394096
7.256,0.9999952287727891,138.8612098374783
7.264,0.9999955508684416,138.47100735000527
7.272,0.9999958655550066,138.08039246840573
7.28,0.9999961728167094,137.6893613643738
7.288,0.9999964726408938,137.29791021456222
7.296,0.9999967650179732,136.90603520073452
7.304,0.9999970499413822,136.5137325099193
7.312,0.9999973274075299,136.12099833456784
7.32,0.9999975974157521,135.72782887271472
7.328,0.9999978599682637,135.33422032814119
7.336,0.9999981150701123,134.94016891054176
7.344,0.9999983627291325,134.5456708356941
7.352,0.9999986029559007,134.15072232563162
7.36,0.9999988357636876,133.75531960881935
7.368,0.9999990611684147,133.3594589203333
7.376,0.9999992791886078,132.9631365020428
7.384,0.999999489845354,132.56634860279578
7.392,0.9999996931622568,132.16909147860818
7.4,0.9999998891653924,131.77136139285577
7.4079999999999995,0.9999999999999999,131.37315461646998
7.416,0.9999999999999999,130.9744674281366
7.4239999999999995,0.9999999999999999,130.5752961144988
7.432,0.9999999999999999,130.1756369703621
7.4399999999999995,1.0,129.77548629890455
7.448,0.9999999999999998,129.37484041188895
7.4559999999999995,1.0,128.97369562987993
7.464,1.0,128.5720482824632
7.4719999999999995,0.9999999999999998,128.16989470846994
7.48,1.0,127.76723125620346
7.4879999999999995,0.9999999999999999,127.36405428367058
7.496,1.0,126.96036015881594
7.504,1.0,126.55614525976085
7.5120000000000005,0.9999999999999999,126.15140597504484
7.52,1.0000000000000002,125.7461387038723
7.5280000000000005,1.0,125.34033985636161
7.536,1.0,124.93400585379939
7.5440000000000005,1.0,124.52713312889753
7.552,0.9999999999999999,124.11971812605499
7.5600000000000005,0.9999999999999998,123.71175730162275
7.568,1.0,123.3032471241737
7.5760000000000005,1.0,122.89418407477521
7.584,1.0,122.48456464726728
7.5920000000000005,1.0,122.07438534854307
7.6,1.0,121.66364269883508
7.6080000000000005,1.0,121.25233323200383
7.616,1.0,120.84045349583235
7.6240000000000006,1.0,120.42800005232289
7.632,0.9999999999999999,120.01496947799981
7.640000000000001,1.0,119.60135836421465
7.648,1.0,119.18716331745713
7.656000000000001,1.0,118.77238095966885
7.664,1.0,118.3570079285626
7.672,1.0,117.94104087794452
7.68,0.9999999999999999,117.52447647804175
7.688,0.9999999999999999,117.10731141583351
7.696,1.0,116.68954239538681
7.704,1.0,116.27116613819639
7.712,0.9999999999999999,115.85217938352895
7.72,1.0,115.43257888877159
7.728,1.0,115.01236142978489
7.736,0.9999999999999999,114.59152380125983
7.744,0.9999999999999999,114.17006281707947
7.752,0.9999999999999999,113.74797531068482
7.76,1.0,113.3252581354449
7.768,1.0,112.90190816503144
7.776,1.0,112.47792229379768
7.784,1.0,112.0532974371616
7.792,1.0,111.6280305319936
7.8,1.0000000000000002,111.20211853700835
7.808,1.0,110.77555843316098
7.816,1.0000000000000002,110.34834722404793
7.824,0.9999999999999999,109.92048193631159
7.832,1.0,109.49195962004973
7.84,1.0,109.06277734922904
7.848,0.9999999999999999,108.63293222210282
7.856,1.0,108.20242136163333
7.864,0.9999999999999999,107.77124191591798
7.872,1.0,107.33939105862011
7.88,0.9999999999999999,106.90686598940378
7.888,1.0,106.47366393437285
7.896,1.0,106.0397821465143
7.904,0.9999999999999998,105.60521790614551
7.912,0.9999998836052169,105.16996852136597
7.92,0.9999997457765595,104.73403132851283
7.928,0.9999996058396399,104.29740369262062
7.936,0.9999994638986979,103.86008300788504
7.944,0.9999993200579718,103.42206669813075
7.952,0.9999991744216687,102.98335221728303
7.96,0.9999990270939331,102.54393704984352
7.968,0.9999988781788154,102.10381871136963
7.976,0.9999987277802413,101.66299474895807
7.984,0.9999985760019808,101.22146274173191
7.992,0.9999984229476185,100.77922030133155
8.0,0.9999982687205212,100.33626507240929
8.008,0.9999981134238094,99.89259473312764
8.016,0.9999979571603258,99.4482069956609
8.024000000000001,0.9999978000326055,99.00309960670094
8.032,0.999997642142846,98.55727034796577
8.04,0.9999974835928774,98.11071703671153
8.048,0.999997324484132,97.66343752624823
8.056000000000001,0.9999971649176153,97.21542970645874
8.064,0.9999970049938753,96.76669150432053
8.072,0.9999968448129753,96.31722088443067
8.08,0.9999966844744625,95.86701584953397
8.088000000000001,0.9999965240773394,95.41607444105442
8.096,0.9999963637200359,94.96439473962883
8.104,0.9999962035003785,94.51197486564342
8.112,0.9999960435155631,94.05881297977339
8.120000000000001,0.9999958838621265,93.60490728352511
8.128,0.9999957246359162,93.15025601978051
8.136,0.9999955659320652,92.69485747334375
8.144,0.999995407844961,92.23870997149065
8.152000000000001,0.9999952504682189,91.78181188452034
8.16,0.999995093894654,91.32416162630851
8.168,0.9999949382162548,90.86575765486278
8.176,0.9999947835241543,90.40659847288016
8.184000000000001,0.9999946299086029,89.94668262830643
8.192,0.9999944774589421,89.48600871489663
8.2,0.9999943262635772,89.02457537277706
8.208,0.999994176409951,88.56238128900911
8.216000000000001,0.9999940279845174,88.09942519815431
8.224,0.999993881072714,87.63570588284001
8.232,0.9999937357589374,87.17122217432622
8.24,0.9999935921265175,86.70597295307337
8.248000000000001,0.9999934502576909,86.23995714931115
8.256,0.9999933102335756,85.77317374360716
8.264,0.9999931721341475,85.30562176743607
8.272,0.999993036038213,84.83730030374944
8.280000000000001,0.9999929020233868,84.36820848754569
8.288,0.9999927701660652,83.89834550643923
8.296,0.9999926405414047,83.42771060122986
8.304,0.9999925132232954,82.95630306647172
8.312,0.9999923882843399,82.48412225104198
8.32,0.9999922657958276,82.0111675587077
8.328,0.999992145827713,81.53743844869327
8.336,0.9999920284485938,81.06293443624503
8.344,0.9999919137256871,80.58765509319639
8.352,0.9999918017248077,80.11160004852964
8.36,0.9999916925103464,79.63476898893778
8.368,0.9999915861452483,79.15716165938288
8.376,0.9999914826909927,78.67877786365393
8.384,0.999991382207571,78.1996174649208
8.392,0.999991284753467,77.71968038628737
8.4,0.9999911903856367,77.23896661134032
8.408,0.9999910991594884,76.75747618469661
8.416,0.9999910111288639,76.27520921254637
8.424,0.9999909263460188,75.79216586319383
8.432,0.9999908448616055,75.30834636759336
8.44,0.9999907667246521,74.82375101988315
8.448,0.9999906919825483,74.3383801779134
8.456,0.9999906206810253,73.8522342637718
8.464,0.9999905528641396,73.36531376430312
8.472,0.9999904885742584,72.87761923162545
8.48,0.9999904278520401,72.38915128364009
8.488,0.9999903707364222,71.89991060453802
8.496,0.9999903172646037,71.40989794529898
8.504,0.9999902674720327,70.91911412418689
8.512,0.9999902213923898,70.42756002723749
8.52,0.9999901790575761,69.93523660874169
8.528,0.9999901404977004,69.44214489172066
8.536,0.9999901057410648,68.94828596839623
8.544,0.9999900748141541,68.45366100065237
8.552,0.999990047741624,67.95827122049147
8.56,0.9999900245462897,67.46211793048148
8.568,0.9999900052491151,66.965202504197
8.576,0.9999899898692038,66.46752638665069
8.584,0.9999899784237885,65.96909109471841
8.592,0.9999899709282234,65.46989821755403
8.6,0.9999899673959757,64.96994941699731
8.608,0.9999899678386165,64.46924642797096
8.616,0.9999899722658164,63.96779105887032
8.624,0.9999899806853368,63.46558519194175
8.632,0.999989993103025,62.962630783652955
8.64,0.9999900095228095,62.45892986505152
8.648,0.9999900299466936,61.95448454211487
8.656,0.9999900543747539,61.44929699608787
8.664,0.9999900828051358,60.94336948381141
8.672,0.9999901152340502,60.43670433803799
8.68,0.9999901516557732,59.929303967737795
8.688,0.999990192062644,59.42117085839115
8.696,0.9999902364450634,58.912307572271146
8.704,0.9999902847914958,58.40271674871184
8.712,0.9999903370884682,57.89240110436625
8.72,0.9999903933205733,57.381363433449515
8.728,0.9999904534704704,56.86960660797099
8.736,0.9999905175188886,56.35713357795119
8.744,0.9999905854446314,55.84394737162722
8.752,0.9999906572245801,55.33005109564248
8.76,0.9999907328336983,54.815447935224135
8.768,0.9999908122450396,54.30014115434464
8.776,0.9999908954297528,53.7841340958704
8.784,0.9999909823570896,53.26743018169394
8.792,0.9999910729944126,52.75003291285288
8.8,0.9999911673072039,52.2319458696317
8.808,0.9999912652590754,51.71317271164997
8.815999999999999,0.9999913668117788,51.19371717793302
8.824,0.9999914719252162,50.6735830869679
8.832,0.9999915805574523,50.15277433674288
8.84,0.9999916926647282,49.631294904770236
8.847999999999999,0.9999918082014725,49.10914884809218
8.856,0.9999919271203179,48.5863403032706
8.864,0.9999920493721143,48.06287348635964
8.872,0.9999921749059457,47.53875269286048
8.879999999999999,0.9999923036691464,47.0139822976587
8.888,0.9999924356073179,46.48856675494449
8.896,0.999992570664348,45.96251059811491
8.904,0.9999927087824284,45.435818439657595
8.911999999999999,0.999992849902075,44.90849497101643
8.92,0.9999929939621486,44.38054496243897
8.928,0.9999931408998755,43.85197326280571
8.936,0.9999932906508691,43.322784799439745
8.943999999999999,0.9999934431491541,42.792984577897826
8.952,0.9999935983271879,42.26257768174274
8.96,0.9999937561158867,41.731569272296575
8.968,0.9999939164446491,41.19996458837421
8.975999999999999,0.9999940792413831,40.66776894599732
8.984,0.9999942444325302,40.13498773808945
8.992,0.9999944119430959,39.601626434151285
9.0,0.9999945816966745,39.067690579915855
9.008,0.99999475361548,38.533185796983716
9.016,0.9999949276203737,37.9981177824389
9.024000000000001,0.9999951036308954,37.46249230844468
9.032,0.9999952815652933,36.92631522181894
9.04,0.9999954613405563,36.38959244358927
9.048,0.9999956428724455,35.85232996852848
9.056000000000001,0.9999958260755264,35.31453386466992
9.064,0.9999960108632036,34.7762102728019
9.072,0.9999961971477539,34.237365405942114
9.08,0.9999963848403607,33.698005548792054
9.088000000000001,0.9999965738511509,33.15813705717119
9.096,0.9999967640892282,32.61776635743049
9.104,0.9999969554627121,32.076899945845604
9.112,0.9999971478787735,31.535544387990356
9.120000000000001,0.9999973412436721,30.99370631808997
9.128,0.999997535462796,30.45139243835382
9.136,0.9999977304406988,29.908609518287925
9.144,0.9999979260811398,29.365364393988088
9.152000000000001,0.999998122287123,28.82166396741302
9.16,0.9999983189609379,28.27751520563706
9.168,0.9999985160041999,27.732925140083452
9.176,0.9999987133178906,27.18790086573806
9.184000000000001,0.9999989108024012,26.64244954034394
9.192,0.9999991083575722,26.096578383575896
9.2,0.999999305882737,25.550294676195783
9.208,0.9999995032767648,25.003605759189316
9.216000000000001,0.9999997004381024,24.456519032883897
9.224,0.9999998972648182,23.909041956047265
9.232,1.0,23.3611820449676
9.24,1.0,22.8129468725157
9.248000000000001,1.0,22.26434406718913
9.256,1.0,21.715381312137836
9.264,0.9999999999999999,21.166066344172187
9.272,1.0,20.616406952753948
9.280000000000001,0.9999999999999999,20.066410978970094
9.288,0.9999999999999998,19.51608631448915
9.296,1.0,18.96544090050102
9.304,0.9999999999999998,18.41448272664058
9.312000000000001,1.0,17.863219829895517
9.32,1.0,17.311660293497678
9.328,1.0,16.75981224579891
9.336,0.9999999999999999,16.20768385913238
9.344,0.9999999999999998,15.655283348658942
9.352,1.0,15.102618971197952
9.36,1.0,14.549699024045703
9.368,0.9999999999999999,13.996531843778019
9.376,1.0,13.443125805041557
9.384,0.9999999999999999,12.889489319329817
9.392,1.0,12.335630833748679
9.4,1.0,11.781558829767526
9.408,0.9999999999999999,11.227281821960482
9.416,1.0,10.672808356734238
9.424,0.9999999999999999,10.11814701104667
9.432,1.0,9.56330639111293
9.44,1.0,9.00829513110322
9.448,1.0,8.453121891828768
9.456,1.0,7.897795359420523
9.464,0.9999999999999999,7.342324243996908
9.472,0.9999999999999999,6.786717278325051
9.48,1.0,6.2309832164721195
9.488,1.0,5.675130832451026
9.496,1.0,5.119168918857199
9.504,1.0,4.563106285500543
9.512,0.9999999999999999,4.006951758029579
9.52,0.9999999999999999,3.4507141765516547
9.528,0.9999999999999999,2.8944023942462227
9.536,0.9999999999999999,2.3380252759753586
9.544,1.0,1.7815916968881143
9.552,0.9999999999999999,1.2251105410232652
9.56,1.0,0.6685906999067855
9.568,1.0000000000000002,0.11204107114877085
9.576,0.9999999999999999,-0.4445294429639829
9.584,1.0,-1.001111936874851
9.592,0.9999999999999998,-1.557697503167662
9.6,0.9999999999999999,-2.1142772339753795
9.608,1.0,-2.670842222391207
9.616,0.9999999999999999,-3.227383563877111
9.624,1.0,-3.78389235767367
9.632,0.9999999999999999,-4.340359708206447
9.64,1.0,-4.896776726492541
9.648,1.0,-5.45313453154281
9.656,1.0,-6.009424251763153
9.664,1.0,-6.565637026350476
9.672,0.9999999999999999,-7.121764006686844
9.68,1.0,-7.677796357727132
9.688,1.0,-8.233725259384038
9.696,0.9999999999999999,-8.789541907905564
9.704,1.0,-9.345237517248789
9.712,1.0,-9.900803320445371
9.72,1.0,-10.45623057096214
9.728,0.9999999999999999,-11.011510544052639
9.736,0.9999999999999999,-11.56663453810275
9.744,1.0,-12.121593875966338
9.752,0.9999999999999999,-12.676379906294125
9.76,0.9999999999999998,-13.230984004851534
9.768,0.9999999999999999,-13.785397575829041
9.776,1.0,-14.339612053140504
9.784,0.9999999999999999,-14.893618901713179
