freq,mag,phase
6.0,0.9999960961278492,89.0322763409654
6.008,0.9999962964292225,88.90702499583739
6.016,0.9999964888363101,88.78175893559788
6.024,0.9999966734679089,88.65647816053443
6.032,0.9999968504420018,88.53118267094462
6.04,0.9999970198757563,88.40587246713613
6.048,0.9999971818855301,88.28054754942698
6.056,0.9999973365868703,88.1552079181457
6.064,0.9999974840945159,88.02985357363146
6.072,0.9999976245223997,87.90448451623423
6.08,0.9999977579836505,87.77910074631505
6.088,0.9999978845905939,87.65370226424605
6.096,0.9999980044547556,87.52828907041076
6.104,0.9999981176868618,87.40286116520417
6.112,0.9999982243968427,87.277418549033
6.12,0.9999983246938317,87.15196122231576
6.128,0.9999984186861711,87.02648918548299
6.136,0.9999985064814109,86.9010024389774
6.144,0.9999985881863108,86.77550098325405
6.152,0.999998663906845,86.64998481878055
6.16,0.9999987337482001,86.52445394603713
6.168,0.9999987978147805,86.39890836551689
6.176,0.9999988562102082,86.27334807772597
6.184,0.999998909037325,86.14777308318365
6.192,0.9999989563981959,86.02218338242257
6.2,0.9999989983941091,85.89657897598889
6.208,0.9999990351255793,85.77095986444243
6.216,0.9999990666923493,85.64532604835686
6.224,0.9999990931933913,85.51967752831987
6.232,0.9999991147269099,85.39401430493328
6.24,0.9999991313903438,85.26833637881329
6.248,0.9999991432803674,85.14264375059055
6.256,0.9999991504928931,85.01693642091041
6.264,0.9999991531230734,84.89121439043303
6.272,0.9999991512653026,84.76547765983358
6.28,0.9999991450132194,84.63972622980233
6.288,0.9999991344597082,84.51396010104492
6.296,0.9999991196969014,84.38817927428242
6.304,0.9999991008161819,84.26238375025154
6.312,0.9999990779081844,84.13657352970483
6.32,0.9999990510627983,84.01074861341078
6.328,0.9999990203691693,83.88490900215398
6.336,0.999998985915701,83.7590546967353
6.344,0.9999989477900579,83.6331856979721
6.352,0.999998906079167,83.50730200669827
6.36,0.9999988608692196,83.38140362376453
6.368,0.9999988122456747,83.25549055003846
6.376,0.9999987602932592,83.12956278640479
6.384,0.9999987050959712,83.00362033376543
6.392,0.9999986467370825,82.8776631930397
6.4,0.9999985852991393,82.75169136516449
6.408,0.9999985208639662,82.62570485109441
6.416,0.999998453512666,82.49970365180191
6.424,0.9999983833256245,82.37368776827749
6.432,0.9999983103825104,82.24765720152983
6.44,0.9999982347622787,82.12161195258598
6.448,0.9999981565431728,81.99555202249142
6.456,0.9999980758027257,81.86947741231036
6.464,0.9999979926177639,81.74338812312578
6.472,0.999997907064408,81.61728415603964
6.48,0.9999978192180755,81.491165512173
6.4879999999999995,0.9999977291534828,81.36503219266622
6.496,0.9999976369446479,81.23888419867907
6.504,0.9999975426648923,81.11272153139097
6.5120000000000005,0.9999974463868431,80.98654419200093
6.52,0.9999973481824354,80.86035218172805
6.5280000000000005,0.9999972481229141,80.73414550181126
6.536,0.9999971462788371,80.60792415350988
6.5440000000000005,0.9999970427200764,80.48168813810348
6.552,0.9999969375158212,80.35543745689215
6.5600000000000005,0.9999968307345798,80.22917211119662
6.568,0.9999967224441817,80.10289210235847
6.5760000000000005,0.99999661271178,79.97659743174017
6.584,0.9999965016038541,79.85028810072538
6.592,0.999996389186211,79.72396411071895
6.6,0.9999962755239886,79.59762546314715
6.608,0.9999961606816573,79.47127215945785
6.616,0.9999960447230232,79.3449042011206
6.624,0.9999959277112282,79.21852158962677
6.632,0.9999958097087557,79.09212432648982
6.64,0.9999956907774294,78.96571241324529
6.648,0.9999955709784184,78.83928585145105
6.656,0.9999954503722376,78.71284464268744
6.664,0.9999953290187512,78.58638878855737
6.672,0.9999952069771745,78.45991829068649
6.68,0.9999950843060761,78.33343315072337
6.688,0.9999949610633806,78.2069333703396
6.696,0.9999948373063711,78.08041895122996
6.704,0.9999947130916905,77.95388989511255
6.712,0.9999945884753456,77.827346203729
6.72,0.9999944635127073,77.70078787884444
6.728,0.9999943382585154,77.57421492224789
6.736,0.9999942127668782,77.44762733575222
6.744,0.9999940870912774,77.32102512119435
6.752,0.9999939612845694,77.19440828043543
6.76,0.9999938353989867,77.06777681536092
6.768,0.9999937094861426,76.94113072788078
6.776,0.9999935835970309,76.81447001992959
6.784,0.9999934577820309,76.68779469346666
6.792,0.9999933320909075,76.56110475047632
6.8,0.9999932065728153,76.43440019296781
6.808,0.9999930812763,76.30768102297567
6.816,0.9999929562493011,76.18094724255972
6.824,0.9999928315391549,76.05419885380529
6.832,0.9999927071925953,75.92743585882327
6.84,0.9999925832557582,75.80065825975034
6.848,0.9999924597741827,75.67386605874908
6.856,0.9999923367928141,75.54705925800809
6.864,0.9999922143560055,75.42023785974212
6.872,0.9999920925075212,75.29340186619226
6.88,0.9999919712905386,75.16655127962603
6.888,0.9999918507476506,75.03968610233753
6.896,0.9999917309208689,74.91280633664758
6.904,0.9999916118516248,74.78591198490386
6.912,0.9999914935807733,74.65900304948106
6.92,0.999991376148595,74.53207953278097
6.928,0.9999912595947977,74.40514143723266
6.936,0.9999911439585205,74.27818876529261
6.944,0.9999910292783348,74.1512215194448
6.952,0.999990915592247,74.02423970220093
6.96,0.9999908029377023,73.89724331610043
6.968,0.9999906913515854,73.77023236371075
6.976,0.9999905808702242,73.64320684762734
6.984,0.9999904715293915,73.51616677047392
6.992,0.9999903633643081,73.38911213490248
7.0,0.9999902564096455,73.2620429435935
7.008,0.9999901506995267,73.13495919925609
7.016,0.9999900462675309,73.00786090462802
7.024,0.9999899431466948,72.880748062476
7.032,0.9999898413695147,72.7536206755957
7.04,0.9999897409679513,72.62647874681188
7.048,0.9999896419734284,72.49932227897861
7.056,0.9999895444168392,72.37215127497929
7.064,0.9999894483285459,72.24496573772686
7.072,0.9999893537383846,72.11776567016388
7.08,0.9999892606756657,71.99055107526266
7.088,0.9999891691691783,71.86332195602549
7.096,0.9999890792471915,71.73607831548458
7.104,0.9999889909374566,71.60882015670234
7.112,0.9999889042672113,71.48154748277142
7.12,0.9999888192631804,71.35426029681496
7.128,0.9999887359515796,71.22695860198648
7.136,0.9999886543581178,71.09964240147029
7.144,0.9999885745079985,70.97231169848142
7.152,0.9999884964259242,70.8449664962658
7.16,0.9999884201360979,70.71760679810038
7.168,0.9999883456622246,70.59023260729329
7.176,0.9999882730275169,70.4628439271839
7.184,0.999988202254694,70.33544076114302
7.192,0.9999881333659862,70.20802311257293
7.2,0.9999880663831379,70.08059098490756
7.208,0.9999880013274088,69.95314438161265
7.216,0.9999879382195769,69.82568330618575
7.224,0.9999878770799414,69.6982077621565
7.232,0.9999878179283251,69.57071775308658
7.24,0.9999877607840774,69.44321328256999
7.248,0.999987705666075,69.31569435423305
7.256,0.9999876525927267,69.18816097173455
7.264,0.9999876015819755,69.06061313876594
7.272,0.9999875526513002,68.93305085905136
7.28,0.9999875058177187,68.8054741363478
7.288,0.9999874610977901,68.67788297444517
7.296,0.9999874185076177,68.55027737716651
7.304,0.999987378062852,68.42265734836802
7.312,0.9999873397786917,68.29502289193923
7.32,0.9999873036698882,68.16737401180303
7.328,0.9999872697507466,68.03971071191594
7.336,0.9999872380351296,67.91203299626811
7.344,0.9999872085364587,67.7843408688834
7.352,0.9999871812677176,67.65663433381961
7.36,0.999987156241455,67.5289133951685
7.368,0.9999871334697866,67.40117805705601
7.376,0.9999871129643981,67.27342832364225
7.384,0.9999870947365475,67.14566419912163
7.392,0.9999870787970673,67.01788568772308
7.4,0.9999870651563684,66.89009279371007
7.4079999999999995,0.9999870538244411,66.76228552138072
7.416,0.999987044810859,66.63446387506792
7.4239999999999995,0.9999870381247805,66.50662785913954
7.432,0.9999870337749522,66.37877747799831
7.4399999999999995,0.9999870317697113,66.25091273608224
7.448,0.9999870321169875,66.12303363786441
7.4559999999999995,0.9999870348243063,65.99514018785334
7.464,0.9999870398987917,65.86723239059287
7.4719999999999995,0.9999870473471684,65.73931025066256
7.48,0.9999870571757645,65.61137377267742
7.4879999999999995,0.9999870693905136,65.48342296128841
7.496,0.9999870839969585,65.35545782118218
7.504,0.999987101000253,65.22747835708155
7.5120000000000005,0.9999871204051641,65.09948457374522
7.52,0.9999871422160755,64.9714764759682
7.5280000000000005,0.99998716643699,64.84345406858175
7.536,0.9999871930715316,64.71541735645354
7.5440000000000005,0.9999872221229479,64.58736634448769
7.552,0.9999872535941139,64.459301037625
7.5600000000000005,0.9999872874875334,64.3312214408429
7.568,0.9999873238053422,64.20312755915567
7.5760000000000005,0.99998736254931,64.07501939761444
7.584,0.9999874037208438,63.94689696130748
7.5920000000000005,0.9999874473209905,63.81876025535999
7.6,0.9999874933504385,63.69060928493456
7.6080000000000005,0.9999875418095209,63.56244405523091
7.616,0.9999875926982182,63.434264571486395
7.6240000000000006,0.9999876460161607,63.306070838975636
7.632,0.999987701762632,63.17786286301108
7.640000000000001,0.9999877599365689,63.04964064894273
7.648,0.9999878205365669,62.92140420215852
7.656000000000001,0.9999878835608816,62.79315352808416
7.664,0.9999879490074314,62.6648886321835
7.672,0.9999880168737991,62.536609519958354
7.68,0.9999880871572364,62.40831619694883
7.688,0.9999881598546647,62.2800086687333
7.696,0.9999882349626786,62.15168694092853
7.704,0.9999883124775484,62.023351019189725
7.712,0.9999883923952221,61.89500090921073
7.72,0.9999884747113286,61.766636616724014
7.728,0.9999885594211799,61.638258147500835
7.736,0.999988646519774,61.509865507351314
7.744,0.9999887360017969,61.3814587021245
7.752,0.9999888278616259,61.253037737708496
7.76,0.999988922093331,61.124602620030544
7.768,0.9999890186906789,60.9961533550571
7.776,0.9999891176471347,60.86768994879398
7.784,0.9999892189558641,60.73921240728634
7.792,0.9999893226097368,60.61072073661889
7.8,0.9999894286013289,60.482214942915896
7.808,0.9999895369229246,60.35369503234131
7.816,0.9999896475665191,60.225161011098855
7.824,0.9999897605238229,60.09661288543213
7.832,0.9999898757862614,59.9680506616246
7.84,0.999989993344979,59.83947434599986
7.848,0.999990113190842,59.71088394492154
7.856,0.9999902353144395,59.582279464793515
7.864,0.9999903597060887,59.45366091205992
7.872,0.9999904863558343,59.32502829320528
7.88,0.9999906152534529,59.19638161475459
7.888,0.999990746388455,59.067720883273374
7.896,0.9999908797500878,58.93904610536779
7.904,0.9999910153273374,58.81035728768469
7.912,0.999991153108931,58.681654436911714
7.92,0.99999129308334,58.552937559777455
7.928,0.9999914352387826,58.42420666305135
7.936,0.9999915795632257,58.29546175354397
7.944,0.9999917260443875,58.16670283810696
7.952,0.9999918746697406,58.03792992363318
7.96,0.9999920254265136,57.90914301705676
7.968,0.9999921783016941,57.780342125353236
7.976,0.9999923332820313,57.65152725553956
7.984,0.9999924903540385,57.522698414674196
7.992,0.9999926495039945,57.393855609857205
8.0,0.9999928107179478,57.26499884823037
8.008,0.9999929739817178,57.13612813697719
8.016,0.999993139280898,57.007243483322995
8.024000000000001,0.999993306600857,56.878344894535026
8.032,0.9999934759267434,56.749432377922595
8.04,0.9999936472434869,56.62050594083694
8.048,0.9999938205357992,56.49156559067152
8.056000000000001,0.9999939957881796,56.36261133486197
8.064,0.9999941729849149,56.23364318088627
8.072,0.9999943521100837,56.10466113626471
8.08,0.9999945331475567,55.97566520856
8.088000000000001,0.9999947160810009,55.84665540537738
8.096,0.9999949008938819,55.717631734364744
8.104,0.9999950875694648,55.58859420321252
8.112,0.9999952760908187,55.45954281965386
8.120000000000001,0.9999954664408172,55.33047759146481
8.128,0.9999956586021425,55.20139852646425
8.136,0.999995852557286,55.07230563251395
8.144,0.999996048288552,54.943198917518664
8.152000000000001,0.9999962457780608,54.81407838942631
8.16,0.9999964450077485,54.684944056227906
8.168,0.9999966459593714,54.55579592595768
8.176,0.999996848614508,54.426634006693114
8.184000000000001,0.9999970529545614,54.29745830655504
8.192,0.999997258960761,54.16826883370782
8.2,0.9999974666141658,54.03906559635912
8.208,0.9999976758956658,53.90984860276022
8.216000000000001,0.9999978867859851,53.78061786120607
8.224,0.9999980992656846,53.65137338003524
8.232,0.9999983133151624,53.52211516763004
8.24,0.9999985289146583,53.39284323241656
8.248000000000001,0.9999987460442549,53.26355758286482
8.256,0.9999989646838808,53.13425822748877
8.264,0.9999991848133116,53.00494517484632
8.272,0.9999994064121737,52.87561843353938
8.280000000000001,0.9999996294599452,52.746278012214106
8.288,0.9999998539359594,52.61692391956076
8.296,0.9999999999999999,52.487556164313816
8.304,1.0,52.358174755252094
8.312,1.0,52.2287797011988
8.32,0.9999999999999999,52.099371011021454
8.328,1.0,51.96994869363219
8.336,1.0,51.840512757987554
8.344,1.0,51.71106321308877
8.352,1.0,51.581600067981675
8.36,1.0,51.45212333175684
8.368,1.0,51.32263301354951
8.376,0.9999999999999999,51.193129122539936
8.384,1.0,51.06361166795304
8.392,1.0,50.93408065905883
8.4,0.9999999999999999,50.80453610517216
8.408,0.9999999999999999,50.67497801565312
8.416,1.0,50.54540639990663
8.424,0.9999999999999999,50.41582126738303
8.432,0.9999999999999999,50.28622262757763
8.44,1.0,50.15661049003116
8.448,1.0,50.02698486432952
8.456,1.0,49.89734576010407
8.464,1.0,49.76769318703149
8.472,1.0,49.63802715483402
8.48,1.0,49.508347673279246
8.488,1.0,49.37865475218048
8.496,1.0,49.24894840139649
8.504,0.9999999999999999,49.11922863083182
8.512,1.0,48.98949545043659
8.52,1.0,48.859748870206786
8.528,1.0,48.72998890018406
8.536,0.9999999999999999,48.600215550456035
8.544,1.0,48.47042883115609
8.552,1.0,48.34062875246366
8.56,1.0,48.21081532460401
8.568,1.0,48.080988557848606
8.576,1.0,47.951148462514766
8.584,1.0,47.82129504896609
8.592,1.0,47.691428327612215
8.6,0.9999999999999999,47.56154830890907
8.608,1.0,47.431655003358685
8.616,1.0000000000000002,47.30174842150951
8.624,1.0,47.171828573956184
8.632,0.9999999999999999,47.04189547133978
8.64,1.0,46.91194912434771
8.648,0.9999999999999999,46.78198954371391
8.656,0.9999999999999999,46.652016740218684
8.664,1.0,46.522030724688946
8.672,1.0,46.39203150799803
8.68,1.0,46.26201910106602
8.688,1.0,46.13199351485948
8.696,0.9999999999999999,46.001954760391754
8.704,1.0,45.87190284872277
8.712,1.0,45.74183779095929
8.72,1.0,45.61175959825474
8.728,0.9999999999999999,45.48166828180946
8.736,1.0,45.35156385287052
8.744,1.0,45.22144632273196
8.752,1.0,45.09131570273457
8.76,0.9999999999999999,44.96117200426629
8.768,0.9999999999999999,44.83101523876179
8.776,1.0,44.70084541770294
8.784,1.0,44.570662552618465
8.792,0.9999999999999999,44.4404666550843
8.8,1.0,44.31025773672332
8.808,1.0000000000000002,44.180035809205656
8.815999999999999,0.9999999999999999,44.049800884248484
8.824,1.0,43.91955297361615
8.832,1.0,43.78929208912029
8.84,1.0,43.65901824261971
8.847999999999999,1.0,43.528731446020416
8.856,1.0,43.39843171127575
8.864,0.9999999999999999,43.268119050386375
8.872,1.0,43.13779347540029
8.879999999999999,1.0,43.007454998412726
8.888,1.0,42.87710363156645
8.896,1.0,42.74673938705152
8.904,1.0,42.61636227710549
8.911999999999999,1.0,42.4859723140133
8.92,1.0,42.35556951010733
8.928,1.0,42.22515387776752
8.936,1.0,42.094725429421324
8.943999999999999,1.0,41.96428417754363
8.952,0.9999999999999999,41.83383013465692
8.96,1.0,41.70336331333124
8.968,1.0,41.572883726184244
8.975999999999999,1.0,41.442391385881116
8.984,1.0,41.311886305134685
8.992,1.0,41.18136849670539
9.0,1.0,41.0508379734014
9.008,1.0,40.92029474807843
9.016,0.9999999999999999,40.78973883363989
9.024000000000001,1.0000000000000002,40.659170243036925
9.032,0.9999999999999999,40.528588989268364
9.04,1.0,40.3979950853807
9.048,0.9999999999999999,40.267388544468155
9.056000000000001,0.9999999999999999,40.136769379672735
9.064,1.0,40.00613760418415
9.072,1.0,39.87549323123988
9.08,1.0,39.74483627412506
9.088000000000001,1.0,39.61416674617271
9.096,1.0,39.48348466076366
9.104,1.0,39.35279003132636
9.112,1.0,39.22208287133709
9.120000000000001,0.9999999999999999,39.09136319432
9.128,0.9999999999999999,38.96063101384702
9.136,1.0,38.829886343537765
9.144,0.9999999999999999,38.699129197059705
9.152000000000001,0.9999999999999999,38.568359588128125
9.16,1.0,38.43757753050611
9.168,1.0,38.306783038004525
9.176,1.0,38.17597612448195
9.184000000000001,1.0,38.04515680384492
9.192,1.0,37.91432509004763
9.2,1.0,37.78348099709211
9.208,0.9999999999999998,37.65262453902812
9.216000000000001,0.9999999999999999,37.52175572995321
9.224,1.0,37.3908745840128
9.232,1.0,37.25998111539989
9.24,1.0,37.12907533835528
9.248000000000001,1.0,36.9981572671676
9.256,1.0,36.86722691617312
9.264,0.9999999999999999,36.736284299755795
9.272,0.9999999999999999,36.605329432347354
9.280000000000001,1.0,36.47436232842711
9.288,1.0,36.34338300252216
9.296,1.0,36.212391469207155
9.304,0.9999999999999999,36.08138774310437
9.312000000000001,0.9999999999999998,35.950371838883726
9.32,1.0,35.81934377126275
9.328,1.0,35.68830355500646
9.336,0.9999999999999999,35.55725120492742
9.344,0.9999999999999999,35.42618673588578
9.352,1.0,35.295110162789044
9.36,0.9999999999999998,35.16402150059231
9.368,0.9999999999999999,35.03292076429798
9.376,1.0,34.90180796895589
9.384,0.9999999999999999,34.77068312966321
9.392,0.9999999999999998,34.63954626156449
9.4,1.0,34.508397379851424
9.408,1.0,34.3772364997631
9.416,1.0,34.24606363658566
9.424,1.0,34.114878805652516
9.432,0.9999999999999999,33.983682022344034
9.44,0.9999999999999999,33.852473302087816
9.448,1.0,33.72125266035832
9.456,0.9999999999999999,33.59002011267704
9.464,1.0,33.45877567461227
9.472,1.0,33.327519361779274
9.48,0.9999999999999999,33.196251189839934
9.488,1.0,33.06497117450297
9.496,1.0,32.933679331523656
9.504,0.9999999999999999,32.80237567670392
9.512,1.0,32.67106022589207
9.52,1.0,32.53973299498297
9.528,1.0,32.40839399991773
9.536,1.0,32.27704325668378
9.544,1.0,32.14568078131468
9.552,1.0,32.014306589890154
9.56,0.9999999999999999,31.882920698535774
9.568,1.0,31.751523123423176
9.576,1.0,31.62011388076963
9.584,1.0,31.48869298683823
9.592,1.0,31.35726045793753
9.6,0.9999999999999999,31.225816310421635
9.608,0.9999999999999999,31.094360560689903
9.616,0.9999999999999999,30.962893225186985
9.624,1.0,30.831414320402555
9.632,1.0,30.699923862871305
9.64,0.9999999999999999,30.56842186917261
9.648,1.0,30.43690835593066
9.656,1.0,30.30538333981401
9.664,0.9999999999999999,30.17384683753569
9.672,1.0,30.04229886585276
9.68,1.0,29.910739441566417
9.688,1.0,29.779168581521574
9.696,0.9999999999999999,29.647586302606893
9.704,1.0,29.51599262175434
9.712,0.9999999999999998,29.384387555939238
9.72,0.9999999999999999,29.252771122179823
9.728,0.9999999999999999,29.121143337537216
9.736,1.0,28.989504219115002
9.744,1.0,28.857853784059216
9.752,1.0,28.72619204955782
9.76,1.0,28.594519032840697
9.768,0.9999999999999999,28.46283475117917
9.776,1.0,28.331139221885895
9.784,0.9999999999999999,28.199432462314377
9.792,0.9999999999999999,28.067714489858865
9.8,0.9999999999999999,27.93598532195379
9.808,1.0,27.804244976073697
9.816,1.0,27.672493469732622
9.824,0.9999999999999999,27.540730820483933
9.832,0.9999999999999999,27.408957045919824
9.84,0.9999999999999999,27.277172163670976
9.847999999999999,0.9999999999999999,27.145376191406072
9.856,1.0,27.013569146831426
9.864,1.0,26.881751047690507
9.872,0.9999999999999998,26.749921911763497
9.879999999999999,1.0,26.618081756866665
9.888,1.0,26.48623060085193
9.896,1.0,26.35436846160642
9.904,1.0,26.22249535705175
9.911999999999999,0.9999999999999999,26.090611305143472
9.92,0.9999999999999999,25.958716323870433
9.928,1.0,25.826810431254223
9.936,1.0,25.694893645348465
9.943999999999999,0.9999999999999999,25.56296598423797
9.952,1.0,25.43102746603815
9.96,0.9999999999999999,25.299078108894225
9.968,1.0,25.167117930980396
9.975999999999999,1.0,25.03514695049894
9.984,1.0,24.903165185679367
9.992,1.0,24.771172654777565
10.0,1.0,24.639169376074765
