freq,mag,phase
6.0,1.0005356298258723,-94.85353763847064
6.00948992,1.0003601220370897,-95.33919222690301
6.01897984,1.0001674076317466,-95.82268862878718
6.02846976,0.9999660969982178,-96.30374238196542
6.03795968,0.9997660900414568,-96.7824096922189
6.0474496,0.9995776128761952,-97.25872544535869
6.05693952,0.9994098063495327,-97.73292310839989
6.06642944,0.9992715401019981,-98.20527074416245
6.07591936,0.9991696031089132,-98.67619652709443
6.08540928,0.9991090355513667,-99.14626208379883
6.0948992,0.9990932300859477,-99.61596309387566
6.10438912,0.9991228052039262,-100.08593100118071
6.11387904,0.9991964969070022,-100.55669818930777
6.12336896,0.9993106380857777,-101.02885566846653
6.13285888,0.9994594455352244,-101.50287035598588
6.1423488,0.9996357489133686,-101.97913032630152
6.15183872,0.9998304226112795,-102.45792701258301
6.16132864,1.000034048760004,-102.93948136126669
6.17081856,1.0002362015629493,-103.4238013849846
6.18030848,1.0004267472463242,-103.91081050118991
6.1897984,1.0005962473882792,-104.40028827503747
6.19928832,1.0007361907493622,-104.89197057274298
6.20877824,1.0008395518250823,-105.385337902823
6.21826816,1.00090083209961,-105.87995989039477
6.22775808,1.0009171398975971,-106.37525420955865
6.237248,1.0008877237689306,-106.87059084467916
6.24673792,1.0008136401271286,-107.36546114744684
6.25622784,1.0006986887974394,-107.85927778654302
6.26571776,1.000548634957655,-108.3515356561672
6.27520768,1.0003708036440013,-108.84187523330519
6.2846976,1.00017411942903,-109.32997322396258
6.29418752,0.9999684202365668,-109.81559513529501
6.30367744,0.9997638767881439,-110.2987180442992
6.31316736,0.9995709086829725,-110.77947331593691
6.32265728,0.9993990509953645,-111.25796165009109
6.3321472,0.9992571857980187,-111.73462328211306
6.34163712,0.9991522240158628,-112.20981148720858
6.35112704,0.9990897169493134,-112.68406676057914
6.36061696,0.9990727795769332,-113.15796599627733
6.37010688,0.9991021795417729,-113.63207656160807
6.3795968,0.9991767766304893,-114.1070105378455
6.38908672,0.9992928269744855,-114.58331322051436
6.39857664,0.9994444624477403,-115.06148566521078
6.40806656,0.9996242041265178,-115.54195243703042
6.41755648,0.9998231537930985,-116.02501717428875
6.4270464,1.000031222675337,-116.51088035481128
6.43653632,1.0002381419002686,-116.99952472309327
6.44602624,1.0004333173302824,-117.49094085974261
6.45551616,1.0006072188458714,-117.98489269250132
6.46500608,1.0007509715350693,-118.4810486502893
6.474496,1.0008574672249033,-118.97893446180619
6.48398592,1.000921199954244,-119.4781319809046
6.49347584,1.0009388703870776,-119.97797623603302
6.50296576,1.0009096758663405,-120.47789934317457
6.51245568,1.0008347921058,-120.97733423524446
6.5219456,1.0007182683355877,-121.47568163296445
6.53143552,1.0005653731735173,-121.97244902990748
6.54092544,1.0003840797393029,-122.46722040201121
6.55041536,1.0001831847899731,-122.9596969877003
6.55990528,0.9999727562421867,-123.44964500890512
6.5693952,0.9997633248544775,-123.93703300539121
6.57888512,0.9995654931139349,-124.42193659929896
6.58837504,0.9993890205204454,-124.90455788210141
6.59786496,0.9992429015966423,-125.38524966836415
6.60735488,0.9991345170753901,-125.86443536487624
6.6168448,0.9990693537894831,-126.34262731586327
6.62633472,0.9990507514998628,-126.82040692129785
6.63582464,0.9990797371214871,-127.29839651591084
6.64531456,0.9991549710470565,-127.77716938928111
6.65480448,0.9992726686378207,-128.2573186157521
6.6642944,0.9994269591571715,-128.73939476510589
6.67378432,0.9996103494286215,-129.2237514434266
6.68327424,0.9998135718639737,-129.71076326115033
6.69276416,1.0000264931717329,-130.20059492681472
6.70225408,1.000238479699875,-130.6932863116198
6.711744,1.00043892537475,-131.18883166016477
6.72123392,1.0006176747466833,-131.6868865553227
6.73072384,1.0007658896800344,-132.18726586988635
6.74021376,1.0008761430531472,-132.68942587605358
6.74970368,1.0009426932863326,-133.1928239496296
6.7591936,1.0009622878667146,-133.69699206977663
6.76868352,1.0009338245754709,-134.20122318157115
6.77817344,1.0008586386746385,-134.70490790365048
6.78766336,1.0007404511561946,-135.20753962747122
6.79715328,1.0005849478710807,-135.70853200720546
6.806642688,1.00039999001829,-136.20747869365772
6.816132608,1.000194730383933,-136.70403575999498
6.825622528,0.9999793161771113,-137.19802059949214
6.835112448,0.9997645467111919,-137.6893987281688
6.844602368,0.9995613104104496,-138.1781878295329
6.854092288,0.9993796821962132,-138.66462839770267
6.863582208,0.9992289274142457,-139.14901964511841
6.873072128,0.9991164288147633,-139.63185555711115
6.882562048,0.9990480676726144,-140.11365382819068
6.892051968,0.9990273299358431,-140.59496972524917
6.901541888,0.9990553691725094,-141.0764650291523
6.911031808,0.9991308340089179,-141.5587451084168
6.920521728,0.999249989740171,-142.04242004266303
6.930011648,0.9994070324760004,-142.52798638080782
6.939501568,0.9995939796226545,-143.01590842607598
6.948991488,0.9998017137981772,-143.50647803461138
6.958481408,1.0000198042529436,-143.99990897804375
6.967971328,1.0002373236966382,-144.4963053978771
6.977461248,1.0004433504786725,-144.99554985298522
6.986951168,1.000627651372225,-145.49743722473093
6.996441088,1.0007808904140443,-146.00161847689424
7.005931008,1.0008954037594482,-146.50765705353487
7.015420928,1.000965488854772,-147.0150422176572
7.024910848,1.0009874474098854,-147.52312298454657
7.034400768,1.0009601354098097,-148.03133135062464
7.043890688,1.0008848548344664,-148.53900110815448
7.053380608,1.0007652770357376,-149.04553994217306
7.062870528,1.0006071878294274,-149.55043978717129
7.072360448,1.0004185459857522,-150.0532173319474
7.081850368,1.0002085862283545,-150.5535782267507
7.091340288,0.9999879590912868,-151.0512669810557
7.100830208,0.9997674710497579,-151.5462581709904
7.110320128,0.9995583134305233,-152.03855466165865
7.119810048,0.9993709076936389,-152.5284212713267
7.129299968,0.9992146923223499,-153.0162004646233
7.138789888,0.9990975595011587,-153.5023029614505
7.148279808,0.9990255091309221,-153.9872823679264
7.157769728,0.9990020878055514,-154.47178564946088
7.167259648,0.9990286620632245,-154.95638918471192
7.176749568,0.9991040997941454,-155.44175316696143
7.186239488,0.9992245970355988,-155.9284906512346
7.195729408,0.999384190522111,-156.41712831074057
7.205219328,0.9995749693307522,-156.90814482209294
7.214709248,0.999787352133985,-157.40187070946513
7.224199168,1.0000109342844667,-157.8985210188158
7.233689088,1.000234382899914,-158.3981628353368
7.243179008,1.0004466164157357,-158.9007341829909
7.252668928,1.000636952194167,-159.40598565184513
7.262158848,1.0007958996761106,-159.91361960163292
7.271648768,1.000915431304216,-160.4231542779687
7.281138688,1.0009895011160088,-160.93404887618124
7.290628608,1.0010144209068317,-161.44573153192107
7.300118528,1.0009886939726353,-161.9574950691493
7.309608448,1.0009136193649162,-162.4687576004726
7.319098368,1.0007927738314497,-162.97885459891577
7.328588288,1.0006322286792864,-163.48726663656697
7.338078208,1.0004397845882815,-163.99354107608696
7.347568128,1.000225007116471,-164.4972922120704
7.357058048,0.9999986863575723,-164.99829874878915
7.366547968,0.9997720270320625,-165.4964920692451
7.376037888,0.9995563875174461,-165.99194553867414
7.385527808,0.9993625115515471,-166.48483684944193
7.395017728,0.9992002952681254,-166.97552904046734
7.404507648,0.9990778911376963,-167.46447920132698
7.413997568,0.9990013865460727,-167.95225134818511
7.423487488,0.9989749039931695,-168.4394146208794
7.432977408,0.9989996792401625,-168.9266780535282
7.442467328,0.9990747467102068,-169.41464568581407
7.451957248,0.9991963348745264,-169.90397301524746
7.461447168,0.9993584724457703,-170.39526425353787
7.470937088,0.9995529947541267,-170.8889115313584
7.480427008,0.9997705088166134,-171.38529127702967
7.489916928,0.999999866561602,-171.88468332988668
7.499406848,1.0002298454276772,-172.38711549930593
7.508896768,1.000448791342751,-172.89251962292428
7.518386688,1.000645927624229,-173.40072735901657
7.527876608,1.0008110785340054,-173.91134409073786
7.537366528,1.0009362234944055,-174.42395541131103
7.546856448,1.0010150326517238,-174.9379783073554
7.556346368,1.0010433717712235,-175.45275013018517
7.565836288,1.0010196721703006,-175.96769803211072
7.575326208,1.0009451185265188,-176.48210611713208
7.584816128,1.000823300956227,-176.9953628850022
7.594306048,1.000660171509146,-177.50688641518119
7.603795968,1.0004637845020186,-178.0161996823203
7.613285888,1.0002438571078343,-178.5229077397896
7.622775808,1.0000115656056192,-179.02682365585537
7.632265728,0.9997780704986635,-179.52779817711684
7.641755648,0.9995553325832075,179.97405973888473
7.651245568,0.9993544996243703,179.4785733569536
7.660735488,0.9991856326013638,178.98541600967184
7.670225408,0.9990571776937873,178.49408908688534
7.679715328,0.9989756638011469,178.0040464589594
7.689205248,0.9989455022296876,177.5146908123456
7.698695168,0.9989681105913513,177.02526107811167
7.708185088,0.9990424556402744,176.5351646696391
7.717675008,0.9991649862820253,176.04372630816331
7.727164928,0.9993295694331705,175.55036411955072
7.736654848,0.9995281425991687,175.0545806434041
7.746144768,0.9997508446072836,174.5560205866581
7.755634688,0.9999865831896607,174.0544226910263
7.765124608,1.0002235824503507,173.54969517396302
7.774614528,1.0004498976903757,173.04191732818526
7.784104448,1.000654311372933,172.53127907058163
7.793594368,1.000826672874793,172.0181250836582
7.803084288,1.000958006093607,171.50293435359703
7.812574208,1.0010420188002156,170.98628062348047
7.822064128,1.0010741697070962,170.46879874396635
7.831554048,1.0010529910674089,169.95113545017426
7.841043968,1.000979163819822,169.43403261094656
7.850533888,1.0008565159823517,168.91807281782903
7.860023808,1.0006908752953894,168.40389114457375
7.869513728,1.0004904219361204,167.89197981351376
7.879003648,1.0002652221399457,167.3827353004021
7.888493568,1.0000262111372984,166.8763881576831
7.897983488,0.999785546516894,166.37307050243723
7.907473408,0.9995551570220307,165.8727350128403
7.916963328,0.9993465786116976,165.3751545627483
7.926453248,0.9991702568785802,164.88000770298268
7.935943168,0.9990351325347716,164.38682412581545
7.945433088,0.9989481999202191,163.89501756209253
7.954923008,0.9989137390613094,163.40393825602143
7.964412928,0.9989336559270902,162.91288192500497
7.973902848,0.9990070213549583,162.42120909833312
7.983392768,0.9991303693449423,161.9282113405303
7.992882688,0.9992976490978297,161.4332939937206
8.002372608,0.9995004990194674,160.93592040335434
8.011862528,0.9997287948447338,160.43569388214493
8.021352448,0.9999712428536255,159.93240180405914
8.030842368,1.0002157443186097,159.4258951362576
8.040332288,1.000450141758917,158.91626078639334
8.049822208,1.0006626932748022,158.4036870606914
8.059312128,1.0008426858778363,157.88851014346054
8.068802048,1.0009810426198054,157.371239576383
8.078291968,1.0010709842702177,156.852393152025
8.087781888,1.0011076111240125,156.3327000433874
8.097271808,1.0010892009655177,155.81278517360334
8.106761728,1.001016503509109,155.29342261058173
8.116251648,1.0008930733755845,154.77521567954633
8.125741568,1.0007248368339896,154.2588299975252
8.135231488,1.0005200027370396,153.7447973694672
8.144721408,1.000288911527541,153.23349161037095
8.154211328,1.0000429595204787,152.72517915544205
8.163701248,0.9997944300330222,152.2200137339449
8.173191168,0.9995555092740027,151.71796618025223
8.182681088,0.9993385303226514,151.21876429537505
8.192171008,0.9991541334447132,150.72215643028701
8.201660928,0.9990116081657644,150.22758946523254
8.211150848,0.9989185539531594,149.73454609808834
8.220640768,0.998879302783471,149.2422823804374
8.230130688,0.998896139708616,148.75018188140453
8.239620608,0.9989682924857404,148.2574585664318
8.249110528,0.9990924600154135,147.76341422284347
8.258600448,0.9992623404870854,147.2674493683088
8.268090368,0.9994695987748458,146.76904544412312
8.277580288,0.9997038547169455,146.26774882424405
8.287070208,0.9999536546530094,145.76327931558936
8.296560128,1.0002064322312867,145.25553046243826
8.306050048,1.000449627874241,144.74455835350875
8.315539968,1.000670916442154,144.23052860227094
8.325029888,1.000859300599622,143.71384269496843
8.334519808,1.0010054559248491,143.19493422481497
8.344009728,1.0011018378086685,142.674425635768
8.353499648,1.0011436210692386,142.15295750483074
8.362989568,1.0011284513501482,141.6312950100672
8.372479488,1.0010570539424093,141.1101052673382
8.381969408,1.0009328578325012,140.59014830636187
8.391459328,1.0007618659772461,140.0720019430775
8.400948736,1.0005525367456456,139.55627141877503
8.410438656,1.0003152550509766,139.0433491628234
8.419928576,1.0000616510653937,138.53356330830653
8.429418496,0.9998044800963413,138.02702904709727
8.438908416,0.9995565473407815,137.5237244345916
8.448398336,0.9993302164108877,137.02346225460857
8.457888256,0.999136936661855,136.5258505947079
8.467378176,0.9989865283137705,136.0304504634155
8.476868096,0.9988864500114808,135.53667985196145
8.486358016,0.9988419529091092,135.0438003206804
8.495847936,0.9988553279301706,134.5511333974379
8.505337856,0.9989261182950191,134.0579009962006
8.514827776,0.9990509934841371,133.5633947989014
8.524317696,0.999223740045973,133.06697138208116
8.533807616,0.9994357376212161,132.56802179416025
8.543297536,0.9996765185008637,132.0661603232284
8.552787456,0.9999342277764487,131.56105904979185
8.562277376,1.0001960184917864,131.0525664248898
8.571767296,1.000448696630264,130.540746068743
8.581257216,1.0006796299339569,130.0258004576007
8.590747648,1.000877300128992,129.50804885219435
8.600237056,1.0010319295003138,128.98799252536045
8.609727488,1.0011354198461604,128.4662494660082
8.619216896,1.0011826314023207,127.9435276573821
8.628707328,1.0011710989577132,127.42050061597536
8.638196736,1.0011011370085816,126.89795249260338
8.647687168,1.0009760699908083,126.37663297588509
8.657176576,1.0008023173551013,125.85720074173108
8.666667008,1.0005879536904154,125.340239599819
8.676156416,1.0003439050381384,124.8261768742758
8.685646848,1.00008204380418,124.31535003760028
8.695136256,0.9998155990650943,123.80791434759885
8.704626688,0.9995576575940193,123.3038386933582
8.714116096,0.9993212117106288,122.80293304505707
8.723606528,0.999118231876965,122.3048859738713
8.733095936,0.9989589151194115,121.80913090944114
8.742586368,0.9988513530336234,121.31513986087089
8.752075776,0.9988009964992363,120.82216856308933
8.761566208,0.9988107704511732,120.32946144820572
8.771055616,0.9988800428050454,119.83624408107652
8.780546048,0.9990056073609367,119.3417988228285
8.790035456,0.9991813671345909,118.845386966569
8.799525888,0.9993985617310469,118.34647947246717
8.809015296,0.9996465499028079,117.84452986060558
8.818505728,0.9999129366884714,117.33928664566687
8.827995136,1.0001844304762908,116.83055534698264
8.837485568,1.0004474048640701,116.31837424171414
8.846974976,1.000688895033829,115.80294930012874
8.856465408,1.000896715139729,115.28459908885984
8.865954816,1.001060354138756,114.76385596256942
8.875445248,1.0011716739053838,114.24131663280265
8.884934656,1.0012249973023952,113.7177027121281
8.894425088,1.0012173104684075,113.19377111510175
8.903914496,1.001148918969838,112.67030180713287
8.913404928,1.001023242325495,112.14804558522188
8.922894336,1.0008461983576415,111.62770562713476
8.932384768,1.0006264559563496,111.10990006919737
8.941874176,1.0003750265709017,110.59513465795737
8.951364608,1.000104148793684,110.08367824627483
8.960854016,0.9998274391283624,109.57578247185057
8.970344448,0.99955858706537,109.07138064529123
8.979833856,0.9993113482993018,108.57032128585503
8.989324288,0.9990977394349145,108.0722356597481
8.998813696,0.9989288112681989,107.57665277471322
9.008304128,0.9988130666937097,107.08291850241673
9.017793536,0.9987565812799974,106.59032841413185
9.027283968,0.9987621582116399,106.09808106057257
9.036773376,0.9988297585431206,105.60540612858303
9.046263808,0.9989563036193657,105.11148035530549
9.055753216,0.9991353890140275,104.61560499813173
9.065243648,0.9993582656714621,104.1171614323229
9.074733056,0.999614074771706,103.61564552011764
9.084223488,0.999889839598266,103.1107113716757
9.093712896,1.0001719510313396,102.60218641650145
9.103203328,1.0004464426885653,102.090098584429
9.112692736,1.000699283108528,101.57459849310794
9.122183168,1.0009181921610455,101.05607787650798
9.131672576,1.0010918481421691,100.53501151774174
9.141163008,1.0012116066047483,100.01207237042664
9.150652416,1.0012713283837693,99.48795295893498
9.160142848,1.0012678969860884,98.96346107364093
9.169632256,1.0012012835477844,98.4394065873007
9.179122688,1.0010746000954938,97.91658530860441
9.188612096,1.0008939625642512,97.39572238202094
9.198102528,1.0006682637486388,96.87745775099562
9.207591936,1.0004086564879022,96.36232608305406
9.217081344,1.0001279729907744,95.85065279802899
9.226571776,0.9998401197461965,95.3426658165166
9.236061184,0.9995594505359822,94.83833687984297
9.245551616,0.9993001038583962,94.33753618753725
9.255041024,0.9990750743022644,93.83987709594466
9.264531456,0.9988957079561027,93.34483840427714
9.274020864,0.9987711681523248,92.85184561116394
9.283511296,0.9987078583485952,92.36006402966046
9.293000704,0.9987091026304737,91.86873980998192
9.302491136,0.9987749572660262,91.377021762139
9.311980544,0.9989025030324448,90.8840931379966
9.321470976,0.9990854674360696,90.38918712301935
9.330960384,0.9993146637642446,89.8916720385802
9.340450816,0.9995789736868698,89.39098703444151
9.349940224,0.9998651234425773,88.88678427786263
9.359430656,1.0001589144936405,88.37887081618685
9.368920064,1.0004457333402912,87.86723553203109
9.378410496,1.0007111678006257,87.35205663424125
9.387899904,1.0009419323826465,86.83368832538962
9.397390336,1.0011264230731107,86.3126697720902
9.406879744,1.0012553489195863,85.78962251809415
9.416370176,1.0013220404988192,85.265318250508
9.425859584,1.0013230610441546,84.74059589904573
9.435350016,1.001258109647094,84.21625489450949
9.444839424,1.0011302093935703,83.69316775785592
9.454329856,1.0009455649683547,83.1720725409993
9.463819264,1.0007132354454054,82.65364430222661
9.473309696,1.0004446937549143,82.13848638318662
9.482799104,1.0001531485541124,81.6269124668703
9.492289536,0.9998530310835104,81.11918308456818
9.501778944,0.9995594294638283,80.6152839427224
9.511269376,0.9992869819062307,80.11508614520062
9.520758784,0.9990493621781,79.61823278305658
9.530249216,0.998858665159013,79.12417398750313
9.539738624,0.9987246097866491,78.63224211904492
9.549229056,0.9986540397746188,78.14170734878245
9.558718464,0.9986507012737791,77.65169778081263
9.568208896,0.9987150114452026,77.16133902238201
9.577698304,0.9988438740837302,76.66980660882622
9.587188736,0.9990310149798224,76.17627401092268
9.596678144,0.9992673465588605,75.68004477058783
9.606168576,0.999541091307543,75.18056415569562
9.615657984,0.9998387712051332,74.67745363613102
9.625148416,1.0001454283257512,74.17045814485044
9.634637824,1.000445854595622,73.6596059385623
9.644128256,1.0007249036140438,73.14502173297103
9.653617664,1.0009687587912772,72.62710057479882
9.663108096,1.0011649952933221,72.10639225008322
9.672597504,1.001303786974316,71.58349208069752
9.682087936,1.001377915260624,71.05925847160232
9.691577344,1.0013835855839883,70.5345086436911
9.701067776,1.0013202869200273,70.01013433096873
9.710557184,1.0011910156716428,69.48699948216904
9.720047616,1.0010017681441774,68.96590619006466
9.729537024,1.000762059586682,68.4475829442369
9.739027456,1.000483416680414,67.93261747808695
9.748516864,1.000179850442847,67.42139668836668
9.758007296,0.9998662464859523,66.91419562930973
9.767496704,0.999558497982278,66.41102169663073
9.776987136,0.9992716929203417,65.91173463962704
9.786476544,0.9990205083145555,65.41596060596285
9.795966976,0.9988176254392334,64.9231862059274
9.805456384,0.9986732427366168,64.4327137327323
9.814946816,0.9985949500850984,63.94373271600931
9.824436224,0.9985867632815965,63.45537294089757
