freq,mag,phase
6.0,0.999990686556743,-138.48083940416774
6.008,0.9999891495715223,-138.92227984358468
6.016,0.9999876770010564,-139.36362745394044
6.024,0.9999862674878245,-139.80488203083473
6.032,0.9999849196893215,-140.2460433792026
6.04,0.9999836322780369,-140.6871113132611
6.048,0.9999824039414319,-141.12808565645554
6.056,0.9999812333819146,-141.56896624140543
6.064,0.9999801193168122,-142.0097529098504
6.072,0.999979060478343,-142.45044551259545
6.08,0.999978055613585,-142.89104390945616
6.088,0.9999771034844455,-143.33154796920383
6.096,0.9999762028676252,-143.77195756950985
6.104,0.9999753525545833,-144.2122725968905
6.112,0.999974551351499,-144.65249294665094
6.12,0.9999737980792339,-145.09261852282944
6.128,0.9999730915732894,-145.53264923814092
6.136,0.9999724306837676,-145.97258501392085
6.144,0.9999718142753209,-146.41242578006847
6.152,0.9999712412271102,-146.85217147499014
6.16,0.9999707104327613,-147.2918220455423
6.168,0.9999702208003092,-147.73137744697425
6.176,0.9999697712521517,-148.17083764287122
6.184,0.9999693607249958,-148.61020260509656
6.192,0.9999689881698061,-149.0494723137344
6.2,0.9999686525517485,-149.4886467570318
6.208,0.9999683528501364,-149.92772593134097
6.216,0.99996808805837,-150.36670984106104
6.224,0.9999678571838811,-150.80559849858045
6.232,0.9999676592480675,-151.2443919242183
6.24,0.9999674932862374,-151.68309014616628
6.248,0.9999673583475438,-152.12169320042997
6.256,0.9999672534949192,-152.56020113077082
6.264,0.9999671778050132,-152.99861398864715
6.272,0.999967130368122,-153.4369318331556
6.28,0.9999671102881275,-153.87515473097238
6.288,0.9999671166824182,-154.31328275629474
6.296,0.9999671486818285,-154.75131599078168
6.304,0.9999672054305627,-155.18925452349532
6.312,0.9999672860861256,-155.62709845084206
6.32,0.9999673898192444,-156.06484787651334
6.328,0.9999675158137988,-156.5025029114267
6.336,0.9999676632667449,-156.94006367366694
6.344,0.9999678313880376,-157.37753028842667
6.352,0.9999680194005529,-157.8149028879478
6.36,0.9999682265400112,-158.2521816114619
6.368,0.9999684520548958,-158.6893666051315
6.376,0.9999686952063751,-159.12645802199086
6.384,0.9999689552682206,-159.5634560218869
6.392,0.9999692315267242,-160.00036077142016
6.4,0.9999695232806172,-160.43717244388594
6.408,0.9999698298409831,-160.87389121921495
6.416,0.9999701505311788,-161.3105172839148
6.424,0.9999704846867434,-161.74705083101065
6.432,0.999970831655318,-162.18349205998655
6.44,0.9999711907965545,-162.61984117672645
6.448,0.9999715614820315,-163.05609839345553
6.456,0.9999719430951636,-163.49226392868144
6.464,0.9999723350311156,-163.9283380071357
6.472,0.9999727366967107,-164.36432085971472
6.48,0.9999731475103408,-164.80021272342194
6.4879999999999995,0.9999735669018792,-165.23601384130845
6.496,0.9999739943125858,-165.67172446241568
6.504,0.9999744291950151,-166.10734484171607
6.5120000000000005,0.9999748710129294,-166.54287524005574
6.52,0.9999753192411988,-166.9783159240955
6.5280000000000005,0.9999757733657142,-167.41366716625382
6.536,0.9999762328832895,-167.84892924464788
6.5440000000000005,0.999976697301571,-168.28410244303663
6.552,0.9999771661389384,-168.71918705076246
6.5600000000000005,0.9999776389244134,-169.1541833626941
6.568,0.999978115197565,-169.58909167916863
6.5760000000000005,0.9999785945084104,-170.02391230593466
6.584,0.9999790764173208,-170.45864555409457
6.592,0.9999795604949265,-170.89329174004789
6.6,0.9999800463220169,-171.327851185434
6.608,0.9999805334894456,-171.7623242170754
6.616,0.9999810215980331,-172.19671116692092
6.624,0.999981510258469,-172.63101237198944
6.632,0.999981999091213,-173.06522817431306
6.64,0.9999824877263995,-173.49935892088118
6.648,0.999982975803736,-173.9334049635841
6.656,0.9999834629724071,-174.36736665915743
6.664,0.9999839488909772,-174.80124436912575
6.672,0.9999844332272863,-175.23503845974753
6.68,0.9999849156583567,-175.6687493019592
6.688,0.9999853958702921,-176.10237727132005
6.696,0.9999858735581775,-176.53592274795702
6.704,0.9999863484259812,-176.96938611650964
6.712,0.9999868201864542,-177.4027677660754
6.72,0.9999872885610332,-177.83606809015492
6.728,0.9999877532797385,-178.26928748659756
6.736,0.9999882140810756,-178.7024263575472
6.744,0.9999886707119375,-179.135485109388
6.752,0.9999891229275029,-179.5684641526906
6.76,0.9999895704911361,179.9986360978416
6.768,0.9999900131742919,179.56581522342609
6.776,0.999990450756412,179.13307280125457
6.784,0.9999908830248276,178.70040840454604
6.792,0.9999913097746601,178.26782160259978
6.8,0.9999917308087212,177.83531196084823
6.808,0.9999921459374151,177.40287904090943
6.816,0.9999925549786388,176.9705224006395
6.824,0.999992957757684,176.53824159418468
6.832,0.9999933541071375,176.10603617203347
6.84,0.9999937438667837,175.67390568106828
6.848,0.999994126883506,175.24184966461692
6.856,0.9999945030111888,174.80986766250425
6.864,0.9999948721106192,174.37795921110296
6.872,0.99999523404939,173.94612384338475
6.88,0.9999955887018015,173.51436108897093
6.888,0.9999959359487655,173.08267047418303
6.896,0.9999962756777062,172.651051522093
6.904,0.9999966077824658,172.2195037525734
6.912,0.9999969321632062,171.7880266823471
6.92,0.9999972487263145,171.35661982503714
6.928,0.999997557384305,170.92528269121604
6.936,0.9999978580557262,170.49401478845502
6.944,0.9999981506650625,170.06281562137306
6.952,0.9999984351426422,169.63168469168554
6.96,0.9999987114245407,169.200621498253
6.968,0.9999989794524877,168.76962553712931
6.976,0.9999992391737713,168.3386963016098
6.984,0.9999994905411472,167.9078332822792
6.992,0.9999997335127424,167.4770359670593
7.0,0.999999968051966,167.0463038412564
7.008,0.9999999999999999,166.6156363876084
7.016,0.9999999999999998,166.18503308633194
7.024,1.0,165.75449341516918
7.032,1.0,165.32401684943417
7.04,0.9999999999999999,164.89360286205928
7.048,0.9999999999999999,164.46325092364128
7.056,0.9999999999999999,164.03296050248719
7.064,1.0,163.6027310646599
7.072,1.0,163.17256207402355
7.08,1.0,162.74245299228878
7.088,0.9999999999999999,162.31240327905752
7.096,1.0,161.88241239186797
7.104,0.9999999999999999,161.45247978623885
7.112,0.9999999999999999,161.02260491571377
7.12,1.0,160.59278723190522
7.128,1.0,160.16302618453844
7.136,0.9999999999999999,159.73332122149498
7.144,0.9999999999999999,159.30367178885592
7.152,0.9999999999999999,158.8740773309453
7.16,1.0,158.44453729037272
7.168,1.0,158.01505110807614
7.176,0.9999999999999999,157.58561822336424
7.184,1.0,157.15623807395878
7.192,0.9999999999999999,156.72691009603645
7.2,0.9999999999999999,156.29763372427078
7.208,0.9999999999999999,155.8684083918734
7.216,0.9999999999999999,155.43923353063576
7.224,0.9999999999999998,155.0101085709699
7.232,1.0,154.58103294194925
7.24,1.0,154.1520060713497
7.248,1.0,153.72302738568953
7.256,0.9999999999999999,153.29409631026988
7.264,1.0,152.86521226921465
7.272,1.0,152.4363746855102
7.28,1.0,152.00758298104492
7.288,1.0,151.57883657664848
7.296,0.9999999999999999,151.15013489213112
7.304,0.9999999999999999,150.7214773463221
7.312,1.0,150.29286335710873
7.32,1.0,149.86429234147462
7.328,1.0,149.43576371553783
7.336,0.9999999999999999,149.00727689458913
7.344,1.0,148.5788312931293
7.352,1.0,148.15042632490722
7.36,1.0,147.72206140295677
7.368,1.0,147.29373593963422
7.376,1.0,146.86544934665497
7.384,0.9999999999999999,146.43720103513047
7.392,0.9999999999999999,146.00899041560442
7.4,1.0,145.58081689808924
7.4079999999999995,1.0,145.15267989210213
7.416,1.0,144.72457880670066
7.4239999999999995,1.0,144.29651305051902
7.432,1.0,143.86848203180267
7.4399999999999995,1.0,143.44048515844423
7.448,1.0,143.01252183801802
7.4559999999999995,1.0,142.5845914778153
7.464,0.9999999999999999,142.15669348487847
7.4719999999999995,0.999999890657944,141.72882726603595
7.48,0.9999997002340343,141.30099222793572
7.4879999999999995,0.9999995057483744,140.8731877770802
7.496,0.999999307331228,140.44541331985914
7.504,0.9999991051133553,140.01766826258404
7.5120000000000005,0.9999988992259584,139.58995201152078
7.52,0.9999986898006251,139.16226397292368
7.5280000000000005,0.9999984769692749,138.73460355306756
7.536,0.9999982608641058,138.30697015828153
7.5440000000000005,0.9999980416175397,137.87936319498067
7.552,0.9999978193621714,137.4517820696994
7.5600000000000005,0.9999975942307157,137.02422618912266
7.568,0.9999973663559585,136.59669496011904
7.5760000000000005,0.9999971358707032,136.16918778977168
7.584,0.9999969029077241,135.74170408541076
7.5920000000000005,0.9999966675997153,135.3142432546441
7.6,0.9999964300792434,134.88680470538932
7.6080000000000005,0.9999961904786999,134.4593878459042
7.616,0.9999959489302543,134.03199208481817
7.6240000000000006,0.9999957055658075,133.60461683116245
7.632,0.9999954605169459,133.17726149440128
7.640000000000001,0.9999952139148983,132.74992548446158
7.648,0.9999949658904886,132.32260821176368
7.656000000000001,0.9999947165740969,131.89530908725084
7.664,0.9999944660956118,131.46802752241956
7.672,0.9999942145843915,131.04076292934883
7.68,0.9999939621692211,130.61351472072965
7.688,0.9999937089782722,130.18628230989458
7.696,0.9999934551390635,129.75906511084642
7.704,0.9999932007784196,129.33186253828754
7.712,0.9999929460224339,128.9046740076483
7.72,0.9999926909964308,128.47749893511602
7.728,0.9999924358249264,128.05033673766286
7.736,0.9999921806315942,127.62318683307466
7.744,0.9999919255392274,127.19604863997851
7.752,0.9999916706697042,126.76892157787094
7.76,0.9999914161439535,126.34180506714564
7.768,0.9999911620819201,125.91469852912083
7.776,0.9999909086025324,125.48760138606686
7.784,0.9999906558236692,125.06051306123346
7.792,0.9999904038621277,124.63343297887661
7.8,0.9999901528335922,124.20636056428566
7.808,0.9999899028526035,123.77929524381003
7.816,0.9999896540325292,123.35223644488568
7.824,0.9999894064855342,122.92518359606174
7.832,0.999989160322552,122.4981361270266
7.84,0.9999889156532565,122.0710934686341
7.848,0.9999886725860354,121.64405505292956
7.856,0.9999884312279628,121.21702031317544
7.864,0.9999881916847728,120.78998868387706
7.872,0.9999879540608355,120.3629596008081
7.88,0.9999877184591313,119.9359325010359
7.888,0.9999874849812265,119.50890682294671
7.896,0.9999872537272504,119.08188200627069
7.904,0.9999870247958723,118.65485749210671
7.912,0.99998679828428,118.22783272294726
7.92,0.9999865742881568,117.80080714270288
7.928,0.9999863529016617,117.37378019672668
7.936,0.9999861342174089,116.94675133183867
7.944,0.9999859183264475,116.51971999634976
7.952,0.9999857053182436,116.09268564008593
7.96,0.9999854952806612,115.66564771441196
7.968,0.9999852882999435,115.2386056722552
7.976,0.9999850844606981,114.81155896812918
7.984,0.9999848838458778,114.38450705815693
7.992,0.9999846865367668,113.9574494000944
8.0,0.9999844926129628,113.53038545335349
8.008,0.9999843021523653,113.10331467902517
8.016,0.9999841152311596,112.67623653990212
8.024000000000001,0.9999839319238026,112.24915050050186
8.032,0.9999837523030117,111.8220560270891
8.04,0.9999835764397513,111.39495258769806
8.048,0.999983404403221,110.9678396521549
8.056000000000001,0.9999832362608446,110.54071669210022
8.064,0.9999830720782595,110.1135831810108
8.072,0.9999829119193067,109.68643859422139
8.08,0.999982755846021,109.25928240894669
8.088000000000001,0.9999826039186228,108.83211410430317
8.096,0.9999824561955085,108.40493316133048
8.104,0.9999823127332442,107.97773906301249
8.112,0.9999821735865573,107.55053129429895
8.120000000000001,0.9999820388083305,107.12330934212665
8.128,0.9999819084495957,106.69607269544028
8.136,0.999981782559528,106.2688208452132
8.144,0.9999816611854415,105.84155328446825
8.152000000000001,0.9999815443727832,105.41426950829864
8.16,0.9999814321651307,104.98696901388824
8.168,0.9999813246041886,104.55965130053171
8.176,0.9999812217297848,104.13231586965505
8.184000000000001,0.9999811235798691,103.70496222483574
8.192,0.9999810301905107,103.27758987182273
8.2,0.9999809415958967,102.85019831855594
8.208,0.9999808578283321,102.42278707518635
8.216000000000001,0.9999807789182394,101.99535565409568
8.224,0.9999807048941579,101.56790356991577
8.232,0.9999806357827461,101.14043033954782
8.24,0.9999805716087812,100.71293548218169
8.248000000000001,0.9999805123951616,100.28541851931537
8.256,0.9999804581629097,99.8578789747737
8.264,0.9999804089311731,99.43031637472711
8.272,0.9999803647172298,99.00273024771062
8.280000000000001,0.99998032553649,98.57512012464261
8.288,0.9999802914025012,98.14748553884321
8.296,0.9999802623269525,97.71982602605253
8.304,0.99998023831968,97.29214112444912
8.312,0.9999802193886714,96.86443037466837
8.32,0.9999802055400744,96.43669331982008
8.328,0.9999801967781992,96.00892950550697
8.336,0.9999801931055292,95.58113847984183
8.344,0.9999801945227265,95.15331979346598
8.352,0.9999802010286387,94.72547299956612
8.36,0.9999802126203104,94.29759765389247
8.368,0.9999802292929878,93.86969331477545
8.376,0.9999802510401308,93.44175954314365
8.384,0.9999802778534207,93.01379590254017
8.392,0.9999803097227715,92.58580195914043
8.4,0.9999803466363386,92.15777728176818
8.408,0.9999803885805312,91.72972144191317
8.416,0.9999804355400209,91.301634013747
8.424,0.9999804874977574,90.87351457414034
8.432,0.9999805444349756,90.44536270267872
8.44,0.9999806063312106,90.01717798167942
8.448,0.9999806731643112,89.58895999620717
8.456,0.9999807449104495,89.16070833409061
8.464,0.9999808215441379,88.73242258593788
8.472,0.9999809030382406,88.30410234515294
8.48,0.9999809893639888,87.87574720795062
8.488,0.9999810804909952,87.44735677337306
8.496,0.999981176387268,87.01893064330434
8.504,0.999981277019227,86.59046842248668
8.512,0.9999813823517182,86.16196971853492
8.52,0.9999814923480309,85.7334341419524
8.528,0.9999816069699127,85.3048613061453
8.536,0.9999817261775867,84.87625082743824
8.544,0.9999818499297687,84.44760232508834
8.552,0.9999819781836836,84.0189154213007
8.56,0.9999821108950822,83.59018974124209
8.568,0.9999822480182616,83.16142491305631
8.576,0.9999823895060804,82.7326205678776
8.584,0.9999825353099788,82.30377633984574
8.592,0.9999826853799968,81.87489186611933
8.6,0.9999828396647927,81.44596678689045
8.608,0.9999829981116636,81.0170007453979
8.616,0.9999831606665632,80.58799338794158
8.624,0.9999833272741231,80.15894436389544
8.632,0.9999834978776726,79.72985332572163
8.64,0.9999836724192569,79.30071992898321
8.648,0.9999838508396618,78.87154383235817
8.656,0.9999840330784302,78.44232469765171
8.664,0.9999842190738863,78.01306218981016
8.672,0.999984408763155,77.58375597693299
8.68,0.9999846020821844,77.15440573028644
8.688,0.9999847989657673,76.72501112431539
8.696,0.9999849993475626,76.2955718366566
8.704,0.9999852031601187,75.86608754815047
8.712,0.9999854103348951,75.43655794285395
8.72,0.9999856208022848,75.00698270805206
8.728,0.9999858344916376,74.57736153427066
8.736,0.9999860513312836,74.14769411528759
8.744,0.9999862712485545,73.7179801481452
8.752,0.9999864941698093,73.28821933316134
8.76,0.9999867200204561,72.85841137394155
8.768,0.9999869487249768,72.4285559773898
8.776,0.9999871802069507,71.99865285372051
8.784,0.9999874143890788,71.56870171646898
8.792,0.9999876511932071,71.13870228250306
8.8,0.9999878905403524,70.7086542720335
8.808,0.9999881323507258,70.27855740862529
8.815999999999999,0.999988376543757,69.84841141920774
8.824,0.9999886230381202,69.41821603408529
8.832,0.9999888717517589,68.98797098694803
8.84,0.99998912260191,68.55767601488176
8.847999999999999,0.9999893755051292,68.127330858378
8.856,0.9999896303773175,67.69693526134407
8.864,0.9999898871337443,67.2664889711132
8.872,0.999990145689075,66.83599173845401
8.879999999999999,0.999990405957396,66.40544331757997
8.888,0.9999906678522394,65.9748434661589
8.896,0.9999909312866097,65.54419194532271
8.904,0.9999911961730098,65.1134885196761
8.911999999999999,0.9999914624234654,64.68273295730563
8.92,0.9999917299495529,64.25192502978871
8.928,0.9999919986624242,63.821064512202554
8.936,0.9999922684728331,63.390151183132595
8.943999999999999,0.9999925392911613,62.959184824680854
8.952,0.9999928110274449,62.528165222474364
8.96,0.9999930835914004,62.0970921656736
8.968,0.9999933568924503,61.665965446980316
8.975999999999999,0.9999936308397508,61.23478486264534
8.984,0.9999939053422167,60.803550212476395
8.992,0.9999941803085488,60.37226129984604
9.0,0.999994455647259,59.9409179316988
9.008,0.9999947312666986,59.50951991855843
9.016,0.9999950070750815,59.07806707453525
9.024000000000001,0.9999952829805135,58.64655921733328
9.032,0.9999955588910181,58.214996168256995
9.04,0.9999958347145605,57.78337775221784
9.048,0.9999961103590772,57.351703797741024
9.056000000000001,0.9999963857324998,56.91997413697204
9.064,0.9999966607427816,56.488188605682815
9.072,0.9999969352979249,56.05634704327764
9.08,0.999997209306006,55.624449292799255
9.088000000000001,0.9999974826752016,55.19249520093487
9.096,0.9999977553138154,54.76048461802163
9.104,0.9999980271303028,54.32841739805183
9.112,0.9999982980332985,53.8962933986786
9.120000000000001,0.9999985679316403,53.464112481221065
9.128,0.9999988367343968,53.031874510669276
9.136,0.9999991043508912,52.599579355688796
9.144,0.9999993706907294,52.167226888625656
9.152000000000001,0.9999996356638221,51.73481698551097
9.16,0.9999998991804138,51.30234952606515
9.168,0.9999999999999999,50.869824393701855
9.176,0.9999999999999999,50.43724147553226
9.184000000000001,0.9999999999999999,50.00460066236903
9.192,1.0,49.57190184872988
9.2,1.0,49.13914493284084
9.208,0.9999999999999999,48.70632981663985
9.216000000000001,1.0,48.27345640577998
9.224,1.0,47.84052460963246
9.232,1.0,47.40753434128915
9.24,1.0,46.97448551756538
9.248000000000001,1.0,46.54137805900272
9.256,1.0,46.108211889871015
9.264,1.0,45.67498693817033
9.272,1.0,45.24170313563309
9.280000000000001,0.9999999999999999,44.80836041772601
9.288,0.9999999999999999,44.37495872365152
9.296,1.0,43.941497996349
9.304,1.0000000000000002,43.50797818249611
9.312000000000001,1.0,43.074399232510096
9.32,0.9999999999999998,42.64076110054843
9.328,0.9999999999999999,42.20706374450926
9.336,1.0,41.77330712603215
9.344,0.9999999999999999,41.339491210498565
9.352,0.9999999999999999,40.905615967031416
9.36,1.0,40.471681368495666
9.368,1.0,40.03768739149734
9.376,1.0,39.60363401638381
9.384,1.0,39.169521227242335
9.392,1.0,38.73534901190009
9.4,1.0000000000000002,38.301117361922266
9.408,1.0,37.86682627261163
9.416,1.0,37.43247574300634
9.424,1.0000000000000002,36.998065775879105
9.432,1.0,36.5635963777345
9.44,1.0,36.129067558807854
9.448,1.0,35.694479333062155
9.456,1.0,35.25983171818647
9.464,0.9999999999999999,34.82512473559244
9.472,1.0,34.39035841041243
9.48,1.0,33.95553277149551
9.488,0.9999999999999999,33.52064785140518
9.496,1.0,33.08570368641501
9.504,0.9999999999999999,32.65070031650593
9.512,1.0,32.21563778536147
9.52,1.0000000000000002,31.78051614036462
9.528,1.0,31.34533543259268
9.536,0.9999999999999999,30.910095716813622
9.544,1.0,30.474797051480646
9.552,0.9999999999999999,30.039439498728083
9.56,0.9999999999999999,29.604023124365472
9.568,1.0,29.168547997873056
9.576,1.0,28.733014192395533
9.584,1.0,28.297421784736976
9.592,1.0,27.86177085535429
9.6,1.0,27.426061488351646
9.608,1.0,26.990293771473475
9.616,0.9999999999999999,26.55446779609855
9.624,1.0,26.118583657232445
9.632,1.0,25.682641453501294
9.64,1.0,25.246641287143774
9.648,1.0,24.81058326400438
9.656,0.9999999999999998,24.374467493525035
9.664,1.0000000000000002,23.938294088737873
9.672,1.0000000000000002,23.502063166256463
9.68,1.0,23.06577484626812
9.688,0.9999999999999998,22.629429252524687
9.696,1.0,22.193026512334388
9.704,1.0,21.7565667565522
9.712,1.0,21.320050119571306
9.72,0.9999999999999999,20.883476739312858
9.728,0.9999999999999999,20.44684675721711
9.736,1.0,20.010160318232774
9.744,1.0,19.57341757080755
9.752,0.9999999999999999,19.136618666877194
9.76,0.9999999999999999,18.699763761855476
9.768,1.0,18.26285301462283
9.776,0.9999999999999999,17.825886587515978
9.784,0.9999999999999999,17.38886464631588
9.792,1.0,16.951787360237113
