freq,mag,phase
6.0,0.9999953127008724,96.03181436530829
6.008,0.9999958852817465,95.89927887770787
6.016,0.9999964444848408,95.76666161943209
6.024,0.9999969904835948,95.63396249989567
6.032,0.9999975234501451,95.50118142877254
6.04,0.9999980435553286,95.3683183159975
6.048,0.9999985509686868,95.23537307176824
6.056,0.9999990458584702,95.10234560654706
6.064,0.9999995283916412,94.96923583106269
6.072,0.9999999987338795,94.83604365631224
6.08,0.9999999999999999,94.70276899356297
6.088,1.0,94.5694117543541
6.096,1.0000000000000002,94.43597185049879
6.104,0.9999999999999999,94.30244919408585
6.112,1.0,94.16884369748175
6.12,1.0000000000000002,94.03515527333235
6.128,0.9999999999999999,93.90138383456487
6.136,1.0,93.76752929438967
6.144,0.9999999999999998,93.63359156630229
6.152,0.9999999999999999,93.49957056408508
6.16,0.9999999999999999,93.36546620180931
6.168,0.9999999999999999,93.23127839383699
6.176,1.0,93.09700705482267
6.184,1.0,92.96265209971546
6.192,1.0,92.82821344376089
6.2,0.9999999999999999,92.69369100250275
6.208,0.9999999999999998,92.55908469178513
6.216,1.0,92.42439442775417
6.224,0.9999999999999999,92.2896201268601
6.232,0.9999999999999999,92.15476170585907
6.24,1.0,92.01981908181517
6.248,1.0,91.88479217210227
6.256,0.9999999999999999,91.74968089440594
6.264,1.0,91.61448516672547
6.272,1.0,91.47920490737573
6.28,0.9999999999999999,91.3438400349891
6.288,1.0,91.2083904685175
6.296,1.0,91.07285612723426
6.304,1.0,90.93723693073606
6.312,1.0,90.80153279894492
6.32,1.0,90.66574365211018
6.328,1.0,90.52986941081038
6.336,1.0,90.3939099959553
6.344,0.9999999999999999,90.25786532878787
6.352,0.9999999999999999,90.1217353308862
6.36,0.9999999999999999,89.98551992416547
6.368,1.0,89.84921903088001
6.376,0.9999999999999998,89.71283257362515
6.384,1.0,89.57636047533933
6.392,0.9999999999999998,89.43980265930601
6.4,1.0,89.30315904915568
6.408,0.9999999999999999,89.16642956886784
6.416,0.9999999999999999,89.02961414277304
6.424,1.0,88.89271269555478
6.432,0.9999999999999999,88.75572515225163
6.44,0.9999999999999999,88.61865143825918
6.448,0.9999999999999999,88.481491479332
6.456,0.9999999999999999,88.34424520158574
6.464,0.9999999999999999,88.20691253149909
6.472,0.9999999999999998,88.06949339591576
6.48,0.9999999999999999,87.93198772204663
6.4879999999999995,1.0,87.79439543747164
6.496,1.0,87.65671647014183
6.504,1.0,87.51895074838147
6.5120000000000005,1.0,87.38109820088994
6.52,1.0,87.24315875674394
6.5280000000000005,0.9999999999999999,87.10513234539933
6.536,0.9999999999999999,86.96701889669336
6.5440000000000005,1.0,86.82881834084654
6.552,1.0,86.69053060846483
6.5600000000000005,0.9999999999999999,86.55215563054155
6.568,1.0,86.41369333845961
6.5760000000000005,0.9999999999999999,86.2751436639933
6.584,1.0,86.13650653931067
6.592,1.0,85.99778189697525
6.6,1.0,85.85896966994841
6.608,0.9999999999999999,85.72006979159117
6.616,0.9999999999999999,85.58108219566648
6.624,1.0,85.4420068163411
6.632,1.0,85.30284358818784
6.64,1.0,85.16359244618748
6.648,1.0000000000000002,85.02425332573094
6.656,0.9999999999999998,84.88482616262131
6.664,0.9999999999999999,84.745310893076
6.672,1.0,84.60570745372866
6.68,1.0,84.46601578163148
6.688,0.9999999999999998,84.32623581425709
6.696,1.0,84.18636748950075
6.704,1.0,84.0464107456824
6.712,0.9999999999999999,83.90636552154875
6.72,1.0,83.7662317562754
6.728,0.9999999999999999,83.6260093894689
6.736,0.9999999999999999,83.48569836116887
6.744,0.9999999999999998,83.3452986118501
6.752,1.0,83.2048100824246
6.76,0.9999999999999999,83.0642327142438
6.768,1.0,82.92356644910053
6.776,1.0,82.78281122923127
6.784,0.9999999999999999,82.64196699731812
6.792,0.9999999999999998,82.50103369649098
6.8,1.0,82.36001127032965
6.808,1.0,82.21889966286595
6.816,1.0,82.07769881858582
6.824,1.0,81.93640868243139
6.832,0.9999999999999999,81.79502919980322
6.84,1.0,81.65356031656228
6.848,1.0000000000000002,81.51200197903216
6.856,1.0,81.37035413400116
6.864,0.9999999999999999,81.22861672872438
6.872,1.0,81.08678971092588
6.88,0.9999999999999999,80.94487302880084
6.888,1.0,80.80286663101758
6.896,1.0,80.66077046671978
6.904,1.0,80.51858448552858
6.912,0.9999999999999999,80.37630863754468
6.92,1.0000000000000002,80.2339428733505
6.928,1.0,80.09148714401228
6.936,1.0,79.94894140108225
6.944,1.0,79.80630559660075
6.952,1.0,79.66357968309833
6.96,1.0,79.52076361359792
6.968,0.9999999999999999,79.37785734161692
6.976,1.0,79.23486082116938
6.984,1.0,79.09177400676813
6.992,0.9999999999999999,78.94859685342689
7.0,1.0,78.80532931666242
7.008,0.9999999999999999,78.66197135249662
7.016,0.9999999999999999,78.51852291745874
7.024,0.9999999999999999,78.37498396858746
7.032,0.9999999999999999,78.23135446343302
7.04,1.0,78.08763436005938
7.048,0.9999999999999999,77.94382361704642
7.056,1.0,77.79992219349191
7.064,0.9999999999999999,77.65593004901379
7.072,1.0000000000000002,77.51184714375229
7.08,1.0,77.36767343837202
7.088,1.0,77.22340889406412
7.096,1.0,77.07905347254841
7.104,1.0,76.93460713607551
7.112,1.0,76.79006984742902
7.12,0.9999999999999998,76.6454415699276
7.128,0.9999999999999999,76.5007222674271
7.136,1.0000000000000002,76.35591190432277
7.144,1.0,76.21101044555131
7.152,0.9999999999999999,76.06601785659308
7.16,1.0,75.92093410347414
7.168,1.0,75.77575915276849
7.176,0.9999999999999999,75.63049297160009
7.184,1.0,75.4851355276451
7.192,0.9999999999999999,75.33968678913392
7.2,1.0,75.19414672485338
7.208,0.9999999999999999,75.04851530414885
7.216,0.9999999999999999,74.90279249692634
7.224,1.0,74.75697827365464
7.232,0.9999999999999999,74.61107260536747
7.24,1.0,74.4650754636656
7.248,0.9999999999999999,74.31898682071892
7.256,1.0,74.17280664926864
7.264,1.0,74.02653492262935
7.272,0.9999999999999999,73.88017161469114
7.28,0.9999999999999999,73.73371669992174
7.288,1.0,73.58717015336867
7.296,0.9999999999999999,73.44053195066122
7.304,0.9999999999999999,73.29380206801278
7.312,1.0,73.1469804822227
7.32,0.9999999999999999,73.00006717067858
7.328,1.0,72.8530621113583
7.336,0.9999999999999999,72.70596528283215
7.344,0.9999999999999999,72.55877666426494
7.352,1.0,72.41149623541803
7.36,1.0,72.26412397665152
7.368,1.0,72.1166598689263
7.376,1.0,71.96910389380614
7.384,1.0,71.82145603345975
7.392,1.0,71.67371627066302
7.4,1.0,71.52588458880088
7.4079999999999995,1.0,71.37796097186953
7.416,0.9999999999999999,71.22994540447847
7.4239999999999995,0.9999999999999999,71.08183787185267
7.432,0.9999999999999999,70.93363835983448
7.4399999999999995,0.9999999999999999,70.78534685488583
7.448,0.9999999191981677,70.63696334409023
7.4559999999999995,0.9999998205021511,70.48848781515494
7.464,0.9999997229759509,70.33992025641288
7.4719999999999995,0.9999996266325617,70.19126065682484
7.48,0.9999995314845448,70.04250900598137
7.4879999999999995,0.9999994375440321,69.89366529410503
7.496,0.9999993448227321,69.74472951205227
7.504,0.9999992533319344,69.59570165131564
7.5120000000000005,0.9999991630825141,69.4465817040256
7.52,0.9999990740849375,69.29736966295283
7.5280000000000005,0.9999989863492665,69.14806552151003
7.536,0.999998899885164,68.9986692737542
7.5440000000000005,0.9999988147018974,68.84918091438836
7.552,0.9999987308083459,68.69960043876387
7.5600000000000005,0.9999986482130026,68.54992784288223
7.568,0.9999985669239814,68.40016312339726
7.5760000000000005,0.9999984869490212,68.25030627761701
7.584,0.9999984082954898,68.10035730350583
7.5920000000000005,0.9999983309703903,67.95031619968626
7.6,0.9999982549803652,67.80018296544125
7.6080000000000005,0.9999981803317004,67.64995760071588
7.616,0.9999981070303314,67.4996401061196
7.6240000000000006,0.9999980350818468,67.34923048292802
7.632,0.9999979644914938,67.19872873308508
7.640000000000001,0.9999978952641831,67.04813485920481
7.648,0.999997827404493,66.8974488645735
7.656000000000001,0.9999977609166738,66.74667075315156
7.664,0.9999976958046541,66.59580052957556
7.672,0.9999976320720437,66.44483819916
7.68,0.9999975697221395,66.29378376789955
7.688,0.9999975087579295,66.14263724247077
7.696,0.9999974491820975,65.99139863023414
7.704,0.9999973909970283,65.840067939236
7.712,0.9999973342048113,65.68864517821042
7.72,0.9999972788072464,65.53713035658123
7.728,0.9999972248058471,65.38552348446385
7.736,0.999997172201846,65.23382457266723
7.744,0.9999971209962002,65.08203363269583
7.752,0.9999970711895935,64.93015067675135
7.76,0.9999970227824427,64.77817571773483
7.768,0.9999969757749023,64.62610876924839
7.776,0.9999969301668672,64.47394984559719
7.784,0.9999968859579794,64.3216989617913
7.792,0.9999968431476307,64.16935613354757
7.8,0.9999968017349682,64.01692137729145
7.808,0.9999967617188983,63.864394710158926
7.816,0.9999967230980908,63.711776149998336
7.824,0.9999966858709842,63.559065715372185
7.832,0.9999966500357891,63.40626342555905
7.84,0.9999966155904932,63.25336930055538
7.848,0.9999965825328652,63.1003833610773
7.856,0.9999965508604592,62.94730562856248
7.864,0.9999965205706195,62.79413612517193
7.872,0.9999964916604842,62.64087487379176
7.88,0.9999964641269896,62.48752189803505
7.888,0.9999964379668753,62.33407722224359
7.896,0.9999964131766866,62.180540871489704
7.904,0.9999963897527806,62.026912871577984
7.912,0.9999963676913289,61.8731932490471
7.92,0.9999963469883233,61.71938203117153
7.928,0.9999963276395778,61.565479245963296
7.936,0.9999963096407353,61.41148492217381
7.944,0.9999962929872694,61.25739908929549
7.952,0.9999962776744896,61.103221777563554
7.96,0.9999962636975452,60.94895301795771
7.968,0.9999962510514299,60.79459284220395
7.976,0.9999962397309843,60.64014128277612
7.984,0.9999962297309006,60.48559837289776
7.992,0.9999962210457275,60.3309641465437
8.0,0.9999962136698733,60.176238638441745
8.008,0.9999962075976094,60.021421884074435
8.016,0.9999962028230749,59.86651391968055
8.024000000000001,0.99999619934028,59.71151478225692
8.032,0.9999961971431107,59.5564245095601
8.04,0.9999961962253308,59.401243140107745
8.048,0.9999961965805881,59.24597071318048
8.056000000000001,0.999996198202416,59.090607268823454
8.064,0.999996201084239,58.93515284784803
8.072,0.9999962052193748,58.77960749183316
8.08,0.999996210601039,58.62397124312718
8.088000000000001,0.9999962172223488,58.468244144849336
8.096,0.9999962250763261,58.312426240891405
8.104,0.9999962341559013,58.15651757591913
8.112,0.9999962444539173,58.00051819537379
8.120000000000001,0.9999962559631326,57.844428145473955
8.128,0.9999962686762249,57.68824747321679
8.136,0.9999962825857946,57.53197622637964
8.144,0.9999962976843686,57.375614453521514
8.152000000000001,0.9999963139644029,57.21916220398472
8.16,0.9999963314182873,57.0626195278963
8.168,0.9999963500383479,56.90598647616935
8.176,0.9999963698168503,56.749263100504685
8.184000000000001,0.9999963907460038,56.59244945339226
8.192,0.9999964128179639,56.43554558811263
8.2,0.999996436024836,56.27855155873828
8.208,0.999996460358679,56.121467420135176
8.216000000000001,0.9999964858115066,55.964293227964134
8.224,0.999996512375294,55.807029038682344
8.232,0.9999965400419776,55.64967490954447
8.24,0.9999965688034599,55.49223089860434
8.248000000000001,0.9999965986516125,55.3346970647162
8.256,0.9999966295782784,55.177073467536154
8.264,0.9999966615752759,55.0193601675233
8.272,0.9999966946344017,54.86155722594125
8.280000000000001,0.9999967287474327,54.703664704859534
8.288,0.9999967639061297,54.54568266715474
8.296,0.9999968001022411,54.38761117651187
8.304,0.9999968373275043,54.22945029742563
8.312,0.9999968755736492,54.071200095201846
8.32,0.999996914832402,53.912860635958445
8.328,0.9999969550954855,53.75443198662709
8.336,0.9999969963546246,53.595914214954
8.344,0.9999970386015475,53.437307389501655
8.352,0.9999970818279887,53.278611579649514
8.36,0.9999971260256914,53.11982685559568
8.368,0.9999971711864111,52.960953288357736
8.376,0.9999972173019164,52.801990949774186
8.384,0.9999972643639934,52.64293991250544
8.392,0.9999973123644474,52.48380025003517
8.4,0.9999973612951054,52.32457203667116
8.408,0.9999974111478179,52.16525534754676
8.416,0.9999974619144627,52.005850258621784
8.424,0.9999975135869468,51.84635684668373
8.432,0.9999975661572079,51.68677518934876
8.44,0.9999976196172172,51.52710536506292
8.448,0.9999976739589828,51.36734745310307
8.456,0.9999977291745498,51.207501533578046
8.464,0.9999977852560041,51.04756768742958
8.472,0.9999978421954747,50.88754599643345
8.48,0.9999978999851338,50.72743654320038
8.488,0.9999979586172021,50.56723941117718
8.496,0.9999980180839476,50.40695468464744
8.504,0.9999980783776902,50.24658244873294
8.512,0.9999981394908021,50.0861227893941
8.52,0.9999982014157099,49.9255757934314
8.528,0.9999982641448977,49.764941548485865
8.536,0.999998327670907,49.60422014304039
8.544,0.9999983919863413,49.44341166642025
8.552,0.9999984570838649,49.28251620879432
8.56,0.9999985229562063,49.12153386117565
8.568,0.9999985895961601,48.96046471542256
8.576,0.9999986569965877,48.79930886423927
8.584,0.99999872515042,48.638066401176964
8.592,0.9999987940506581,48.476737420634265
8.6,0.9999988636903754,48.31532201785839
8.608,0.9999989340627191,48.15382028894562
8.616,0.9999990051609111,47.99223233084229
8.624,0.9999990769782505,47.83055824134535
8.632,0.9999991495081142,47.66879811910329
8.64,0.9999992227439588,47.506952063616616
8.648,0.9999992966793215,47.34502017523884
8.656,0.9999993713078209,47.18300255517681
8.664,0.9999994466231598,47.020899305491795
8.672,0.9999995226191256,46.858710529099696
8.68,0.9999995992895903,46.696436329772084
8.688,0.9999996766285139,46.53407681213648
8.696,0.9999997546299438,46.37163208167728
8.704,0.9999998332880164,46.20910224473597
8.712,0.9999999125969583,46.04648740851213
8.72,0.9999999925510873,45.88378768106356
8.728,1.0,45.72100317130719
8.736,0.9999999999999999,45.55813398901928
8.744,1.0,45.39518024483625
8.752,1.0,45.23214205025481
8.76,1.0,45.069019517632775
8.768,1.0,44.90581276018923
8.776,1.0,44.74252189200524
8.784,0.9999999999999999,44.57914702802404
8.792,1.0,44.41568828405156
8.8,1.0,44.25214577675674
8.808,0.9999999999999999,44.08851962367206
8.815999999999999,1.0,43.924809943193644
8.824,0.9999999999999999,43.761016854581754
8.832,0.9999999999999999,43.59714047796113
8.84,0.9999999999999999,43.43318093432127
8.847999999999999,1.0,43.26913834551658
8.856,1.0,43.105012834266766
8.864,1.0,42.9408045241571
8.872,1.0,42.77651353963864
8.879999999999999,1.0,42.612140006028284
8.888,1.0,42.44768404950917
8.896,0.9999999999999999,42.283145797130736
8.904,1.0,42.118525376808996
8.911999999999999,1.0,41.953822917326455
8.92,1.0,41.78903854833242
8.928,0.9999999999999999,41.62417240034306
8.936,0.9999999999999999,41.45922460474156
8.943999999999999,1.0,41.294195293777946
8.952,0.9999999999999999,41.12908460056934
8.96,1.0,40.96389265910004
8.968,1.0,40.798619604221365
8.975999999999999,1.0,40.63326557165167
8.984,0.9999999999999999,40.46783069797638
8.992,0.9999999999999999,40.30231512064796
9.0,1.0,40.13671897798582
9.008,1.0,39.971042409176185
9.016,1.0,39.805285554272004
9.024000000000001,0.9999999999999999,39.63944855419293
9.032,0.9999999999999999,39.473531550725106
9.04,1.0,39.30753468652092
9.048,1.0,39.14145810509892
9.056000000000001,1.0,38.97530195084365
9.064,0.9999999999999999,38.80906636900543
9.072,0.9999999999999999,38.64275150569996
9.08,1.0,38.476357507908176
9.088000000000001,1.0,38.30988452347606
9.096,0.9999999999999999,38.143332701114225
9.104,0.9999999999999999,37.976702190397575
9.112,1.0,37.80999314176504
9.120000000000001,1.0,37.643205706519225
9.128,1.0,37.47634003682605
9.136,1.0,37.30939628571421
9.144,1.0,37.142374607074885
9.152000000000001,1.0,36.975275155661365
9.16,1.0,36.808098087088474
9.168,0.9999999999999999,36.6408435578321
9.176,0.9999999999999999,36.47351172522872
9.184000000000001,0.9999999999999999,36.30610274747495
9.192,0.9999999999999999,36.13861678362697
9.2,0.9999999999999999,35.971053993599895
9.208,1.0,35.8034145381672
9.216000000000001,1.0,35.63569857896033
9.224,0.9999999999999999,35.46790627846786
9.232,1.0,35.300037800034886
9.24,1.0,35.132093307862405
9.248000000000001,1.0,34.9640729670067
9.256,1.0,34.7959769433786
9.264,1.0,34.627805403742634
9.272,1.0,34.459558515716424
9.280000000000001,1.0,34.29123644776992
9.288,0.9999999999999999,34.122839369224664
9.296,1.0,33.95436745025277
9.304,1.0,33.78582086187625
9.312000000000001,1.0,33.61719977596629
9.32,0.9999999999999999,33.4485043652422
9.328,1.0000000000000002,33.27973480327052
9.336,1.0,33.110891264464186
9.344,0.9999999999999999,32.94197392408167
9.352,1.0,32.77298295822587
9.36,0.9999999999999999,32.60391854384328
9.368,1.0,32.43478085872283
9.376,1.0,32.265570081495156
9.384,0.9999999999999999,32.09628639163117
9.392,1.0,31.926929969441424
9.4,1.0,31.757500996074686
9.408,1.0,31.58799965351711
9.416,1.0,31.41842612459084
9.424,1.0,31.24878059295319
9.432,1.0,31.079063243095174
9.44,1.0,30.9092742603406
9.448,1.0,30.739413830844565
9.456,1.0,30.56948214159259
9.464,1.0,30.399479380398976
9.472,1.0,30.229405735905914
9.48,1.0,30.05926139758184
9.488,1.0,29.889046555720494
9.496,1.0,29.7187614014392
9.504,1.0,29.548406126677875
9.512,0.9999999999999999,29.377980924197303
9.52,1.0,29.2074859875781
9.528,1.0,29.03692151121893
9.536,0.9999999999999999,28.866287690335408
9.544,1.0,28.69558472095833
9.552,1.0,28.52481279993246
9.56,0.9999999999999998,28.353972124914765
9.568,1.0,28.183062894373148
9.576,1.0,28.012085307584645
9.584,0.9999999999999999,27.841039564634105
9.592,1.0,27.66992586641233
9.6,1.0,27.49874441461476
9.608,1.0,27.327495411739527
9.616,0.9999999999999999,27.15617906108609
9.624,1.0,26.984795566753295
9.632,1.0,26.813345133637906
9.64,1.0,26.641827967432672
9.648,1.0,26.470244274624783
9.656,1.0,26.298594262493904
9.664,0.9999999999999999,26.12687813911062
9.672,1.0,25.95509611333433
9.68,1.0,25.783248394811785
9.688,0.9999999999999999,25.611335193974845
9.696,1.0,25.43935672203896
9.704,0.9999999999999999,25.267313191000945
9.712,1.0,25.0952048136374
9.72,1.0,24.923031803502464
9.728,1.0,24.750794374926112
9.736,0.9999999999999999,24.578492743011914
9.744,1.0,24.406127123635333
9.752,0.9999999999999999,24.233697733441357
9.76,1.0,24.061204789842826
9.768,1.0,23.88864851101799
9.776,1.0,23.71602911590877
9.784,0.9999999999999999,23.543346824218325
9.792,1.0,23.37060185640922
9.8,1.0,23.19779443370097
9.808,1.0,23.024924778068183
9.816,1.0,22.851993112238034
9.824,0.9999999999999999,22.678999659688365
9.832,0.9999999999999999,22.505944644645172
9.84,0.9999999999999999,22.332828292080574
9.847999999999999,1.0,22.15965082771032
9.856,0.9999999999999999,21.986412477991593
9.864,0.9999999999999999,21.81311347012076
9.872,1.0,21.639754032030897
9.879999999999999,0.9999999999999999,21.466334392389467
9.888,0.9999999999999999,21.292854780595864
9.896,0.9999999999999999,21.119315426779178
9.904,1.0,20.94571656179564
9.911999999999999,1.0,20.772058417226102
9.92,0.9999999999999999,20.59834122537367
9.928,1.0,20.424565219261243
9.936,0.9999999999999999,20.25073063262893
9.943999999999999,1.0,20.07683769993145
9.952,1.0,19.90288665633564
9.96,0.9999999999999999,19.728877737717966
9.968,1.0,19.554811180661805
9.975999999999999,0.9999999999999999,19.38068722245482
9.984,0.9999999999999999,19.20650610108632
9.992,0.9999999999999999,19.032268055244703
10.0,1.0,18.857973324314734
10.008,1.0,18.683622148374674
10.016,0.9999999999999999,18.509214768193743
10.024000000000001,1.0,18.33475142522934
10.032,1.0,18.16023236162425
10.04,1.0,17.98565782020384
10.048,0.9999999999999999,17.811028044473204
10.056000000000001,1.0,17.636343278614497
10.064,1.0,17.461603767484007
10.072,1.0,17.286809756609152
10.08,1.0,17.11196149218574
10.088000000000001,1.0,16.937059221075057
10.096,1.0,16.76210319080094
10.104,0.9999999999999999,16.587093649546677
10.112,1.0,16.412030846152163
10.120000000000001,0.9999999999999999,16.236915030110975
10.128,0.9999999999999999,16.06174645156723
10.136,1.0,15.886525361312577
10.144,0.9999999999999999,15.711252010783134
10.152000000000001,1.0,15.535926652056524
10.16,0.9999999999999999,15.360549537848701
