freq,mag,phase
6.0,1.0,46.15496710107649
6.008,1.0,45.944796626167744
6.016,1.0,45.73451920366156
6.024,1.0,45.524134883992694
6.032,1.0,45.31364371855628
6.04,1.0,45.10304575971086
6.048,1.0,44.89234106078129
6.056,0.9999999999999999,44.68152967606177
6.064,0.9999999999999999,44.47061166081871
6.072,0.9999999999999999,44.25958707129368
6.08,1.0000000000000002,44.048455964706335
6.088,1.0,43.83721839925724
6.096,1.0,43.62587443413082
6.104,1.0,43.414424129498165
6.112,0.9999999999999999,43.20286754651987
6.12,1.0,42.99120474734889
6.128,1.0,42.779435795133296
6.136,0.9999999999999999,42.567560754019134
6.144,0.9999999999999999,42.355579689153096
6.152,0.9999999999999999,42.14349266668534
6.16,1.0,41.93129975377225
6.168,1.0,41.71900101857905
6.176,1.0,41.50659653028258
6.184,1.0,41.29408635907397
6.192,1.0,41.081470576161266
6.2,0.9999998829829915,40.8687492537721
6.208,0.9999996267117297,40.65592246515629
6.216,0.999999371178235,40.44299028458842
6.224,0.999999116439453,40.22995278737053
6.232,0.9999988625514473,40.01681004983452
6.24,0.9999986095694007,39.8035621493448
6.248,0.9999983575476187,39.59020916430081
6.256,0.999998106539532,39.37675117413944
6.264,0.9999978565977005,39.1631882593376
6.272,0.9999976077738143,38.949520501414625
6.28,0.999997360118699,38.735747982934775
6.288,0.999997113682317,38.5218707875095
6.296,0.9999968685137716,38.30788899980008
6.304,0.9999966246613093,38.09380270551976
6.312,0.9999963821723252,37.879611991436235
6.32,0.9999961410933613,37.66531694537396
6.328,0.9999959014701159,37.45091765621641
6.336,0.9999956633474418,37.23641421390842
6.344,0.999995426769353,37.02180670945841
6.352,0.9999951917790253,36.807095234940675
6.36,0.9999949584188019,36.59227988349749
6.368,0.9999947267301954,36.37736074934142
6.376,0.9999944967538918,36.16233792775745
6.384,0.9999942685297537,35.94721151510507
6.392,0.9999940420968239,35.73198160882049
6.4,0.9999938174933287,35.516648307418656
6.408,0.9999935947566821,35.301211710495394
6.416,0.9999933739234886,35.08567191872936
6.424,0.999993155029547,34.87002903388416
6.432,0.9999929381098541,34.654283158810294
6.44,0.9999927231986088,34.43843439744712
6.448,0.9999925103292144,34.22248285482484
6.456,0.999992299534285,34.00642863706637
6.464,0.9999920908456463,33.790271851389264
6.472,0.9999918842943405,33.57401260610757
6.48,0.9999916799106313,33.35765101063371
6.4879999999999995,0.9999914777240063,33.14118717548024
6.496,0.9999912777631808,32.92462121226157
6.504,0.9999910800561029,32.707953233695996
6.5120000000000005,0.9999908846299569,32.491183353607035
6.52,0.9999906915111666,32.27431168692555
6.5280000000000005,0.9999905007254001,32.05733834969102
6.536,0.9999903122975736,31.840263459053592
6.5440000000000005,0.9999901262518555,31.62308713327532
6.552,0.9999899426116705,31.405809491732093
6.5600000000000005,0.9999897613997034,31.188430654914878
6.568,0.9999895826379035,30.970950744431658
6.5760000000000005,0.9999894063474898,30.753369883008443
6.584,0.9999892325489518,30.53568819449125
6.592,0.9999890612620591,30.31790580384715
6.6,0.999988892505861,30.100022837165938
6.608,0.9999887262986923,29.882039421661403
6.616,0.9999885626581784,29.663955685672757
6.624,0.9999884016012391,29.445771758665902
6.632,0.9999882431440927,29.227487771234756
6.64,0.9999880873022606,29.009103855102538
6.648,0.9999879340905717,28.79062014312304
6.656,0.9999877835231675,28.572036769281688
6.664,0.9999876356135047,28.353353868696896
6.672,0.9999874903743623,28.134571577621124
6.68,0.9999873478178446,27.91569003344197
6.688,0.9999872079553854,27.69670937468331
6.696,0.9999870707977535,27.477629741006325
6.704,0.999986936355057,27.25845127321051
6.712,0.9999868046367484,27.039174113234647
6.72,0.999986675651628,26.8197984041578
6.728,0.9999865494078499,26.600324290200223
6.736,0.9999864259129259,26.380751916724215
6.744,0.9999863051737311,26.161081430234983
6.752,0.9999861871965074,25.941312978381514
6.76,0.9999860719868698,25.72144670995731
6.768,0.9999859595498093,25.50148277490116
6.776,0.9999858498897002,25.281421324297856
6.784,0.9999857430103025,25.061262510378914
6.792,0.9999856389147685,24.841006486523124
6.8,0.9999855376056472,24.620653407257308
6.808,0.999985439084888,24.400203428256823
6.816,0.9999853433538481,24.1796567063461
6.824,0.9999852504132958,23.959013399499202
6.832,0.9999851602634156,23.73827366684026
6.84,0.9999850729038136,23.517437668643964
6.848,0.9999849883335219,23.296505566335938
6.856,0.9999849065510052,23.07547752249309
6.864,0.9999848275541641,22.854353700844026
6.872,0.9999847513403408,22.63313426626929
6.88,0.9999846779063253,22.411819384801607
6.888,0.9999846072483584,22.190409223626187
6.896,0.9999845393621387,21.96890395108086
6.904,0.999984474242827,21.747303736656264
6.912,0.999984411885052,21.525608750995932
6.92,0.9999843522829146,21.303819165896385
6.928,0.9999842954299945,21.081935154307207
6.936,0.9999842413193536,20.859956890330977
6.944,0.9999841899435427,20.637884549223344
6.952,0.9999841412946072,20.415718307392872
6.96,0.9999840953640909,20.19345834240095
6.968,0.9999840521430422,19.97110483296173
6.976,0.9999840116220184,19.74865795894178
6.984,0.9999839737910943,19.52611790136003
6.992,0.9999839386398631,19.303484842387434
7.0,0.999983906157445,19.08075896534668
7.008,0.9999838763324905,18.857940454711823
7.016,0.9999838491531885,18.63502949610803
7.024,0.9999838246072684,18.41202627631099
7.032,0.9999838026820086,18.18893098324661
7.04,0.9999837833642398,17.965743805990453
7.048,0.9999837666403517,17.74246493476721
7.056,0.9999837524962975,17.51909456095017
7.064,0.9999837409176014,17.295632877060502
7.072,0.9999837318893616,17.072080076766788
7.08,0.9999837253962568,16.84843635488412
7.088,0.9999837214225525,16.62470190737355
7.096,0.9999837199521061,16.400876931341195
7.104,0.9999837209683717,16.176961625037514
7.112,0.9999837244544071,15.952956187856351
7.12,0.999983730392878,15.728860820334173
7.128,0.9999837387660642,15.504675724149033
7.136,0.999983749555866,15.28040110211964
7.144,0.9999837627438078,15.056037158204342
7.152,0.9999837783110467,14.831584097500025
7.16,0.9999837962383747,14.607042126241117
7.168,0.9999838165062275,14.382411451798324
7.176,0.9999838390946875,14.157692282677552
7.184,0.9999838639834917,13.932884828518631
7.192,0.9999838911520356,13.70798930009404
7.2,0.9999839205793802,13.48300590930766
7.208,0.9999839522442577,13.25793486919335
7.216,0.9999839861250753,13.032776393913638
7.224,0.9999840221999231,12.807530698758232
7.232,0.9999840604465785,12.582198000142544
7.24,0.9999841008425131,12.356778515606216
7.248,0.9999841433648973,12.13127246381152
7.256,0.9999841879906057,11.9056800645418
7.264,0.999984234696225,11.680001538699765
7.272,0.9999842834580566,11.454237108305856
7.28,0.9999843342521261,11.228386996496509
7.288,0.9999843870541842,11.002451427522363
7.296,0.9999844418397179,10.776430626746448
7.304,0.9999844985839518,10.550324820642341
7.312,0.9999845572618555,10.32413423679225
7.32,0.9999846178481512,10.097859103885096
7.328,0.9999846803173151,9.871499651714487
7.336,0.9999847446435879,9.645056111176698
7.344,0.9999848108009768,9.418528714268623
7.352,0.9999848787632637,9.191917694085621
7.36,0.9999849485040097,8.965223284819388
7.368,0.9999850199965608,8.73844572175572
7.376,0.999985093214055,8.511585241272291
7.384,0.999985168129426,8.284642080836322
7.392,0.9999852447154101,8.057616479002318
7.4,0.9999853229445532,7.830508675409587
7.4079999999999995,0.9999854027892129,7.603318910779928
7.416,0.9999854842215685,7.376047426915015
7.4239999999999995,0.9999855672136237,7.148694466694117
7.432,0.9999856517372133,6.921260274071222
7.4399999999999995,0.9999857377640091,6.69374509407281
7.448,0.9999858252655257,6.466149172794826
7.4559999999999995,0.9999859142131255,6.23847275740036
7.464,0.9999860045780251,6.010716096116563
7.4719999999999995,0.9999860963313008,5.782879438232215
7.48,0.999986189443894,5.554963034094561
7.4879999999999995,0.9999862838866174,5.3269671351068
7.496,0.99998637963016,5.098891993724802
7.504,0.9999864766450932,4.870737863454549
7.5120000000000005,0.9999865749018767,4.6425049988487315
7.52,0.9999866743708633,4.414193655504131
7.5280000000000005,0.9999867750223054,4.185804090058081
7.536,0.99998687682636,3.957336560185811
7.5440000000000005,0.9999869797530949,3.7287913245968047
7.552,0.9999870837724937,3.500168643032012
7.5600000000000005,0.9999871888544621,3.271468776260194
7.568,0.9999872949688324,3.042691986074997
7.5760000000000005,0.9999874020853697,2.8138385352912096
7.584,0.9999875101737782,2.584908687741771
7.5920000000000005,0.9999876192037048,2.3559027082739123
7.6,0.9999877291447473,2.126820862746095
7.6080000000000005,0.9999878399664572,1.8976634180240748
7.616,0.9999879516383471,1.6684306419777168
7.6240000000000006,0.999988064129895,1.4391228034769987
7.632,0.9999881774105505,1.2097401723887344
7.640000000000001,0.99998829144974,0.9802830195724687
7.648,0.9999884062168723,0.7507516168771338
7.656000000000001,0.999988521681343,0.5211462371368645
7.664,0.9999886378125423,0.2914671541675406
7.672,0.9999887545798573,0.06171464276254135
7.68,0.9999888719526798,-0.16811102131090283
7.688,0.9999889899004102,-0.3980095613158159
7.696,0.9999891083924637,-0.627980699549441
7.704,0.9999892273982751,-0.8580241573473351
7.712,0.9999893468873046,-1.0881396550874292
7.72,0.9999894668290417,-1.3183269121942023
7.728,0.9999895871930129,-1.5485856471428545
7.736,0.999989707948784,-1.7789155774635437
7.744,0.9999898290659678,-2.0093164197456597
7.752,0.9999899505142278,-2.239787889642149
7.76,0.999990072263284,-2.470329701873865
7.768,0.9999901942829176,-2.7009415702339803
7.776,0.9999903165429767,-2.9316232075924407
7.784,0.9999904390133803,-3.162374325900441
7.792,0.9999905616641251,-3.393194636194981
7.8,0.9999906844652885,-3.624083848603423
7.808,0.9999908073870355,-3.855041672348119
7.816,0.999990930399622,-4.086067815751086
7.824,0.9999910534734012,-4.317161986238698
7.832,0.9999911765788276,-4.548323890346435
7.84,0.9999912996864624,-4.779553233723684
7.848,0.9999914227669774,-5.010849721138557
7.856,0.999991545791162,-5.242213056482787
7.864,0.9999916687299255,-5.473642942776624
7.872,0.9999917915543036,-5.705139082173814
7.88,0.9999919142354622,-5.936701175966591
7.888,0.9999920367447028,-6.16832892459072
7.896,0.9999921590534668,-6.400022027630584
7.904,0.9999922811333402,-6.631780183824316
7.912,0.9999924029560588,-6.863603091068955
7.92,0.9999925244935117,-7.095490446425676
7.928,0.9999926457177474,-7.327441946125014
7.936,0.9999927666009762,-7.559457285572176
7.944,0.999992887115577,-7.791536159352374
7.952,0.9999930072341003,-8.023678261236189
7.96,0.9999931269292736,-8.255883284184977
7.968,0.9999932461740045,-8.488150920356354
7.976,0.9999933649413866,-8.720480861109655
7.984,0.9999934832047027,-8.952872797011494
7.992,0.9999936009374297,-9.185326417841338
8.0,0.9999937181132428,-9.417841412597102
8.008,0.9999938347060195,-9.650417469500793
8.016,0.9999939506898443,-9.883054276004328
8.024000000000001,0.9999940660390119,-10.115751518795053
8.032,0.999994180728032,-10.34850888380161
8.04,0.9999942947316341,-10.581326056199877
8.048,0.9999944080247701,-10.814202720418706
8.056000000000001,0.9999945205826187,-11.04713856014572
8.064,0.9999946323805908,-11.28013325833332
8.072,0.9999947433943309,-11.513186497204785
8.08,0.9999948535997234,-11.746297958260138
8.088000000000001,0.9999949629728949,-11.97946732228212
8.096,0.9999950714902188,-12.212694269342338
8.104,0.999995179128319,-12.445978478807504
8.112,0.9999952858640728,-12.679319629345493
8.120000000000001,0.9999953916746164,-12.9127173989314
8.128,0.9999954965373457,-13.146171464853923
8.136,0.9999956004299231,-13.37968150372166
8.144,0.9999957033302794,-13.613247191469375
8.152000000000001,0.9999958052166169,-13.846868203364188
8.16,0.9999959060674135,-14.08054421401207
8.168,0.9999960058614267,-14.314274897364351
8.176,0.9999961045776962,-14.548059926724052
8.184000000000001,0.9999962021955466,-14.781898974752288
8.192,0.999996298694593,-15.015791713474849
8.2,0.999996394054742,-15.249737814288888
8.208,0.9999964882561957,-15.483736947969376
8.216000000000001,0.9999965812794552,-15.717788784675614
8.224,0.9999966731053229,-15.951892993958044
8.232,0.999996763714907,-16.18604924476496
8.24,0.9999968530896226,-16.42025720544918
8.248000000000001,0.9999969412111966,-16.65451654377467
8.256,0.9999970280616692,-16.88882692692345
8.264,0.9999971136233976,-17.123188021502514
8.272,0.9999971978790586,-17.35759949355057
8.280000000000001,0.999997280811651,-17.59206100854483
8.288,0.9999973624044989,-17.826572231408043
8.296,0.9999974426412547,-18.061132826515504
8.304,0.9999975215059005,-18.295742457701994
8.312,0.9999975989827521,-18.530400788268565
8.32,0.9999976750564604,-18.76510748099003
8.328,0.9999977497120149,-18.99986219812152
8.336,0.9999978229347453,-19.23466460140612
8.344,0.9999978947103241,-19.469514352081482
8.352,0.9999979650247699,-19.704411110887474
8.36,0.999998033864448,-19.93935453807292
8.368,0.999998101216074,-20.17434429340328
8.376,0.9999981670667162,-20.409380036167438
8.384,0.9999982314037952,-20.64446142518543
8.392,0.99999829421509,-20.879588118815324
8.4,0.9999983554887367,-21.114759774961026
8.408,0.9999984152132321,-21.34997605107912
8.416,0.999998473377435,-21.585236604186804
8.424,0.9999985299705689,-21.820541090868776
8.432,0.9999985849822227,-22.055889167285226
8.44,0.9999986384023534,-22.29128048917879
8.448,0.9999986902212872,-22.526714711882484
8.456,0.9999987404297216,-22.762191490326895
8.464,0.9999987890187269,-22.997710479048038
8.472,0.9999988359797478,-23.233271332194597
8.48,0.9999988813046049,-23.46887370353593
8.488,0.9999989249854951,-23.70451724646925
8.496,0.9999989670149958,-23.94020161402774
8.504,0.9999990073860632,-24.175926458887766
8.512,0.9999990460920346,-24.41169143337706
8.52,0.9999990831266311,-24.64749618948195
8.528,0.9999991184839563,-24.883340378855593
8.536,0.9999991521584994,-25.11922365282529
8.544,0.9999991841451358,-25.355145662400698
8.552,0.9999992144391268,-25.591106058281266
8.56,0.9999992430361224,-25.82710449086445
8.568,0.999999269932162,-26.063140610253143
8.576,0.9999992951236735,-26.299214066264057
8.584,0.9999993186074757,-26.535324508435103
8.592,0.9999993403807791,-26.77147158603379
8.6,0.9999993604411855,-27.007654948064737
8.608,0.9999993787866898,-27.243874243278054
8.616,0.9999993954156792,-27.48012912017692
8.624,0.9999994103269353,-27.716419227025963
8.632,0.9999994235196336,-27.952744211858892
8.64,0.9999994349933433,-28.18910372248698
8.648,0.9999994447480298,-28.42549740650662
8.656,0.9999994527840526,-28.661924911307874
8.664,0.9999994591021663,-28.89838588408221
8.672,0.9999994637035221,-29.134879971830873
8.68,0.9999994665896655,-29.371406821372705
8.688,0.9999994677625388,-29.60796607935271
8.696,0.9999994672244794,-29.844557392249722
8.704,0.9999994649782203,-30.08118040638506
8.712,0.9999994610268906,-30.31783476793026
8.72,0.9999994553740135,-30.554520122915715
8.728,0.9999994480235087,-30.791236117238466
8.736,0.9999994389796897,-31.02798239667088
8.744,0.9999994282472652,-31.26475860686845
8.752,0.9999994158313372,-31.50156439337844
8.76,0.9999994017374022,-31.738399401647815
8.768,0.9999993859713491,-31.975263277031917
8.776,0.9999993685394598,-32.21215566480228
8.784,0.999999349448408,-32.44907621015547
8.792,0.9999993287052586,-32.686024558220886
8.8,0.9999993063174667,-32.92300035406958
8.808,0.9999992822928777,-33.160003242722155
8.815999999999999,0.9999992566397254,-33.39703286915744
8.824,0.9999992293666315,-33.63408887832082
8.832,0.999999200482605,-33.871170915132325
8.84,0.9999991699970407,-34.10827862449529
8.847999999999999,0.9999991379197182,-34.34541165130481
8.856,0.9999991042608005,-34.58256964045587
8.864,0.9999990690308337,-34.81975223685192
8.872,0.9999990322407449,-35.0569590854132
8.879999999999999,0.9999989939018411,-35.2941898310853
8.888,0.999998954025808,-35.53144411884754
8.896,0.9999989126247084,-35.76872159372128
8.904,0.9999988697109807,-36.006021900778464
8.911999999999999,0.9999988252974382,-36.24334468515011
8.92,0.9999987793972656,-36.48068959203482
8.928,0.9999987320240192,-36.71805626670694
8.936,0.9999986831916245,-36.9554443545253
8.943999999999999,0.9999986329143752,-37.19285350094163
8.952,0.9999985812069286,-37.43028335150909
8.96,0.999998528084308,-37.667733551890535
8.968,0.9999984735618977,-37.90520374786709
8.975999999999999,0.999998417655442,-38.14269358534683
8.984,0.9999983603810427,-38.38020271037305
8.992,0.9999983017551579,-38.61773076913273
9.0,0.9999982417945995,-38.85527740796509
9.008,0.9999981805165302,-39.09284227337019
9.016,0.9999981179384627,-39.330425012017294
9.024000000000001,0.999998054078256,-39.568025270753346
9.032,0.9999979889541143,-39.805642696611436
9.04,0.9999979225845832,-40.04327693681946
9.048,0.9999978549885489,-40.280927638808585
9.056000000000001,0.9999977861852342,-40.518594450221435
9.064,0.9999977161941962,-40.756277018920876
9.072,0.9999976450353256,-40.99397499299853
9.08,0.9999975727288408,-41.23168802078315
9.088000000000001,0.9999974992952876,-41.46941575084897
9.096,0.9999974247555354,-41.70715783202438
9.104,0.999997349130775,-41.944913913400384
9.112,0.9999972724425148,-42.182683644339086
9.120000000000001,0.9999971947125794,-42.420466674481965
9.128,0.9999971159631049,-42.65826265375846
9.136,0.9999970362165361,-42.896071232394604
9.144,0.9999969554956263,-43.13389206092124
9.152000000000001,0.9999968738234288,-43.37172479018251
9.16,0.9999967912232991,-43.60956907134424
9.168,0.9999967077188888,-43.84742455590267
9.176,0.9999966233341421,-44.08529089569259
9.184000000000001,0.9999965380932935,-44.3231677428958
9.192,0.9999964520208655,-44.56105475004951
9.2,0.9999963651416623,-44.79895157005496
9.208,0.999996277480769,-45.03685785618568
9.216000000000001,0.9999961890635464,-45.274773262095664
9.224,0.9999960999156278,-45.51269744182804
9.232,0.9999960100629166,-45.75063004982341
9.24,0.9999959195315815,-45.98857074092814
9.248000000000001,0.9999958283480519,-46.22651917040266
9.256,0.9999957365390172,-46.46447499392978
9.264,0.9999956441314195,-46.7024378676233
9.272,0.9999955511524518,-46.940407448036076
9.280000000000001,0.9999954576295541,-47.17838339216827
9.288,0.9999953635904087,-47.41636535747582
9.296,0.9999952690629368,-47.65435300187866
9.304,0.9999951740752944,-47.8923459837691
9.312000000000001,0.9999950786558678,-48.13034396201978
9.32,0.9999949828332702,-48.36834659599214
9.328,0.9999948866363373,-48.606353545544756
9.336,0.9999947900941228,-48.844364471041345
9.344,0.9999946932358952,-49.08237903335892
9.352,0.9999945960911318,-49.32039689389632
9.36,0.9999944986895163,-49.55841771458191
9.368,0.9999944010609334,-49.79644115788222
9.376,0.9999943032354638,-50.034466886809604
9.384,0.9999942052433823,-50.27249456493088
9.392,0.9999941071151505,-50.510523856374924
9.4,0.9999940088814133,-50.748554425841185
9.408,0.9999939105729955,-50.98658593860743
9.416,0.9999938122208953,-51.22461806053814
9.424,0.9999937138562824,-51.462650458092114
9.432,0.99999361551049,-51.70068279833099
9.44,0.9999935172150121,-51.93871474892678
9.448,0.9999934190014993,-52.176745978170246
9.456,0.9999933209017526,-52.414776154978505
9.464,0.9999932229477203,-52.65280494890334
9.472,0.9999931251714907,-52.89083203013876
9.48,0.9999930276052904,-53.12885706952927
9.488,0.9999929302814762,-53.36687973857738
9.496,0.9999928332325335,-53.60489970945183
9.504,0.9999927364910685,-53.84291665499512
9.512,0.9999926400898046,-54.080930248731605
9.52,0.9999925440615779,-54.318940164875
9.528,0.999992448439331,-54.556946078336566
9.536,0.9999923532561081,-54.79494766473234
9.544,0.9999922585450516,-55.032944600391396
9.552,0.9999921643393942,-55.27093656236312
9.56,0.9999920706724557,-55.50892322842524
9.568,0.9999919775776382,-55.74690427709119
9.576,0.9999918850884186,-55.984879387618065
9.584,0.9999917932383465,-56.22284824001385
9.592,0.9999917020610363,-56.460810515045495
9.6,0.9999916115901629,-56.698765894245945
