freq,mag,phase
6.0,0.9999956152180786,-135.22696916556805
6.008,0.9999956122519831,-135.63441215119326
6.016,0.9999956136947936,-136.0414907186767
6.024,0.9999956193801024,-136.4482066406209
6.032,0.9999956291442169,-136.85456170750797
6.04,0.9999956428261417,-137.2605577274659
6.048,0.9999956602675613,-137.66619652603652
6.056,0.999995681312819,-138.07147994594507
6.064,0.9999957058088986,-138.47640984687158
6.072,0.9999957336054083,-138.8809881052235
6.08,0.9999957645545577,-139.28521661391065
6.088,0.9999957985111411,-139.68909728212097
6.096,0.9999958353325156,-140.09263203509883
6.104,0.9999958748785843,-140.4958228139244
6.112,0.9999959170117735,-140.89867157529514
6.12,0.9999959615970168,-141.30118029130855
6.128,0.9999960085017302,-141.70335094924724
6.136,0.9999960575957955,-142.10518555136503
6.144,0.9999961087515384,-142.50668611467538
6.152,0.9999961618437104,-142.9078546707412
6.16,0.9999962167494656,-143.30869326546656
6.168,0.9999962733483414,-143.70920395889004
6.176,0.9999963315222374,-144.10938882497982
6.184,0.9999963911553962,-144.50924995143072
6.192,0.9999964521343823,-144.90878943946277
6.2,0.9999965143480579,-145.30800940362153
6.208,0.9999965776875679,-145.70691197158038
6.216,0.9999966420463146,-146.10549928394434
6.224,0.9999967073199385,-146.50377349405576
6.232,0.999996773406296,-146.90173676780185
6.24,0.9999968402054413,-147.29939128342372
6.248,0.999996907619602,-147.69673923132729
6.256,0.999996975553159,-148.09378281389633
6.264,0.9999970439126273,-148.49052424530635
6.272,0.9999971126066333,-148.88696575134145
6.28,0.9999971815458927,-149.2831095692117
6.288,0.9999972506431919,-149.6789579473731
6.296,0.9999973198133655,-150.07451314534916
6.304,0.9999973889732734,-150.46977743355384
6.312,0.999997458041786,-150.86475309311643
6.32,0.9999975269397542,-151.25944241570846
6.328,0.9999975955899946,-151.65384770337187
6.336,0.999997663917268,-152.04797126834907
6.344,0.9999977318482552,-152.44181543291498
6.352,0.9999977993115408,-152.83538252921014
6.36,0.9999978662375861,-153.2286748990764
6.368,0.9999979325587148,-153.62169489389328
6.376,0.999997998209087,-154.01444487441714
6.384,0.9999980631246805,-154.40692721062095
6.392,0.9999981272432713,-154.7991442815366
6.4,0.9999981905044102,-155.19109847509824
6.408,0.9999982528494046,-155.58279218798765
6.416,0.9999983142212951,-155.97422782548122
6.424,0.9999983745648384,-156.36540780129843
6.432,0.9999984338264841,-156.75633453745198
6.44,0.9999984919543558,-157.14701046409974
6.448,0.9999985488982301,-157.53743801939785
6.456,0.9999986046095168,-157.92761964935622
6.464,0.9999986590412365,-158.31755780769467
6.472,0.9999987121480063,-158.7072549557014
6.48,0.9999987638860123,-159.0967135620925
6.4879999999999995,0.9999988142129951,-159.4859361028736
6.496,0.9999988630882273,-159.87492506120253
6.504,0.999998910472495,-160.26368292725346
6.5120000000000005,0.9999989563280773,-160.65221219808345
6.52,0.9999990006187275,-161.04051537749922
6.5280000000000005,0.9999990433096526,-161.42859497592676
6.536,0.9999990843674957,-161.81645351028104
6.5440000000000005,0.9999991237603133,-162.2040935038386
6.552,0.9999991614575598,-162.59151748611038
6.5600000000000005,0.9999991974300673,-162.97872799271715
6.568,0.9999992316500245,-163.36572756526502
6.5760000000000005,0.9999992640909601,-163.75251875122393
6.584,0.999999294727724,-164.1391041038062
6.592,0.9999993235364665,-164.5254861818474
6.6,0.9999993504946229,-164.91166754968808
6.608,0.9999993755808915,-165.29765077705716
6.616,0.9999993987752178,-165.68343843895653
6.624,0.9999994200587757,-166.06903311554711
6.632,0.9999994394139486,-166.4544373920362
6.64,0.9999994568243117,-166.83965385856612
6.648,0.9999994722746139,-167.22468511010413
6.656,0.9999994857507615,-167.60953374633394
6.664,0.9999994972397984,-167.99420237154797
6.672,0.999999506729889,-168.37869359454137
6.68,0.9999995142103022,-168.76301002850704
6.688,0.9999995196713919,-169.14715429093192
6.696,0.9999995231045821,-169.53112900349467
6.704,0.999999524502347,-169.91493679196424
6.712,0.9999995238581973,-170.29858028609993
6.72,0.9999995211666604,-170.6820621195525
6.728,0.9999995164232649,-171.06538492976654
6.736,0.9999995096245246,-171.44855135788376
6.744,0.9999995007679213,-171.83156404864772
6.752,0.9999994898518874,-172.21442565030952
6.76,0.9999994768757919,-172.59713881453453
6.768,0.9999994618399232,-172.97970619631053
6.776,0.9999994447454709,-173.36213045385642
6.784,0.9999994255945148,-173.74441424853248
6.792,0.9999994043900038,-174.12656024475137
6.8,0.9999993811357447,-174.50857110989034
6.808,0.9999993558363832,-174.8904495142043
6.816,0.9999993284973911,-175.27219813074015
6.824,0.9999992991250496,-175.65381963525166
6.832,0.9999992677264337,-176.03531670611588
6.84,0.9999992343093987,-176.41669202425
6.848,0.9999991988825657,-176.79794827302956
6.856,0.9999991614553032,-177.17908813820713
6.864,0.9999991220377171,-177.56011430783252
6.872,0.9999990806406325,-177.94102947217323
6.88,0.9999990372755814,-178.32183632363635
6.888,0.9999989919547879,-178.70253755669071
6.896,0.9999989446911535,-179.0831358677907
6.904,0.999998895498244,-179.46363395530008
6.912,0.999998844390275,-179.8440345194172
6.92,0.9999987913820974,179.7756597378993
6.928,0.9999987364891848,179.39544611300374
6.936,0.9999986797276201,179.01532190063622
6.944,0.999998621114081,178.63528439399434
6.952,0.9999985606658274,178.25533088480418
6.96,0.9999984984006889,177.87545866339113
6.968,0.9999984343370488,177.49566501874904
6.976,0.9999983684938353,177.11594723860955
6.984,0.9999983008905049,176.7363026095102
6.992,0.9999982315470326,176.35672841686227
7.0,0.9999981604838971,175.97722194501742
7.008,0.9999980877220697,175.59778047733437
7.016,0.999998013283002,175.2184012962443
7.024,0.9999979371886122,174.83908168331635
7.032,0.999997859461274,174.4598189193217
7.04,0.9999977801238035,174.0806102842978
7.048,0.999997699199451,173.70145305761173
7.056,0.9999976167118841,173.3223445180229
7.064,0.9999975326851784,172.94328194374546
7.072,0.999997447143807,172.5642626125101
7.08,0.9999973601126271,172.18528380162527
7.088,0.999997271616869,171.80634278803802
7.096,0.9999971816821268,171.42743684839445
7.104,0.9999970903343443,171.04856325909927
7.112,0.9999969975998062,170.6697192963757
7.12,0.9999969035051263,170.29090223632403
7.128,0.9999968080772369,169.91210935498057
7.136,0.9999967113433774,169.53333792837572
7.144,0.9999966133310857,169.15458523259173
7.152,0.9999965140681849,168.7758485438203
7.16,0.9999964135827756,168.3971251384197
7.168,0.999996311903224,168.01841229297142
7.176,0.999996209058151,167.6397072843367
7.184,0.999996105076425,167.26100738971277
7.192,0.9999959999871513,166.88230988668857
7.2,0.9999958938196566,166.5036120533004
7.208,0.9999957866034883,166.1249111680873
7.216,0.9999956783683985,165.74620451014604
7.224,0.9999955691443363,165.36748935918604
7.232,0.9999954589614385,164.9887629955839
7.24,0.999995347850021,164.61002270043804
7.248,0.9999952358405674,164.2312657556226
7.256,0.9999951229637208,163.85248944384182
7.264,0.9999950092502763,163.47369104868383
7.272,0.9999948947311698,163.09486785467428
7.28,0.9999947794374707,162.71601714733023
7.288,0.9999946634003718,162.33713621321345
7.296,0.9999945466511809,161.95822233998388
7.304,0.9999944292213138,161.57927281645306
7.312,0.9999943111422843,161.2002849326372
7.32,0.9999941924456945,160.82125597981053
7.328,0.9999940731632301,160.44218325055832
7.336,0.9999939533266488,160.06306403883016
7.344,0.9999938329677739,159.68389563999287
7.352,0.9999937121184856,159.3046753508837
7.36,0.9999935908107139,158.92540046986343
7.368,0.9999934690764284,158.54606829686952
7.376,0.9999933469476342,158.1666761334692
7.384,0.9999932244563605,157.78722128291287
7.392,0.9999931016346553,157.4077010501871
7.4,0.9999929785145775,157.02811274206837
7.4079999999999995,0.9999928551281878,156.6484536671763
7.416,0.999992731507545,156.2687211360272
7.4239999999999995,0.9999926076846938,155.8889124610881
7.432,0.999992483691661,155.50902495682996
7.4399999999999995,0.9999923595604483,155.12905593978255
7.448,0.9999922353230246,154.74900272858767
7.4559999999999995,0.9999921110113167,154.36886264405422
7.464,0.9999919866572076,153.98863300921224
7.4719999999999995,0.9999918622925239,153.60831114936806
7.48,0.9999917379490343,153.2278943921587
7.4879999999999995,0.9999916136584386,152.84738006760765
7.496,0.9999914894523642,152.46676550817978
7.504,0.9999913653623577,152.08604804883748
7.5120000000000005,0.9999912414198804,151.7052250270961
7.52,0.999991117656299,151.32429378308078
7.5280000000000005,0.9999909941028821,150.9432516595824
7.536,0.9999908707907934,150.5620960021149
7.5440000000000005,0.9999907477510838,150.18082415897211
7.552,0.9999906250146883,149.79943348128558
7.5600000000000005,0.9999905026124168,149.41792132308203
7.568,0.9999903805749504,149.03628504134207
7.5760000000000005,0.9999902589328359,148.65452199605835
7.584,0.9999901377164767,148.2726295502949
7.5920000000000005,0.999990016956132,147.89060507024618
7.6,0.9999898966819073,147.50844592529734
7.6080000000000005,0.9999897769237501,147.12614948808385
7.616,0.9999896577114447,146.74371313455288
7.6240000000000006,0.9999895390746059,146.36113424402376
7.632,0.9999894210426755,145.97841019925016
7.640000000000001,0.9999893036449147,145.59553838648162
7.648,0.9999891869104004,145.21251619552666
7.656000000000001,0.9999890708680185,144.82934101981522
7.664,0.9999889555464611,144.44601025646304
7.672,0.9999888409742197,144.06252130633493
7.68,0.9999887271795809,143.67887157411002
7.688,0.9999886141906206,143.2950584683467
7.696,0.9999885020352007,142.91107940154848
7.704,0.9999883907409628,142.52693179023026
7.712,0.9999882803353249,142.14261305498536
7.72,0.9999881708454749,141.75812062055292
7.728,0.9999880622983682,141.37345191588622
7.736,0.999987954720721,140.9886043742212
7.744,0.9999878481390082,140.6035754331462
7.752,0.9999877425794564,140.21836253467163
7.76,0.9999876380680413,139.83296312530103
7.768,0.9999875346304827,139.44737465610223
7.776,0.9999874322922411,139.0615945827794
7.784,0.999987331078512,138.675620365746
7.792,0.9999872310142234,138.28944947019804
7.8,0.9999871321240307,137.9030793661883
7.808,0.9999870344323127,137.51650752870134
7.816,0.9999869379631688,137.12973143772896
7.824,0.9999868427404136,136.74274857834672
7.832,0.9999867487875735,136.355556440791
7.84,0.9999866561278847,135.96815252053702
7.848,0.9999865647842858,135.58053431837737
7.856,0.9999864747794179,135.1926993405017
7.864,0.9999863861356192,134.80464509857666
7.872,0.9999862988749209,134.41636910982754
7.88,0.9999862130190451,134.02786889711956
7.888,0.999986128589401,133.63914198904112
7.896,0.9999860456070807,133.25018591998716
7.904,0.9999859640928567,132.86099823024358
7.912,0.9999858840671778,132.47157646607263
7.92,0.9999858055501678,132.08191817979903
7.928,0.99998572856162,131.69202092989713
7.936,0.9999856531209954,131.30188228107858
7.944,0.999985579247419,130.91149980438158
7.952,0.9999855069596778,130.5208710772603
7.96,0.9999854362762166,130.12999368367554
7.968,0.9999853672151365,129.7388652141867
7.976,0.9999852997941906,129.34748326604378
7.984,0.9999852340307827,128.95584544328128
7.992,0.9999851699419626,128.5639493568124
8.0,0.9999851075444259,128.17179262452447
8.008,0.99998504685451,127.7793728713754
8.016,0.9999849878881906,127.38668772949069
8.024000000000001,0.9999849306610819,126.99373483826218
8.032,0.9999848751884308,126.60051184444718
8.04,0.9999848214851179,126.20701640226856
8.048,0.9999847695656523,125.81324617351618
8.056000000000001,0.9999847194441713,125.41919882764945
8.064,0.9999846711344362,125.02487204190054
8.072,0.9999846246498327,124.63026350137847
8.08,0.9999845800033663,124.23537089917471
8.088000000000001,0.999984537207662,123.84019193646992
8.096,0.9999844962749612,123.4447243226411
8.104,0.9999844572171198,123.04896577537005
8.112,0.999984420045607,122.65291402075322
8.120000000000001,0.9999843847715026,122.25656679341236
8.128,0.9999843514054968,121.85992183660623
8.136,0.9999843199578856,121.4629769023433
8.144,0.9999842904385717,121.0657297514956
8.152000000000001,0.9999842628570614,120.66817815391406
8.16,0.999984237222465,120.27031988854438
8.168,0.9999842135434915,119.87215274354395
8.176,0.9999841918284511,119.47367451640041
8.184000000000001,0.9999841720852518,119.07488301405103
8.192,0.999984154321398,118.67577605300309
8.2,0.9999841385439893,118.27635145945537
8.208,0.9999841247597208,117.87660706942084
8.216000000000001,0.9999841129748791,117.47654072885085
8.224,0.9999841031953433,117.07615029375974
8.232,0.9999840954265831,116.67543363035067
8.24,0.9999840896736578,116.27438861514327
8.248000000000001,0.9999840859412156,115.87301313510162
8.256,0.9999840842334932,115.47130508776401
8.264,0.9999840845543126,115.06926238137298
8.272,0.9999840869070837,114.66688293500728
8.280000000000001,0.9999840912948008,114.26416467871493
8.288,0.9999840977200432,113.86110555364681
8.296,0.9999841061849744,113.45770351219173
8.304,0.9999841166913408,113.05395651811271
8.312,0.9999841292404729,112.6498625466846
8.32,0.9999841438332827,112.24541958483194
8.328,0.9999841604702653,111.84062563126918
8.336,0.9999841791514965,111.43547869664073
8.344,0.9999841998766353,111.02997680366359
8.352,0.9999842226449198,110.62411798726941
8.36,0.9999842474551716,110.21790029474947
8.368,0.9999842743057915,109.81132178589897
8.376,0.9999843031947623,109.4043805331642
8.384,0.9999843341196479,108.9970746217892
8.392,0.9999843670775926,108.58940214996494
8.4,0.9999844020653232,108.1813612289783
8.408,0.9999844390791467,107.77294998336342
8.416,0.9999844781149528,107.36416655105289
8.424,0.9999845191682132,106.95500908353127
8.432,0.9999845622339814,106.54547574598837
8.44,0.999984607306895,106.13556471747512
8.448,0.9999846543811741,105.72527419105874
8.456,0.9999847034506236,105.31460237398089
8.464,0.9999847545086327,104.90354748781495
8.472,0.9999848075481764,104.49210776862613
8.48,0.9999848625618156,104.08028146713106
8.488,0.9999849195416988,103.66806684885981
8.496,0.9999849784795617,103.25546219431746
8.504,0.9999850393667301,102.84246579914824
8.512,0.9999851021941186,102.42907597429922
8.52,0.9999851669522344,102.0152910461862
8.528,0.9999852336311755,101.60110935685945
8.536,0.999985302220635,101.18652926417163
8.544,0.9999853727098995,100.77154914194529
8.552,0.9999854450878527,100.35616738014284
8.56,0.9999855193429762,99.9403823850358
8.568,0.9999855954633504,99.52419257937663
8.576,0.9999856734366568,99.10759640256981
8.584,0.999985753250179,98.69059231084542
8.592,0.9999858348908057,98.27317877743202
8.6,0.9999859183450309,97.85535429273192
8.608,0.9999860035989574,97.43711736449568
8.616,0.9999860906382962,97.0184665179992
8.624,0.9999861794483724,96.59940029621973
8.632,0.9999862700141228,96.17991726001446
8.64,0.9999863623201025,95.76001598829829
8.648,0.9999864563504836,95.33969507822374
8.656,0.9999865520890586,94.91895314536032
8.664,0.9999866495192443,94.49778882387587
8.672,0.9999867486240825,94.07620076671714
8.68,0.9999868493862423,93.65418764579273
8.688,0.9999869517880237,93.23174815215489
8.696,0.999987055811361,92.80888099618363
8.704,0.9999871614378232,92.38558490776985
8.712,0.9999872686486184,91.96185863650062
8.72,0.9999873774245973,91.53770095184336
8.728,0.9999874877462541,91.11311064333222
8.736,0.9999875995937312,90.68808652075336
8.744,0.9999877129468222,90.26262741433223
8.752,0.9999878277849741,89.8367321749198
8.76,0.9999879440872917,89.41039967418072
8.768,0.9999880618325403,88.98362880478031
8.776,0.9999881809991488,88.55641848057354
8.784,0.9999883015652141,88.12876763679272
8.792,0.9999884235085043,87.70067523023707
8.8,0.9999885468064623,87.27214023946105
8.808,0.9999886714362088,86.84316166496443
8.815999999999999,0.9999887973745473,86.41373852938115
8.824,0.9999889245979673,85.98386987766938
8.832,0.9999890530826487,85.55355477730146
8.84,0.9999891828044652,85.1227923184539
8.847999999999999,0.9999893137389887,84.691581614197
8.856,0.9999894458614937,84.2599218006854
8.864,0.9999895791469616,83.82781203734821
8.872,0.9999897135700838,83.39525150707905
8.879999999999999,0.9999898491052677,82.96223941642587
8.888,0.9999899857266414,82.52877499578105
8.896,0.9999901234080562,82.09485749957148
8.904,0.9999902621230927,81.66048620644793
8.911999999999999,0.999990401845066,81.22566041947441
8.92,0.9999905425470289,80.7903794663174
8.928,0.9999906842017781,80.35464269943508
8.936,0.9999908267818586,79.91844949626555
8.943999999999999,0.9999909702595682,79.48179925941496
8.952,0.9999911146069644,79.04469141684535
8.96,0.9999912597958677,78.6071254220623
8.968,0.9999914057978666,78.16910075430141
8.975999999999999,0.9999915525843251,77.73061691871443
8.984,0.9999917001263859,77.2916734465552
8.992,0.9999918483949769,76.85226989536474
9.0,0.9999919973608169,76.41240584915556
9.008,0.99999214699442,75.97208091859504
9.016,0.9999922972661027,75.53129474118847
9.024000000000001,0.999992448145989,75.09004698146133
9.032,0.9999925996040158,74.64833733114024
9.04,0.9999927516099398,74.20616550933309
9.048,0.9999929041333423,73.7635312627084
9.056000000000001,0.9999930571436361,73.32043436567392
9.064,0.9999932106100714,72.87687462055361
9.072,0.9999933645017409,72.43285185776348
9.08,0.9999935187875884,71.9883659359868
9.088000000000001,0.9999936734364121,71.54341674234793
9.096,0.9999938284168732,71.0980041925846
9.104,0.9999939836975019,70.65212823121885
9.112,0.9999941392467031,70.20578883172692
9.120000000000001,0.9999942950327634,69.75898599670775
9.128,0.9999944510238576,69.31171975804965
9.136,0.9999946071880553,68.8639901770953
9.144,0.9999947634933285,68.41579734480574
9.152000000000001,0.9999949199075567,67.96714138192252
9.16,0.999995076398535,67.51802243912783
9.168,0.9999952329339815,67.06844069720297
9.176,0.999995389481542,66.61839636718513
9.184000000000001,0.9999955460087989,66.16788969052261
9.192,0.9999957024832784,65.71692093922749
9.2,0.9999958588724561,65.26549041602641
9.208,0.9999960151437658,64.81359845450959
9.216000000000001,0.9999961712646046,64.36124541927795
9.224,0.9999963272023433,63.9084317060874
9.232,0.9999964829243302,63.45515774199118
9.24,0.9999966383979011,63.001423985479995
9.248000000000001,0.9999967935903854,62.54723092662024
9.256,0.9999969484691136,62.092579087188874
9.264,0.9999971030014247,61.637469020806385
9.272,0.9999972571546755,61.18190131306725
9.280000000000001,0.9999974108962444,60.72587658166788
9.288,0.9999975641935424,60.26939547653175
9.296,0.9999977170140201,59.8124586799315
9.304,0.9999978693251735,59.35506690660887
9.312000000000001,0.9999980210945536,58.89722090389177
9.32,0.9999981722897728,58.438921451808106
9.328,0.9999983228785143,57.98016936319651
9.336,0.9999984728285375,57.52096548381463
9.344,0.9999986221076885,57.06131069244437
9.352,0.999998770683905,56.60120590099306
9.36,0.9999989185252263,56.14065205459276
9.368,0.9999990655998003,55.67965013169505
9.376,0.9999992118758918,55.218201144163736
9.384,0.9999993573218892,54.75630613736279
9.392,0.9999995019063137,54.2939661902425
9.4,0.9999996455978267,53.831182415420365
9.408,0.9999997883652376,53.36795595926018
9.416,0.9999999301775108,52.90428800194584
9.424,0.9999999999999999,52.44017975755308
9.432,1.0,51.97563247411593
9.44,1.0,51.510647433690885
9.448,1.0,51.04522595241579
9.456,1.0,50.579369380566185
9.464,0.9999999999999999,50.11307910260642
9.472,0.9999999999999999,49.64635653723793
9.48,1.0,49.17920313744223
9.488,1.0,48.71162039052116
9.496,1.0,48.24360981813142
9.504,0.9999999999999999,47.77517297631635
9.512,1.0,47.306311455531905
9.52,1.0,46.83702688067001
9.528,1.0,46.3673209110756
9.536,0.9999999999999999,45.897195240561075
9.544,1.0,45.42665159741444
9.552,1.0,44.95569174440474
9.56,1.0,44.48431747878096
9.568,1.0,44.012530632268124
9.576,1.0,43.54033307105694
9.584,1.0,43.06772669579046
9.592,0.9999999999999999,42.59471344154398
9.6,1.0,42.12129527780211
9.608,0.9999999999999999,41.647474208429124
