freq,mag,phase
6.0,0.9999942588883545,73.59101966790334
6.008,0.9999959469779626,73.43960918188361
6.016,0.9999976013724252,73.28816560295536
6.024,0.9999992224280708,73.1366889594182
6.032,1.0,72.98517927967568
6.04,0.9999999999999999,72.83363659223558
6.048,0.9999999999999999,72.68206092571043
6.056,0.9999999999999999,72.53045230881781
6.064,1.0,72.37881077038085
6.072,1.0,72.22713633932851
6.08,1.0,72.07542904469614
6.088,1.0,71.92368891562568
6.096,1.0,71.77191598136622
6.104,0.9999999999999999,71.6201102712744
6.112,0.9999999999999999,71.46827181481463
6.12,0.9999999999999999,71.31640064155965
6.128,1.0,71.16449678119092
6.136,0.9999999999999999,71.01256026349881
6.144,1.0,70.86059111838328
6.152,1.0,70.70858937585402
6.16,0.9999999999999999,70.55655506603101
6.168,0.9999999999999999,70.40448821914471
6.176,1.0,70.2523888655367
6.184,1.0,70.10025703565977
6.192,1.0,69.94809276007858
6.2,0.9999999999999999,69.79589606946973
6.208,0.9999999999999999,69.64366699462248
6.216,1.0,69.4914055664388
6.224,1.0,69.33911181593395
6.232,1.0,69.18678577423678
6.24,1.0,69.03442747259008
6.248,0.9999999999999999,68.882036942351
6.256,1.0,68.72961421499132
6.264,1.0,68.5771593220979
6.272,1.0,68.42467229537303
6.28,1.0,68.27215316663477
6.288,1.0,68.11960196781723
6.296,1.0,67.9670187309711
6.304,1.0,67.81440348826385
6.312,0.9999999999999999,67.66175627198015
6.32,0.9999999999999998,67.50907711452221
6.328,0.9999999999999999,67.35636604841005
6.336,0.9999999999999999,67.20362310628207
6.344,0.9999999999999999,67.05084832089507
6.352,1.0,66.89804172512487
6.36,0.9999999999999999,66.74520335196652
6.368,1.0000000000000002,66.59233323453464
6.376,1.0,66.43943140606375
6.384,1.0,66.28649789990872
6.392,0.9999999999999999,66.13353274954495
6.4,1.0,65.98053598856877
6.408,1.0,65.82750765069778
6.416,0.9999999999999999,65.67444776977112
6.424,0.9999999999999999,65.52135637974989
6.432,1.0,65.36823351471735
6.44,1.0,65.21507920887936
6.448,0.9999999999999999,65.06189349656462
6.456,1.0,64.908676412225
6.464,0.9999999999999999,64.75542799043589
6.472,0.9999999999999999,64.60214826589647
6.48,1.0,64.44883727343007
6.4879999999999995,0.9999999999999999,64.29549504798443
6.496,0.9999999999999998,64.14212162463195
6.504,1.0,63.98871703857021
6.5120000000000005,0.9999999999999999,63.835281325121954
6.52,1.0,63.68181451973577
6.5280000000000005,0.9999999999999999,63.528316657985975
6.536,1.0,63.374787775573296
6.5440000000000005,0.9999999999999999,63.22122790832484
6.552,1.0,63.067637092194666
6.5600000000000005,1.0,62.914015363263815
6.568,0.9999999999999999,62.760362757740836
6.5760000000000005,1.0,62.60667931196184
6.584,1.0,62.452965062390994
6.592,1.0,62.29922004562071
6.6,1.0,62.14544429837183
6.608,0.9999999999999999,61.99163785749408
6.616,1.0,61.837800759966235
6.624,1.0,61.68393304289637
6.632,1.0,61.53003474352224
6.64,1.0,61.376105899211474
6.648,0.9999999999999999,61.22214654746179
6.656,1.0,61.06815672590137
6.664,1.0,60.91413647228903
6.672,0.9999999999999999,60.760085824514555
6.68,1.0000000000000002,60.606004820598855
6.688,1.0,60.45189349869433
6.696,1.0,60.29775189708506
6.704,0.9999999999999999,60.14358005418702
6.712,0.9999999999999999,59.98937800854844
6.72,0.9999999999999999,59.8351457988499
6.728,0.9999999999999999,59.68088346390472
6.736,1.0,59.52659104265912
6.744,1.0,59.372268574192404
6.752,1.0,59.21791609771735
6.76,1.0,59.06353365258028
6.768,1.0000000000000002,58.909121278261445
6.776,1.0,58.75467901437505
6.784,1.0,58.60020690066971
6.792,1.0,58.4457049770285
6.8,0.9999999999999999,58.2911732834693
6.808,1.0,58.13661186014485
6.816,1.0,57.98202074734316
6.824,0.9999999999999999,57.82739998548762
6.832,1.0,57.67274961513716
6.84,1.0,57.51806967698659
6.848,0.9999999999999999,57.36336021186669
6.856,1.0,57.208621260744486
6.864,0.9999999999999999,57.05385286472339
6.872,1.0,56.89905506504348
6.88,1.0,56.744227903081615
6.888,0.9999999999999999,56.58937142035166
6.896,0.9999999999999999,56.4344856585047
6.904,1.0,56.279570659329224
6.912,1.0,56.12462646475122
6.92,0.9999999999999999,55.9696531168345
6.928,1.0,55.814650657780795
6.936,1.0,55.659619129929936
6.944,1.0,55.50455857576004
6.952,1.0,55.349469037887715
6.96,0.9999999999999999,55.194350559068226
6.968,1.0,55.039203182195564
6.976,0.9999999999999998,54.88402695030273
6.984,0.9999999999999999,54.72882190656187
6.992,1.0,54.57358809428438
7.0,0.9999999999999999,54.418325556921125
7.008,1.0,54.263034338062596
7.016,0.9999999999999999,54.10771448143898
7.024,0.9999999999999999,53.952366030920444
7.032,0.9999999999999999,53.796989030517096
7.04,1.0,53.64158352437934
7.048,1.0,53.486149556797876
7.056,0.9999999999999999,53.33068717220389
7.064,0.9999999999999999,53.17519641516914
7.072,0.9999999999999999,53.01967733040617
7.08,1.0000000000000002,52.86412996276838
7.088,1.0,52.70855435725018
7.096,1.0,52.55295055898712
7.104,0.9999999999999999,52.39731861325597
7.112,1.0,52.241658565474886
7.12,0.9999999999999999,52.085970461203516
7.128,1.0,51.93025434614312
7.136,0.9999999999999998,51.77451026613663
7.144,1.0,51.61873826716886
7.152,0.9999999999999999,51.46293839536652
7.16,0.9999999999999999,51.30711069699832
7.168,1.0,51.151255218475164
7.176,1.0,50.995372006350216
7.184,0.9999999999999999,50.839461107318826
7.192,1.0,50.683522568218905
7.2,1.0,50.52755643603079
7.208,1.0,50.37156275787748
7.216,1.0,50.21554158102457
7.224,1.0000000000000002,50.05949295288051
7.232,0.9999999999999999,49.90341692099652
7.24,0.9999999999999999,49.747313533066745
7.248,1.0,49.59118283692837
7.256,1.0,49.435024880561556
7.264,1.0,49.27883971208964
7.272,0.9999999999999999,49.12262737977918
7.28,0.9999999999999999,48.96638793203991
7.288,0.9999999999999999,48.810121417424945
7.296,1.0,48.65382788463068
7.304,1.0,48.49750738249703
7.312,1.0,48.34115996000731
7.32,1.0,48.184785666288384
7.328,1.0,48.02838455061063
7.336,1.0,47.87195666238812
7.344,0.9999999999999999,47.71550205117851
7.352,0.9999999999999998,47.559020766683105
7.36,1.0000000000000002,47.40251285874697
7.368,1.0,47.24597837735888
7.376,1.0,47.08941737265142
7.384,1.0,46.93282989490093
7.392,1.0,46.776215994527576
7.4,0.9999999999999999,46.619575722095355
7.4079999999999995,1.0,46.462909128312134
7.416,0.9999999999999999,46.30621626402958
7.4239999999999995,0.9999999999999999,46.14949718024334
7.432,1.0,45.99275192809281
7.4399999999999995,1.0,45.83598055886141
7.448,1.0,45.6791831239763
7.4559999999999995,1.0,45.522359675008666
7.464,0.9999999999999999,45.36551026367343
7.4719999999999995,1.0,45.20863494182954
7.48,0.9999999999999999,45.05173376147964
7.4879999999999995,0.9999999999999999,44.89480677477037
7.496,1.0,44.7378540339921
7.504,0.9999999999999999,44.58087559157911
7.5120000000000005,1.0,44.423871500109335
7.52,1.0000000000000002,44.26684181230467
7.5280000000000005,1.0,44.1097865810305
7.536,0.9999999999999999,43.95270585929619
7.5440000000000005,1.0,43.795599700254535
7.552,1.0,43.638468157202176
7.5600000000000005,1.0,43.48131128357919
7.568,1.0,43.32412913296933
7.5760000000000005,1.0,43.16692175909977
7.584,1.0,43.00968921584125
7.5920000000000005,0.9999999999999999,42.85243155720782
7.6,1.0,42.69514883735697
7.6080000000000005,1.0,42.537841110589405
7.616,1.0,42.38050843134922
7.6240000000000006,1.0,42.22315085422351
7.632,1.0,42.06576843394264
7.640000000000001,1.0,41.90836122537992
7.648,0.9999999999999999,41.750929283551734
7.656000000000001,0.9999999999999999,41.59347266361722
7.664,1.0,41.43599142087854
7.672,1.0,41.27848561078042
7.68,1.0000000000000002,41.12095528891035
7.688,1.0,40.96340051099838
7.696,0.9999999999999999,40.805821332917034
7.704,0.9999999999999999,40.64821781068124
7.712,0.9999999999999999,40.49059000044823
7.72,1.0,40.332937958517455
7.728,1.0,40.175261741330445
7.736,1.0,40.017561405470765
7.744,1.0,39.859837007663856
7.752,1.0,39.70208860477694
7.76,0.9999999999999999,39.54431625381895
7.768,1.0,39.38652001194036
7.776,1.0,39.2286999364331
7.784,1.0,39.07085608473042
7.792,1.0,38.91298851440677
7.8,0.9999999999999999,38.75509728317768
7.808,0.9999999999999999,38.59718244889965
7.816,1.0,38.439244069569995
7.824,0.9999999999999999,38.281282203326654
7.832,1.0,38.123296908448204
7.84,0.9999999999999999,37.9652882433536
7.848,1.0,37.807256266602025
7.856,1.0,37.64920103689282
7.864,1.0,37.49112261306529
7.872,1.0,37.33302105409858
7.88,1.0,37.17489641911148
7.888,0.9999999999999999,37.01674876736229
7.896,1.0,36.8585781582487
7.904,0.9999999999999998,36.70038465130754
7.912,0.9999999999999999,36.542168306214705
7.92,0.9999999235010611,36.383929182784975
7.928,0.999999721635559,36.22566734097174
7.936,0.999999523159916,36.067382840867
7.944,0.9999993280708198,35.90907574270102
7.952,0.9999991363641789,35.750746106842314
7.96,0.9999989480351303,35.592393993797316
7.968,0.9999987630780492,35.43401946421028
7.976,0.9999985814865546,35.275622578863086
7.984,0.99999840325352,35.11720339867504
7.992,0.9999982283710802,34.95876198470268
8.0,0.9999980568306402,34.80029839813962
8.008,0.9999978886228833,34.64181270031627
8.016,0.9999977237377796,34.48330495269971
8.024000000000001,0.9999975621645936,34.324775216893485
8.032,0.9999974038918931,34.16622355463742
8.04,0.9999972489075579,34.00765002780728
8.048,0.9999970971987877,33.84905469841471
8.056000000000001,0.9999969487521102,33.690437628607015
8.064,0.9999968035533903,33.53179888066687
8.072,0.9999966615878376,33.37313851701212
8.08,0.9999965228400166,33.214456600195575
8.088000000000001,0.9999963872938527,33.05575319290484
8.096,0.9999962549326422,32.89702835796205
8.104,0.9999961257390616,32.73828215832361
8.112,0.9999959996951735,32.57951465707992
8.120000000000001,0.999995876782439,32.42072591745537
8.128,0.9999957569817215,32.2619160028079
8.136,0.9999956402732998,32.10308497662879
8.144,0.9999955266368737,31.94423290254241
8.152000000000001,0.9999954160515747,31.785359844306168
8.16,0.9999953084959724,31.626465865810058
8.168,0.9999952039480855,31.467551031076418
8.176,0.9999951023853888,31.308615404259783
8.184000000000001,0.9999950037848228,31.149659049646672
8.192,0.9999949081228017,30.990682031655183
8.2,0.9999948153752232,30.831684414834875
8.208,0.9999947255174757,30.672666263866358
8.216000000000001,0.9999946385244489,30.513627643561264
8.224,0.9999945543705411,30.354568618861837
8.232,0.9999944730296692,30.195489254840624
8.24,0.9999943944752756,30.0363896167003
8.248000000000001,0.9999943186803404,29.877269769773438
8.256,0.9999942456173856,29.718129779522187
8.264,0.9999941752584885,29.558969711537923
8.272,0.9999941075752883,29.399789631541097
8.280000000000001,0.9999940425389949,29.240589605380933
8.288,0.9999939801203982,29.08136969903518
8.296,0.9999939202898778,28.922129978609714
8.304,0.9999938630174103,28.762870510338335
8.312,0.9999938082725799,28.603591360582605
8.32,0.9999937560245866,28.444292595831286
8.328,0.999993706242255,28.284974282700396
8.336,0.9999936588940437,28.12563648793256
8.344,0.9999936139480543,27.966279278397096
8.352,0.9999935713720404,27.806902721089344
8.36,0.999993531133416,27.64750688313076
8.368,0.9999934931992662,27.488091831768262
8.376,0.9999934575363542,27.328657634374228
8.384,0.9999934241111319,27.16920435844596
8.392,0.9999933928897485,27.009732071605626
8.4,0.9999933638380598,26.850240841599707
8.408,0.9999933369216365,26.69073073629896
8.416,0.9999933121057746,26.53120182369783
8.424,0.9999932893555039,26.37165417191445
8.432,0.9999932686355969,26.212087849190038
8.44,0.9999932499105784,26.052502923888866
8.448,0.999993233144735,25.892899464497685
8.456,0.9999932183021227,25.733277539625714
8.464,0.9999932053465785,25.573637218004
8.472,0.9999931942417278,25.413978568485426
8.48,0.999993184950994,25.254301660044113
8.488,0.9999931774376084,25.09460656177538
8.496,0.9999931716646187,24.934893342895133
8.504,0.9999931675948983,24.77516207273987
8.512,0.9999931651911562,24.615412820766057
8.52,0.9999931644159457,24.45564565655009
8.528,0.9999931652316734,24.295860649787702
8.536,0.9999931676006095,24.13605787029393
8.544,0.9999931714848961,23.976237388002495
8.552,0.9999931768465573,23.816399272965775
8.56,0.9999931836475071,23.65654359535424
8.568,0.9999931918495607,23.496670425456315
8.576,0.9999932014144421,23.336779833677877
8.584,0.9999932123037947,23.176871890542156
8.592,0.9999932244791896,23.01694666668914
8.6,0.9999932379021348,22.857004232875536
8.608,0.9999932525340864,22.69704465997416
8.616,0.9999932683364556,22.537068018973912
8.624,0.9999932852706191,22.377074380979145
8.632,0.9999933032979287,22.21706381720961
8.64,0.9999933223797197,22.057036398999877
8.648,0.9999933424773213,21.896992197799296
8.656,0.9999933635520655,21.736931285171337
8.664,0.9999933855652956,21.576853732793616
8.672,0.9999934084783775,21.41675961245722
8.68,0.9999934322527065,21.256648996066698
8.688,0.9999934568497191,21.096521955639442
8.696,0.9999934822309003,20.93637856330567
8.704,0.9999935083577944,20.776218891307746
8.712,0.9999935351920135,20.616043012000222
8.72,0.9999935626952466,20.45585099784917
8.728,0.9999935908292701,20.29564292143213
8.736,0.9999936195559557,20.135418855437596
8.744,0.9999936488372801,19.97517887266484
8.752,0.9999936786353355,19.814923046023402
8.76,0.9999937089123367,19.654651448532995
8.768,0.999993739630632,19.49436415332295
8.776,0.9999937707527123,19.334061233632102
8.784,0.9999938022412195,19.17374276280826
8.792,0.9999938340589563,19.01340881430812
8.8,0.9999938661688956,18.853059461696674
8.808,0.9999938985341892,18.69269477864718
8.815999999999999,0.9999939311181771,18.53231483894058
8.824,0.9999939638843977,18.3719197164653
8.832,0.9999939967965944,18.211509485217007
8.84,0.999994029818728,18.0510842192982
8.847999999999999,0.9999940629149833,17.89064399291784
8.856,0.9999940960497796,17.73018888039111
8.864,0.9999941291877785,17.56971895613916
8.872,0.9999941622938948,17.409234294688744
8.879999999999999,0.999994195333304,17.248734970671798
8.888,0.9999942282714512,17.08822105882526
8.896,0.9999942610740614,16.927692633990787
8.904,0.9999942937071477,16.7671497711144
8.911999999999999,0.9999943261370193,16.60659254524609
8.92,0.9999943583302926,16.446021031539622
8.928,0.999994390253898,16.285435305252268
8.936,0.9999944218750896,16.12483544174444
8.943999999999999,0.9999944531614543,15.96422151647935
8.952,0.9999944840809198,15.803593605022764
8.96,0.999994514601764,15.642951783042772
8.968,0.9999945446926234,15.482296126309446
8.975999999999999,0.999994574322501,15.321626710694472
8.984,0.9999946034607774,15.1609436121709
8.992,0.9999946320772162,15.00024690681301
9.0,0.9999946601419742,14.839536670795876
9.008,0.9999946876256106,14.678812980395046
9.016,0.9999947144990935,14.518075911986353
9.024000000000001,0.9999947407338096,14.357325542045672
9.032,0.9999947663015729,14.196561947148602
9.04,0.9999947911746314,14.035785203970118
9.048,0.9999948153256769,13.874995389284376
9.056000000000001,0.9999948387278528,13.7141925799645
9.064,0.9999948613547612,13.553376852982272
9.072,0.9999948831804726,13.392548285407797
9.08,0.9999949041795326,13.231706954409283
9.088000000000001,0.9999949243269705,13.07085293725291
9.096,0.9999949435983071,12.909986311302458
9.104,0.9999949619695621,12.749107154019026
9.112,0.9999949794172628,12.58821554296082
9.120000000000001,0.9999949959184504,12.427311555783021
9.128,0.9999950114506889,12.266395270237437
9.136,0.9999950259920721,12.105466764172208
9.144,0.9999950395212306,11.944526115531648
9.152000000000001,0.9999950520173398,11.783573402356085
9.16,0.9999950634601277,11.622608702781557
9.168,0.9999950738298803,11.461632095039521
9.176,0.9999950831074508,11.300643657456686
9.184000000000001,0.9999950912742649,11.139643468454896
9.192,0.9999950983123288,10.978631606550827
9.2,0.999995104204236,10.817608150355708
9.208,0.9999951089331739,10.656573178575172
9.216000000000001,0.9999951124829299,10.495526770009143
9.224,0.9999951148378987,10.334469003551561
9.232,0.9999951159830888,10.173399958190092
9.24,0.9999951159041277,10.012319713006036
9.248000000000001,0.9999951145872701,9.851228347174192
9.256,0.9999951120194017,9.690125939962604
9.264,0.9999951081880474,9.52901257073229
9.272,0.9999951030813756,9.367888318937169
9.280000000000001,0.999995096688205,9.206753264123924
9.288,0.9999950889980096,9.045607485931779
9.296,0.9999950800009243,8.884451064092245
9.304,0.9999950696877508,8.723284078429037
9.312000000000001,0.9999950580499625,8.562106608857977
9.32,0.9999950450797088,8.40091873538678
9.328,0.9999950307698223,8.2397205381148
9.336,0.9999950151138215,8.078512097232984
9.344,0.999994998105916,7.917293493023803
9.352,0.9999949797410123,7.756064805860883
9.36,0.9999949600147158,7.594826116209134
9.368,0.9999949389233384,7.4335775046243455
9.376,0.9999949164638993,7.272319051753308
9.384,0.9999948926341307,7.111050838333435
9.392,0.9999948674324807,6.949772945192918
9.4,0.9999948408581185,6.788485453250289
9.408,0.9999948129109361,6.62718844351461
9.416,0.999994783591552,6.465881997085071
9.424,0.9999947529013153,6.304566195151164
9.432,0.9999947208423063,6.143241118992281
9.44,0.9999946874173422,5.981906849977896
9.448,0.9999946526299776,5.820563469567182
9.456,0.9999946164845066,5.659211059309188
9.464,0.9999945789859663,5.497849700842476
9.472,0.9999945401401388,5.336479475895273
9.48,0.9999944999535505,5.175100466285137
9.488,0.9999944584334771,5.013712753919136
9.496,0.9999944155879421,4.852316420793462
9.504,0.9999943714257192,4.69091154899367
9.512,0.9999943259563333,4.5294982206942676
9.52,0.9999942791900603,4.368076518158947
9.528,0.9999942311379284,4.206646523740231
9.536,0.999994181811718,4.045208319879646
9.544,0.9999941312239611,3.8837619891074127
9.552,0.9999940793879418,3.722307614042625
9.56,0.9999940263176961,3.5608452773929025
9.568,0.9999939720280099,3.399375061954617
9.576,0.9999939165344187,3.237897050612524
9.584,0.999993859853207,3.0764113263400015
9.592,0.9999938020014056,2.91491797219869
9.6,0.99999374299679,2.753417071338704
9.608,0.9999936828578796,2.5919087069983044
9.616,0.9999936216039341,2.4303929625040954
9.624,0.999993559254951,2.2688699212707
9.632,0.999993495831664,2.1073396668009736
9.64,0.999993431355538,1.9458022826856372
9.648,0.9999933658487677,1.7842578526035329
9.656,0.9999932993342721,1.6227064603212482
9.664,0.9999932318356918,1.4611481896933411
9.672,0.9999931633773842,1.2995831246619949
9.68,0.9999930939844187,1.1380113492572308
9.688,0.9999930236825724,0.9764329475965506
9.696,0.9999929524983246,0.8148480038851548
9.704,0.999992880458852,0.6532566024155838
9.712,0.9999928075920216,0.49165882756791796
9.72,0.9999927339263853,0.3300547638094258
9.728,0.9999926594911739,0.168444495694756
9.736,0.9999925843162902,0.006828107865573695
9.744,0.9999925084323016,-0.15479431494924978
9.752,0.9999924318704326,-0.31642268793401174
9.76,0.9999923546625579,-0.4780569261859894
9.768,0.9999922768411937,-0.6396969447158367
9.776,0.9999921984394898,-0.8013426584473963
9.784,0.9999921194912201,-0.9629939822181056
9.792,0.9999920400307754,-1.1246508307788248
9.8,0.9999919600931508,-1.286313118794251
9.808,0.9999918797139403,-1.4479807608427688
9.816,0.999991798929323,-1.6096536714168648
9.824,0.9999917177760547,-1.7713317649229956
9.832,0.9999916362914565,-1.9330149556820269
9.84,0.9999915545134044,-2.0947031579291058
9.847999999999999,0.9999914724803167,-2.256396285814085
9.856,0.9999913902311435,-2.418094253401597
9.864,0.9999913078053538,-2.579796974671166
9.872,0.9999912252429237,-2.741504363517483
9.879999999999999,0.9999911425843218,-2.9032163337506876
9.888,0.9999910598704991,-3.0649327990965127
9.896,0.9999909771428727,-3.2266536731964486
9.904,0.9999908944433131,-3.3883788696080535
9.911999999999999,0.9999908118141301,-3.550108301805285
9.92,0.9999907292980579,-3.7118418831786952
9.928,0.9999906469382401,-3.8735795270356372
9.936,0.9999905647782147,-4.035321146600641
9.943999999999999,0.9999904828618985,-4.197066655015782
9.952,0.9999904012335705,-4.35881596534094
9.96,0.9999903199378568,-4.520568990554072
9.968,0.9999902390197123,-4.682325643551629
