freq,mag,phase
6.0,0.9999142547413881,-85.71086131621557
6.005961216,0.9998939068888011,-85.98119676789563
6.011922432,0.9998785305587033,-86.25124639096204
6.017883648,0.999870084806661,-86.52112468097833
6.023844864,0.9998689807961008,-86.79097823224714
6.02980608,0.9998752929470441,-87.06091698036182
6.035767296,0.9998888163277083,-87.33092576405852
6.041728512,0.999908681897314,-87.60123910833009
6.04769024,0.9999336733457095,-87.87182816968854
6.053651456,0.9999624693617328,-88.14283506158706
6.059612672,0.9999934022274407,-88.41423092874294
6.065573888,1.0000246984835357,-88.68608077747531
6.071535104,1.000054578628163,-88.95835079708019
6.07749632,1.0000814138951064,-89.23108043997027
6.083457536,1.0001035029768492,-89.50408599725694
6.089418752,1.0001197219178715,-89.77742846089252
6.095379968,1.000129259885952,-90.05089935760813
6.101341184,1.0001314358343194,-90.32451043565703
6.1073024,1.0001258990852286,-90.59811061686821
6.113263616,1.0001133237031896,-90.87156282128296
6.119224832,1.0000941266513688,-91.14481132690906
6.125186048,1.0000696498992847,-91.41777923907777
6.131147776,1.0000412192426178,-91.69040917183388
6.137108992,1.0000103784929708,-91.96264177514284
6.143070208,0.9999789065289362,-92.23444112889948
6.149031424,0.9999486790525068,-92.50583453072596
6.15499264,0.999921385613182,-92.77682870720574
6.160953856,0.9998984773561411,-93.04749101628636
6.166915072,0.9998812908993652,-93.31792913837678
6.172876288,0.9998709668489258,-93.58814679666693
6.178837504,0.9998679932606804,-93.85825061635487
6.18479872,0.9998724881839364,-94.12845172012487
6.190759936,0.9998843359294531,-94.39873482505644
6.196721152,0.9999027259381668,-94.66922979836629
6.202682368,0.9999266859076414,-94.94005039165613
6.208643584,0.9999547246335981,-95.21122472931455
6.214605312,0.9999855341196583,-95.48281465135625
6.220566528,1.0000170187891466,-95.75486666431615
6.226527744,1.0000476261009725,-96.02732553832938
6.23248896,1.0000754790493447,-96.30019686091494
6.238450176,1.0000990517832122,-96.5734533654587
6.244411392,1.0001170305535367,-96.84700351139486
6.250372608,1.0001283067129203,-97.12078310649864
6.256333824,1.0001322911444859,-97.3946236215733
6.26229504,1.000128712501959,-97.66854253336871
6.268256256,1.0001178413128884,-97.94233353625317
6.274217472,1.0001001918023948,-98.21591466432605
6.280178688,1.0000768032445115,-98.48927717395375
6.286139904,1.000048961410115,-98.76228022485958
6.29210112,1.000018538307945,-99.03485787146855
6.298062848,0.9999869123356651,-99.30705203594555
6.304024064,0.9999559620953761,-99.57882217331431
6.30998528,0.999927531392949,-99.85019864289711
6.315946496,0.9999032521136134,-100.12121635486334
6.321907712,0.9998845653088039,-100.39192094905414
6.327868928,0.9998723152979719,-100.6624655969899
6.333830144,0.9998674167958921,-100.93288229001764
6.33979136,0.9998700000602777,-101.20330592144522
6.345752576,0.9998801110774063,-101.47380040632598
6.351713792,0.9998970133870108,-101.74449325266978
6.357675008,0.9999197904426294,-102.0154692035283
6.363636224,0.9999471485309148,-102.28683566669545
6.36959744,0.9999775636671846,-102.55857015710718
6.375558656,1.000009232783247,-102.83075263896345
6.381519872,1.000040403506498,-103.10338060150599
6.3874816,1.000069363325957,-103.37644856384632
6.393442816,1.0000943512839147,-103.64985523406419
6.399404032,1.0001138252176256,-103.92360239665072
6.405365248,1.0001268887794177,-104.19760320597798
6.411326464,1.000132885400047,-104.47170880476136
6.41728768,1.0001312053589912,-104.74587291158622
6.423248896,1.0001220304013612,-105.01998535934581
6.429210112,1.0001058680437356,-105.29389556985636
6.435171328,1.0000836804428759,-105.56756926568555
6.441132544,1.000056819815478,-105.84091483203795
6.44709376,1.0000265836388733,-106.11387149971956
6.453054976,0.99999490060558,-106.38641942685076
6.459016192,0.9999635120567761,-106.65853791015773
6.464977408,0.9999341618180949,-106.93026480950552
6.470939136,0.9999085089075045,-107.20161809227284
6.476900352,0.9998881459799254,-107.4726348745463
6.482861568,0.9998740898155627,-107.74345811544059
6.488822784,0.9998673552971918,-108.01409946161708
6.494784,0.9998680578906833,-108.2847502219261
6.500745216,0.9998763896461568,-108.55544277493841
6.506706432,0.9998916761939748,-108.82635814418586
6.512667648,0.9999132035799734,-109.097463187226
6.518628864,0.99993971315158,-109.36896801646816
6.52459008,0.999969626392836,-109.64081829121197
6.530551296,1.0000013993685193,-109.91314015538259
6.536512512,1.0000330246527296,-110.18587380731019
6.542473728,1.0000627574061305,-110.45908323954274
6.548434944,1.0000890903995094,-110.73264531795907
6.554396672,1.0001102486708358,-111.00659542315267
6.560357888,1.0001251697906064,-111.28073541031684
6.566319104,1.0001329949080773,-111.55509355175725
6.57228032,1.0001332367441136,-111.8294847654458
6.578241536,1.0001258984029155,-112.1038480291671
6.584202752,1.0001114473695103,-112.37805545931548
6.590163968,1.000090594202936,-112.65206243427245
6.596125184,1.0000645452214616,-112.92573510428667
6.6020864,1.0000348207598346,-113.1990297295525
6.608047616,1.0000031843896515,-113.47190929956136
6.614008832,0.9999713536361197,-113.7443729547304
6.619970048,0.9999410507004123,-114.01639345700589
6.625931264,0.999914240156558,-114.28804004297606
6.63189248,0.999892302138715,-114.55936937615985
6.637853696,0.9998764893773817,-114.83041034978595
6.643815424,0.9998677112804158,-115.1013244112185
6.64977664,0.9998665754969702,-115.37214933964118
6.655737856,0.9998729954725281,-115.64301936010966
6.661699072,0.9998866193201968,-115.91408689848653
6.667660288,0.9999067901786978,-116.18535492125746
6.673621504,0.999932341864955,-116.45695995292705
6.67958272,0.9999617081233946,-116.72892072280911
6.685543936,0.9999933394703024,-117.00133406009341
6.691505152,1.000025432945768,-117.27414750232843
6.697466368,1.0000560208755194,-117.54748642057899
6.703427584,1.0000835040299607,-117.82114802009323
6.7093888,1.0001062206321225,-118.09522925157111
6.715350016,1.0001228756479112,-118.36954108931917
6.721311232,1.0001326349064787,-118.64407218344157
6.72727296,1.0001348468689575,-118.9186833183082
6.733234176,1.0001293605666177,-119.19327128400035
6.739195392,1.0001165134623653,-119.46773764380183
6.745156608,1.0000970446697421,-119.74200666819993
6.751117824,1.000072041492763,-120.01597754625534
6.75707904,1.000042961530249,-120.28954060026996
6.763040256,1.00001149549626,-120.56275182256083
6.769001472,0.9999792448799589,-120.83552178999679
6.774962688,0.9999483754783176,-121.10780253041564
6.780923904,0.9999202563722236,-121.37975894368212
6.78688512,0.9998967767136743,-121.65133732800959
6.792846336,0.9998792098978183,-121.92264005429375
6.798807552,0.9998685270637495,-122.19374387852325
6.804768768,0.999865400281918,-122.46479703552835
6.810730496,0.9998699457128544,-122.73581094342208
6.816691712,0.9998818330910579,-123.00697657821884
6.822652928,0.9999006336773261,-123.27832792955226
6.828614144,0.999925065098105,-123.55003479702846
6.83457536,0.9999537953018975,-123.82208745895238
6.840536576,0.9999852008841011,-124.0945507355096
6.846497792,1.0000174990159838,-124.36749420961661
6.852459008,1.0000488080065488,-124.64085316162222
6.858420224,1.0000774429674952,-124.91461873715457
6.86438144,1.0001015208055763,-125.1887918624521
6.870342656,1.0001200273036226,-125.4632395059453
6.876303872,1.000131581246528,-125.7378977745204
6.882265088,1.0001358174741595,-126.01269908921368
6.888226304,1.0001322335672362,-126.28747516925881
6.894188032,1.0001211736388786,-126.56220269323586
6.900149248,1.0001032004749788,-126.83669883754459
6.906110464,1.000079264800065,-127.11091048146669
6.91207168,1.0000509415145138,-127.38478103700717
6.918032896,1.000019680169363,-127.65826110148988
6.923994112,0.9999872681534735,-127.93129241942654
6.929955328,0.9999557515037336,-128.2038847212997
6.935916544,0.99992657351916,-128.47605120226407
6.94187776,0.9999016114939595,-128.74786686850646
6.947838976,0.9998823857709872,-129.01940477591677
6.953800192,0.9998697531476215,-129.29069351713235
6.959761408,0.9998646621639393,-129.56188975660552
6.965722624,0.9998671359893385,-129.83307128265852
6.97168384,0.9998774087925888,-130.10433371812798
6.977645056,0.9998945888065021,-130.37578401266623
6.983606784,0.9999179106943634,-130.6475256270183
6.989568,0.999945833092934,-130.91963533015152
6.995529216,0.9999769021819818,-131.1921385757762
7.001490432,1.0000093186901169,-131.46511683290586
7.007451648,1.0000412417235542,-131.73851064443338
7.013412864,1.0000709353064559,-132.012357315013
7.01937408,1.0000964746815748,-132.28658194758287
7.025335296,1.0001166638653962,-132.56111851291436
7.031296512,1.000130162287563,-132.83589485435164
7.037257728,1.0001363003047063,-133.11080301196233
7.043218944,1.0001347225839332,-133.38579193480345
7.04918016,1.000125408233623,-133.66066896474712
7.055141376,1.0001089435422874,-133.9353750193645
7.061102592,1.0000864072669648,-134.20981694735255
7.06706432,1.0000588834685495,-134.48392695931605
7.073025536,1.000027979255674,-134.75764823335666
7.078986752,0.9999954923886684,-135.03092453762147
7.084947968,0.999963377191572,-135.30377966642584
7.090909184,0.9999332095909383,-135.5761992164445
7.0968704,0.9999069540030291,-135.8482222302847
7.102831616,0.9998859711761522,-136.11993214982144
7.108792832,0.9998714810131681,-136.3914111311344
7.114754048,0.9998643021750091,-136.66272618889053
7.120715264,0.999864946516807,-136.9340286404034
7.12667648,0.9998733591273696,-137.2053666547094
7.132637696,0.9998889300655528,-137.47686964339778
7.138598912,0.9999109284336882,-137.74867295394307
7.144560128,0.9999380260612452,-138.02081067725908
7.150521856,0.9999686096486905,-138.29331693531762
7.156483072,1.0000010511584954,-138.56628096412166
7.162444288,1.0000335780340694,-138.8397170311023
7.168405504,1.0000641004586446,-139.11355315424115
7.17436672,1.0000911246319337,-139.3878356585675
7.180327936,1.0001128950928233,-139.6623885569259
7.186289152,1.0001282352255274,-139.9372649589917
7.192250368,1.0001363958588105,-140.21227228727278
7.198211584,1.0001367900289655,-140.4873801185879
7.2041728,1.0001293076844124,-140.7624272566261
7.210134016,1.0001145976277945,-141.03730355276352
7.216095232,1.0000933628074697,-141.3119461294569
7.222056448,1.0000667570286188,-141.5862735867556
7.228017664,1.000036380882471,-141.8602072314517
7.23397888,1.0000039487497434,-142.13371178449913
7.239940608,0.999971252995017,-142.40677126900252
7.245901824,0.9999402672275226,-142.67939304600026
7.25186304,0.9999126662366605,-142.9516334437593
7.257824256,0.999890142319652,-143.22351276220633
7.263785472,0.9998737456941238,-143.49511113672312
7.269746688,0.9998646241707804,-143.76656554738273
7.275707904,0.9998632815794924,-144.03793238792747
7.28166912,0.9998697662888651,-144.30934047247214
7.287630336,0.9998836430371572,-144.58091383949005
7.293591552,0.9999042043556352,-144.85270167202444
7.299552768,0.9999303224971033,-145.12481973328872
7.305513984,0.9999603792263585,-145.39732674526496
7.3114752,0.9999928614978916,-145.6702700127276
7.317436416,1.0000255983038038,-145.94366418524785
7.323398144,1.0000571018465327,-146.21751125026304
7.32935936,1.0000853031489276,-146.49176006304725
7.335320576,1.0001087294775315,-146.76637669958916
7.341281792,1.0001259498672956,-147.0412739510383
7.347243008,1.0001360152262642,-147.3163647916016
7.353204224,1.0001384483628755,-147.59153707560603
7.35916544,1.0001329536681611,-147.8666911944856
7.365126656,1.0001199147467164,-148.14173320446716
7.371087872,1.0001000412672323,-148.41656134267868
7.377049088,1.0000745206786201,-148.69105096262106
7.383010304,1.0000447717051448,-148.96514929398077
7.38897152,1.0000124210439523,-149.23883353084295
7.394932736,0.9999794309584562,-149.51212630221303
7.400893952,0.9999475756354641,-149.7849111106101
7.40685568,0.9999187982567544,-150.05729508354966
7.412816896,0.9998945879668385,-150.32932199611764
7.418778112,0.999876422030448,-150.60106447108845
7.424739328,0.9998653931207248,-150.8726214915092
7.430700544,0.9998620058450809,-151.14406341119368
7.43666176,0.9998665318654101,-151.41548700765975
7.442622976,0.9998787260401859,-151.68706877647904
7.448584192,0.9998978152742357,-151.95883790705824
7.454545408,0.9999227726797948,-152.23092647958313
7.460506624,0.9999521825475335,-152.50339701735743
7.46646784,0.999984414197131,-152.77629512525493
7.472429056,1.0000174697146733,-153.04963600407575
7.478390272,1.0000497297459088,-153.3234325514841
7.484351488,1.00007904297163,-153.59763849922658
7.490313216,1.0001040349058614,-153.87225701055024
7.496274432,1.0001231000454796,-154.1471479050617
7.502235648,1.0001351152667204,-154.42225174866655
7.508196864,1.0001395613741813,-154.6975065524918
7.51415808,1.0001360683417073,-154.97273305094785
7.520119296,1.0001248005630525,-155.24786592266358
7.526080512,1.0001064268073778,-155.52283091562634
7.532041728,1.0000820438642182,-155.79746176865055
7.538002944,1.0000529832493052,-156.0717216818419
7.54396416,1.000020960173883,-156.34561399580377
7.549925376,0.9999877281251258,-156.61901455940128
7.555886592,0.9999551445098855,-156.89198646802944
7.561847808,0.9999252346432227,-157.16450905202743
7.567809024,0.9998995299576094,-157.43665319929858
7.57377024,0.9998796630845372,-157.70848621703092
7.579731968,0.9998666781543115,-157.98010549433852
7.585693184,0.9998611532624583,-158.25157746979912
7.5916544,0.9998637643655748,-158.5230595573257
7.597615616,0.9998740380977548,-158.7946120812089
7.603576832,0.9998916345123823,-159.0663458861011
7.609538048,0.9999153503303001,-159.33839286798388
7.615499264,0.9999439608443705,-159.61075912483662
7.62146048,0.9999758976373067,-159.88357578883523
7.627421696,1.000009167035295,-160.15683894168706
7.633382912,1.0000419889599168,-160.43055308582467
7.639344128,1.00007250464894,-160.7047068444331
7.645305344,1.0000988880927637,-160.9792429142287
7.65126656,1.0001196780233443,-161.25412617199217
7.657227776,1.0001337313358998,-161.5292340983617
7.663189504,1.0001401303417485,-161.80449726990392
7.66915072,1.0001386730494488,-162.0797605499573
7.675111936,1.000129300240552,-162.35498013100582
7.681073152,1.0001125697002684,-162.63003059500903
7.687034368,1.0000894687778759,-162.90476744003126
7.692995584,1.0000612805860156,-163.17919194322243
7.6989568,1.0000295617909962,-163.4531910291206
7.704918016,0.9999962566231093,-163.726724582839
7.710879232,0.9999631136924938,-163.99982370085866
7.716840448,0.999932150659024,-164.2724773392442
7.722801664,0.9999050041313677,-164.54472469297446
7.72876288,0.9998833449767348,-164.81662469075894
7.734724096,0.9998684147643639,-165.08829117393182
7.740685312,0.999860946665947,-165.35978076303124
7.74664704,0.9998614608614032,-165.63122870808982
7.752608256,0.9998698438093222,-165.9027422893881
7.758569472,0.9998857197698063,-166.17445546597796
7.764530688,0.9999080900250396,-166.44638445563885
7.770491904,0.9999359398032154,-166.71867085657425
7.77645312,0.9999674053080094,-166.99137627469457
7.782414336,1.0000007366626595,-167.26452531726449
7.788375552,1.0000341014353742,-167.53812066528178
7.794336768,1.0000655989049525,-167.81218542272643
7.800297984,1.000093336727945,-168.0866288085673
7.8062592,1.0001158620272814,-168.3614514293727
7.812220416,1.0001318407274151,-168.63650019623566
7.818181632,1.0001403797031554,-168.91174567280964
7.824142848,1.0001408656574577,-169.1870357477467
7.830104576,1.0001335008703394,-169.46230642360678
7.836065792,1.00011838023263,-169.73736681934437
7.842027008,1.000096628047638,-170.01224069032574
7.847988224,1.000069392414289,-170.28672203266723
7.85394944,1.0000381789863986,-170.56083089624786
7.859910656,1.000004856809456,-170.834479959823
7.865871872,0.9999712516188402,-171.10767300387303
7.871833088,0.9999393062098152,-171.38043607667169
7.877794304,0.9999109331006538,-171.6527374936804
7.88375552,0.9998875141841117,-171.92470479149407
7.889716736,0.9998706233802523,-172.1964013538433
7.895677952,0.9998611115182603,-172.46789868457122
7.901639168,0.9998595039579413,-172.73931643134975
7.907600384,0.999866041283042,-173.01078512763013
7.9135616,0.9998801975051435,-173.282362063378
7.919523328,0.9999012346841772,-173.55419210480812
7.925484544,0.9999278989461553,-173.8263706036288
7.93144576,0.9999588532589286,-174.0989253628436
7.937406976,0.9999921662741866,-174.3719234453687
7.943368192,1.0000259967337026,-174.64539282926827
7.949329408,1.0000583597845372,-174.91930792648174
7.955290624,1.0000874375776574,-175.19364795534545
7.96125184,1.00011164493515,-175.468350332736
7.967213056,1.000129526488723,-175.74332968887217
7.973174272,1.0001400398101843,-176.0185314740203
7.979135488,1.0001426649422125,-176.29379271649088
7.985096704,1.0001371432521522,-176.56904707972913
7.99105792,1.0001239014536674,-176.84417390826204
7.997019136,1.0001035620671828,-177.11905297155658
8.002980864,1.000077373343569,-177.3936242457692
8.00894208,1.000046878685973,-177.66780032567917
8.014903296,1.0000136840579155,-177.94153389331305
8.020864512,0.9999795973127733,-178.2148122861515
8.026825728,0.99994689704399,-178.48762354746165
8.032786944,0.9999171839767752,-178.75999962943618
8.03874816,0.9998921239804589,-179.0319871770499
8.044709376,0.9998733913373135,-179.30366406090684
8.050670592,0.9998617862692792,-179.5751518347365
8.056631808,0.9998581506675672,-179.84654757476014
8.062593024,0.9998627017962979,179.88209447674168
8.06855424,0.9998750947436285,179.6105905480312
8.074515456,0.9998946003548247,179.33889752172925
8.080476672,0.9999201690526837,179.06689280455802
8.0864384,0.999950422602953,178.79448576414603
8.092399616,0.999983494017438,178.52167828406294
8.098360832,1.0000176149187903,178.2483966653735
8.104322048,1.0000508064429854,177.97465638176237
8.110283264,1.0000811024396434,177.70044508056597
8.11624448,1.000106856891038,177.42587728790343
8.122205696,1.0001266694735003,177.1510127011306
8.128166912,1.0001392456344196,176.875901684631
8.134128128,1.0001439014540585,176.60067778277568
8.140089344,1.0001404499728863,176.32546867755204
8.14605056,1.0001289512765796,176.0503582659951
8.152011776,1.0001102883442943,175.77546451249756
8.157972992,1.0000852571988879,175.5008526489695
8.163934208,1.0000554156118893,175.22662470725518
8.169895424,1.0000224616720732,174.95284809173936
8.175857152,0.9999883902536054,174.67950552364587
8.181818368,0.9999547556566502,174.4066674054482
8.187779584,0.9999238784882344,174.13426592493744
8.1937408,0.9998972872706492,173.8622544566238
8.199702016,0.9998766759979364,173.59057272650327
8.205663232,0.9998630604617568,173.31915163662742
8.211624448,0.9998573019390019,173.04786563916755
8.217585664,0.9998597611416248,172.776590945372
8.22354688,0.9998702685311984,172.5052175262403
8.229508096,0.9998881563318507,172.23368313737564
8.235469312,0.9999125680143649,171.96183903394106
8.241430528,0.9999420557659032,171.6896216488793
8.247391744,0.9999748031118122,171.41699957189593
8.25335296,1.000009068666025,171.1439157547986
8.259314688,1.0000429600019287,170.87037189767568
8.265275904,1.0000744052765957,170.5963667349765
8.27123712,1.0001018049179595,170.3219818135874
8.277198336,1.0001232420993356,170.0472332605191
8.283159552,1.0001378019944136,169.77227643436035
8.289120768,1.0001446704906276,169.49714309357074
8.295081984,1.0001432642381174,169.22199184158592
8.3010432,1.0001337986818424,168.9469083957719
8.307004416,1.0001166485264406,168.67202877024727
8.312965632,1.0000929589071939,168.39743105065358
8.318926848,1.000064049834595,168.12318921192937
8.324888064,1.0000314307937235,167.84937003832715
8.33084928,0.9999970044037876,167.57602893109183
8.336810496,0.9999629200087271,167.30314023130998
8.342772224,0.9999309164407822,167.0307391311452
8.34873344,0.9999028502338111,166.75875663452632
8.354694656,0.9998803457035804,166.48711352611932
8.360655872,0.9998647640209357,166.2157283295202
8.366617088,0.9998569115705168,165.94454177900127
8.372578304,0.9998573162784657,165.67339684245246
