freq,mag,phase
6.0,0.999994795709087,90.94225807026075
6.008,0.9999952278193563,90.79617740516571
6.016,0.9999956470702487,90.64998486958571
6.024,0.9999960536711785,90.50368031796674
6.032,0.9999964478298116,90.35726360508156
6.04,0.9999968297520699,90.21073458603283
6.048,0.9999971996421348,90.06409311625659
6.056,0.9999975577024508,89.91733905152546
6.064,0.99999790413373,89.77047224795207
6.072,0.9999982391349558,89.62349256199239
6.08,0.9999985629033863,89.47639985044901
6.088,0.9999988756345589,89.32919397047468
6.096,0.9999991775222946,89.18187477957551
6.104,0.9999994687587009,89.0344421356145
6.112,0.9999997495341766,88.88689589681485
6.12,0.9999999999999998,88.73923592176351
6.128,1.0,88.59146206941442
6.136,0.9999999999999999,88.4435741990922
6.144,1.0,88.29557217049532
6.152,1.0,88.14745584369979
6.16,1.0,87.99922507916251
6.168,1.0,87.85087973772484
6.176,1.0,87.70241968061603
6.184,0.9999999999999999,87.55384476945673
6.192,1.0,87.40515486626256
6.2,1.0,87.2563498334476
6.208,1.0,87.10742953382797
6.216,1.0,86.95839383062531
6.224,1.0,86.80924258747045
6.232,0.9999999999999999,86.65997566840686
6.24,1.0,86.51059293789436
6.248,0.9999999999999999,86.36109426081262
6.256,0.9999999999999999,86.21147950246484
6.264,1.0,86.0617485285813
6.272,1.0,85.91190120532305
6.28,1.0,85.7619373992855
6.288,0.9999999999999999,85.61185697750211
6.296,1.0,85.46165980744807
6.304,0.9999999999999999,85.31134575704388
6.312,0.9999999999999999,85.16091469465913
6.32,1.0,85.01036648911615
6.328,1.0,84.85970100969374
6.336,0.9999999999999999,84.70891812613083
6.344,1.0,84.55801770863027
6.352,0.9999999999999998,84.40699962786255
6.36,0.9999999999999999,84.2558637549695
6.368,1.0,84.10460996156813
6.376,1.0,83.9532381197543
6.384,1.0,83.80174810210663
6.392,1.0,83.65013978169011
6.4,1.0,83.49841303206007
6.408,1.0,83.34656772726589
6.416,1.0,83.19460374185486
6.424,0.9999999999999999,83.04252095087595
6.432,0.9999999999999999,82.89031922988379
6.44,1.0,82.7379984549423
6.448,1.0,82.58555850262876
6.456,0.9999999999999998,82.43299925003757
6.464,1.0,82.28032057478416
6.472,1.0,82.12752235500885
6.48,1.0,81.9746044693808
6.4879999999999995,1.0,81.82156679710187
6.496,0.9999999999999998,81.66840921791052
6.504,0.9999999999999999,81.51513161208592
6.5120000000000005,0.9999999999999998,81.36173386045152
6.52,1.0,81.20821584437945
6.5280000000000005,0.9999999999999999,81.05457744579405
6.536,1.0,80.90081854717623
6.5440000000000005,0.9999999999999999,80.74693903156702
6.552,0.9999999999999998,80.59293878257202
6.5600000000000005,0.9999999999999999,80.43881768436498
6.568,1.0,80.2845756216921
6.5760000000000005,0.9999999999999999,80.13021247987581
6.584,1.0,79.97572814481904
6.592,1.0,79.821122503009
6.6,1.0,79.66639544152137
6.608,0.9999999999999999,79.51154684802434
6.616,1.0,79.35657661078262
6.624,0.9999999999999999,79.20148461866152
6.632,1.0,79.04627076113104
6.64,0.9999999999999999,78.89093492826994
6.648,1.0,78.73547701076981
6.656,0.9999999999999999,78.57989689993921
6.664,1.0,78.42419448770778
6.672,0.9999999999999999,78.2683696666303
6.68,1.0,78.11242232989089
6.688,1.0,77.95635237130705
6.696,1.0,77.8001596853339
6.704,0.9999999999999999,77.64384416706825
6.712,1.0,77.48740571225281
6.72,1.0000000000000002,77.33084421728032
6.728,1.0,77.1741595791977
6.736,0.9999999999999999,77.01735169571036
6.744,1.0,76.86042046518618
6.752,1.0,76.70336578665987
6.76,1.0,76.5461875598371
6.768,1.0,76.38888568509871
6.776,1.0,76.23146006350498
6.784,1.0,76.07391059679975
6.792,0.9999999999999998,75.91623718741474
6.8,1.0,75.75843973847377
6.808,0.9999999999999999,75.60051815379698
6.816,1.0,75.4424723379051
6.824,1.0,75.28430219602367
6.832,0.9999999999999999,75.12600763408734
6.84,0.9999999999999999,74.96758855874415
6.848,0.9999999999999999,74.80904487735978
6.856,1.0,74.65037649802179
6.864,1.0,74.49158332954401
6.872,0.9999999999999999,74.33266528147075
6.88,0.9999999999999999,74.17362226408115
6.888,1.0000000000000002,74.01445418839344
6.896,1.0,73.85516096616928
6.904,0.9999999999999998,73.69574250991808
6.912,0.9999999999999999,73.5361987329013
6.92,0.9999999999999999,73.37652954913678
6.928,0.9999999999999999,73.21673487340313
6.936,1.0,73.05681462124393
6.944,1.0,72.89676870897226
6.952,1.0,72.73659705367488
6.96,1.0,72.57629957321667
6.968,1.0,72.41587618624497
6.976,0.9999999771046764,72.25532681219394
6.984,0.9999999093965125,72.09465137128889
6.992,0.999999842854601,71.93384978455073
7.0,0.9999997775118215,71.77292197380024
7.008,0.9999997133999858,71.61186786166253
7.016,0.9999996505498456,71.4506873715714
7.024,0.9999995889910996,71.28938042777371
7.032,0.9999995287524008,71.12794695533375
7.04,0.9999994698613641,70.96638688013768
7.048,0.9999994123445735,70.8047001288979
7.056,0.9999993562275901,70.64288662915743
7.064,0.9999993015349585,70.48094630929438
7.072,0.9999992482902159,70.31887909852622
7.08,0.9999991965158981,70.15668492691435
7.088,0.9999991462335477,69.99436372536836
7.096,0.9999990974637214,69.83191542565058
7.104,0.9999990502259982,69.66933996038036
7.112,0.9999990045389867,69.50663726303861
7.12,0.9999989604203319,69.34380726797211
7.128,0.9999989178867247,69.180849910398
7.136,0.9999988769539078,69.01776512640818
7.144,0.9999988376366841,68.85455285297373
7.152,0.9999987999489247,68.69121302794932
7.16,0.9999987639035763,68.52774559007767
7.168,0.9999987295126693,68.36415047899399
7.176,0.9999986967873252,68.20042763523031
7.184,0.9999986657377643,68.03657700022003
7.192,0.9999986363733143,67.87259851630229
7.2,0.9999986087024173,67.70849212672634
7.208,0.9999985827326384,67.54425777565615
7.216,0.999998558470673,67.37989540817462
7.224,0.9999985359223552,67.21540497028813
7.232,0.9999985150926659,67.05078640893105
7.24,0.999998495985739,66.88603967196994
7.248,0.9999984786048723,66.72116470820819
7.256,0.9999984629525333,66.55616146739035
7.264,0.9999984490303684,66.39102990020659
7.272,0.9999984368392091,66.2257699582971
7.28,0.9999984263790834,66.06038159425653
7.288,0.9999984176492205,65.89486476163839
7.296,0.9999984106480602,65.72921941495956
7.304,0.9999984053732623,65.5634455097046
7.312,0.9999984018217122,65.39754300233015
7.32,0.9999983999895311,65.23151185026957
7.328,0.999998399872083,65.06535201193702
7.336,0.9999984014639839,64.89906344673216
7.344,0.9999984047591091,64.73264611504437
7.352,0.9999984097506016,64.56609997825728
7.36,0.9999984164308806,64.39942499875312
7.368,0.9999984247916496,64.23262113991704
7.376,0.9999984348239046,64.06568836614173
7.384,0.9999984465179429,63.89862664283151
7.392,0.9999984598633705,63.731435936406996
7.4,0.9999984748491109,63.56411621430933
7.4079999999999995,0.9999984914634135,63.39666744500459
7.416,0.999998509693862,63.229089597988114
7.4239999999999995,0.9999985295273819,63.0613826437891
7.432,0.9999985509502506,62.89354655397458
7.4399999999999995,0.9999985739481038,62.72558130115423
7.448,0.9999985985059452,62.5574868589843
7.4559999999999995,0.9999986246081547,62.389263202172316
7.464,0.999998652238496,62.22091030648117
7.4719999999999995,0.9999986813801262,62.05242814873367
7.48,0.9999987120156038,61.88381670681666
7.4879999999999995,0.9999987441268963,61.71507595968554
7.496,0.9999987776953899,61.546205887368444
7.504,0.999998812701898,61.37720647097068
7.5120000000000005,0.999998849126668,61.20807769267887
7.52,0.999998886949392,61.03881953576551
7.5280000000000005,0.9999989261492134,60.86943198459291
7.536,0.9999989667047365,60.699915024617844
7.5440000000000005,0.9999990085940353,60.53026864239551
7.552,0.9999990517946609,60.36049282558412
7.5600000000000005,0.9999990962836508,60.190587562948814
7.568,0.999999142037537,60.020552844366215
7.5760000000000005,0.9999991890323555,59.85038866082845
7.584,0.9999992372436536,59.680095004447594
7.5920000000000005,0.9999992866464988,59.50967186845965
7.6,0.9999993372154884,59.33911924722904
7.6080000000000005,0.9999993889247564,59.16843713625254
7.616,0.9999994417479839,58.997625532163774
7.6240000000000006,0.9999994956584056,58.82668443273703
7.632,0.9999995506288206,58.65561383689188
7.640000000000001,0.999999606631599,58.4844137446969
7.648,0.9999996636386919,58.31308415737425
7.656000000000001,0.9999997216216397,58.14162507730338
7.664,0.9999997805515797,57.97003650802562
7.672,0.9999998403992562,57.79831845424792
7.68,0.9999999011350279,57.626470921847236
7.688,0.9999999627288778,57.45449391787441
7.696,0.9999999999999998,57.282387450558446
7.704,0.9999999999999999,57.11015152931044
7.712,0.9999999999999999,56.93778616472777
7.72,1.0,56.76529136859801
7.728,0.9999999999999999,56.592667153903065
7.736,1.0,56.4199135348232
7.744,0.9999999999999998,56.24703052674094
7.752,1.0,56.07401814624521
7.76,0.9999999999999999,55.90087641113521
7.768,1.0,55.727605340424425
7.776,0.9999999999999999,55.55420495434456
7.784,1.0,55.38067527434954
7.792,1.0,55.2070163231193
7.8,1.0,55.033228124563855
7.808,1.0,54.85931070382704
7.816,0.9999999999999999,54.68526408729051
7.824,1.0,54.51108830257753
7.832,1.0,54.33678337855681
7.84,1.0,54.162349345346364
7.848,0.9999999999999999,53.98778623431735
7.856,1.0,53.81309407809777
7.864,1.0,53.638272910576305
7.872,0.9999999999999999,53.463322766906124
7.88,1.0,53.28824368350846
7.888,1.0,53.11303569807653
7.896,1.0,52.93769884957907
7.904,0.9999999999999999,52.76223317826414
7.912,1.0,52.58663872566271
7.92,1.0,52.410915534592355
7.928,1.0,52.235063649160814
7.936,1.0,52.05908311476968
7.944,1.0,51.88297397811793
7.952,1.0,51.706736287205516
7.96,0.9999999999999999,51.53037009133687
7.968,1.0,51.353875441124465
7.976,0.9999999999999999,51.17725238849233
7.984,1.0,51.00050098667947
7.992,1.0,50.82362129024337
8.0,1.0,50.646613355063444
8.008,0.9999999999999999,50.469477238344425
8.016,1.0,50.29221299861967
8.024000000000001,0.9999999999999999,50.11482069575474
8.032,0.9999999999999999,49.9373003909506
8.04,1.0,49.75965214674688
8.048,1.0,49.581876027025295
8.056000000000001,0.9999999999999999,49.40397209701288
8.064,1.0,49.22594042328532
8.072,1.0,49.047781073769926
8.08,0.9999999999999999,48.86949411774909
8.088000000000001,1.0,48.69107962586338
8.096,1.0,48.5125376701147
8.104,0.9999999999999999,48.33386832386931
8.112,1.0,48.15507166186103
8.120000000000001,1.0,47.9761477601943
8.128,1.0,47.79709669634728
8.136,0.9999999999999999,47.61791854917467
8.144,0.9999999999999999,47.43861339891084
8.152000000000001,0.9999999999999999,47.25918132717284
8.16,1.0,47.079622416963296
8.168,1.0,46.89993675267322
8.176,1.0,46.72012442008492
8.184000000000001,0.9999999999999999,46.540185506374975
8.192,1.0,46.36012010011701
8.2,0.9999999999999999,46.17992829128432
8.208,1.0,45.99961017125278
8.216000000000001,1.0,45.81916583280364
8.224,1.0,45.638595370126104
8.232,1.0,45.457898878820004
8.24,0.9999999999999999,45.277076455898424
8.248000000000001,1.0,45.096128199790485
8.256,1.0,44.91505421034372
8.264,0.9999999999999998,44.733854588826745
8.272,1.0,44.55252943793158
8.280000000000001,0.9999999999999999,44.37107886177644
8.288,1.0,44.189502965907984
8.296,0.9999999999999999,44.00780185730371
8.304,1.0,43.82597564437438
8.312,1.0,43.64402443696651
8.32,1.0,43.46194834636441
8.328,1.0,43.279747485292724
8.336,1.0,43.09742196791851
8.344,0.9999999999999999,42.91497190985359
8.352,1.0,42.7323974281565
8.36,1.0,42.54969864133501
8.368,0.9999999999999999,42.36687566934782
8.376,0.9999999999999999,42.183928633606946
8.384,0.9999999999999999,42.000857656979505
8.392,1.0,41.817662863790005
8.4,0.9999999999999999,41.634344379822
8.408,1.0,41.45090233232028
8.416,1.0,41.267336849992525
8.424,1.0,41.083648063011424
8.432,1.0,40.899836103016185
8.44,1.0,40.7159011031146
8.448,0.9999999999999999,40.531843197884506
8.456,1.0,40.34766252337583
8.464,0.9999999999999999,40.16335921711184
8.472,1.0,39.978933418091124
8.48,1.0,39.7943852667889
8.488,1.0,39.60971490515882
8.496,1.0,39.42492247663415
8.504,0.9999999999999999,39.24000812612963
8.512,1.0,39.054972000042454
8.52,0.9999999999999999,38.86981424625406
8.528,1.0,38.68453501413113
8.536,1.0,38.49913445452717
8.544,0.9999999999999999,38.3136127197835
8.552,1.0,38.12796996373074
8.56,1.0,37.94220634168971
8.568,0.9999999999999999,37.75632201047282
8.576,1.0,37.57031712838486
8.584,1.0,37.38419185522439
8.592,0.9999999999999999,37.19794635228438
8.6,0.9999999999999999,37.01158078235351
8.608,1.0,36.825095309716744
8.616,0.9999999999999999,36.63849010015652
8.624,1.0,36.451765320953264
8.632,1.0,36.264921140886486
8.64,1.0,36.077957730235156
8.648,0.9999999999999998,35.89087526077878
8.656,1.0,35.70367390579764
8.664,0.9999999999999999,35.516353840073776
8.672,0.9999999999999999,35.32891523989119
8.68,0.9999999999999999,35.14135828303666
8.688,0.9999999999999999,34.9536831487999
8.696,1.0,34.76589001797421
8.704,1.0,34.577979072856685
8.712,0.9999999999999999,34.38995049724867
8.72,1.0,34.2018044764558
8.728,0.9999999999999999,34.013541197288525
8.736,1.0,33.82516084806194
8.744,0.9999999999999999,33.63666361859627
8.752,0.9999999999999999,33.44804970021657
8.76,1.0,33.259319285753136
8.768,1.0,33.07047256954105
8.776,1.0,32.88150974742055
8.784,1.0,32.69243101673651
8.792,1.0,32.50323657633861
8.8,0.9999999999999999,32.313926626580766
8.808,0.9999999999999999,32.12450136932123
8.815999999999999,1.0,31.934961007921924
8.824,0.9999999999999999,31.7453057472482
8.832,0.9999999999999999,31.555535793668543
8.84,1.0,31.36565135505393
8.847999999999999,0.9999999699758585,31.175652640777244
8.856,0.9999997984105155,30.985539861712827
8.864,0.9999996235573329,30.79531323023586
8.872,0.9999994454152366,30.604972960221634
8.879999999999999,0.9999992639837675,30.4145192670447
8.888,0.9999990792630847,30.223952367578136
8.896,0.9999988912539671,30.03327248019288
8.904,0.9999986999578152,29.84247982475667
8.911999999999999,0.9999985053766548,29.651574622632975
8.92,0.9999983075131375,29.46055709668018
8.928,0.9999981063705431,29.269427471250534
8.936,0.9999979019527823,29.078185972188937
8.943999999999999,0.9999976942643978,28.88683282683176
8.952,0.9999974833105661,28.695368264005662
8.96,0.9999972690970993,28.50379251402636
8.968,0.999997051630446,28.312105808697297
8.975999999999999,0.9999968309176939,28.1203083813081
8.984,0.9999966069665702,27.92840046663325
8.992,0.9999963797854431,27.736382300930682
9.0,0.9999961493833235,27.544254121940096
9.008,0.9999959157698651,27.352016168881317
9.016,0.999995678955366,27.159668682452686
9.024000000000001,0.99999543895077,26.967211904829426
9.032,0.9999951957676662,26.77464607966179
9.04,0.9999949494182911,26.581971452073084
9.048,0.9999946999155281,26.38918826865798
9.056000000000001,0.9999944472729089,26.196296777480523
9.064,0.9999941915046121,26.003297228072118
9.072,0.999993932625467,25.810189871429337
9.08,0.9999936706509502,25.616974960011916
9.088000000000001,0.9999934055971874,25.423652747740665
9.096,0.999993137480954,25.230223489995097
9.104,0.9999928663196734,25.036687443611097
9.112,0.9999925921314189,24.84304486687864
9.120000000000001,0.9999923149349109,24.64929601953946
9.128,0.9999920347495191,24.455441162784506
9.136,0.9999917515952603,24.2614805592513
9.144,0.9999914654927988,24.067414473021497
9.152000000000001,0.9999911764634455,23.873243169618224
9.16,0.9999908845291561,23.678966916003414
9.168,0.9999905897125324,23.48458598057486
9.176,0.9999902920368197,23.290100633163515
9.184000000000001,0.999989991525906,23.095511145030695
9.192,0.9999896882043213,22.900817788865034
9.2,0.9999893820972361,22.70602083877944
9.208,0.9999890732304598,22.511120570308073
9.216000000000001,0.9999887616304406,22.316117260403296
9.224,0.9999884473242612,22.121011187432508
9.232,0.9999881303396398,21.92580263117468
9.24,0.9999878107049279,21.730491872817236
9.248000000000001,0.9999874884491068,21.53507919495274
9.256,0.9999871636017873,21.33956488157541
9.264,0.9999868361932076,21.14394921807751
9.272,0.9999865062542297,20.94823249124593
9.280000000000001,0.9999861738163391,20.752414989258646
9.288,0.999985838911641,20.55649700168099
9.296,0.9999855015728579,20.360478819461814
9.304,0.9999851618333283,20.164360734929804
9.312000000000001,0.9999848197270029,19.968143041789688
9.32,0.9999844752884415,19.77182603511831
9.328,0.9999841285528116,19.575410011360493
9.336,0.999983779555884,19.37889526832515
9.344,0.9999834283340309,19.182282105181272
9.352,0.9999830749242213,18.985570822453546
9.36,0.9999827193640194,18.78876172201838
9.368,0.9999823616915802,18.59185510709938
9.376,0.9999820019456453,18.394851282263282
9.384,0.9999816401655418,18.197750553415272
9.392,0.999981276391176,18.00055322779479
9.4,0.9999809106630304,17.803259613970734
9.408,0.9999805430221611,17.605870021837166
9.416,0.9999801735101916,17.408384762608364
9.424,0.9999798021693113,17.2108041488144
9.432,0.9999794290422682,17.013128494296105
9.44,0.9999790541723678,16.815358114200478
9.448,0.9999786776034666,16.617493324975534
9.456,0.9999782993799677,16.419534444365638
9.464,0.999977919546818,16.221481791406166
9.472,0.9999775381495006,16.023335686418775
9.48,0.999977155234033,15.82509645100585
9.488,0.99997677084696,15.626764408045766
9.496,0.9999763850353497,15.428339881687126
9.504,0.999975997846788,15.229823197343912
9.512,0.9999756093293746,15.03121468168965
9.52,0.9999752195317152,14.832514662652365
9.528,0.9999748285029186,14.633723469408665
9.536,0.9999744362925902,14.434841432378573
9.544,0.9999740429508258,14.235868883219482
9.552,0.9999736485282068,14.036806154820828
9.56,0.9999732530757945,13.83765358129797
9.568,0.9999728566451233,13.638411497986729
9.576,0.9999724592881952,13.439080241437148
9.584,0.9999720610574743,13.239660149407854
9.592,0.9999716620058795,13.040151560859753
9.6,0.9999712621867788,12.840554815950272
9.608,0.9999708616539832,12.640870256026888
9.616,0.9999704604617395,12.441098223621267
9.624,0.9999700586647249,12.241239062442691
9.632,0.9999696563180381,12.041293117372042
9.64,0.9999692534771957,11.841260734455101
9.648,0.9999688501981222,11.641142260896473
9.656,0.9999684465371458,11.440938045052665
9.664,0.999968042550989,11.240648436425959
9.672,0.9999676382967635,11.040273785657362
9.68,0.999967233831961,10.83981444452033
9.688,0.9999668292144472,10.639270765913617
9.696,0.9999664245024543,10.438643103854865
9.704,0.9999660197545734,10.237931813473331
9.712,0.9999656150297467,10.037137251003356
9.72,0.9999652103872588,9.836259773777
9.728,0.999964805886732,9.635299740217336
9.736,0.9999644015881147,9.434257509831003
9.744,0.9999639975516761,9.233133443201377
9.752,0.9999635938379972,9.031927901980975
9.76,0.9999631905079623,8.830641248884541
9.768,0.9999627876227517,8.629273847681329
9.776,0.9999623852438332,8.427826063188007
9.784,0.9999619834329524,8.226298261260906
9.792,0.9999615822521267,8.02469080878878
9.8,0.9999611817636341,7.8230040736848805
9.808,0.9999607820300072,7.621238424879661
9.816,0.9999603831140214,7.419394232312715
9.824,0.9999599850786893,7.217471866925359
9.832,0.9999595879872496,7.01547170065244
9.84,0.9999591919031598,6.813394106414825
9.847999999999999,0.999958796890085,6.611239458111124
9.856,0.999958403011891,6.409008130609829
9.864,0.999958010332634,6.206700499741341
9.872,0.9999576189165512,6.004316942289762
9.879999999999999,0.9999572288280527,5.801857835984619
9.888,0.9999568401317102,5.599323559492727
9.896,0.9999564528922487,5.396714492409975
9.904,0.9999560671745371,5.194031015252899
9.911999999999999,0.9999556830435782,4.991273509450171
9.92,0.9999553005644983,4.788442357334226
9.928,0.9999549198025397,4.585537942132833
9.936,0.9999545408230472,4.382560647960423
9.943999999999999,0.9999541636914622,4.179510859809368
9.952,0.9999537884733096,3.9763889635413663
9.96,0.9999534152341893,3.7731953458787992
9.968,0.9999530440397665,3.569930394395825
9.975999999999999,0.999952674955759,3.366594497509441
9.984,0.9999523080479309,3.1631880444706413
9.992,0.9999519433820785,2.9597114253555508
10.0,0.9999515810240226,2.7561650310563035
10.008,0.9999512210395965,2.552549253271869
10.016,0.9999508634946365,2.348864484499011
10.024000000000001,0.9999505084549705,2.1451111180231845
