freq,mag,phase
6.0,0.999998518343836,2.1749572894221667
6.008,0.9999985008132213,1.886551336757752
6.016,0.9999984779030598,1.5981323807278067
6.024,0.9999984496998995,1.3097016286550671
6.032,0.9999984162900628,1.021260287697338
6.04,0.9999983777596428,0.7328095648011163
6.048,0.999998334194499,0.44435066665522743
6.056,0.9999982856802524,0.1558847996444594
6.064,0.9999982323022794,-0.1325868301967836
6.072,0.9999981741457079,-0.42106301723082035
6.08,0.9999981112954136,-0.7095425562630007
6.088,0.9999980438360133,-0.9980242425880049
6.096,0.999997971851862,-1.2865068720361095
6.104,0.9999978954270465,-1.574989241019418
6.112,0.9999978146453822,-1.8634701465780414
6.12,0.9999977295904079,-2.151948386426286
6.128,0.9999976403453809,-2.440422758998737
6.136,0.999997546993273,-2.728892063496342
6.144,0.9999974496167668,-3.0173550999323804
6.152,0.9999973482982484,-3.3058106691784697
6.16,0.9999972431198068,-3.5942575730104154
6.168,0.9999971341632259,-3.882694614154043
6.176,0.9999970215099832,-4.171120596330969
6.184,0.9999969052412426,-4.45953432430425
6.192,0.9999967854378521,-4.747934603924009
6.2,0.9999966621803401,-5.036320242172948
6.208,0.9999965355489082,-5.32469004721178
6.216,0.9999964056234294,-5.6130428284245735
6.224,0.9999962724834444,-5.901377396463971
6.232,0.9999961362081552,-6.189692563296399
6.24,0.999995996876423,-6.477987142247055
6.248,0.999995854566764,-6.766259948044863
6.256,0.9999957093573433,-7.054509796867337
6.264,0.999995561325974,-7.342735506385217
6.272,0.9999954105501113,-7.630935895807139
6.28,0.9999952571068489,-7.91910978592407
6.288,0.9999951010729167,-8.207255999153658
6.296,0.9999949425246741,-8.495373359584438
6.304,0.999994781538109,-8.78346069301992
6.312,0.9999946181888318,-9.07151682702253
6.32,0.9999944525520748,-9.359540590957405
6.328,0.9999942847026854,-9.647530816036033
6.336,0.9999941147151239,-9.935486335359792
6.344,0.9999939426634608,-10.223405983963243
6.352,0.9999937686213718,-10.511288598857355
6.36,0.9999935926621352,-10.79913301907254
6.368,0.9999934148586284,-11.086938085701508
6.376,0.9999932352833241,-11.374702641941946
6.384,0.9999930540082884,-11.662425533139059
6.392,0.9999928711051755,-11.950105606827929
6.4,0.9999926866452262,-12.237741712775653
6.408,0.9999925006992644,-12.525332703023349
6.416,0.9999923133376922,-12.812877431927951
6.424,0.9999921246304901,-13.100374756203818
6.432,0.9999919346472117,-13.387823534964143
6.44,0.9999917434569806,-13.675222629762178
6.448,0.999991551128489,-13.962570904632257
6.456,0.9999913577299936,-14.249867226130583
6.464,0.9999911633293128,-14.537110463375889
6.472,0.9999909679938255,-14.824299488089762
6.48,0.9999907717904659,-15.111433174636923
6.4879999999999995,0.9999905747857228,-15.398510400065035
6.496,0.9999903770456366,-15.685530044144741
6.504,0.9999901786357955,-15.972490989408739
6.5120000000000005,0.9999899796213346,-16.259392121191613
6.52,0.9999897800669327,-16.546232327668392
6.5280000000000005,0.9999895800368102,-16.83301049989384
6.536,0.9999893795947254,-17.1197255318406
6.5440000000000005,0.9999891788039748,-17.406376320438067
6.552,0.9999889777273882,-17.692961765609965
6.5600000000000005,0.9999887764273278,-17.979480770312776
6.568,0.9999885749656866,-18.26593224057279
6.5760000000000005,0.9999883734038842,-18.55231508552412
6.584,0.9999881718028674,-18.838628217445176
6.592,0.9999879702231064,-19.12487055179611
6.6,0.9999877687245929,-19.411041007255054
6.608,0.9999875673668388,-19.697138505754634
6.616,0.9999873662088749,-19.98316197251802
6.624,0.9999871653092471,-20.26911033609477
6.632,0.9999869647260173,-20.55498252839636
6.64,0.9999867645167598,-20.8407774847315
6.648,0.9999865647385598,-21.12649414384113
6.656,0.9999863654480129,-21.412131447933174
6.664,0.9999861667012221,-21.69768834271695
6.672,0.9999859685537981,-21.98316377743743
6.68,0.9999857710608561,-22.268556704909052
6.688,0.9999855742770152,-22.5538660815494
6.696,0.9999853782563982,-22.839090867412477
6.704,0.9999851830526276,-23.124230026221777
6.712,0.9999849887188269,-23.40928252540303
6.72,0.9999847953076186,-23.694247336116597
6.728,0.9999846028711223,-23.97912343328971
6.736,0.9999844114609553,-24.263909795648267
6.744,0.9999842211282295,-24.548605405748436
6.752,0.9999840319235526,-24.833209250007855
6.76,0.9999838438970258,-25.11772031873665
6.768,0.9999836570982426,-25.402137606168058
6.776,0.9999834715762898,-25.68646011048878
6.784,0.9999832873797445,-25.970686833869006
6.792,0.9999831045566758,-26.254816782492124
6.8,0.9999829231546415,-26.53884896658421
6.808,0.9999827432206898,-26.82278240044305
6.816,0.9999825648013576,-27.10661610246696
6.824,0.9999823879426699,-27.390349095183275
6.832,0.9999822126901394,-27.67398040527651
6.84,0.9999820390887675,-27.957509063616115
6.848,0.9999818671830419,-28.24093410528411
6.856,0.9999816970169372,-28.524254569602224
6.864,0.9999815286339143,-28.80746950015875
6.872,0.9999813620769221,-29.090577944835115
6.88,0.9999811973883935,-29.373578955832144
6.888,0.9999810346102493,-29.656471589695897
6.896,0.9999808737838961,-29.93925490734324
6.904,0.9999807149502258,-30.2219279740872
6.912,0.9999805581496168,-30.50448985966174
6.92,0.9999804034219345,-30.786939638246388
6.928,0.9999802508065295,-31.06927638849059
6.936,0.9999801003422395,-31.351499193537478
6.944,0.999979952067389,-31.633607141047605
6.952,0.9999798060197891,-31.91559932322205
6.96,0.9999796622367386,-32.19747483682555
6.968,0.9999795207550243,-32.479232783208886
6.976,0.99997938161092,-32.76087226833127
6.984,0.9999792448401892,-33.0423924027822
6.992,0.9999791104780841,-33.32379230180308
7.0,0.9999789785593463,-33.605071085308474
7.008,0.9999788491182078,-33.886227877906975
7.016,0.9999787221883912,-34.16726180892183
7.024,0.9999785978031105,-34.44817201241114
7.032,0.9999784759950725,-34.72895762718777
7.04,0.9999783567964768,-35.00961779683892
7.048,0.9999782402390163,-35.29015166974535
7.056,0.9999781263538785,-35.570558399100236
7.064,0.9999780151717471,-35.85083714292778
7.072,0.9999779067228017,-36.130987064101284
7.08,0.9999778010367195,-36.4110073303612
7.088,0.9999776981426756,-36.6908971143325
7.096,0.9999775980693453,-36.970655593541984
7.104,0.9999775008449039,-37.25028195043506
7.112,0.9999774064970283,-37.52977537239224
7.12,0.9999773150528983,-37.809135051745415
7.128,0.9999772265391981,-38.088360185793626
7.136,0.9999771409821163,-38.36744997681852
7.144,0.9999770584073487,-38.64640363209961
7.152,0.9999769788400987,-38.92522036392905
7.16,0.9999769023050786,-39.20389938962609
7.168,0.9999768288265121,-39.482439931551326
7.176,0.999976758428133,-39.76084121712038
7.184,0.9999766911331905,-40.039102478817505
7.192,0.9999766269644471,-40.317222954208646
7.2,0.9999765659441834,-40.59520188595431
7.208,0.9999765080941958,-40.873038521822004
7.216,0.9999764534358018,-41.1507321146984
7.224,0.9999764019898391,-41.428281922601116
7.232,0.9999763537766689,-41.705687208690236
7.24,0.9999763088161756,-41.98294724127944
7.248,0.9999762671277718,-42.2600612938468
7.256,0.9999762287303955,-42.537028645045325
7.264,0.9999761936425157,-42.813848578713035
7.272,0.9999761618821321,-43.09052038388288
7.28,0.9999761334667783,-43.36704335479219
7.288,0.9999761084135224,-43.64341679089191
7.296,0.9999760867389694,-43.919639996855345
7.304,0.9999760684592632,-44.19571228258683
7.312,0.9999760535900882,-44.47163296322986
7.32,0.9999760421466712,-44.74740135917492
7.328,0.9999760341437847,-45.02301679606718
7.336,0.9999760295957457,-45.29847860481369
7.344,0.9999760285164219,-45.573786121590196
7.352,0.9999760309192295,-45.84893868784794
7.36,0.9999760368171392,-46.12393565031984
7.368,0.9999760462226754,-46.39877636102643
7.376,0.999976059147919,-46.67346017728167
7.384,0.9999760756045104,-46.94798646169812
7.392,0.9999760956036501,-47.222354582192175
7.4,0.999976119156103,-47.496563911988616
7.4079999999999995,0.9999761462721983,-47.770613829625134
7.416,0.9999761769618326,-48.0445037189565
7.4239999999999995,0.9999762112344728,-48.31823296915818
7.432,0.9999762490991564,-48.59180097473015
7.4399999999999995,0.9999762905644963,-48.86520713549972
7.448,0.9999763356386806,-49.13845085662489
7.4559999999999995,0.9999763843294764,-49.41153154859646
7.464,0.9999764366442314,-49.68444862724081
7.4719999999999995,0.9999764925898754,-49.95720151372157
7.48,0.9999765521729248,-50.229789634541596
7.4879999999999995,0.999976615399483,-50.50221242154409
7.496,0.9999766822752422,-50.77446931191416
7.504,0.9999767528054878,-51.04655974817916
7.5120000000000005,0.9999768269950992,-51.318483178209824
7.52,0.999976904848552,-51.59023905521991
7.5280000000000005,0.9999769863699209,-51.861826837766785
7.536,0.9999770715628823,-52.13324598975066
7.5440000000000005,0.9999771604307153,-52.40449598041441
7.552,0.9999772529763052,-52.67557628434229
7.5600000000000005,0.9999773492021453,-52.94648638145932
7.568,0.9999774491103396,-53.21722575702936
7.5760000000000005,0.9999775527026044,-53.48779390165387
7.584,0.9999776599802711,-53.75819031126961
7.5920000000000005,0.9999777709442876,-54.02841448714677
7.6,0.9999778855952233,-54.29846593588606
7.6080000000000005,0.9999780039332676,-54.568344169416484
7.616,0.9999781259582341,-54.838048704991735
7.6240000000000006,0.9999782516695641,-55.10757906518752
7.632,0.9999783810663256,-55.37693477789743
7.640000000000001,0.9999785141472194,-55.64611537632977
7.648,0.9999786509105781,-55.915120399002845
7.656000000000001,0.9999787913543696,-56.18394938974128
7.664,0.9999789354761996,-56.45260189767097
7.672,0.9999790832733134,-56.721077477214635
7.68,0.999979234742598,-56.98937568808657
7.688,0.9999793898805845,-57.25749609528737
7.696,0.9999795486834498,-57.52543826909842
7.704,0.9999797111470193,-57.79320178507618
7.712,0.9999798772667686,-58.06078622404598
7.72,0.9999800470378253,-58.32819117209597
7.728,0.9999802204549718,-58.5954162205705
7.736,0.9999803975126466,-58.86246096606341
7.744,0.9999805782049462,-59.129325010411115
7.752,0.9999807625256285,-59.39600796068535
7.76,0.9999809504681122,-59.66250942918585
7.768,0.9999811420254812,-59.92882903343264
7.776,0.9999813371904844,-60.194966396158215
7.784,0.9999815359555394,-60.46092114529941
7.792,0.9999817383127325,-60.72669291398917
7.8,0.9999819442538215,-60.992281340548004
7.808,0.9999821537702372,-61.25768606847526
7.816,0.9999823668530855,-61.522906746440185
7.824,0.999982583493147,-61.7879430282728
7.832,0.9999828036808818,-62.052794572954525
7.84,0.9999830274064281,-62.31746104460862
7.848,0.9999832546596048,-62.58194211249044
7.856,0.9999834854299141,-62.846237450977505
7.864,0.9999837197065399,-63.110346739559255
7.872,0.9999839574783521,-63.37426966282677
7.88,0.9999841987339061,-63.63800591046222
7.888,0.9999844434614443,-63.901555177228076
7.896,0.9999846916488982,-64.16491716295624
7.904,0.9999849432838874,-64.42809157253691
7.912,0.999985198353722,-64.69107811590723
7.92,0.9999854568454039,-64.95387650803991
7.928,0.9999857187456258,-65.21648646893149
7.936,0.9999859840407745,-65.47890772359052
7.944,0.9999862527169291,-65.74114000202552
7.952,0.9999865247598622,-66.00318303923284
7.96,0.9999868001550423,-66.26503657518428
7.968,0.9999870788876314,-66.52670035481455
7.976,0.9999873609424871,-66.78817412800858
7.984,0.9999876463041625,-67.04945764958866
7.992,0.9999879349569055,-67.31055067930139
8.0,0.9999882268846604,-67.57145298180458
8.008,0.9999885220710657,-67.83216432665381
8.016,0.999988820499456,-68.09268448828902
8.024000000000001,0.9999891221528602,-68.3530132460208
8.032,0.9999894270140017,-68.61315038401646
8.04,0.9999897350652981,-68.87309569128648
8.048,0.9999900462888597,-69.13284896167006
8.056000000000001,0.999990360666489,-69.39240999382092
8.064,0.9999906781796812,-69.65177859119292
8.072,0.99999099880962,-69.91095456202574
8.08,0.9999913225371797,-70.16993771933005
8.088000000000001,0.9999916493429217,-70.42872788087264
8.096,0.9999919792070937,-70.68732486916153
8.104,0.999992312109628,-70.94572851143108
8.112,0.9999926480301402,-71.20393863962671
8.120000000000001,0.9999929869479256,-71.46195509038935
8.128,0.9999933288419586,-71.71977770504024
8.136,0.9999936736908906,-71.97740632956544
8.144,0.9999940214730453,-72.23484081459992
8.152000000000001,0.9999943721664184,-72.4920810154118
8.16,0.9999947257486731,-72.74912679188645
8.168,0.9999950821971376,-73.00597800851061
8.176,0.9999954414888025,-73.26263453435604
8.184000000000001,0.9999958036003154,-73.51909624306326
8.192,0.9999961685079786,-73.77536301282525
8.2,0.9999965361877452,-74.0314347263711
8.208,0.9999969066152135,-74.28731127094925
8.216000000000001,0.9999972797656241,-74.54299253831083
8.224,0.9999976556138546,-74.79847842469289
8.232,0.9999980341344133,-75.0537688308017
8.24,0.9999984153014374,-75.30886366179567
8.248000000000001,0.999998799088683,-75.56376282726806
8.256,0.9999991854695235,-75.81846624123023
8.264,0.9999995744169393,-76.07297382209411
8.272,0.9999999659035154,-76.32728549265514
8.280000000000001,1.0,-76.58140118007451
8.288,0.9999999999999999,-76.83532081586188
8.296,1.0,-77.08904433585789
8.304,1.0,-77.34257168021644
8.312,0.9999999999999999,-77.59590279338673
8.32,0.9999999999999999,-77.84903762409593
8.328,1.0,-78.1019761253308
8.336,0.9999999999999999,-78.35471825432023
8.344,0.9999999999999999,-78.60726397251685
8.352,0.9999999999999999,-78.85961324557927
8.36,1.0,-79.1117660433536
8.368,1.0,-79.36372233985571
8.376,0.9999999999999999,-79.61548211325251
8.384,1.0,-79.86704534584405
8.392,0.9999999999999999,-80.11841202404483
8.4,0.9999999999999998,-80.36958213836567
8.408,1.0,-80.62055568339501
8.416,0.9999999999999999,-80.87133265778064
8.424,1.0,-81.1219130642109
8.432,0.9999999999999999,-81.37229690939637
8.44,0.9999999999999998,-81.62248420405089
8.448,0.9999999999999999,-81.87247496287333
8.456,0.9999999999999999,-82.12226920452838
8.464,1.0,-82.37186695162835
8.472,0.9999999999999999,-82.6212682307139
8.48,1.0,-82.87047307223568
8.488,0.9999999999999999,-83.11948151053517
8.496,1.0,-83.36829358382609
8.504,0.9999999999999999,-83.61690933417533
8.512,0.9999999999999999,-83.86532880748433
8.52,0.9999999999999999,-84.11355205346987
8.528,0.9999999999999999,-84.36157912564553
8.536,0.9999999999999999,-84.6094100813024
8.544,1.0,-84.85704498149055
8.552,0.9999999999999999,-85.10448389099967
8.56,1.0,-85.35172687834073
8.568,1.0,-85.59877401572638
8.576,1.0,-85.8456253790527
8.584,1.0,-86.09228104787982
8.592,1.0,-86.33874110541332
8.6,1.0,-86.58500563848514
8.608,0.9999999999999999,-86.83107473753505
8.616,1.0,-87.07694849659141
8.624,0.9999999999999999,-87.3226270132528
8.632,1.0,-87.56811038866887
8.64,1.0,-87.813398727522
8.648,0.9999999999999999,-88.05849213800818
8.656,1.0,-88.30339073181882
8.664,0.9999999999999999,-88.54809462412177
8.672,1.0,-88.79260393354305
8.68,0.9999999999999999,-89.03691878214812
8.688,1.0,-89.28103929542378
8.696,1.0,-89.52496560225941
8.704,1.0,-89.7686978349291
8.712,1.0,-90.01223612907307
8.72,1.0,-90.25558062367993
8.728,0.9999999999999999,-90.49873146106819
8.736,0.9999999999999999,-90.74168878686882
8.744,0.9999999999999999,-90.98445275000698
8.752,1.0,-91.22702350268464
8.76,1.0,-91.46940120036265
8.768,0.9999999999999999,-91.71158600174357
8.776,1.0,-91.95357806875397
8.784,1.0,-92.19537756652754
8.792,0.9999999999999999,-92.43698466338765
8.8,0.9999999999999999,-92.6783995308308
8.808,0.9999999999999999,-92.91962234350943
8.815999999999999,1.0,-93.16065327921572
8.824,1.0,-93.40149251886494
8.832,0.9999999999999999,-93.64214024647913
8.84,1.0,-93.88259664917116
8.847999999999999,0.9999999999999999,-94.12286191712899
8.856,0.9999999999999999,-94.36293624359995
8.864,1.0,-94.6028198248752
8.872,1.0,-94.84251286027472
8.879999999999999,0.9999999999999999,-95.08201555213245
8.888,1.0,-95.32132810578156
8.896,1.0,-95.56045072953994
8.904,1.0,-95.79938363469626
8.911999999999999,1.0,-96.03812703549615
8.92,0.9999999999999998,-96.27668114912879
8.928,0.9999999999999998,-96.51504619571342
8.936,0.9999999999999999,-96.75322239828682
8.943999999999999,1.0,-96.99120998279076
8.952,1.0,-97.22900917805993
8.96,1.0,-97.46662021580995
8.968,0.9999999999999999,-97.7040433306263
8.975999999999999,0.9999999999999999,-97.94127875995336
8.984,1.0,-98.17832674408395
8.992,1.0,-98.415187526149
9.0,1.0,-98.6518613521082
9.008,0.9999999999999998,-98.88834847074098
9.016,1.0,-99.12464913363767
9.024000000000001,1.0,-99.36076359519143
9.032,0.9999999999999999,-99.59669211259067
9.04,0.9999999999999999,-99.83243494581217
9.048,1.0,-100.06799235761437
9.056000000000001,0.9999999999999999,-100.3033646135316
9.064,1.0,-100.53855198186862
9.072,1.0,-100.77355473369616
9.08,1.0,-101.00837314284668
9.088000000000001,0.9999999999999999,-101.2430074859109
9.096,1.0,-101.47745804223499
9.104,1.0,-101.71172509391872
9.112,1.0,-101.94580892581371
9.120000000000001,1.0,-102.17970982552275
9.128,1.0,-102.41342808339977
9.136,1.0,-102.64696399255058
9.144,1.0,-102.88031784883421
9.152000000000001,1.0,-103.1134899508648
9.16,0.9999999999999999,-103.34648060001457
9.168,0.9999999999999999,-103.57929010041744
9.176,1.0,-103.81191875897315
9.184000000000001,0.9999999999999999,-104.04436688535215
9.192,1.0,-104.27663479200133
9.2,1.0,-104.50872279415049
9.208,0.9999999999999999,-104.74063120981918
9.216000000000001,1.0,-104.97236035982442
9.224,1.0,-105.20391056778892
9.232,0.9999999999999999,-105.43528216015017
9.24,0.9999999999999999,-105.6664754661697
9.248000000000001,1.0,-105.89749081794304
9.256,1.0,-106.12832855040999
9.264,1.0,-106.35898900136586
9.272,0.9999999999999999,-106.58947251147212
9.280000000000001,0.9999999999999999,-106.81977942426809
9.288,0.9999999999999999,-107.04991008618236
9.296,0.9999999999999999,-107.27986484654474
9.304,0.9999999999999999,-107.50964405759775
9.312000000000001,1.0,-107.73924807450817
9.32,1.0,-107.96867725537848
9.328,0.9999999999999999,-108.19793196125796
9.336,1.0,-108.42701255615316
9.344,1.0,-108.65591940703757
9.352,0.9999999999999999,-108.88465288386101
9.36,1.0,-109.1132133595575
9.368,1.0,-109.34160121005247
9.376,1.0,-109.56981681426805
9.384,0.9999999999999998,-109.79786055412752
9.392,1.0,-110.02573281455733
9.4,1.0,-110.25343398348764
9.408,1.0,-110.48096445185034
9.416,0.9999999999999999,-110.7083246135748
9.424,1.0,-110.93551486558069
9.432,1.0,-111.16253560776826
9.44,1.0,-111.38938724300483
9.448,0.9999999999999999,-111.61607017710837
9.456,1.0,-111.84258481882677
9.464,1.0,-112.06893157981365
9.472,0.9999999999999999,-112.29511087459933
9.48,0.9999999999999998,-112.52112312055783
9.488,1.0,-112.74696873786839
9.496,0.9999999999999999,-112.97264814947255
9.504,1.0,-113.19816178102556
9.512,0.9999999999999999,-113.42351006084249
9.52,0.9999999999999999,-113.64869341983837
9.528,1.0,-113.87371229146278
9.536,1.0,-114.0985671116281
9.544,0.9999999999999998,-114.32325831863174
9.552,1.0,-114.54778635307198
9.56,1.0,-114.77215165775776
9.568,0.9999999999999999,-114.99635467761163
9.576,1.0,-115.22039585956713
9.584,1.0,-115.44427565245897
9.592,1.0,-115.66799450690819
9.6,1.0,-115.89155287520033
9.608,0.9999999999999999,-116.11495121115887
9.616,0.9999999999999999,-116.33818997001234
9.624,1.0,-116.56126960825719
9.632,1.0,-116.7841905835154
9.64,1.0,-117.00695335438836
9.648,0.9999999999999999,-117.2295583803066
9.656,0.9999999999999999,-117.45200612137715
9.664,0.9999999999999999,-117.67429703822765
9.672,1.0,-117.8964315918496
9.68,1.0,-118.11841024343981
9.688,1.0,-118.3402334542425
9.696,1.0,-118.5619016853912
9.704,0.9999999999999999,-118.7834153977532
9.712,1.0,-119.00477505177525
9.72,0.9999999999999999,-119.2259811073338
9.728,0.9999999999999999,-119.44703402358847
9.736,0.9999999999999999,-119.66793425884171
9.744,1.0,-119.88868227040356
9.752,0.9999999999999998,-120.10927851446459
9.76,0.9999999999999999,-120.32972344597562
9.768,1.0,-120.55001751853723
9.776,1.0,-120.77016118429802
9.784,1.0000000000000002,-120.99015489386396
9.792,1.0,-121.20999909621784
9.8,1.0,-121.42969423865125
9.808,1.0,-121.64924076670783
