freq,mag,phase
6.0,1.0,-38.12025884976623
6.008,1.0000000000000002,-38.45942174991564
6.016,0.9999999999999999,-38.798488017002356
6.024,0.9999999999999999,-39.13745632059825
6.032,0.9999994550662146,-39.4763253364923
6.04,0.9999988936194165,-39.815093746743784
6.048,0.9999983464454834,-40.15376023973505
6.056,0.9999978134458491,-40.49232351022344
6.064,0.9999972945190407,-40.830782259392834
6.072,0.9999967895607489,-41.16913519490438
6.08,0.9999962984639023,-41.50738103094677
6.088,0.9999958211187394,-41.84551848828585
6.096,0.999995357412882,-42.183546294313466
6.104,0.9999949072314045,-42.52146318309589
6.112,0.999994470456908,-42.85926789542161
6.12,0.99999404696959,-43.19695917884818
6.128,0.9999936366473146,-43.53453578774887
6.136,0.9999932393656829,-43.87199648335844
6.144,0.9999928549981045,-44.20934003381815
6.152,0.9999924834158637,-44.546565214220514
6.16,0.9999921244881913,-44.88367080665304
6.168,0.9999917780823306,-45.22065560024147
6.176,0.9999914440636078,-45.55751839119244
6.184,0.9999911222954964,-45.894257982835335
6.192,0.9999908126396879,-46.23087318566364
6.2,0.9999905149561554,-46.567362817375574
6.208,0.9999902291032206,-46.90372570291402
6.216,0.99998995493762,-47.239960674505866
6.224,0.999989692314569,-47.576066571700736
6.232,0.9999894410878267,-47.9120422414089
6.24,0.9999892011097601,-48.24788653793866
6.248,0.9999889722314078,-48.58359832303314
6.256,0.9999887543025423,-48.91917646590609
6.264,0.9999885471717322,-49.2546198432775
6.272,0.9999883506864063,-49.5899273394081
6.28,0.9999881646929115,-49.92509784613356
6.288,0.9999879890365753,-50.26013026289775
6.296,0.9999878235617674,-50.5950234967855
6.304,0.9999876681119568,-50.92977646255463
6.312,0.999987522529772,-51.264388082667374
6.32,0.999987386657059,-51.59885728732104
6.328,0.9999872603349409,-51.93318301447812
6.336,0.9999871434038723,-52.26736420989565
6.344,0.9999870357036985,-52.60139982715396
6.352,0.9999869370737102,-52.935288827684644
6.36,0.9999868473526997,-53.26903018079815
6.368,0.9999867663790152,-53.6026228637103
6.376,0.9999866939906156,-53.93606586156855
6.384,0.9999866300251236,-54.26935816747732
6.392,0.9999865743198795,-54.602498782522694
6.4,0.9999865267119926,-54.93548671579666
6.408,0.9999864870383942,-55.2683209844204
6.416,0.9999864551358875,-55.60100061356722
6.424,0.9999864308411982,-55.933524636484556
6.432,0.9999864139910261,-56.26589209451548
6.44,0.999986404422092,-56.59810203711958
6.448,0.9999864019711879,-56.930153521893025
6.456,0.9999864064752236,-57.26204561458821
6.464,0.999986417771276,-57.593777389132484
6.472,0.9999864356966328,-57.92534792764651
6.48,0.9999864600888418,-58.25675632046178
6.4879999999999995,0.999986490785754,-58.588001666137515
6.496,0.9999865276255682,-58.919083071477154
6.504,0.9999865704468763,-59.24999965154365
6.5120000000000005,0.9999866190887059,-59.58075052967501
6.52,0.9999866733905635,-59.91133483749807
6.5280000000000005,0.9999867331924749,-60.241751714942936
6.536,0.9999867983350293,-60.572000310255454
6.5440000000000005,0.9999868686594172,-60.90207978001029
6.552,0.9999869440074722,-61.23198928912233
6.5600000000000005,0.9999870242217102,-61.56172801085842
6.568,0.9999871091453668,-61.89129512684747
6.5760000000000005,0.9999871986224369,-62.22068982709108
6.584,0.9999872924977118,-62.54991130997236
6.592,0.9999873906168144,-62.87895878226529
6.6,0.999987492826237,-63.207831459142504
6.608,0.9999875989733757,-63.53652856418309
6.616,0.9999877089065662,-63.86504932937955
6.624,0.9999878224751155,-64.19339299514421
6.632,0.9999879395293372,-64.52155881031497
6.64,0.9999880599205846,-64.84954603216065
6.648,0.999988183501281,-65.17735392638548
6.656,0.9999883101249515,-65.50498176713322
6.664,0.9999884396462551,-65.83242883699066
6.672,0.9999885719210124,-66.15969442699043
6.68,0.9999887068062372,-66.48677783661337
6.688,0.9999888441601642,-66.81367837379032
6.696,0.9999889838422766,-67.14039535490325
6.704,0.9999891257133343,-67.46692810478586
6.712,0.9999892696354,-67.79327595672372
6.72,0.9999894154718666,-68.11943825245378
6.728,0.9999895630874804,-68.44541434216326
6.736,0.9999897123483681,-68.77120358448819
6.744,0.9999898631220595,-69.09680534651119
6.752,0.9999900152775116,-69.42221900375884
6.76,0.9999901686851315,-69.74744394019855
6.768,0.9999903232167984,-70.0724795482347
6.776,0.9999904787458854,-70.3973252287046
6.784,0.9999906351472807,-70.72198039087357
6.792,0.9999907922974068,-71.04644445242967
6.8,0.9999909500742414,-71.37071683947802
6.808,0.9999911083573365,-71.69479698653437
6.816,0.9999912670278356,-72.0186843365184
6.824,0.9999914259684929,-72.34237834074642
6.832,0.9999915850636896,-72.66587845892344
6.84,0.9999917441994524,-72.98918415913508
6.848,0.9999919032634654,-73.31229491783871
6.856,0.9999920621450905,-73.63521021985419
6.864,0.9999922207353792,-73.9579295583542
6.872,0.9999923789270868,-74.28045243485398
6.88,0.9999925366146872,-74.60277835920078
6.888,0.9999926936943859,-74.92490684956266
6.896,0.9999928500641319,-75.2468374324169
6.904,0.9999930056236286,-75.56856964253805
6.912,0.9999931602743473,-75.8901030229854
6.92,0.9999933139195369,-76.2114371250901
6.928,0.9999934664642334,-76.53257150844178
6.936,0.9999936178152702,-76.85350574087475
6.944,0.9999937678812872,-77.17423939845386
6.952,0.99999391657274,-77.49477206545981
6.96,0.9999940638019047,-77.81510333437409
6.968,0.9999942094828901,-78.1352328058635
6.976,0.9999943535316406,-78.45516008876433
6.984,0.9999944958659446,-78.77488480006612
6.992,0.9999946364054393,-79.0944065648948
7.0,0.9999947750716163,-79.41372501649586
7.008,0.9999949117878273,-79.73283979621668
7.016,0.9999950464792866,-80.05175055348883
7.024,0.9999951790730753,-80.3704569458098
7.032,0.9999953094981466,-80.68895863872446
7.04,0.9999954376853251,-81.00725530580594
7.048,0.999995563567312,-81.32534662863652
7.056,0.9999956870786851,-81.64323229678779
7.064,0.9999958081559004,-81.96091200780069
7.072,0.999995926737294,-82.27838546716511
7.08,0.9999960427630802,-82.59565238829913
7.088,0.9999961561753539,-82.91271249252799
7.096,0.9999962669180882,-83.22956550906267
7.104,0.9999963749371336,-83.54621117497818
7.112,0.999996480180217,-83.86264923519151
7.12,0.9999965825969397,-84.17887944243918
7.128,0.9999966821387744,-84.4949015572547
7.136,0.9999967787590628,-84.81071534794545
7.144,0.999996872413012,-85.12632059056942
7.152,0.999996963057692,-85.44171706891163
7.16,0.9999970506520293,-85.75690457446025
7.168,0.9999971351568042,-86.07188290638237
7.176,0.999997216534646,-86.38665187149958
7.184,0.9999972947500255,-86.70121128426325
7.192,0.9999973697692524,-87.01556096672941
7.2,0.9999974415604667,-87.32970074853358
7.208,0.9999975100936329,-87.64363046686519
7.216,0.999997575340533,-87.95734996644171
7.224,0.9999976372747608,-88.27085909948264
7.232,0.9999976958717113,-88.5841577256832
7.24,0.9999977511085754,-88.89724571218777
7.248,0.99999780296433,-89.21012293356303
7.256,0.9999978514197304,-89.52278927177098
7.264,0.9999978964572992,-89.8352446161417
7.272,0.9999979380613195,-90.14748886334574
7.28,0.9999979762178249,-90.45952191736662
7.288,0.9999980109145865,-90.77134368947262
7.296,0.9999980421411062,-91.08295409818889
7.304,0.9999980698886035,-91.39435306926894
7.312,0.9999980941500063,-91.70554053566616
7.32,0.9999981149199377,-92.01651643750505
7.328,0.9999981321947067,-92.32728072205227
7.336,0.9999981459722938,-92.6378333436875
7.344,0.9999981562523408,-92.9481742638742
7.352,0.9999981630361366,-93.25830345112999
7.36,0.9999981663266077,-93.56822088099702
7.368,0.9999981661283005,-93.87792653601223
7.376,0.9999981624473716,-94.18742040567716
7.384,0.9999981552915728,-94.49670248642796
7.392,0.9999981446702378,-94.80577278160489
7.4,0.9999981305942679,-95.11463130142201
7.4079999999999995,0.9999981130761177,-95.42327806293633
7.416,0.9999980921297806,-95.7317130900174
7.4239999999999995,0.9999980677707747,-96.03993641331581
7.432,0.9999980400161259,-96.34794807023286
7.4399999999999995,0.9999980088843551,-96.65574810488866
7.448,0.9999979743954616,-96.96333656809144
7.4559999999999995,0.9999979365709062,-97.2707135173056
7.464,0.9999978954335988,-97.5778790166206
7.4719999999999995,0.9999978510078786,-97.88483313671884
7.48,0.9999978033194998,-98.1915759548444
7.4879999999999995,0.9999977523956153,-98.49810755477051
7.496,0.999997698264759,-98.80442802676832
7.504,0.9999976409568303,-99.11053746757402
7.5120000000000005,0.9999975805030759,-99.41643598035735
7.52,0.9999975169360736,-99.72212367468872
7.5280000000000005,0.9999974502897143,-100.02760066650741
7.536,0.9999973805991851,-100.33286707808857
7.5440000000000005,0.9999973079009506,-100.63792303801127
7.552,0.9999972322327377,-100.94276868112522
7.5600000000000005,0.9999971536335142,-101.24740414851885
7.568,0.9999970721434737,-101.55182958748581
7.5760000000000005,0.9999969878040149,-101.85604515149286
7.584,0.9999969006577256,-102.16005100014634
7.5920000000000005,0.9999968107483634,-102.46384729915985
7.6,0.999996718120836,-102.76743422032072
7.6080000000000005,0.9999966228211841,-103.07081194145752
7.616,0.999996524896562,-103.37398064640635
7.6240000000000006,0.9999964243952186,-103.67694052497838
7.632,0.9999963213664789,-103.97969177292606
7.640000000000001,0.9999962158607235,-104.28223459191054
7.648,0.9999961079293714,-104.58456918946777
7.656000000000001,0.9999959976248592,-104.88669577897593
7.664,0.9999958850006231,-105.1886145796214
7.672,0.9999957701110775,-105.49032581636617
7.68,0.9999956530115975,-105.79182971991398
7.688,0.9999955337584983,-106.09312652667714
7.696,0.9999954124090157,-106.39421647874326
7.704,0.9999952890212863,-106.69509982384172
7.712,0.9999951636543281,-106.99577681531034
7.72,0.99999503636802,-107.29624771206201
7.728,0.999994907223083,-107.59651277855129
7.736,0.9999947762810595,-107.89657228474098
7.744,0.999994643604293,-108.19642650606882
7.752,0.9999945092559094,-108.49607572341397
7.76,0.999994373299796,-108.79552022306378
7.768,0.999994235800581,-109.09476029668033
7.776,0.9999940968236151,-109.3937962412672
7.784,0.9999939564349499,-109.692628359136
7.792,0.9999938147013181,-109.9912569578732
7.8,0.9999936716901141,-110.28968235030679
7.808,0.9999935274693732,-110.58790485447298
7.816,0.9999933821077512,-110.8859247935831
7.824,0.9999932356745053,-111.18374249599029
7.832,0.9999930882394726,-111.48135829515641
7.84,0.9999929398730516,-111.7787725296189
7.848,0.9999927906461804,-112.0759855429577
7.856,0.9999926406303178,-112.37299768376218
7.864,0.9999924898974223,-112.66980930559819
7.872,0.999992338519933,-112.9664207669751
7.88,0.9999921865707488,-113.26283243131286
7.888,0.9999920341232088,-113.55904466690917
7.896,0.9999918812510716,-113.85505784690675
7.904,0.9999917280284967,-114.15087234926041
7.912,0.9999915745300226,-114.44648855670462
7.92,0.9999914208305487,-114.74190685672069
7.928,0.9999912670053149,-115.03712764150427
7.936,0.9999911131298809,-115.33215130793289
7.944,0.9999909592801081,-115.62697825753342
7.952,0.9999908055321379,-115.92160889644988
7.96,0.9999906519623742,-116.21604363541091
7.968,0.9999904986474621,-116.51028288969776
7.976,0.999990345664269,-116.80432707911204
7.984,0.9999901930898649,-117.09817662794366
7.992,0.9999900410015037,-117.3918319649388
8.0,0.9999898894766027,-117.68529352326813
8.008,0.9999897385927246,-117.9785617404947
8.016,0.9999895884275571,-118.2716370585426
8.024000000000001,0.9999894390588944,-118.56451992366488
8.032,0.9999892905646179,-118.85721078641207
8.04,0.9999891430226779,-119.14971010160097
8.048,0.9999889965110738,-119.44201832828303
8.056000000000001,0.9999888511078353,-119.73413592971289
8.064,0.999988706891005,-120.02606337331731
8.072,0.9999885639386181,-120.31780113066424
8.08,0.9999884223286847,-120.60934967743154
8.088000000000001,0.9999882821391715,-120.90070949337598
8.096,0.9999881434479827,-121.19188106230261
8.104,0.9999880063329425,-121.48286487203406
8.112,0.9999878708717773,-121.77366141437979
8.120000000000001,0.9999877371420962,-122.06427118510544
8.128,0.9999876052213745,-122.35469468390257
8.136,0.999987475186935,-122.64493241435848
8.144,0.9999873471159303,-122.93498488392581
8.152000000000001,0.9999872210853262,-123.22485260389234
8.16,0.9999870971718833,-123.51453608935114
8.168,0.9999869754521394,-123.80403585917075
8.176,0.9999868560023926,-124.09335243596544
8.184000000000001,0.9999867388986847,-124.38248634606519
8.192,0.9999866242167833,-124.67143811948648
8.2,0.9999865120321654,-124.96020828990292
8.208,0.9999864024200003,-125.24879739461572
8.216000000000001,0.9999862954551332,-125.53720597452454
8.224,0.9999861912120689,-125.82543457409837
8.232,0.9999860897649544,-126.11348374134678
8.24,0.9999859911875641,-126.40135402779102
8.248000000000001,0.9999858955532823,-126.68904598843497
8.256,0.9999858029350882,-126.9765601817369
8.264,0.9999857134055393,-127.26389716958096
8.272,0.9999856270367562,-127.55105751724881
8.280000000000001,0.9999855439004068,-127.8380417933912
8.288,0.9999854640676905,-128.12485056999998
8.296,0.999985387609324,-128.41148442238034
8.304,0.9999853145955241,-128.69794392912272
8.312,0.9999852450959953,-128.98422967207497
8.32,0.9999851791799126,-129.27034223631523
8.328,0.999985116915908,-129.55628221012375
8.336,0.9999850583720558,-129.84205018495646
8.344,0.9999850036158572,-130.1276467554168
8.352,0.9999849527142277,-130.41307251922942
8.36,0.9999849057334816,-130.69832807721266
8.368,0.9999848627393183,-130.98341403325227
8.376,0.9999848237968088,-131.26833099427418
8.384,0.9999847889703811,-131.55307957021847
8.392,0.9999847583238085,-131.83766037401236
8.4,0.9999847319201942,-132.12207402154465
8.408,0.999984709821959,-132.40632113163883
8.416,0.999984692090828,-132.69040232602765
8.424,0.9999846787878187,-132.97431822932677
8.432,0.9999846699732263,-133.2580694690095
8.44,0.9999846657066134,-133.54165667538066
8.448,0.9999846660467945,-133.8250804815516
8.456,0.9999846710518274,-134.1083415234143
8.464,0.9999846807789984,-134.39144043961687
8.472,0.9999846952848108,-134.67437787153773
8.48,0.9999847146249752,-134.95715446326136
8.488,0.9999847388543943,-135.23977086155284
8.496,0.999984768027154,-135.52222771583394
8.504,0.9999848021965121,-135.8045256781577
8.512,0.999984841414885,-136.08666540318498
8.52,0.9999848857338399,-136.3686475481594
8.528,0.9999849352040814,-136.65047277288397
8.536,0.9999849898754418,-136.93214173969633
8.544,0.9999850497968711,-137.21365511344572
8.552,0.9999851150164258,-137.49501356146848
8.56,0.9999851855812597,-137.77621775356533
8.568,0.999985261537613,-138.05726836197718
8.576,0.9999853429308034,-138.33816606136241
8.584,0.9999854298052152,-138.61891152877325
8.592,0.9999855222042922,-138.89950544363336
8.6,0.9999856201705252,-139.1799484877143
8.608,0.9999857237454458,-139.46024134511342
8.616,0.9999858329696161,-139.74038470223067
8.624,0.9999859478826199,-140.02037924774677
8.632,0.9999860685230543,-140.30022567260025
8.64,0.9999861949285214,-140.5799246699659
8.648,0.9999863271356199,-140.85947693523215
8.656,0.9999864651799372,-141.13888316597968
8.664,0.9999866090960412,-141.4181440619592
8.672,0.999986758917473,-141.69726032507015
8.68,0.9999869146767385,-141.97623265933905
8.688,0.9999870764053026,-142.25506177089827
8.696,0.9999872441335796,-142.5337483679645
8.704,0.9999874178909292,-142.8122931608182
8.712,0.9999875977056464,-143.09069686178205
8.72,0.9999877836049573,-143.36896018520068
8.728,0.9999879756150113,-143.6470838474195
8.736,0.9999881737608756,-143.92506856676468
8.744,0.9999883780665276,-144.2029150635222
8.752,0.9999885885548511,-144.48062405991814
8.76,0.9999888052476279,-144.75819628009796
8.768,0.9999890281655346,-145.03563245010707
8.776,0.9999892573281358,-145.31293329787047
8.784,0.9999894927538779,-145.59009955317345
8.792,0.9999897344600868,-145.86713194764155
8.8,0.9999899824629596,-146.1440312147216
8.808,0.9999902367775627,-146.42079808966176
8.815999999999999,0.9999904974178251,-146.69743330949296
8.824,0.9999907643965349,-146.97393761300953
8.832,0.9999910377253357,-147.25031174075002
8.84,0.9999913174147209,-147.5265564349788
8.847999999999999,0.9999916034740307,-147.80267243966722
8.856,0.9999918959114484,-148.07866050047517
8.864,0.9999921947339976,-148.3545213647323
8.872,0.999992499947536,-148.63025578142015
8.879999999999999,0.999992811556756,-148.90586450115381
8.888,0.9999931295651784,-149.18134827616396
8.896,0.999993453975152,-149.45670786027878
8.904,0.9999937847878488,-149.73194400890637
8.911999999999999,0.9999941220032627,-150.00705747901702
8.92,0.9999944656202074,-150.28204902912586
8.928,0.9999948156363129,-150.55691941927506
8.936,0.9999951720480243,-150.83166941101692
8.943999999999999,0.9999955348506011,-151.1062997673966
8.952,0.9999959040381126,-151.38081125293516
8.96,0.9999962796034388,-151.65520463361256
8.968,0.9999966615382686,-151.92948067685077
8.975999999999999,0.9999970498330985,-152.20364015149758
8.984,0.9999974444772306,-152.47768382780967
8.992,0.9999978454587737,-152.7516124774361
9.0,0.9999982527646408,-153.0254268734024
9.008,0.9999986663805496,-153.29912779009416
9.016,0.9999990862910224,-153.5727160032411
9.024000000000001,0.999999512479385,-153.84619228990104
9.032,0.9999999449277672,-154.11955742844407
9.04,0.9999999999999999,-154.39281219853692
9.048,1.0,-154.66595738112758
9.056000000000001,1.0,-154.9389937584294
9.064,0.9999999999999999,-155.211922113906
9.072,1.0,-155.4847432322562
9.08,0.9999999999999999,-155.75745789939862
9.088000000000001,1.0,-156.0300669024568
9.096,0.9999999999999999,-156.3025710297443
9.104,1.0,-156.57497107074994
9.112,1.0,-156.84726781612326
9.120000000000001,1.0,-157.11946205765966
9.128,0.9999999999999999,-157.3915545882862
9.136,0.9999999999999999,-157.66354620204729
9.144,1.0,-157.93543769409044
9.152000000000001,1.0,-158.20722986065195
9.16,0.9999999999999999,-158.47892349904313
9.168,1.0,-158.7505194076364
9.176,0.9999999999999999,-159.0220183858515
9.184000000000001,0.9999999999999999,-159.29342123414156
9.192,0.9999999999999999,-159.56472875397978
9.2,0.9999999999999999,-159.83594174784602
9.208,1.0,-160.10706101921326
9.216000000000001,0.9999999999999999,-160.37808737253425
9.224,1.0,-160.64902161322854
9.232,0.9999999999999999,-160.91986454766942
9.24,1.0,-161.19061698317086
9.248000000000001,1.0,-161.46127972797464
9.256,0.9999999999999999,-161.73185359123758
9.264,1.0,-162.00233938301903
9.272,0.9999999999999999,-162.27273791426822
9.280000000000001,0.9999999999999999,-162.54304999681165
9.288,1.0,-162.81327644334084
9.296,1.0,-163.0834180674002
9.304,0.9999999999999998,-163.35347568337457
9.312000000000001,0.9999999999999999,-163.62345010647732
9.32,1.0000000000000002,-163.89334215273817
9.328,0.9999999999999999,-164.1631526389916
9.336,1.0,-164.43288238286482
9.344,1.0,-164.7025322027659
9.352,1.0,-164.97210291787263
9.36,1.0,-165.24159534812037
9.368,1.0000000000000002,-165.51101031419114
9.376,1.0,-165.78034863750182
9.384,1.0,-166.04961114019338
9.392,1.0,-166.31879864511896
9.4,0.9999999999999999,-166.58791197583363
9.408,1.0,-166.85695195658258
9.416,1.0,-167.12591941229078
9.424,0.9999999999999999,-167.3948151685517
9.432,1.0,-167.6636400516169
9.44,1.0,-167.93239488838498
9.448,1.0,-168.20108050639135
9.456,1.0,-168.46969773379726
9.464,1.0,-168.73824739937987
9.472,0.9999999999999999,-169.00673033252136
9.48,1.0,-169.27514736319907
9.488,1.0,-169.5434993219749
9.496,1.0,-169.81178703998563
9.504,1.0,-170.0800113489322
9.512,1.0,-170.34817308107054
9.52,1.0,-170.6162730692008
9.528,1.0,-170.88431214665823
9.536,1.0,-171.15229114730286
9.544,0.9999999999999999,-171.42021090551017
9.552,1.0,-171.6880722561612
9.56,1.0,-171.9558760346332
9.568,1.0,-172.22362307678992
9.576,1.0,-172.49131421897238
9.584,1.0,-172.75895029798926
9.592,1.0,-173.026532151108
9.6,0.9999999999999999,-173.29406061604502
9.608,1.0,-173.56153653095717
9.616,0.9999999999999998,-173.82896073443203
9.624,1.0,-174.0963340654793
9.632,1.0,-174.36365736352164
9.64,0.9999999999999999,-174.63093146838582
