freq,mag,phase
6.0,0.9999954084699803,-10.731781121745936
6.008,0.9999973249596813,-11.014470698988925
6.016,0.9999991677484014,-11.29715940904299
6.024,1.0,-11.579846682022913
6.032,0.9999999999999999,-11.862531948545131
6.04,1.0,-12.145214639741926
6.048,1.0,-12.427894187275612
6.056,1.0,-12.710570023352748
6.064,0.9999999999999999,-12.993241580738331
6.072,1.0,-13.275908292769945
6.08,1.0,-13.558569593372049
6.088,1.0,-13.841224917070077
6.096,1.0,-14.123873699004692
6.104,1.0,-14.406515374945931
6.112,0.9999999999999999,-14.689149381307413
6.12,0.9999999999999999,-14.971775155160504
6.128,0.9999999999999999,-15.254392134248512
6.136,1.0,-15.536999757000789
6.144,0.9999999999999999,-15.819597462546982
6.152,1.0,-16.102184690731043
6.16,1.0,-16.38476088212553
6.168,1.0,-16.667325478045576
6.176,1.0,-16.94987792056311
6.184,1.0,-17.232417652520898
6.192,1.0,-17.51494411754665
6.2,1.0,-17.797456760067092
6.208,1.0,-18.079955025322008
6.216,1.0,-18.362438359378274
6.224,1.0,-18.64490620914395
6.232,1.0,-18.92735802238214
6.24,1.0,-19.209793247725138
6.248,1.0000000000000002,-19.49221133468827
6.256,0.9999999999999999,-19.774611733683894
6.264,1.0,-20.0569938960353
6.272,1.0,-20.33935727399064
6.28,1.0,-20.62170132073679
6.288,0.9999999999999999,-20.904025490413098
6.296,0.9999999999999999,-21.186329238125392
6.304,0.9999999999999999,-21.46861201995968
6.312,0.9999999999999998,-21.75087329299587
6.32,1.0,-22.033112515321598
6.328,1.0,-22.315329146045922
6.336,0.9999999999999999,-22.597522645312964
6.344,1.0,-22.879692474315625
6.352,1.0,-23.16183809530915
6.36,1.0,-23.443958971624742
6.368,1.0,-23.726054567683153
6.376,0.9999999999999999,-24.00812434900814
6.384,1.0,-24.290167782239944
6.392,1.0,-24.572184335148865
6.4,1.0,-24.854173476648523
6.408,0.9999999999999999,-25.136134676809313
6.416,1.0,-25.41806740687176
6.424,1.0,-25.69997113925974
6.432,0.9999999999999999,-25.981845347593822
6.44,1.0,-26.263689506704456
6.448,1.0,-26.54550309264512
6.456,0.9999999999999998,-26.82728558270549
6.464,1.0,-27.109036455424526
6.472,0.9999999999999999,-27.390755190603524
6.48,1.0,-27.672441269319076
6.4879999999999995,1.0,-27.954094173936042
6.496,1.0,-28.235713388120626
6.504,1.0,-28.51729839685284
6.5120000000000005,0.9999999999999999,-28.79884868643981
6.52,0.9999999999999999,-29.080363744528103
6.5280000000000005,1.0,-29.36184306011682
6.536,1.0,-29.64328612356988
6.5440000000000005,1.0,-29.924692426629097
6.552,0.9999999999999999,-30.206061462426195
6.5600000000000005,1.0,-30.48739272549591
6.568,1.0,-30.768685711787843
6.5760000000000005,1.0,-31.049939918679463
6.584,1.0,-31.33115484498793
6.592,1.0,-31.61232999098278
6.6,1.0,-31.893464858397913
6.608,1.0,-32.17455895044392
6.616,1.0000000000000002,-32.45561177182014
6.624,1.0000000000000002,-32.73662282872673
6.632,0.9999999999999999,-33.01759162887666
6.64,0.9999999999999999,-33.298517681507754
6.648,1.0,-33.57940049739445
6.656,0.9999999999999999,-33.8602395888597
6.664,0.9999999999999999,-34.1410344697867
6.672,1.0,-34.421784655630624
6.68,1.0,-34.702489663430285
6.688,1.0,-34.983149011819584
6.696,1.0,-35.2637622210392
6.704,0.9999999999999999,-35.54432881294795
6.712,0.9999999999999999,-35.824848311034096
6.72,0.9999999999999999,-36.10532024042681
6.728,0.9999998002883365,-36.38574412790734
6.736,0.9999990884517036,-36.666119501920164
6.744,0.9999983781224261,-36.94644589258421
6.752,0.9999976696625525,-37.226722831703775
6.76,0.9999969634260761,-37.506949852779606
6.768,0.999996259759006,-37.78712649101975
6.776,0.999995558999436,-38.06725228335042
6.784,0.9999948614776175,-38.347326768426754
6.792,0.9999941675160278,-38.627349486643475
6.8,0.9999934774294421,-38.907319980145616
6.808,0.9999927915250028,-39.18723779283895
6.816,0.9999921101022917,-39.46710247040055
6.824,0.9999914334533992,-39.74691356028917
6.832,0.9999907618629955,-40.02667061175557
6.84,0.9999900956084015,-40.30637317585284
6.848,0.9999894349596591,-40.586020805446424
6.856,0.9999887801796012,-40.865613055224436
6.864,0.9999881315239244,-41.14514948170755
6.872,0.9999874892412572,-41.424629643258996
6.88,0.9999868535732314,-41.70405310009444
6.888,0.9999862247545527,-41.98341941429181
6.896,0.999985603013072,-42.262728149800985
6.904,0.9999849885698542,-42.541978872453484
6.912,0.9999843816392499,-42.82117114997198
6.92,0.999983782428965,-43.10030455197982
6.928,0.9999831911401305,-43.37937865001048
6.936,0.9999826079673746,-43.6583930175168
6.944,0.9999820330988906,-43.937347229880345
6.952,0.9999814667165077,-44.216240864420506
6.96,0.9999809089957619,-44.49507350040358
6.968,0.9999803601059637,-44.773844719051816
6.976,0.9999798202102697,-45.05255410355239
6.984,0.9999792894657514,-45.33120123906611
6.992,0.999978768023465,-45.60978571273632
7.0,0.9999782560285201,-45.88830711369748
7.008,0.9999777536201495,-46.16676503308389
7.016,0.9999772609317784,-46.44515906403805
7.024,0.9999767780910933,-46.72348880171919
7.032,0.9999763052201102,-47.00175384331159
7.04,0.9999758424352436,-47.27995378803286
7.048,0.9999753898473761,-47.55808823714211
7.056,0.999974947561925,-47.83615679394801
7.064,0.9999745156789114,-48.11415906381689
7.072,0.9999740942930284,-48.39209465418053
7.08,0.9999736834937085,-48.669963174544115
7.088,0.9999732833651914,-48.94776423649396
7.096,0.9999728939865916,-49.225497453705124
7.104,0.9999725154319659,-49.50316244194906
7.112,0.9999721477703791,-49.780758819101024
7.12,0.9999717910659738,-50.05828620514761
7.128,0.9999714453780332,-50.33574422219394
7.136,0.999971110761051,-50.61313249447098
7.144,0.9999707872647965,-50.890450648342636
7.152,0.9999704749343789,-51.16769831231284
7.16,0.9999701738103162,-51.444875117032524
7.168,0.9999698839285983,-51.721980695306485
7.176,0.9999696053207537,-51.99901468210017
7.184,0.999969338013914,-52.27597671454642
7.192,0.999969082030879,-52.552866431952054
7.2,0.9999688373901808,-52.82968347580442
7.208,0.9999686041061492,-53.10642748977779
7.216,0.9999683821889748,-53.38309811973981
7.224,0.999968171644773,-53.659695013757634
7.232,0.9999679724756492,-53.93621782210421
7.24,0.9999677846797588,-54.21266619726429
7.248,0.999967608251373,-54.489039793940464
7.256,0.999967443180941,-54.76533826905905
7.264,0.9999672894551523,-55.04156128177594
7.272,0.9999671470569973,-55.31770849348226
7.28,0.9999670159658329,-55.593779567810095
7.288,0.9999668961574397,-55.86977417063797
7.296,0.9999667876040867,-56.14569197009633
7.304,0.9999666902745912,-56.42153263657292
7.312,0.9999666041343787,-56.69729584271809
7.32,0.9999665291455443,-56.97298126344986
7.328,0.9999664652669121,-57.24858857595922
7.336,0.9999664124540965,-57.52411745971496
7.344,0.9999663706595587,-57.79956759646864
7.352,0.9999663398326691,-58.07493867025954
7.36,0.9999663199197638,-58.35023036741924
7.368,0.9999663108642041,-58.62544237657632
7.376,0.9999663126064343,-58.90057438866095
7.384,0.9999663250840394,-59.17562609690937
7.392,0.9999663482318041,-59.45059719686823
7.4,0.9999663819817669,-59.72548738639891
7.4079999999999995,0.9999664262632795,-60.00029636568166
7.416,0.9999664810030626,-60.27502383721995
7.4239999999999995,0.9999665461252609,-60.54966950584403
7.432,0.9999666215515005,-60.82423307871545
7.4399999999999995,0.9999667072009429,-61.098714265330315
7.448,0.9999668029903408,-61.3731127775236
7.4559999999999995,0.9999669088340929,-61.64742832947234
7.464,0.9999670246442977,-61.92166063769959
7.4719999999999995,0.9999671503308073,-62.195809421077534
7.48,0.9999672858012815,-62.469874400831344
7.4879999999999995,0.9999674309612409,-62.74385530054198
7.496,0.9999675857141195,-63.017751846149935
7.504,0.9999677499613178,-63.291563765957875
7.5120000000000005,0.9999679236022537,-63.56529079063416
7.52,0.999968106534415,-63.83893265321529
7.5280000000000005,0.9999682986534112,-64.11248908910933
7.536,0.9999684998530229,-64.38595983609818
7.5440000000000005,0.9999687100252544,-64.65934463434075
7.552,0.9999689290603823,-64.93264322637505
7.5600000000000005,0.9999691568470055,-65.20585535712125
7.568,0.9999693932720954,-65.47898077388362
7.5760000000000005,0.999969638221044,-65.75201922635334
7.584,0.9999698915777134,-66.02497046661026
7.5920000000000005,0.999970153224483,-66.29783424912566
7.6,0.9999704230422983,-66.57061033076369
7.6080000000000005,0.9999707009107175,-66.843298470784
7.616,0.999970986707959,-67.1158984308431
7.6240000000000006,0.9999712803109486,-67.38840997499672
7.632,0.9999715815953638,-67.660832869701
7.640000000000001,0.9999718904356825,-67.93316688381469
7.648,0.9999722067052248,-68.20541178860027
7.656000000000001,0.9999725302762021,-68.4775673577258
7.664,0.9999728610197584,-68.749633367266
7.672,0.9999731988060161,-69.02160959570392
7.68,0.9999735435041193,-69.29349582393185
7.688,0.9999738949822775,-69.56529183525272
7.696,0.9999742531078086,-69.83699741538099
7.704,0.9999746177471805,-70.10861235244377
7.712,0.9999749887660552,-70.38013643698166
7.72,0.9999753660293285,-70.65156946194959
7.728,0.999975749401172,-70.92291122271756
7.736,0.9999761387450751,-71.19416151707127
7.744,0.999976533923884,-71.46532014521277
7.752,0.9999769347998427,-71.73638690976085
7.76,0.9999773412346322,-72.00736161575156
7.768,0.99997775308941,-72.2782440706385
7.776,0.999978170224849,-72.549034084293
7.784,0.9999785925011756,-72.81973146900445
7.792,0.9999790197782078,-73.09033603948025
7.8,0.9999794519153936,-73.36084761284592
7.808,0.9999798887718467,-73.63126600864497
7.816,0.999980330206385,-73.9015910488388
7.824,0.9999807760775646,-74.17182255780642
7.832,0.9999812262437185,-74.44196036234429
7.84,0.9999816805629901,-74.71200429166572
7.848,0.9999821388933691,-74.98195417740065
7.856,0.9999826010927257,-75.25180985359493
7.864,0.9999830670188459,-75.52157115670984
7.872,0.9999835365294639,-75.79123792562132
7.88,0.9999840094822966,-76.06081000161929
7.888,0.9999844857350765,-76.33028722840673
7.896,0.9999849651455834,-76.59966945209884
7.904,0.9999854475716781,-76.86895652122199
7.912,0.9999859328713329,-77.13814828671275
7.92,0.9999864209026631,-77.40724460191664
7.928,0.9999869115239591,-77.67624532258705
7.936,0.9999874045937152,-77.94515030688385
7.944,0.9999878999706614,-78.21395941537207
7.952,0.9999883975137913,-78.48267251102054
7.96,0.9999888970823938,-78.75128945920031
7.968,0.9999893985360792,-79.0198101276831
7.976,0.9999899017348097,-79.28823438663972
7.984,0.9999904065389272,-79.55656210863825
7.992,0.9999909128091803,-79.82479316864236
8.0,0.9999914204067516,-80.09292744400942
8.008,0.9999919291932851,-80.36096481448854
8.016,0.9999924390309125,-80.62890516221876
8.024000000000001,0.999992949782279,-80.89674837172667
8.032,0.9999934613105691,-81.16449432992452
8.04,0.9999939734795315,-81.43214292610807
8.048,0.999994486153505,-81.69969405195424
8.056000000000001,0.999994999197441,-81.96714760151866
8.064,0.9999955124769304,-82.2345034712334
8.072,0.9999960258582236,-82.50176155990462
8.08,0.999996539208257,-82.76892176870994
8.088000000000001,0.9999970523946748,-83.03598400119571
8.096,0.9999975652858505,-83.30294816327454
8.104,0.99999807775091,-83.56981416322257
8.112,0.9999985896597526,-83.83658191167669
8.120000000000001,0.9999991008830738,-84.10325132163153
8.128,0.9999996112923839,-84.36982230843667
8.136,0.9999999999999999,-84.63629478979378
8.144,0.9999999999999999,-84.90266868575351
8.152000000000001,0.9999999999999999,-85.16894391871219
8.16,1.0,-85.43512041340892
8.168,1.0,-85.70119809692235
8.176,0.9999999999999999,-85.96717689866736
8.184000000000001,1.0,-86.23305675039158
8.192,1.0,-86.49883758617214
8.2,1.0,-86.76451934241227
8.208,1.0,-87.03010195783777
8.216000000000001,1.0,-87.29558537349321
8.224,0.9999999999999999,-87.56096953273854
8.232,1.0,-87.82625438124543
8.24,1.0,-88.09143986699348
8.248000000000001,1.0,-88.35652594026621
8.256,0.9999999999999998,-88.62151255364748
8.264,1.0,-88.88639966201758
8.272,0.9999999999999999,-89.15118722254917
8.280000000000001,0.9999999999999999,-89.4158751947032
8.288,0.9999999999999999,-89.68046354022493
8.296,1.0,-89.94495222313991
8.304,1.0,-90.20934120974974
8.312,0.9999999999999998,-90.47363046862758
8.32,1.0,-90.73781997061444
8.328,1.0,-91.00190968881418
8.336,1.0,-91.26589959858981
8.344,1.0000000000000002,-91.52978967755844
8.352,0.9999999999999999,-91.79357990558734
8.36,0.9999999999999998,-92.05727026478893
8.368,1.0,-92.32086073951669
8.376,0.9999999999999999,-92.58435131636004
8.384,1.0,-92.84774198414017
8.392,0.9999999999999999,-93.11103273390484
8.4,0.9999999999999999,-93.37422355892406
8.408,1.0,-93.63731445468487
8.416,1.0,-93.9003054188869
8.424,0.9999999999999999,-94.163196451437
8.432,0.9999999999999999,-94.42598755444483
8.44,1.0,-94.6886787322173
8.448,1.0000000000000002,-94.9512699912541
8.456,0.9999999999999999,-95.21376134024206
8.464,1.0,-95.47615279005062
8.472,1.0,-95.73844435372605
8.48,0.9999999999999999,-96.00063604648685
8.488,0.9999999999999999,-96.26272788571798
8.496,1.0,-96.52471989096598
8.504,0.9999999999999999,-96.78661208393329
8.512,0.9999999999999999,-97.04840448847328
8.52,1.0,-97.3100971305844
8.528,0.9999999999999999,-97.57169003840515
8.536,1.0,-97.83318324220822
8.544,1.0,-98.09457677439536
8.552,0.9999999999999999,-98.35587066949138
8.56,0.9999999999999999,-98.61706496413903
8.568,1.0,-98.87815969709288
8.576,0.9999999999999999,-99.13915490921413
8.584,1.0,-99.4000506434644
8.592,0.9999999999999999,-99.66084694490051
8.6,0.9999999999999999,-99.92154386066824
8.608,1.0,-100.18214143999688
8.616,0.9999999999999999,-100.44263973419311
8.624,1.0,-100.70303879663538
8.632,0.9999999999999999,-100.9633386827677
8.64,0.9999999999999999,-101.22353945009404
8.648,1.0,-101.48364115817195
8.656,1.0,-101.74364386860707
8.664,0.9999999999999999,-102.0035476450465
8.672,0.9999999999999999,-102.26335255317328
8.68,0.9999999999999998,-102.52305866069983
8.688,1.0,-102.78266603736228
8.696,0.9999999999999999,-103.04217475491376
8.704,0.9999999999999999,-103.30158488711884
8.712,0.9999999999999999,-103.5608965097467
8.72,1.0,-103.82010970056544
8.728,0.9999999999999999,-104.07922453933531
8.736,1.0,-104.33824110780292
8.744,1.0,-104.5971594896943
8.752,1.0,-104.85597977070928
8.76,1.0,-105.11470203851438
8.768,1.0,-105.37332638273705
8.776,1.0,-105.63185289495867
8.784,1.0,-105.89028166870867
8.792,1.0,-106.14861279945744
8.8,0.9999999999999999,-106.40684638461047
8.808,1.0,-106.66498252350127
8.815999999999999,1.0,-106.92302131738515
8.824,1.0,-107.18096286943266
8.832,0.9999999999999999,-107.43880728472276
8.84,0.9999999999999999,-107.69655467023634
8.847999999999999,0.9999999999999999,-107.9542051348497
8.856,1.0,-108.21175878932786
8.864,1.0,-108.46921574631766
8.872,1.0,-108.72657612034124
8.879999999999999,1.0000000000000002,-108.98384002778943
8.888,0.9999999999999999,-109.24100758691492
8.896,1.0,-109.49807891782535
8.904,1.0,-109.75505414247675
8.911999999999999,0.9999999999999999,-110.0119333846667
8.92,0.9999999999999999,-110.26871677002761
8.928,1.0,-110.52540442601963
8.936,1.0,-110.78199648192403
8.943999999999999,1.0,-111.03849306883633
8.952,1.0,-111.2948943196595
8.96,1.0,-111.5512003690968
8.968,1.0,-111.80741135364504
8.975999999999999,0.9999999999999999,-112.06352741158781
8.984,0.9999999999999999,-112.31954868298843
8.992,0.9999999999999999,-112.57547530968283
9.0,1.0,-112.83130743527279
9.008,1.0,-113.08704520511903
9.016,1.0,-113.3426887663341
9.024000000000001,1.0,-113.59823826777536
9.032,1.0,-113.85369386003791
9.04,1.0,-114.10905569544788
9.048,1.0,-114.36432392805516
9.056000000000001,0.9999999999999998,-114.61949871362627
9.064,1.0,-114.87458020963743
9.072,1.0,-115.12956857526765
9.08,0.9999999999999999,-115.38446397139138
9.088000000000001,0.9999999999999999,-115.63926656057157
9.096,0.9999999999999999,-115.89397650705244
9.104,0.9999999999999999,-116.14859397675261
9.112,0.9999999999999999,-116.4031191372579
9.120000000000001,0.9999999999999999,-116.65755215781404
9.128,1.0,-116.91189320931964
9.136,1.0,-117.16614246431928
9.144,1.0,-117.42030009699609
9.152000000000001,1.0,-117.67436628316457
9.16,0.9999999999999999,-117.92834120026362
9.168,1.0,-118.18222502734936
9.176,1.0,-118.4360179450879
9.184000000000001,1.0,-118.68972013574805
9.192,0.9999999999999999,-118.94333178319428
9.2,0.9999999999999999,-119.19685307287962
9.208,1.0,-119.45028419183834
9.216000000000001,1.0,-119.7036253286787
9.224,1.0,-119.95687667357576
9.232,1.0,-120.21003841826442
9.24,1.0,-120.46311075603197
9.248000000000001,1.0,-120.71609388171092
9.256,1.0,-120.96898799167168
9.264,1.0,-121.22179328381574
9.272,0.9999999999999999,-121.47450995756806
9.280000000000001,0.9999999999999999,-121.72713821386994
9.288,1.0,-121.97967825517178
9.296,0.9999999999999999,-122.23213028542604
9.304,0.9999999999999998,-122.4844945100799
9.312000000000001,0.9999999999999998,-122.7367711360679
9.32,1.0,-122.98896037180485
9.328,1.0,-123.24106242717859
9.336,0.9999999999999999,-123.4930775135429
9.344,1.0,-123.74500584370985
9.352,1.0,-123.99684763194311
9.36,1.0,-124.24860309395025
9.368,1.0,-124.50027244687594
9.376,1.0,-124.7518559092943
9.384,1.0,-125.00335370120204
9.392,1.0,-125.25476604401095
9.4,1.0,-125.506093160541
9.408,0.9999999999999999,-125.75733527501271
9.416,0.9999999999999998,-126.00849261304033
9.424,1.0,-126.25956540162439
9.432,0.9999999999999999,-126.51055386914457
9.44,0.9999999999999999,-126.7614582453524
9.448,1.0,-127.01227876136437
9.456,1.0000000000000002,-127.26301564965414
9.464,1.0,-127.51366914404599
9.472,0.9999999999999999,-127.76423947970714
9.48,1.0,-128.01472689314093
9.488,1.0,-128.2651316221793
9.496,0.9999999999999999,-128.51545390597582
9.504,1.0,-128.76569398499848
9.512,1.0,-129.01585210102255
9.52,1.0,-129.26592849712318
9.528,1.0,-129.51592341766872
9.536,1.0,-129.76583710831292
9.544,1.0,-130.0156698159885
9.552,1.0,-130.26542178889935
9.56,0.9999999999999999,-130.51509327651388
9.568,0.9999999999999999,-130.7646845295575
9.576,1.0,-131.01419580000592
9.584,0.9999999999999999,-131.26362734107767
9.592,1.0,-131.5129794072272
9.6,1.0,-131.76225225413756
9.608,1.0,-132.0114461387137
9.616,0.9999999999999999,-132.26056131907484
9.624,0.9999999999999999,-132.509598054548
9.632,1.0,-132.75855660566032
9.64,1.0,-133.00743723413254
9.648,1.0,-133.25624020287154
9.656,0.9999997888481074,-133.50496577596348
9.664,0.9999992272683379,-133.7536142186668
9.672,0.9999986625963696,-134.00218579740502
9.68,0.9999980949090431,-134.25068077975988
9.688,0.9999975242834434,-134.49909943446434
9.696,0.9999969507968851,-134.7474420313953
9.704,0.9999963745269017,-134.99570884156716
9.712,0.9999957955512342,-135.24390013712406
9.72,0.9999952139478165,-135.49201619133373
9.728,0.9999946297947666,-135.74005727857985
9.736,0.9999940431703725,-135.98802367435565
9.744,0.9999934541530813,-136.2359156552564
9.752,0.9999928628214866,-136.48373349897304
9.76,0.9999922692543175,-136.7314774842848
9.768,0.9999916735304261,-136.97914789105263
9.776,0.9999910757287768,-137.226745000212
9.784,0.999990475928432,-137.4742690937663
9.792,0.9999898742085448,-137.72172045477976
9.8,0.9999892706483436,-137.96909936737055
9.808,0.9999886653271216,-138.21640611670412
9.816,0.9999880583242262,-138.46364098898624
9.824,0.999987449719047,-138.71080427145606
9.832,0.9999868395910038,-138.95789625237956
9.84,0.9999862280195361,-139.20491722104236
9.847999999999999,0.9999856150840913,-139.4518674677433
9.856,0.9999850008641142,-139.69874728378753
9.864,0.9999843854390345,-139.94555696147944
9.872,0.9999837688882567,-140.1922967941163
9.879999999999999,0.9999831512911489,-140.43896707598134
9.888,0.9999825327270313,-140.6855681023371
9.896,0.9999819132751665,-140.93210016941845
9.904,0.9999812930147463,-141.17856357442608
9.911999999999999,0.9999806720248834,-141.4249586155198
9.92,0.999980050384599,-141.67128559181197
9.928,0.9999794281728127,-141.91754480336036
9.936,0.9999788054683316,-142.16373655116195
9.943999999999999,0.9999781823498404,-142.40986113714612
9.952,0.9999775588958899,-142.65591886416806
9.96,0.9999769351848868,-142.90191003600202
