freq,mag,phase
6.0,1.0000059480100403,-0.24532525128401086
6.041884672,1.0000061313475321,-1.5246758562488645
6.083769856,1.0000061598529162,-2.8044378575932405
6.125654528,1.000006067203878,-4.084590420954267
6.1675392,1.000005933073227,-5.36516763343705
6.209423872,1.0000057523423997,-6.646141248312296
6.251309056,1.0000056063741167,-7.9275418699668085
6.293193728,1.0000053432838318,-9.209326101404484
6.3350784,1.0000050015936455,-10.491553841767667
6.376963584,1.0000046108877985,-11.774159619299583
6.418848256,1.0000042223144663,-13.057172168854052
6.460732928,1.0000037640529413,-14.340612577002847
6.5026176,1.0000031948497252,-15.624440777992788
6.544502784,1.000002741532813,-16.908716737963587
6.586387456,1.0000020848907663,-18.193400481758523
6.628272128,1.0000015552078017,-19.478488729313558
6.670157312,1.0000009694735263,-20.764016809453118
6.712041984,1.0000005508705947,-22.04993515911386
6.753926656,0.9999998168809344,-23.336291782054147
6.795811328,0.9999993075404175,-24.623051113404237
6.837696512,0.9999987757445268,-25.910229968590958
6.879581184,0.9999983589296412,-27.197834155046607
6.921465856,0.99999775383338,-28.485900101763335
6.96335104,0.9999973545876951,-29.77433022448726
7.005235712,0.9999969224501638,-31.06320425543976
7.047120384,0.9999966607323383,-32.352503277360796
7.089005056,0.9999963389459611,-33.64222733854106
7.13089024,0.9999960820016799,-34.932417711613475
7.172774912,0.9999960527030792,-36.222984568980934
7.214659584,0.9999959119063246,-37.514033471255864
7.256544256,0.9999958930275762,-38.805480794533985
7.29842944,0.9999959295773707,-40.09738251469104
7.340314112,0.9999961377264309,-41.38966980079989
7.382198784,0.9999964254196055,-42.68241105040648
7.424083968,0.9999966507378196,-43.97562870831498
7.46596864,0.9999969871647671,-45.26921985337197
7.507853312,0.9999973775089707,-46.56330485013078
7.549737984,0.9999978037834497,-47.85779055320693
7.591623168,0.999998361914446,-49.15272930106523
7.63350784,0.9999989569443808,-50.44808995772724
7.675392512,0.9999995628588397,-51.743882757738035
7.717277696,1.0000002787546587,-53.04014875090809
7.759162368,1.0000007136522318,-54.33684266212468
7.80104704,1.0000013441248834,-55.63396212338942
7.842931712,1.0000021402166364,-56.931544226970125
7.884816896,1.0000027881280216,-58.22954493020938
7.926701568,1.000003411050825,-59.52799739241589
7.96858624,1.000004047926929,-60.82689512316522
8.010471424,1.00000468307562,-62.12618796956985
8.052356096,1.0000052248326448,-63.4259883371374
8.094240768,1.0000057716625639,-64.72616153574782
8.13612544,1.000006264886792,-66.02681089767445
8.178010624,1.0000065478411035,-67.32790860790878
8.219895296,1.0000068857025588,-68.62942605678579
8.261779968,1.0000070385156543,-69.93136583732665
8.303665152,1.0000073439543886,-71.23374107905619
8.345549824,1.0000074062470865,-72.53654023397644
8.387434496,1.0000073846536819,-73.83983556490705
8.429319168,1.0000073661352598,-75.14349673098727
8.471204352,1.0000070754660109,-76.44758742330946
8.513089024,1.00000687901666,-77.7521225441066
8.554973696,1.0000066116563204,-79.05711218568851
8.59685888,1.0000060683628598,-80.36251859986238
8.638743552,1.0000056779194517,-81.66833172711372
8.680628224,1.0000050520760932,-82.97456505362719
8.722512896,1.0000044356557467,-84.28124710029563
8.764397568,1.000003637355677,-85.58834236307143
8.80628224,1.0000029476600858,-86.89584856221468
8.848167936,1.0000020646966206,-88.20380069647022
8.890052608,1.0000013224126607,-89.51213792310418
8.93193728,1.000000465847653,-90.8208704422213
8.973821952,0.9999995634243833,-92.13007368339623
9.015706624,0.9999987127319813,-93.43965482768978
9.057591296,0.9999978389457264,-94.7496519784201
9.099475968,0.9999970419066044,-96.0600546337871
9.141361664,0.9999962090378337,-97.3708876657999
9.183246336,0.9999954268752641,-98.68213672119634
9.225131008,0.9999947448142392,-99.99377475999343
9.26701568,0.9999941751840647,-101.30582166039304
9.308900352,0.9999935174626257,-102.61827516737422
9.350785024,0.9999929994023418,-103.93112870494701
9.392669696,0.9999926394160096,-105.24440541344553
9.434555392,0.9999923405914096,-106.55805785452678
9.476440064,0.9999921544836867,-107.87212977551512
9.518324736,0.9999920474669004,-109.18657192099035
9.560209408,0.9999920903638957,-110.5014660441544
9.60209408,0.9999921199835157,-111.81670793818078
9.643978752,0.9999923567904838,-113.13237684260696
9.685863424,0.9999927159820935,-114.44844221279519
9.72774912,0.9999930488159586,-115.76489918329375
9.769633792,0.9999936280986447,-117.08174224425498
9.811518464,0.9999942685452007,-118.39896979930681
9.853403136,0.9999949858464494,-119.71661073405326
9.895287808,0.9999957111274814,-121.03463690413552
9.93717248,0.999996623001806,-122.3530423191466
9.979057152,0.9999975121967777,-123.67185042860756
10.020942848,0.9999984318232823,-124.99102167841326
10.06282752,0.9999994164856009,-126.31057244085518
10.104712192,1.0000004834167968,-127.63051035997678
10.146596864,1.0000015213356859,-128.9508384911877
10.188481536,1.000002521609027,-130.27153516505547
10.230366208,1.000003471479747,-131.5926060246112
10.27225088,1.000004516496729,-132.91404509651636
10.314136576,1.0000054681982278,-134.23584996903696
10.356021248,1.000006317044439,-135.55802330952275
10.39790592,1.0000071097124348,-136.8805642912904
10.439790592,1.0000078168899529,-138.2034706851623
10.481675264,1.0000084257359654,-139.52671674977634
10.523559936,1.0000088985263527,-140.850327977964
10.565444608,1.0000093305312971,-142.17427075579764
10.607330304,1.000009582168782,-143.49858528802727
10.649214976,1.0000097690895895,-144.82321646019307
10.691099648,1.0000098600712213,-146.1482015178584
10.73298432,1.0000096459166175,-147.47352460334272
10.774868992,1.000009416222241,-148.79914905735328
10.816753664,1.0000091474293682,-150.1251518829826
10.858638336,1.0000086516774245,-151.45144068959908
10.900524032,1.0000079981087053,-152.778065602014
10.942408704,1.0000072863838632,-154.10499536882054
10.984293376,1.000006452224033,-155.43224405626626
11.026178048,1.0000054926239512,-156.75979305972945
11.06806272,1.0000044848425467,-158.08765132714205
11.109947392,1.0000033553109235,-159.41580074080926
11.151832064,1.0000022316569075,-160.74426465984658
11.19371776,1.000001045289932,-162.0729912758561
11.235602432,0.9999997420416333,-163.4020480438765
11.277487104,0.9999984263780708,-164.7313555381476
11.319371776,0.9999971648027167,-166.06096072839196
11.361256448,0.9999958710996756,-167.39083378702836
11.40314112,0.9999946952496427,-168.72099196124378
11.445025792,0.9999934988639643,-170.05140277048807
11.486911488,0.9999923028539807,-171.3820975374303
11.52879616,0.9999913056553977,-172.7130569916136
11.570680832,0.9999903149822305,-174.04426768094203
11.612565504,0.9999894544621022,-175.37574056908753
11.654450176,0.999988715778007,-176.70746619194875
11.696334848,0.9999880706424426,-178.03945782458152
11.73821952,0.9999876463176374,-179.37169274196347
11.780105216,0.9999873656185825,179.2958314059963
11.821989888,0.999987159045236,177.96310877236817
11.86387456,0.9999872533733168,176.63015032156304
11.905759232,0.9999873498474406,175.29695041243457
11.947643904,0.9999876945652205,173.9635071583209
11.989528576,0.9999881768311447,172.62984826916426
12.031413248,0.99998877141543,171.29595416397217
12.07329792,0.9999896105452332,169.96184475274825
12.115183616,0.999990514207943,168.62748349160393
12.157068288,0.999991646890197,167.29291765779487
12.19895296,0.9999928103439655,165.95813576932437
12.240837632,0.9999941391188976,164.62315200046103
12.282722304,0.9999955267363115,163.2879534051978
12.324606976,0.9999969450877251,161.95254056063007
12.366491648,0.9999985081055853,160.61693387895713
12.408377344,1.0000001016157933,159.28111851057128
12.450262016,1.0000017158446188,157.94510653843966
12.492146688,1.0000033314277152,156.60891977584996
12.53403136,1.000004856285029,155.2725382708926
12.575916032,1.000006326139203,153.93596447818393
12.617800704,1.0000077516549872,152.59922122290197
12.659685376,1.000009163151829,151.26232153462612
12.701571072,1.0000103962649591,149.92523788768924
12.743455744,1.00001155469716,148.58799676677458
12.785340416,1.0000125476066832,147.25061085888137
12.827225088,1.000013452456315,145.91304387284117
12.86910976,1.0000140430095932,144.57535239824992
12.910994432,1.0000146084290842,143.23752674607803
12.952879104,1.000014901071903,141.8995374542083
12.9947648,1.0000150620086792,140.56145330525047
13.036649472,1.0000148867496692,139.22322835170468
13.078534144,1.000014565831004,137.88489250159685
13.120418816,1.000014052124597,136.5464389871327
13.162303488,1.0000133507271414,135.20788371388386
13.20418816,1.000012404128632,133.86921755811997
13.246072832,1.0000112602310391,132.53047443522163
13.287958528,1.0000100057922052,131.19164041420643
13.3298432,1.0000085669914303,129.8527355336737
13.371727872,1.0000069325776286,128.51372984530127
13.413612544,1.0000051707757298,127.17466806113956
13.455497216,1.0000033623411537,125.83554871240014
13.497381888,1.0000013565452335,124.49636310336895
13.53926656,0.999999392243817,123.15712858614026
13.581152256,0.9999973445142347,121.81783994878074
13.623036928,0.9999952978774076,120.47850524719932
13.6649216,0.9999931644034419,119.13913929586953
13.706806272,0.9999911556330696,117.79974248891678
13.748690944,0.9999891977675944,116.46029407630652
13.790575616,0.9999873285564079,115.12085813928536
13.832460288,0.9999856018895289,113.7813660638171
13.874345984,0.9999840208113362,112.44187496884723
13.916230656,0.9999826110574407,111.10236957156272
13.958115328,0.9999812563837841,109.7628548436795
14.0,0.999980251043878,108.42332781577636
