freq,mag,phase
6.0,0.999995407704002,-55.16320044031831
6.008,0.9999963112205441,-55.493097613655436
6.016,0.9999971721095142,-55.82288195870855
6.024,0.9999979915000278,-56.152552975979155
6.032,0.9999987705029185,-56.482110170787
6.04,0.9999995102108874,-56.81155305327432
6.048,0.9999999999999999,-57.14088113840957
6.056,1.0,-57.47009394599134
6.064,1.0,-57.799191000651646
6.072,0.9999999999999999,-58.12817183185933
6.08,1.0,-58.457035973923105
6.088,1.0,-58.7857829659943
6.096,1.0,-59.11441235206966
6.104,1.0,-59.4429236809937
6.112,1.0,-59.771316506460956
6.12,1.0,-60.09959038701797
6.128,1.0,-60.42774488606521
6.136,1.0,-60.75577957185857
6.144,1.0,-61.083694017510815
6.152,1.0,-61.41148780099285
6.16,1.0,-61.73916050513463
6.168,0.9999999999999999,-62.06671171762603
6.176,1.0,-62.39414103101744
6.184,1.0,-62.72144804272016
6.192,1.0,-63.04863235500659
6.2,0.9999999999999999,-63.375693575010274
6.208,0.9999999999999999,-63.70263131472567
6.216,1.0,-64.02944519100782
6.224,1.0,-64.35613482557176
6.232,0.9999999999999999,-64.68269984499167
6.24,1.0,-65.00913988070009
6.248,0.9999999999999999,-65.33545456898655
6.256,1.0,-65.66164355099639
6.264,1.0,-65.98770647272919
6.272,1.0,-66.31364298503699
6.28,0.9999999999999999,-66.63945274362244
6.288,0.9999999999999999,-66.96513540903675
6.296,1.0,-67.29069064667723
6.304,0.9999999999999999,-67.61611812678512
6.312,1.0,-67.94141752444271
6.32,1.0,-68.26658851957052
6.328,0.9999999999999999,-68.5916307969245
6.336,1.0,-68.91654404609265
6.344,0.9999999999999998,-69.24132796149173
6.352,1.0,-69.56598224236373
6.36,0.9999999999999999,-69.89050659277214
6.368,0.9999999999999999,-70.21490072159813
6.376,1.0,-70.53916434253634
6.384,0.9999999999999999,-70.8632971740908
6.392,1.0,-71.18729893957054
6.4,1.0,-71.51116936708482
6.408,0.9999999999999999,-71.83490818953864
6.416,1.0,-72.15851514462769
6.424,1.0,-72.48198997483331
6.432,1.0,-72.8053324274173
6.44,1.0,-73.12854225441643
6.448,1.0,-73.451619212637
6.456,0.9999999999999999,-73.77456306364904
6.464,1.0,-74.09737357378049
6.472,1.0,-74.42005051411104
6.48,1.0,-74.7425936604662
6.4879999999999995,1.0,-75.06500279341056
6.496,1.0,-75.38727769824182
6.504,0.9999999999999999,-75.70941816498352
6.5120000000000005,1.0,-76.03142398837886
6.52,0.9999999999999999,-76.35329496788314
6.5280000000000005,1.0,-76.67503090765729
6.536,1.0,-76.99663161655995
6.5440000000000005,1.0,-77.3180969081408
6.552,0.9999999999999999,-77.63942660063229
6.5600000000000005,1.0,-77.96062051694264
6.568,1.0,-78.28167848464741
6.5760000000000005,1.0,-78.60260033598207
6.584,1.0,-78.92338590783345
6.592,1.0,-79.24403504173186
6.6,1.0,-79.56454758384251
6.608,0.9999999999999999,-79.88492338495702
6.616,1.0,-80.20516230048484
6.624,1.0,-80.52526419044445
6.632,1.0,-80.84522891945441
6.64,1.0,-81.16505635672443
6.648,1.0,-81.48474637604609
6.656,1.0,-81.80429885578361
6.664,0.99999988475044,-82.12371367886445
6.672,0.9999996908148898,-82.44299073276976
6.68,0.9999994996031155,-82.76212990952462
6.688,0.999999311234143,-83.08113110568846
6.696,0.9999991258206616,-83.39999422234496
6.704,0.9999989434691426,-83.7187191650922
6.712,0.9999987642799603,-84.03730584403233
6.72,0.9999985883475079,-84.35575417376155
6.728,0.9999984157603171,-84.6740640733595
6.736,0.9999982466011741,-84.992235466379
6.744,0.9999980809472346,-85.31026828083527
6.752,0.9999979188701396,-85.6281624491954
6.76,0.9999977604361281,-85.94591790836739
6.768,0.999997605706151,-86.26353459968935
6.776,0.999997454735983,-86.5810124689184
6.784,0.9999973075763328,-86.89835146621958
6.792,0.9999971642729542,-87.21555154615461
6.8,0.9999970248667552,-87.53261266767056
6.808,0.9999968893939057,-87.84953479408841
6.816,0.9999967578859448,-88.1663178930915
6.824,0.9999966303698888,-88.48296193671396
6.832,0.999996506868334,-88.7994669013289
6.84,0.999996387399563,-89.11583276763668
6.848,0.9999962719776478,-89.43205952065288
6.856,0.9999961606125529,-89.74814714969646
6.864,0.9999960533102343,-90.06409564837743
6.872,0.999995950072744,-90.37990501458489
6.88,0.9999958508983263,-90.69557525047459
6.888,0.9999957557815187,-91.01110636245666
6.896,0.9999956647132481,-91.32649836118308
6.904,0.9999955776809287,-91.64175126153528
6.912,0.9999954946685568,-91.95686508261132
6.92,0.9999954156568052,-92.27183984771337
6.928,0.9999953406231189,-92.58667558433484
6.936,0.9999952695418052,-92.90137232414754
6.944,0.9999952023841284,-93.21593010298875
6.952,0.999995139118398,-93.53034896084819
6.96,0.9999950797100601,-93.84462894185491
6.968,0.9999950241217852,-94.15877009426418
6.976,0.9999949723135575,-94.47277247044424
6.984,0.9999949242427602,-94.78663612686294
6.992,0.9999948798642622,-95.1003611240744
7.0,0.9999948391305028,-95.41394752670554
7.008,0.9999948019915752,-95.72739540344263
7.016,0.9999947683953112,-96.04070482701762
7.024,0.9999947382873594,-96.35387587419451
7.032,0.9999947116112703,-96.66690862575571
7.04,0.9999946883085735,-96.97980316648814
7.048,0.9999946683188575,-97.29255958516953
7.056,0.9999946515798483,-97.6051779745544
7.064,0.999994638027485,-97.91765843136018
7.072,0.9999946275959967,-98.23000105625317
7.08,0.9999946202179775,-98.54220595383447
7.088,0.9999946158244595,-98.85427323262584
7.096,0.9999946143449887,-99.16620300505555
7.104,0.999994615707693,-99.47799538744408
7.112,0.9999946198393563,-99.78965049998993
7.12,0.9999946266654877,-100.1011684667552
7.128,0.9999946361103906,-100.4125494156512
7.136,0.9999946480972299,-100.72379347842407
7.144,0.9999946625481025,-101.03490079064026
7.152,0.999994679384099,-101.345871491672
7.16,0.9999946985253725,-101.65670572468271
7.168,0.999994719891201,-101.96740363661242
7.176,0.9999947434000521,-102.277965378163
7.184,0.9999947689696443,-102.58839110378365
7.192,0.9999947965170085,-102.89868097165598
7.2,0.99999482595855,-103.20883514367922
7.208,0.9999948572101062,-103.51885378545553
7.216,0.9999948901870059,-103.828737066275
7.224,0.9999949248041273,-104.13848515910081
7.232,0.9999949609759547,-104.44809824055433
7.24,0.9999949986166341,-104.75757649090008
7.248,0.9999950376400276,-105.06692009403069
7.256,0.9999950779597686,-105.37612923745205
7.264,0.9999951194893131,-105.68520411226801
7.272,0.9999951621419939,-105.99414491316543
7.28,0.9999952058310704,-106.302951838399
7.288,0.9999952504697784,-106.61162508977607
7.296,0.999995295971382,-106.92016487264151
7.304,0.9999953422492186,-107.22857139586246
7.312,0.9999953892167497,-107.5368448718131
7.32,0.9999954367876052,-107.84498551635947
7.328,0.9999954848756314,-108.152993548844
7.336,0.9999955333949331,-108.46086919207033
7.344,0.999995582259921,-108.76861267228803
7.352,0.9999956313853521,-109.07622421917712
7.36,0.9999956806863737,-109.38370406583282
7.368,0.9999957300785637,-109.69105244875
7.376,0.9999957794779722,-109.998269607808
7.384,0.9999958288011604,-110.30535578625498
7.392,0.9999958779652408,-110.61231123069263
7.4,0.9999959268879126,-110.91913619106059
7.4079999999999995,0.9999959754875023,-111.2258309206211
7.416,0.9999960236829971,-111.5323956759436
7.4239999999999995,0.9999960713940823,-111.83883071688881
7.432,0.9999961185411753,-112.14513630659373
7.4399999999999995,0.9999961650454599,-112.45131271145571
7.448,0.9999962108289181,-112.7573602011174
7.4559999999999995,0.9999962558143645,-113.06327904845048
7.464,0.9999962999254758,-113.369069529541
7.4719999999999995,0.9999963430868227,-113.67473192367294
7.48,0.9999963852238993,-113.9802665133134
7.4879999999999995,0.999996426263152,-114.28567358409644
7.496,0.9999964661320087,-114.59095342480799
7.504,0.999996504758905,-114.8961063273698
7.5120000000000005,0.9999965420733121,-115.20113258682426
7.52,0.9999965780057625,-115.5060325013185
7.5280000000000005,0.9999966124878752,-115.81080637208908
7.536,0.9999966454523798,-116.11545450344605
7.5440000000000005,0.9999966768331411,-116.4199772027578
7.552,0.9999967065651815,-116.72437478043493
7.5600000000000005,0.9999967345847032,-117.02864754991522
7.568,0.9999967608291108,-117.33279582764744
7.5760000000000005,0.9999967852370305,-117.63681993307638
7.584,0.9999968077483316,-117.9407201886267
7.5920000000000005,0.9999968283041456,-118.24449691968773
7.6,0.9999968468468843,-118.54815045459762
7.6080000000000005,0.9999968633202583,-118.85168112462799
7.616,0.9999968776692948,-119.1550892639681
7.6240000000000006,0.9999968898403535,-119.45837520970957
7.632,0.9999968997811426,-119.7615393018305
7.640000000000001,0.9999969074407347,-120.06458188318025
7.648,0.999996912769581,-120.36750329946346
7.656000000000001,0.999996915719525,-120.67030389922505
7.664,0.9999969162438167,-120.97298403383408
7.672,0.9999969142971245,-121.2755440574688
7.68,0.9999969098355475,-121.57798432710065
7.688,0.9999969028166266,-121.88030520247914
7.696,0.9999968931993565,-122.18250704611603
7.704,0.9999968809441937,-122.48459022327005
7.712,0.9999968660130686,-122.78655510193137
7.72,0.9999968483693923,-123.08840205280616
7.728,0.9999968279780656,-123.39013144930105
7.736,0.9999968048054874,-123.69174366750786
7.744,0.9999967788195612,-123.99323908618796
7.752,0.9999967499897016,-124.29461808675703
7.76,0.9999967182868411,-124.59588105326966
7.768,0.9999966836834342,-124.8970283724039
7.776,0.9999966461534634,-125.1980604334459
7.784,0.9999966056724432,-125.49897762827464
7.792,0.9999965622174231,-125.7997803513465
7.8,0.9999965157669924,-126.10046899968003
7.808,0.999996466301281,-126.40104397284061
7.816,0.9999964138019635,-126.7015056729252
7.824,0.9999963582522589,-127.00185450454705
7.832,0.9999962996369329,-127.30209087482054
7.84,0.9999962379422982,-127.60221519334577
7.848,0.9999961731562144,-127.90222787219358
7.856,0.999996105268088,-128.20212932589024
7.864,0.9999960342688713,-128.50191997140237
7.872,0.9999959601510604,-128.80160022812163
7.88,0.9999958829086945,-129.10117051784985
7.888,0.9999958025373521,-129.40063126478373
7.896,0.9999957190341502,-129.6999828954998
7.904,0.9999956323977384,-129.99922583893948
7.912,0.9999955426282978,-130.29836052639394
7.92,0.9999954497275351,-130.597387391489
7.928,0.9999953536986781,-130.89630687017043
7.936,0.9999952545464715,-131.19511940068872
7.944,0.9999951522771712,-131.49382542358418
7.952,0.9999950468985374,-131.7924253816722
7.96,0.9999949384198298,-132.09091972002807
7.968,0.9999948268517993,-132.38930888597247
7.976,0.9999947122066822,-132.6875933290562
7.984,0.9999945944981923,-132.9857735010458
7.992,0.9999944737415117,-133.28384985590841
8.0,0.9999943499532845,-133.5818228497972
8.008,0.9999942231516071,-133.87969294103652
8.016,0.9999940933560192,-134.17746059010727
8.024000000000001,0.9999939605874937,-134.4751262596322
8.032,0.9999938248684286,-134.77269041436097
8.04,0.9999936862226348,-135.0701535211561
8.048,0.9999935446753276,-135.3675160489779
8.056000000000001,0.9999934002531139,-135.66477846886988
8.064,0.9999932529839831,-135.96194125394436
8.072,0.9999931028972936,-136.259004879368
8.08,0.9999929500237624,-136.55596982234715
8.088000000000001,0.9999927943954519,-136.85283656211334
8.096,0.9999926360457584,-137.14960557990887
8.104,0.9999924750093985,-137.44627735897262
8.112,0.9999923113223971,-137.74285238452546
8.120000000000001,0.9999921450220726,-138.0393311437557
8.128,0.9999919761470241,-138.33571412580505
8.136,0.9999918047371177,-138.6320018217543
8.144,0.9999916308334715,-138.92819472460894
8.152000000000001,0.9999914544784417,-139.22429332928493
8.16,0.9999912757156081,-139.52029813259432
8.168,0.9999910945897575,-139.81620963323152
8.176,0.9999909111468707,-140.11202833175872
8.184000000000001,0.9999907254341052,-140.4077547305918
8.192,0.9999905374997803,-140.70338933398637
8.2,0.999990347393361,-140.99893264802375
8.208,0.999990155165441,-141.29438518059675
8.216000000000001,0.9999899608677276,-141.58974744139567
8.224,0.9999897645530238,-141.88501994189437
8.232,0.9999895662752124,-142.18020319533642
8.24,0.9999893660892378,-142.4752977167211
8.248000000000001,0.9999891640510891,-142.77030402278928
8.256,0.999988960217783,-143.06522263200986
8.264,0.999988754647346,-143.36005406456593
8.272,0.9999885473987957,-143.65479884234077
8.280000000000001,0.9999883385321239,-143.94945748890416
8.288,0.9999881281082772,-144.24403052949856
8.296,0.9999879161891395,-144.53851849102566
8.304,0.9999877028375125,-144.83292190203244
8.312,0.9999874881170976,-145.12724129269745
8.32,0.9999872720924768,-145.4214771948176
8.328,0.9999870548290936,-145.71563014179392
8.336,0.9999868363932337,-146.00970066861873
8.344,0.999986616852005,-146.3036893118614
8.352,0.99998639627332,-146.59759660965543
8.36,0.9999861747258735,-146.89142310168444
8.368,0.9999859522791256,-147.18516932916936
8.376,0.9999857290032791,-147.47883583485427
8.384,0.9999855049692613,-147.7724231629937
8.392,0.9999852802487039,-148.06593185933875
8.4,0.9999850549139212,-148.35936247112414
8.408,0.9999848290378912,-148.6527155470546
8.416,0.9999846026942352,-148.94599163729188
8.424,0.9999843759571957,-149.23919129344122
8.432,0.9999841489016178,-149.5323150685385
8.44,0.9999839216029272,-149.82536351703666
8.448,0.9999836941371095,-150.11833719479293
8.456,0.9999834665806895,-150.4112366590553
8.464,0.999983239010711,-150.70406246844988
8.472,0.9999830115047147,-150.9968151829674
8.48,0.999982784140717,-151.28949536395052
8.488,0.9999825569971902,-151.58210357408052
8.496,0.99998233015304,-151.87464037736467
8.504,0.999982103687585,-152.16710633912288
8.512,0.9999818776805356,-152.45950202597527
8.52,0.999981652211971,-152.75182800582854
8.528,0.9999814273623202,-153.04408484786407
8.536,0.9999812032123396,-153.33627312252412
8.544,0.9999809798430909,-153.62839340149975
8.552,0.9999807573359206,-153.92044625771757
8.56,0.9999805357724382,-154.21243226532738
8.568,0.9999803152344944,-154.50435199968888
8.576,0.9999800958041606,-154.79620603735972
8.584,0.9999798775637063,-155.0879949560821
8.592,0.9999796605955783,-155.37971933477064
8.6,0.9999794449823785,-155.6713797534994
8.608,0.9999792308068435,-155.9629767934897
8.616,0.9999790181518217,-156.25451103709696
8.624,0.9999788071002536,-156.5459830677989
8.632,0.9999785977351483,-156.8373934701822
8.64,0.9999783901395642,-157.1287428299309
8.648,0.9999781843965856,-157.42003173381303
8.656,0.9999779805893025,-157.711260769669
8.664,0.9999777788007896,-158.0024305263985
8.672,0.9999775791140831,-158.29354159394876
8.68,0.9999773816121619,-158.5845945633015
8.688,0.999977186377924,-158.87559002646114
8.696,0.9999769934941676,-159.16652857644223
8.704,0.999976803043568,-159.4574108072574
8.712,0.9999766151086574,-159.74823731390453
8.72,0.9999764297718045,-160.03900869235537
8.728,0.9999762471151914,-160.32972553954247
8.736,0.9999760672207956,-160.62038845334763
8.744,0.9999758901703665,-160.91099803258928
8.752,0.9999757160454066,-161.20155487701072
8.76,0.9999755449271492,-161.49205958726756
8.768,0.9999753768965395,-161.7825127649162
8.776,0.9999752120342122,-162.07291501240104
8.784,0.9999750504204724,-162.3632669330431
8.792,0.9999748921352747,-162.65356913102747
8.8,0.9999747372582035,-162.94382221139168
8.808,0.9999745858684509,-163.23402678001344
8.815999999999999,0.9999744380447994,-163.52418344359876
8.824,0.9999742938656,-163.8142928096702
8.832,0.9999741534087528,-164.10435548655454
8.84,0.9999740167516872,-164.39437208337108
8.847999999999999,0.9999738839713422,-164.68434321001988
8.856,0.9999737551441472,-164.97426947716986
8.864,0.9999736303460017,-165.26415149624663
8.872,0.999973509652257,-165.553989879421
8.879999999999999,0.9999733931376958,-165.84378523959714
8.888,0.9999732808765147,-166.1335381904007
8.896,0.9999731729423033,-166.423249346167
8.904,0.9999730694080267,-166.7129193219293
8.911999999999999,0.9999729703460066,-167.0025487334072
8.92,0.9999728758279028,-167.2921381969949
8.928,0.9999727859246937,-167.58168832974923
8.936,0.9999727007066594,-167.87119974937818
8.943999999999999,0.999972620243363,-168.1606730742294
8.952,0.9999725446036316,-168.45010892327832
8.96,0.9999724738555409,-168.73950791611642
8.968,0.9999724080663941,-169.0288706729399
8.975999999999999,0.999972347302708,-169.31819781453785
8.984,0.9999722916301922,-169.607489962281
8.992,0.9999722411137343,-169.8967477381096
9.0,0.9999721958173813,-170.18597176452232
9.008,0.9999721558043242,-170.4751626645646
9.016,0.9999721211368786,-170.76432106181718
9.024000000000001,0.9999720918764717,-171.0534475803843
9.032,0.9999720680836224,-171.3425428448825
9.04,0.9999720498179274,-171.6316074804291
9.048,0.9999720371380435,-171.9206421126307
9.056000000000001,0.9999720301016739,-172.20964736757168
9.064,0.9999720287655488,-172.4986238718026
9.072,0.999972033185414,-172.78757225232923
9.08,0.9999720434160129,-173.07649313660082
9.088000000000001,0.9999720595110715,-173.36538715249858
9.096,0.9999720815232845,-173.65425492832438
9.104,0.9999721095042994,-173.94309709278966
9.112,0.9999721435047028,-174.2319142750037
9.120000000000001,0.999972183574005,-174.52070710446236
9.128,0.9999722297606264,-174.8094762110366
9.136,0.9999722821118833,-175.09822222496155
9.144,0.9999723406739746,-175.38694577682477
9.152000000000001,0.9999724054919668,-175.67564749755505
9.16,0.9999724766097808,-175.964328018411
9.168,0.9999725540701819,-176.25298797097008
9.176,0.9999726379147611,-176.54162798711698
9.184000000000001,0.9999727281839267,-176.83024869903235
9.192,0.9999728249168901,-177.11885073918154
9.2,0.9999729281516535,-177.4074347403036
9.208,0.9999730379249983,-177.69600133539967
9.216000000000001,0.999973154272471,-177.98455115772182
9.224,0.9999732772283756,-178.27308484076178
9.232,0.9999734068257566,-178.56160301823982
9.24,0.9999735430963935,-178.8501063240935
9.248000000000001,0.9999736860707845,-179.1385953924661
9.256,0.9999738357781391,-179.42707085769575
9.264,0.9999739922463661,-179.71553335430423
9.272,0.9999741555020629,179.99601648301447
9.280000000000001,0.9999743255705065,179.7075780194053
9.288,0.9999745024756422,179.41915061986347
9.296,0.9999746862400752,179.13073364924531
9.304,0.9999748768850594,178.8423264722797
9.312000000000001,0.9999750744304902,178.55392845357946
9.32,0.9999752788948935,178.2655389576523
9.328,0.9999754902954178,177.97715734891193
9.336,0.9999757086478263,177.68878299168952
9.344,0.9999759339664882,177.40041525024486
9.352,0.9999761662643688,177.11205348877724
9.36,0.9999764055530245,176.82369707143712
9.368,0.9999766518425939,176.53534536233687
9.376,0.9999769051417898,176.24699772556232
9.384,0.9999771654578936,175.95865352518362
9.392,0.999977432796747,175.6703121252668
9.4,0.9999777071627463,175.38197288988457
9.408,0.9999779885588358,175.09363518312784
9.416,0.9999782769865017,174.80529836911663
9.424,0.9999785724457656,174.51696181201163
9.432,0.999978874935181,174.22862487602495
9.44,0.9999791844518253,173.94028692543162
9.448,0.9999795009912957,173.65194732458073
9.456,0.999979824547706,173.36360543790664
9.464,0.9999801551136781,173.07526062994
9.472,0.999980492680343,172.7869122653194
9.48,0.9999808372373321,172.49855970880193
9.488,0.9999811887727753,172.21020232527516
9.496,0.9999815472732984,171.9218394797676
9.504,0.9999819127240174,171.63347053746057
9.512,0.9999822851085378,171.34509486369896
9.52,0.9999826644089503,171.0567118240028
9.528,0.9999830506058294,170.7683207840782
9.536,0.9999834436782304,170.47992110982895
9.544,0.9999838436036879,170.19151216736736
9.552,0.9999842503582128,169.9030933230259
9.56,0.9999846639162943,169.61466394336816
9.568,0.9999850842508938,169.32622339520046
9.576,0.9999855113334482,169.03777104558267
9.584,0.9999859451338672,168.74930626184002
9.592,0.9999863856205331,168.46082841157386
9.6,0.9999868327603022,168.17233686267355
9.608,0.9999872865185022,167.8838309833271
9.616,0.999987746858935,167.59531014203324
9.624,0.9999882137438773,167.306773707612
9.632,0.9999886871340794,167.01822104921666
9.64,0.9999891669887698,166.7296515363447
9.648,0.9999896532656536,166.44106453884942
9.656,0.9999901459209162,166.15245942695103
9.664,0.9999906449092248,165.86383557124842
9.672,0.9999911501837309,165.57519234273008
