freq,mag,phase
6.0,0.9999818885180323,73.93856644973984
6.008,0.9999825619971735,73.77194120583908
6.016,0.9999832194600101,73.60521996616765
6.024,0.99998386114419,73.4384026611683
6.032,0.9999844872853848,73.27148922173022
6.04,0.9999850981172942,73.10447957919175
6.048,0.9999856938716511,72.93737366534317
6.056,0.9999862747782275,72.7701714124295
6.064,0.9999868410648401,72.60287275315315
6.072,0.9999873929573552,72.43547762067674
6.08,0.9999879306796939,72.26798594862588
6.088,0.9999884544538388,72.10039767109188
6.096,0.9999889644998382,71.93271272263453
6.104,0.9999894610358124,71.76493103828487
6.112,0.9999899442779596,71.59705255354797
6.12,0.9999904144405605,71.42907720440563
6.128,0.9999908717359853,71.26100492731926
6.136,0.9999913163746981,71.09283565923252
6.144,0.9999917485652645,70.92456933757421
6.152,0.9999921685143546,70.75620590026092
6.16,0.9999925764267525,70.58774528569992
6.168,0.9999929725053588,70.41918743279183
6.176,0.9999933569511993,70.25053228093346
6.184,0.999993729963428,70.08177977002053
6.192,0.9999940917393363,69.91292984045054
6.2,0.9999944424743563,69.74398243312542
6.208,0.9999947823620692,69.57493748945438
6.216,0.9999951115942098,69.40579495135667
6.224,0.9999954303606727,69.23655476126434
6.232,0.9999957388495198,69.06721686212506
6.24,0.9999960372469854,68.89778119740485
6.248,0.9999963257374824,68.72824771109089
6.256,0.9999966045036097,68.55861634769423
6.264,0.9999968737261572,68.38888705225267
6.272,0.9999971335841128,68.21905977033347
6.28,0.9999973842546691,68.04913444803613
6.288,0.9999976259132293,67.87911103199517
6.296,0.9999978587334143,67.70898946938293
6.304,0.9999980828870685,67.5387697079123
6.312,0.9999982985442665,67.36845169583952
6.32,0.9999985058733205,67.19803538196702
6.328,0.9999987050407857,67.02752071564605
6.336,0.9999988962114679,66.85690764677953
6.344,0.9999990795484295,66.6861961258249
6.352,0.9999992552129974,66.51538610379674
6.36,0.9999994233647681,66.34447753226968
6.368,0.9999995841616154,66.17347036338101
6.376,0.9999997377596976,66.00236454983366
6.384,0.999999884313464,65.83116004489878
6.392,1.0,65.65985680241859
6.4,0.9999999999999999,65.4884547768091
6.408,1.0,65.31695392306298
6.416,0.9999999999999999,65.1453541967522
6.424,0.9999999999999999,64.97365555403081
6.432,1.0,64.80185795163779
6.44,1.0,64.62996134689966
6.448,1.0,64.45796569773341
6.456,1.0000000000000002,64.2858709626491
6.464,0.9999999999999999,64.11367710075267
6.472,1.0,63.9413840717487
6.48,1.0,63.76899183594316
6.4879999999999995,0.9999999999999999,63.59650035424615
6.496,1.0,63.423909588174546
6.504,1.0,63.251219499854955
6.5120000000000005,1.0,63.078430052026185
6.52,0.9999999999999999,62.90554120804229
6.5280000000000005,0.9999999999999999,62.73255293187492
6.536,1.0,62.55946518811645
6.5440000000000005,1.0,62.38627794198236
6.552,1.0,62.21299115931427
6.5600000000000005,1.0,62.039604806582304
6.568,1.0,61.866118850888235
6.5760000000000005,1.0,61.692533259967746
6.584,1.0,61.518848002193565
6.592,1.0,61.34506304657777
6.6,0.9999999999999998,61.17117836277487
6.608,1.0,60.9971939210842
6.616,1.0,60.82310969245278
6.624,0.9999999999999999,60.64892564847802
6.632,1.0,60.47464176141027
6.64,0.9999999999999999,60.30025800415565
6.648,0.9999999999999999,60.12577435027864
6.656,0.9999999999999999,59.95119077400481
6.664,1.0,59.776507250223425
6.672,0.9999999999999999,59.60172375449018
6.68,0.9999999999999999,59.42684026302984
6.688,1.0,59.25185675273886
6.696,1.0,59.07677320118811
6.704,0.9999999999999999,58.90158958662545
6.712,1.0,58.726305887978405
6.72,0.9999999999999999,58.55092208485681
6.728,1.0,58.37543815755543
6.736,1.0,58.19985408705658
6.744,1.0,58.024169855032774
6.752,1.0,57.848385443849345
6.76,1.0,57.67250083656696
6.768,1.0,57.49651601694439
6.776,0.9999999999999999,57.32043096944096
6.784,1.0,57.144245679219225
6.792,1.0,56.96796013214751
6.8,1.0,56.79157431480256
6.808,1.0,56.61508821447203
6.816,0.9999999999999998,56.43850181915708
6.824,1.0,56.26181511757503
6.832,1.0,56.08502809916175
6.84,1.0,55.90814075407432
6.848,1.0,55.731153073193575
6.856,1.0,55.55406504812655
6.864,1.0,55.37687667120915
6.872,1.0,55.199587935508525
6.88,1.0000000000000002,55.022198834825694
6.888,1.0,54.84470936369798
6.896,0.9999999999999999,54.66711951740154
6.904,0.9999999999999999,54.48942929195385
6.912,1.0,54.31163868411622
6.92,1.0,54.13374769139617
6.928,1.0,53.95575631205007
6.936,1.0,53.77766454508541
6.944,1.0,53.59947239026338
6.952,0.9999999999999999,53.42117984810126
6.96,0.9999999925500158,53.242786919874895
6.968,0.9999999360381571,53.06429360762108
6.976,0.9999998796915008,52.88569991413996
6.984,0.9999998235579975,52.70700584299754
6.992,0.9999997676844888,52.52821139852794
7.0,0.9999997121167188,52.34931658583592
7.008,0.9999996568993406,52.17032141079918
7.016,0.9999996020759269,51.9912258800708
7.024,0.9999995476889773,51.81203000108149
7.032,0.9999994937799276,51.632733782042074
7.04,0.9999994403891591,51.45333723194575
7.048,0.999999387556006,51.273840360570496
7.056,0.9999993353187656,51.09424317848129
7.064,0.9999992837147059,50.9145456970325
7.072,0.9999992327800756,50.73474792837022
7.08,0.9999991825501119,50.55484988543447
7.088,0.9999991330590493,50.374851581961565
7.096,0.99999908434013,50.19475303248632
7.104,0.99999903642561,50.01455425234439
7.112,0.9999989893467701,49.834255257674435
7.12,0.9999989431339246,49.653856065420456
7.128,0.9999988978164287,49.47335669333394
7.136,0.9999988534226889,49.29275715997613
7.144,0.9999988099801712,49.11205748472021
7.152,0.9999987675154095,48.931257687753565
7.16,0.9999987260540152,48.750357790079846
7.168,0.9999986856206864,48.56935781352126
7.176,0.9999986462392153,48.38825778072069
7.184,0.9999986079324987,48.20705771514379
7.192,0.9999985707225457,48.025757641081235
7.2,0.9999985346304875,47.84435758365077
7.208,0.9999984996765849,47.66285756879934
7.216,0.9999984658802398,47.48125762330521
7.224,0.9999984332600003,47.29955777478002
7.232,0.9999984018335732,47.117758051670904
7.24,0.9999983716178318,46.93585848326252
7.248,0.9999983426288225,46.75385909967913
7.256,0.9999983148817775,46.57175993188664
7.264,0.9999982883911203,46.389561011694546
7.272,0.999998263170477,46.207262371758105
7.28,0.9999982392326839,46.02486404558015
7.288,0.9999982165897974,45.84236606751323
7.296,0.9999981952531007,45.659768472761485
7.304,0.9999981752331163,45.47707129738264
7.312,0.9999981565396104,45.29427457828998
7.32,0.9999981391816061,45.11137835325418
7.328,0.9999981231673897,44.92838266090537
7.336,0.99999810850452,44.74528754073487
7.344,0.9999980951998374,44.56209303309723
7.352,0.999998083259473,44.378799179211995
7.36,0.9999980726888571,44.19540602116561
7.368,0.9999980634927275,44.01191360191328
7.376,0.99999805567514,43.828321965280736
7.384,0.9999980492394756,43.644631155966124
7.392,0.9999980441884494,43.460841219541734
7.4,0.9999980405241211,43.27695220245585
7.4079999999999995,0.9999980382479022,43.092964152034476
7.416,0.9999980373605641,42.908877116483
7.4239999999999995,0.9999980378622498,42.72469114488821
7.432,0.9999980397524795,42.540406287219646
7.4399999999999995,0.9999980430301615,42.35602259433164
7.448,0.9999980476936,42.1715401179647
7.4559999999999995,0.9999980537405038,41.986958910747475
7.464,0.999998061167996,41.80227902619815
7.4719999999999995,0.9999980699726213,41.617500518726324
7.48,0.999998080150356,41.43262344363439
7.4879999999999995,0.9999980916966152,41.24764785711934
7.496,0.9999981046062637,41.06257381627426
7.504,0.999998118873622,40.877401379089896
7.5120000000000005,0.9999981344924774,40.69213060445624
7.52,0.9999981514560916,40.506761552164114
7.5280000000000005,0.9999981697572083,40.32129428290651
7.536,0.9999981893880635,40.13572885828036
7.5440000000000005,0.9999982103403928,39.95006534078772
7.552,0.9999982326054419,39.76430379383756
7.5600000000000005,0.9999982561739723,39.57844428174688
7.568,0.9999982810362722,39.39248686974248
7.5760000000000005,0.9999983071821639,39.20643162396199
7.584,0.9999983346010125,39.02027861145567
7.5920000000000005,0.9999983632817347,38.83402790018743
7.6,0.9999983932128073,38.64767955903648
7.6080000000000005,0.999998424382274,38.46123365779838
7.616,0.9999984567777574,38.274690267186685
7.6240000000000006,0.9999984903864629,38.08804945883388
7.632,0.9999985251951911,37.901311305293035
7.640000000000001,0.9999985611903431,37.71447588003871
7.648,0.9999985983579311,37.52754325746855
7.656000000000001,0.999998636683586,37.34051351290413
7.664,0.9999986761525642,37.153386722592565
7.672,0.9999987167497579,36.966162963707276
7.68,0.9999987584597032,36.778842314349525
7.688,0.9999988012665861,36.59142485354931
7.696,0.9999988451542534,36.40391066126657
7.704,0.9999988901062197,36.21629981839234
7.712,0.9999989361056751,36.02859240674976
7.72,0.9999989831354941,35.840788509095134
7.728,0.9999990311782431,35.652888209119006
7.736,0.9999990802161887,35.46489159144721
7.744,0.9999991302313063,35.27679874164178
7.752,0.9999991812052866,35.088609746202
7.76,0.9999992331195452,34.90032469256535
7.768,0.9999992859552296,34.71194366910839
7.776,0.9999993396932272,34.52346676514776
7.784,0.9999993943141735,34.33489407094098
7.792,0.9999994497984597,34.14622567768742
7.8,0.9999995061262403,33.95746167752905
7.808,0.9999995632774419,33.76860216355133
7.816,0.9999996212317693,33.579647229784015
7.824,0.9999996799687145,33.390596971201866
7.832,0.9999997394675642,33.20145148372554
7.84,0.9999997997074067,33.012210864222176
7.848,0.9999998606671405,32.82287521050625
7.856,0.9999999223254814,32.633444621340146
7.864,0.9999999846609696,32.443919196434926
7.872,1.0,32.254299036450924
7.88,1.0,32.06458424299834
7.888,0.9999999999999999,31.87477491863794
7.896,0.9999999999999999,31.684871166881535
7.904,1.0,31.494873092192577
7.912,1.0,31.304780799986688
7.92,1.0,31.11459439663215
7.928,1.0,30.924313989450415
7.936,1.0,30.733939686716518
7.944,1.0,30.54347159765962
7.952,1.0,30.35290983246322
7.96,0.9999999999999999,30.162254502265746
7.968,1.0,29.97150571916082
7.976,1.0,29.780663596197584
7.984,1.0,29.589728247381053
7.992,0.9999999999999999,29.398699787672367
8.0,0.9999999999999999,29.207578332989108
8.008,0.9999999999999999,29.016364000205478
8.016,1.0,28.82505690715246
8.024000000000001,1.0,28.633657172618232
8.032,0.9999999999999999,28.442164916348126
8.04,0.9999999999999999,28.250580259044767
8.048,1.0000000000000002,28.058903322368224
8.056000000000001,1.0,27.867134228936198
8.064,1.0,27.675273102323974
8.072,0.9999999999999999,27.48332006706441
8.08,1.0,27.291275248648017
8.088000000000001,1.0,27.099138773522995
8.096,0.9999999999999999,26.906910769095145
8.104,0.9999999999999999,26.714591363727692
8.112,1.0,26.522180686741272
8.120000000000001,1.0000000000000002,26.32967886841392
8.128,0.9999999999999999,26.1370860399808
8.136,1.0,25.944402333633988
8.144,1.0,25.751627882522275
8.152000000000001,1.0,25.558762820751124
8.16,1.0,25.36580728338228
8.168,0.9999999999999998,25.172761406433363
8.176,1.0,24.979625326877713
8.184000000000001,1.0,24.78639918264409
8.192,0.9999999999999999,24.59308311261625
8.2,1.0,24.399677256632422
8.208,1.0,24.206181755485055
8.216000000000001,1.0,24.012596750920377
8.224,1.0,23.81892238563787
8.232,0.9999999999999999,23.625158803289658
8.24,0.9999999999999999,23.431306148480093
8.248000000000001,0.9999999999999999,23.237364566765287
8.256,0.9999999999999999,23.043334204652368
8.264,0.9999999999999999,22.849215209598853
8.272,0.9999999999999999,22.655007730012088
8.280000000000001,1.0,22.460711915248584
8.288,1.0,22.266327915613342
8.296,1.0,22.071855882358953
8.304,1.0,21.877295967684944
8.312,1.0,21.682648324737166
8.32,1.0,21.487913107606584
8.328,1.0,21.29309047132889
8.336,1.0,21.098180571883226
8.344,0.9999999999999999,20.90318356619159
8.352,1.0,20.70809961211766
8.36,1.0,20.512928868466066
8.368,1.0,20.31767149498116
8.376,0.9999999999999999,20.122327652346236
8.384,1.0,19.926897502182253
8.392,0.9999999999999999,19.731381207047004
8.4,0.9999999999999999,19.53577893043372
8.408,1.0,19.340090836770287
8.416,0.9999999999999999,19.14431709141764
8.424,1.0,18.948457860669063
8.432,0.9999999999999999,18.752513311748476
8.44,1.0,18.556483612809618
8.448,1.0,18.36036893293439
8.456,1.0,18.164169442131858
8.464,1.0,17.967885311336598
8.472,0.9999999999999999,17.771516712407657
8.48,1.0,17.5750638181268
8.488,0.9999999999999999,17.37852680219739
8.496,1.0,17.181905839242635
8.504,1.0,16.985201104804393
8.512,0.9999999999999999,16.78841277534135
8.52,1.0,16.591541028227706
8.528,1.0,16.39458604175135
8.536,1.0,16.19754799511256
8.544,1.0,16.000427068421942
8.552,0.9999999999999998,15.803223442699217
8.56,1.0,15.605937299871043
8.568,1.0,15.408568822769734
8.576,1.0,15.211118195131009
8.584,1.0,15.013585601592691
8.592,0.9999999999999999,14.8159712276924
8.6,1.0,14.618275259866074
8.608,1.0,14.420497885445803
8.616,0.9999999999999999,14.222639292658135
8.624,1.0,14.02469967062185
8.632,1.0,13.826679209346274
8.64,1.0,13.628578099728957
8.648,1.0,13.430396533553905
8.656,1.0,13.232134703489274
8.664,1.0,13.033792803085447
8.672,0.9999999999999999,12.835371026772679
8.68,0.9999999999999999,12.636869569859181
8.688,0.9999999999999999,12.43828862852864
8.696,1.0,12.239628399838232
8.704,1.0,12.040889081716157
8.712,0.9999999999999999,11.842070872959502
8.72,1.0000000000000002,11.643173973231747
8.728,0.9999999999999998,11.444198583060604
8.736,1.0,11.245144903835332
8.744,0.9999999999999999,11.046013137804733
8.752,1.0,10.846803488074224
8.76,1.0,10.647516158603764
8.768,0.9999999999999999,10.448151354205024
8.776,1.0,10.248709280539078
8.784,0.9999999999999999,10.049190144113552
8.792,1.0,9.849594152280373
8.8,0.9999999999999999,9.649921513232746
8.808,0.9999999999999998,9.450172436002847
8.815999999999999,0.9999999999999999,9.250347130458747
8.824,1.0,9.050445807301873
8.832,0.9999999999999999,8.850468678064342
8.84,1.0,8.65041595510602
8.847999999999999,1.0,8.450287851611574
8.856,1.0,8.250084581587835
8.864,0.9999999999999999,8.04980635986085
8.872,0.9999999999999999,7.849453402072897
8.879999999999999,1.0,7.649025924679502
8.888,0.9999999999999999,7.448524144946472
8.896,1.0,7.24794828094705
8.904,0.9999999999999998,7.047298551558626
8.911999999999999,0.9999999999999999,6.846575176459702
8.92,1.0,6.645778376126812
8.928,0.9999999999999999,6.444908371831497
8.936,1.0,6.24396538563698
8.943999999999999,1.0,6.042949640394939
8.952,1.0,5.841861359742291
8.96,1.0,5.640700768098073
8.968,0.9999999999999998,5.439468090660006
8.975999999999999,0.9999999999999999,5.238163553401133
8.984,1.0,5.036787383066451
8.992,1.0,4.835339807169657
9.0,0.9999999999999999,4.633821053989672
9.008,0.9999999999999998,4.4322313525670625
9.016,0.9999999999999999,4.230570932700609
9.024000000000001,1.0,4.0288400249439205
9.032,1.0,3.8270388606017782
9.04,1.0,3.6251676717264765
9.048,1.0,3.42322669111432
9.056000000000001,0.9999999999999999,3.221216152301981
9.064,0.9999999999999999,3.0191362895628906
9.072,0.9999999999999999,2.8169873379032997
9.08,1.0,2.6147695330587184
9.088000000000001,1.0,2.4124831114902485
9.096,0.9999999999999999,2.210128310380608
9.104,0.9999999999999999,2.0077053676303316
9.112,1.0,1.8052145218539124
9.120000000000001,1.0,1.6026560123761333
9.128,1.0,1.4000300792278626
9.136,0.9999999999999999,1.1973369631421993
9.144,0.9999999999999999,0.9945769055505358
9.152000000000001,1.0,0.7917501485785715
9.16,0.9999999999999999,0.5888569350422825
9.168,1.0,0.3858975084436426
9.176,1.0,0.18287211296684466
9.184000000000001,1.0,-0.02021900652601743
9.192,0.9999999999999999,-0.2233756044990099
9.2,0.9999999999999999,-0.4265974347466792
9.208,1.0,-0.6298842503982026
9.216000000000001,1.0,-0.8332358039214897
9.224,1.0,-1.0366518471276243
9.232,1.0,-1.2401321311751443
9.24,0.9999999999999999,-1.443676406574466
9.248000000000001,1.0,-1.6472844231919426
9.256,1.0,-1.8509559302544996
9.264,1.0,-2.054690676354106
9.272,1.0,-2.2584884094520477
9.280000000000001,1.0000000000000002,-2.4623488768834383
9.288,1.0,-2.666271825361835
9.296,1.0,-2.8702570009836985
9.304,0.9999999999999998,-3.0743041492329923
9.312000000000001,1.0,-3.2784130149856954
9.32,1.0,-3.4825833425144412
9.328,1.0,-3.6868148754933268
9.336,1.0,-3.8911073570024706
9.344,1.0,-4.095460529532558
9.352,0.9999999999999999,-4.299874134989977
9.36,1.0,-4.504347914701066
9.368,1.0,-4.708881609417466
9.376,0.9999999999999999,-4.9134749593204265
9.384,0.9999999999999999,-5.1181277040260875
9.392,1.0,-5.3228395825899275
9.4,0.9999999999999999,-5.527610333512094
9.408,1.0,-5.732439694741951
9.416,1.0,-5.93732740368337
9.424,1.0,-6.142273197199374
9.432,0.9999999999999998,-6.34727681161756
9.44,1.0,-6.552337982734621
9.448,0.9999999999999999,-6.757456445821979
9.456,1.0,-6.962631935630332
9.464,1.0,-7.167864186395287
9.472,1.0,-7.373152931842011
9.48,0.9999999999999999,-7.578497905190827
9.488,1.0,-7.783898839162055
9.496,0.9999999999999999,-7.98935546598163
9.504,1.0,-8.194867517385848
9.512,0.9999999999999999,-8.400434724627182
9.52,0.9999999999999999,-8.60605681847913
9.528,1.0,-8.811733529241874
9.536,1.0,-9.017464586747375
9.544,1.0,-9.223249720365011
9.552,1.0,-9.429088659006647
9.56,0.9999999999999999,-9.634981131132463
9.568,1.0,-9.840926864755982
9.576,1.0,-10.046925587450017
9.584,1.0,-10.25297702635169
9.592,0.999999983648063,-10.459080908168378
9.6,0.9999998865025521,-10.665236959182936
9.608,0.9999997892762449,-10.871444905259558
9.616,0.9999996919929742,-11.077704471849078
9.624,0.9999995946766544,-11.284015383994966
9.632,0.9999994973512728,-11.490377366338548
9.64,0.9999994000408853,-11.696790143125119
9.648,0.9999993027696119,-11.90325343820922
9.656,0.9999992055616306,-12.109766975060758
9.664,0.9999991084411722,-12.316330476770345
9.672,0.9999990114325154,-12.522943666055516
9.68,0.9999989145599807,-12.729606265266053
9.688,0.9999988178479263,-12.936317996390216
9.696,0.999998721320741,-13.1430785810602
9.704,0.9999986250028404,-13.349887740558394
9.712,0.9999985289186613,-13.556745195822863
9.72,0.9999984330926547,-13.76365066745359
9.728,0.9999983375492817,-13.970603875718137
9.736,0.9999982423130092,-14.17760454055783
9.744,0.999998147408301,-14.3846523815935
9.752,0.999998052859615,-14.591747118131716
9.76,0.9999979586913975,-14.798888469170526
9.768,0.9999978649280767,-15.006076153405793
9.776,0.9999977715940576,-15.21330988923697
9.784,0.999997678713716,-15.420589394773465
9.792,0.999997586311394,-15.627914387840375
9.8,0.9999974944113934,-15.835284585985075
9.808,0.9999974030379706,-16.042699706482832
9.816,0.9999973122153307,-16.250159466343504
9.824,0.999997221967622,-16.457663582317267
9.832,0.9999971323189312,-16.66521177090114
9.84,0.9999970432932755,-16.87280374834495
9.847999999999999,0.9999969549146002,-17.080439230657834
9.856,0.99999686720677,-17.28811793361438
9.864,0.999996780193566,-17.4958395727608
9.872,0.9999966938986772,-17.703603863421375
9.879999999999999,0.9999966083456983,-17.911410520704795
9.888,0.9999965235581211,-18.119259259510468
9.896,0.9999964395593299,-18.327149794534794
9.904,0.9999963563725969,-18.53508184027759
9.911999999999999,0.9999962740210748,-18.74305511104862
9.92,0.9999961925277925,-18.951069320973893
9.928,0.999996111915649,-19.159124184002042
9.936,0.9999960322074076,-19.367219413910824
9.943999999999999,0.9999959534256905,-19.575354724313748
9.952,0.9999958755929735,-19.783529828666406
9.96,0.9999957987315803,-19.991744440272942
9.968,0.9999957228636761,-20.19999827229263
9.975999999999999,0.9999956480112634,-20.40829103774656
9.984,0.9999955741961754,-20.61662244952405
9.992,0.9999955014400704,-20.824992220389166
10.0,0.999995429764428,-21.033400062987432
10.008,0.9999953591905408,-21.241845689852465
10.016,0.9999952897395114,-21.4503288134126
10.024000000000001,0.9999952214322453,-21.658849145997348
10.032,0.9999951542894467,-21.86740639984425
10.04,0.9999950883316122,-22.076000287105565
10.048,0.9999950235790248,-22.284630519854947
10.056000000000001,0.9999949600517514,-22.493296810093973
