freq,mag,phase
6.0,0.9999928377751117,-98.04482050138141
6.008,0.9999919537247044,-98.45300054071797
6.016,0.9999911065658234,-98.86110888451883
6.024,0.9999902955356708,-99.26914474829599
6.032,0.999989519879787,-99.67710735559862
6.04,0.9999887788520386,-100.08499593801538
6.048,0.9999880717146066,-100.49280973517604
6.056,0.9999873977379715,-100.90054799475267
6.064,0.9999867562009014,-101.30820997246029
6.072,0.9999861463904332,-101.71579493205698
6.08,0.999985567601859,-102.12330214534342
6.088,0.999985019138706,-102.53073089216204
6.096,0.9999845003127212,-102.93808046039551
6.104,0.9999840104438502,-103.34535014596477
6.112,0.9999835488602163,-103.75253925282664
6.12,0.999983114898103,-104.15964709297073
6.128,0.9999827079019271,-104.56667298641608
6.136,0.9999823272242202,-104.9736162612071
6.144,0.9999819722256021,-105.38047625340919
6.152,0.9999816422747565,-105.7872523071037
6.16,0.9999813367484068,-106.19394377438263
6.168,0.9999810550312923,-106.60055001534253
6.176,0.9999807965161335,-107.00707039807824
6.184,0.9999805606036118,-107.41350429867603
6.192,0.999980346702336,-107.81985110120618
6.2,0.9999801542288169,-108.2261101977152
6.208,0.9999799826074323,-108.63228098821772
6.216,0.9999798312704001,-109.03836288068752
6.224,0.999979699657745,-109.4443552910485
6.232,0.9999795872172635,-109.8502576431653
6.24,0.9999794934044952,-110.25606936883271
6.248,0.9999794176826868,-110.66178990776565
6.256,0.9999793595227547,-111.06741870758805
6.264,0.9999793184032544,-111.47295522382142
6.272,0.9999792938103407,-111.87839891987329
6.28,0.9999792852377328,-112.28374926702479
6.288,0.9999792921866779,-112.68900574441804
6.296,0.9999793141659086,-113.09416783904328
6.304,0.9999793506916085,-113.49923504572527
6.312,0.9999794012873746,-113.9042068671095
6.32,0.9999794654841707,-114.30908281364788
6.328,0.9999795428202924,-114.71386240358416
6.336,0.9999796328413247,-115.11854516293889
6.344,0.9999797351000989,-115.52313062549396
6.352,0.9999798491566518,-115.92761833277685
6.36,0.9999799745781838,-116.33200783404435
6.368,0.9999801109390124,-116.73629868626612
6.376,0.9999802578205318,-117.14049045410766
6.384,0.9999804148111671,-117.54458270991316
6.392,0.9999805815063276,-117.9485750336877
6.4,0.9999807575083655,-118.35246701307928
6.408,0.9999809424265279,-118.75625824336058
6.416,0.9999811358769088,-119.15994832741018
6.424,0.9999813374824051,-119.56353687569344
6.432,0.9999815468726692,-119.96702350624332
6.44,0.9999817636840593,-120.37040784464037
6.448,0.9999819875595939,-120.7736895239931
6.456,0.9999822181489014,-121.17686818491723
6.464,0.9999824551081736,-121.57994347551517
6.472,0.9999826981001116,-121.98291505135516
6.48,0.9999829467938843,-122.38578257544962
6.4879999999999995,0.9999832008650708,-122.78854571823385
6.496,0.9999834599956139,-123.19120415754412
6.504,0.9999837238737697,-123.59375757859503
6.5120000000000005,0.9999839921940542,-123.99620567395766
6.52,0.9999842646571946,-124.39854814353615
6.5280000000000005,0.9999845409700776,-124.8007846945452
6.536,0.999984820845695,-125.20291504148611
6.5440000000000005,0.9999851040030951,-125.60493890612372
6.552,0.9999853901673281,-126.00685601746207
6.5600000000000005,0.999985679069393,-126.40866611172062
6.568,0.9999859704461874,-126.81036893230933
6.5760000000000005,0.9999862640404525,-127.21196422980462
6.584,0.999986559600719,-127.61345176192371
6.592,0.999986856881255,-128.01483129350007
6.6,0.9999871556420125,-128.41610259645756
6.608,0.9999874556485724,-128.817265449785
6.616,0.9999877566720904,-129.21831963951007
6.624,0.9999880584892441,-129.6192649586733
6.632,0.9999883608821767,-130.02010120730182
6.64,0.9999886636384439,-130.42082819238232
6.648,0.9999889665509585,-130.82144572783477
6.656,0.999989269417936,-131.22195363448512
6.664,0.9999895720428384,-131.62235174003806
6.672,0.9999898742343211,-132.0226398790496
6.68,0.9999901758061757,-132.42281789289956
6.688,0.999990476577276,-132.82288562976345
6.696,0.9999907763715224,-133.22284294458473
6.704,0.9999910750177868,-133.6226896990464
6.712,0.9999913723498559,-134.02242576154254
6.72,0.9999916682063774,-134.4220510071499
6.728,0.9999919624308024,-134.821565317599
6.736,0.9999922548713325,-135.2209685812452
6.744,0.9999925453808611,-135.62026069303954
6.752,0.9999928338169208,-136.0194415544995
6.76,0.9999931200416251,-136.41851107367964
6.768,0.9999934039216143,-136.81746916514172
6.776,0.9999936853279998,-137.21631574992517
6.784,0.9999939641363077,-137.61505075551722
6.792,0.9999942402264247,-138.0136741158225
6.8,0.9999945134825402,-138.41218577113324
6.808,0.9999947837930938,-138.8105856680987
6.816,0.9999950510507171,-139.20887375969457
6.824,0.9999953151521805,-139.60705000519275
6.832,0.9999955759983368,-140.00511437013017
6.84,0.9999958334940657,-140.40306682627815
6.848,0.9999960875482194,-140.80090735161133
6.856,0.999996338073568,-141.19863593027665
6.864,0.9999965849867427,-141.59625255256205
6.872,0.9999968282081835,-141.99375721486507
6.88,0.9999970676620823,-142.39114991966153
6.888,0.99999730327633,-142.78843067547385
6.896,0.9999975349824602,-143.18559949683956
6.904,0.9999977627155977,-143.58265640427936
6.912,0.9999979864144013,-143.97960142426544
6.92,0.9999982060210119,-144.3764345891894
6.928,0.9999984214809982,-144.77315593733027
6.936,0.9999986327433018,-145.16976551282252
6.944,0.9999988397601856,-145.56626336562374
6.952,0.9999990424871795,-145.9626495514823
6.96,0.9999992408830275,-146.35892413190524
6.968,0.9999994349096342,-146.75508717412563
6.976,0.999999624532013,-147.1511387510702
6.984,0.9999998097182331,-147.5470789413267
6.992,0.9999999904393674,-147.9429078291114
7.0,1.0,-148.33862550423632
7.008,1.0,-148.7342320620766
7.016,1.0,-149.12972760353748
7.024,0.9999999999999999,-149.5251122350218
7.032,1.0,-149.9203860683968
7.04,1.0,-150.31554922096137
7.048,0.9999999999999999,-150.71060181541304
7.056,1.0,-151.10554397981494
7.064,1.0,-151.50037584756274
7.072,0.9999999999999999,-151.89509755735153
7.08,1.0,-152.28970925314286
7.088,1.0,-152.68421108413136
7.096,0.9999999999999999,-153.07860320471175
7.104,0.9999999999999999,-153.47288577444556
7.112,1.0,-153.86705895802783
7.12,0.9999999999999999,-154.261122925254
7.128,0.9999999999999999,-154.65507785098666
7.136,1.0,-155.04892391512217
7.144,0.9999999999999999,-155.4426613025574
7.152,1.0,-155.83629020315644
7.16,0.9999999999999999,-156.22981081171736
7.168,1.0,-156.62322332793883
7.176,1.0,-157.01652795638682
7.184,1.0,-157.40972490646135
7.192,1.0,-157.80281439236305
7.2,1.0,-158.19579663306
7.208,0.9999999999999999,-158.58867185225438
7.216,1.0,-158.98144027834908
7.224,0.9999999999999999,-159.37410214441454
7.232,1.0,-159.76665768815545
7.24,1.0,-160.15910715187746
7.248,1.0,-160.55145078245403
7.256,1.0,-160.94368883129303
7.264,1.0000000000000002,-161.33582155430378
7.272,0.9999999999999998,-161.72784921186357
7.28,0.9999999999999999,-162.11977206878484
7.288,0.9999999999999998,-162.51159039428177
7.296,1.0,-162.90330446193738
7.304,1.0,-163.29491454967032
7.312,1.0,-163.6864209397018
7.32,1.0,-164.0778239185228
7.328,0.9999999999999999,-164.46912377686073
7.336,0.9999999999999999,-164.86032080964694
7.344,0.9999999999999999,-165.25141531598337
7.352,1.0,-165.6424075991101
7.36,0.9999999999999999,-166.03329796637206
7.368,1.0,-166.42408672918674
7.376,0.9999999999999999,-166.81477420301107
7.384,0.9999999999999999,-167.2053607073089
7.392,0.9999999999999999,-167.5958465655184
7.4,1.0,-167.98623210501924
7.4079999999999995,1.0,-168.37651765710027
7.416,1.0,-168.76670355692704
7.4239999999999995,1.0,-169.15679014350894
7.432,1.0,-169.5467777596675
7.4399999999999995,1.0,-169.93666675200325
7.448,0.9999999999999999,-170.32645747086426
7.4559999999999995,1.0,-170.71615027031302
7.464,1.0,-171.10574550809534
7.4719999999999995,1.0000000000000002,-171.495243545607
7.48,1.0,-171.8846447478628
7.4879999999999995,0.9999999999999999,-172.27394948346392
7.496,0.9999999999999999,-172.66315812456634
7.504,1.0,-173.05227104684852
7.5120000000000005,1.0,-173.4412886294803
7.52,1.0,-173.8302112550904
7.5280000000000005,1.0,-174.21903930973545
7.536,0.9999999999999999,-174.6077731828678
7.5440000000000005,1.0,-174.99641326730446
7.552,1.0,-175.38495995919524
7.5600000000000005,1.0,-175.77341365799182
7.568,1.0,-176.1617747664158
7.5760000000000005,1.0,-176.5500436904282
7.584,1.0,-176.93822083919756
7.5920000000000005,1.0,-177.32630662506952
7.6,0.9999999999999999,-177.71430146353507
7.6080000000000005,0.9999999999999999,-178.10220577320032
7.616,0.9999999999999999,-178.49001997575505
7.6240000000000006,1.0,-178.87774449594232
7.632,0.9999999999999999,-179.26537976152733
7.640000000000001,0.9999999999999999,-179.6529262032673
7.648,1.0,179.9596157451197
7.656000000000001,0.9999999999999998,179.57224564698453
7.664,1.0,179.1849630627783
7.672,1.0,178.7977675500817
7.68,0.9999999999999999,178.41065866363599
7.688,0.9999999999999999,178.0236359553729
7.696,0.9999999999999999,177.63669897444467
7.704,1.0,177.24984726725415
7.712,0.9999999999999999,176.86308037748464
7.72,1.0,176.47639784612986
7.728,1.0,176.08979921152346
7.736,0.9999999999999999,175.70328400936904
7.744,0.9999999999999999,175.31685177276944
7.752,0.9999999746696041,174.93050203225636
7.76,0.9999998736527927,174.54423431581978
7.768,0.9999997726073169,174.15804814893727
7.776,0.9999996715954017,173.77194305460327
7.784,0.9999995706787379,173.38591855335824
7.792,0.9999994699184644,172.99997416331766
7.8,0.9999993693751519,172.6141094002012
7.808,0.999999269108788,172.22832377736134
7.816,0.9999991691787601,171.84261680581253
7.824,0.9999990696438417,171.45698799425963
7.832,0.999998970562176,171.07143684912674
7.84,0.9999988719912634,170.6859628745856
7.848,0.9999987739879447,170.3005655725842
7.856,0.9999986766083897,169.91524444287506
7.864,0.9999985799080828,169.52999898304358
7.872,0.9999984839418096,169.14482868853625
7.88,0.9999983887636452,168.75973305268863
7.888,0.9999982944269403,168.37471156675363
7.896,0.9999982009843111,167.98976371992921
7.904,0.9999981084876265,167.60488899938633
7.912,0.9999980169879965,167.22008689029673
7.92,0.9999979265357624,166.83535687586064
7.928,0.9999978371804848,166.45069843733418
7.936,0.9999977489709349,166.0661110540572
7.944,0.9999976619550832,165.6815942034802
7.952,0.9999975761800906,165.2971473611922
7.96,0.9999974916922991,164.91277000094757
7.968,0.9999974085372225,164.52846159469334
7.976,0.9999973267595389,164.14422161259623
7.984,0.9999972464030802,163.76004952306963
7.992,0.9999971675108272,163.37594479280048
8.0,0.9999970901248991,162.99190688677606
8.008,0.9999970142865487,162.60793526831074
8.016,0.9999969400361531,162.22402939907238
8.024000000000001,0.9999968674132093,161.84018873910924
8.032,0.9999967964563258,161.45641274687625
8.04,0.9999967272032189,161.07270087926113
8.048,0.9999966596907043,160.68905259161096
8.056000000000001,0.9999965939546936,160.30546733775827
8.064,0.9999965300301894,159.92194457004737
8.072,0.9999964679512786,159.53848373935978
8.08,0.9999964077511304,159.15508429514057
8.088000000000001,0.9999963494619898,158.7717456854243
8.096,0.9999962931151758,158.38846735686064
8.104,0.9999962387410761,158.0052487547398
8.112,0.9999961863691446,157.62208932301834
8.120000000000001,0.9999961360278987,157.23898850434477
8.128,0.9999960877449159,156.85594574008488
8.136,0.999996041546832,156.47296047034683
8.144,0.9999959974593379,156.0900321340066
8.152000000000001,0.9999959555071795,155.7071601687333
8.16,0.9999959157141542,155.3243440110141
8.168,0.9999958781031109,154.94158309617893
8.176,0.9999958426959482,154.5588768584258
8.184000000000001,0.9999958095136149,154.17622473084563
8.192,0.9999957785761068,153.79362614544675
8.2,0.9999957499024698,153.41108053317956
8.208,0.9999957235107977,153.02858732396118
8.216000000000001,0.9999956994182326,152.64614594670022
8.224,0.9999956776409673,152.26375582932084
8.232,0.9999956581942433,151.88141639878714
8.24,0.999995641092354,151.49912708112734
8.248000000000001,0.999995626348645,151.11688730145838
8.256,0.9999956139755161,150.73469648400962
8.264,0.9999956039844228,150.35255405214687
8.272,0.9999955963858786,149.97045942839634
8.280000000000001,0.9999955911894568,149.58841203446872
8.288,0.9999955884037934,149.2064112912829
8.296,0.9999955880365894,148.8244566189893
8.304,0.9999955900946147,148.44254743699378
8.312,0.9999955945837099,148.0606831639815
8.32,0.9999956015087911,147.67886321793964
8.328,0.9999956108738526,147.29708701618154
8.336,0.9999956226819712,146.9153539753694
8.344,0.9999956369353097,146.5336635115381
8.352,0.9999956536351227,146.1520150401177
8.36,0.9999956727817579,145.77040797595728
8.368,0.9999956943746658,145.38884173334722
8.376,0.9999957184123993,145.0073157260428
8.384,0.9999957448926221,144.62582936728643
8.392,0.9999957738121137,144.24438206983106
8.4,0.9999958051667739,143.86297324596237
8.408,0.9999958389516289,143.48160230752183
8.416,0.9999958751608368,143.1002686659289
8.424,0.9999959137876954,142.71897173220393
8.432,0.9999959548246463,142.33771091699018
8.44,0.999995998263283,141.95648563057662
8.448,0.9999960440943566,141.57529528291968
8.456,0.9999960923077824,141.1941392836662
8.464,0.9999961428926479,140.81301704217464
8.472,0.9999961958372195,140.43192796753812
8.48,0.9999962511289492,140.05087146860564
8.488,0.999996308754484,139.66984695400467
8.496,0.9999963686996706,139.28885383216246
8.504,0.9999964309495665,138.90789151132833
8.512,0.9999964954884449,138.52695939959494
8.52,0.9999965622998058,138.14605690492047
8.528,0.9999966313663824,137.7651834351497
8.536,0.9999967026701491,137.3843383980361
8.544,0.9999967761923322,137.00352120126277
8.552,0.9999968519134176,136.62273125246423
8.56,0.9999969298131584,136.24196795924755
8.568,0.999997009870586,135.86123072921384
8.576,0.9999970920640191,135.4805189699791
8.584,0.9999971763710701,135.09983208919596
8.592,0.9999972627686594,134.71916949457395
8.6,0.9999973512330201,134.33853059390148
8.608,0.9999974417397114,133.95791479506585
8.616,0.9999975342636264,133.5773215060751
8.624,0.9999976287790023,133.19675013507785
8.632,0.9999977252594313,132.816200090385
8.64,0.9999978236778699,132.43567078048977
8.648,0.9999979240066497,132.05516161408886
8.656,0.9999980262174872,131.6746720001025
8.664,0.9999981302814955,131.2942013476957
8.672,0.999998236169193,130.91374906629778
8.68,0.9999983438505163,130.53331456562395
8.688,0.9999984532948301,130.15289725569454
8.696,0.9999985644709367,129.7724965468561
8.704,0.9999986773470892,129.39211184980118
8.712,0.9999987918910019,129.01174257558884
8.72,0.9999989080698608,128.63138813566442
8.728,0.9999990258503352,128.25104794188007
8.736,0.9999991451985899,127.87072140651424
8.744,0.9999992660802954,127.4904079422922
8.752,0.99999938846064,127.11010696240525
8.76,0.9999995123043411,126.72981788053141
8.768,0.9999996375756582,126.3495401108544
8.776,0.999999764238403,125.96927306808402
8.784,0.9999998922559509,125.58901616747524
8.792,1.0,125.20876882484848
8.8,1.0000000000000002,124.82853045660853
8.808,1.0,124.44830047976465
8.815999999999999,1.0,124.06807831194955
8.824,1.0,123.68786337143905
8.832,1.0,123.30765507717153
8.84,1.0,122.92745284876709
8.847999999999999,0.9999999999999999,122.54725610654673
8.856,0.9999999999999999,122.1670642715516
8.864,1.0,121.78687676556235
8.872,1.0,121.40669301111816
8.879999999999999,0.9999999999999999,121.02651243153548
8.888,0.9999999999999999,120.64633445092724
8.896,0.9999999999999999,120.26615849422204
8.904,1.0,119.88598398718277
8.911999999999999,1.0,119.50581035642531
8.92,0.9999999999999998,119.12563702943763
8.928,1.0,118.74546343459846
8.936,0.9999999999999998,118.36528900119603
8.943999999999999,1.0,117.98511315944643
8.952,1.0,117.60493534051238
8.96,0.9999999999999999,117.22475497652209
8.968,0.9999999999999999,116.84457150058736
8.975999999999999,0.9999999999999999,116.46438434682202
8.984,0.9999999999999999,116.08419295036049
8.992,0.9999999999999999,115.70399674737621
9.0,1.0,115.32379517509989
9.008,0.9999999999999998,114.94358767183748
9.016,1.0,114.5633736769887
9.024000000000001,0.9999999999999999,114.18315263106523
9.032,1.0,113.80292397570865
9.04,1.0,113.42268715370852
9.048,1.0,113.04244160902033
9.056000000000001,0.9999999999999999,112.66218678678379
9.064,1.0,112.28192213334054
9.072,1.0000000000000002,111.90164709625186
9.08,1.0,111.52136112431664
9.088000000000001,0.9999999999999999,111.14106366758942
9.096,1.0,110.76075417739781
9.104,1.0,110.38043210636016
9.112,0.9999999999999999,110.00009690840328
9.120000000000001,1.0,109.6197480387802
9.128,1.0,109.23938495408763
9.136,1.0,108.85900711228317
9.144,0.9999999999999999,108.47861397270304
9.152000000000001,1.0,108.09820499607962
9.16,1.0,107.7177796445586
9.168,1.0,107.3373373817162
9.176,1.0,106.95687767257655
9.184000000000001,1.0,106.57639998362907
9.192,0.9999999999999999,106.19590378284553
9.2,0.9999999999999999,105.81538853969698
9.208,0.9999999999999999,105.43485372517097
9.216000000000001,1.0,105.05429881178877
9.224,1.0,104.67372327362224
9.232,0.9999999999999999,104.29312658631052
9.24,0.9999999999999999,103.91250822707713
9.248000000000001,1.0,103.53186767474692
9.256,1.0,103.15120440976284
9.264,1.0,102.7705179142024
9.272,0.9999999999999999,102.38980767179454
9.280000000000001,1.0,102.0090731679365
9.288,1.0,101.62831388971028
9.296,1.0,101.24752932589894
9.304,1.0,100.86671896700337
9.312000000000001,0.9999999999999999,100.48588230525881
9.32,1.0,100.10501883465122
9.328,1.0,99.72412805093343
9.336,1.0,99.34320945164154
9.344,1.0,98.96226253611161
9.352,0.9999999999999999,98.58128680549507
9.36,1.0000000000000002,98.20028176277576
9.368,0.9999999999999999,97.81924691278527
9.376,1.0,97.43818176221968
9.384,0.9999999999999999,97.05708581965499
9.392,1.0,96.67595859556361
9.4,1.0,96.29479960232975
9.408,0.9999999999999999,95.91360835426585
9.416,0.9999999999999999,95.53238436762783
9.424,1.0,95.15112716063143
9.432,1.0,94.76983625346728
9.44,1.0,94.38851116831725
9.448,1.0,94.00715142936933
9.456,1.0000000000000002,93.62575656283394
9.464,0.9999999999999999,93.24432609695869
9.472,1.0,92.86285956204452
9.48,0.9999999999999999,92.48135649046041
9.488,1.0000000000000002,92.09981641665944
9.496,1.0,91.71823887719334
9.504,1.0,91.3366234107284
9.512,1.0,90.95496955806
9.52,0.9999999999999999,90.57327686212844
9.528,1.0,90.19154486803318
9.536,0.9999999999999999,89.80977312304871
9.544,1.0,89.4279611766387
9.552,0.9999999999999999,89.04610858047161
9.56,0.9999999999999999,88.66421488843483
9.568,0.9999999999999999,88.28227965665013
9.576,1.0,87.90030244348773
9.584,1.0,87.51828280958165
9.592,1.0,87.13622031784352
9.6,0.9999999999999999,86.75411453347796
9.608,0.9999999999999999,86.37196502399625
9.616,1.0,85.9897713592315
9.624,1.0,85.60753311135225
9.632,0.9999999999999999,85.22524985487753
9.64,0.9999999999999999,84.84292116669037
9.648,0.9999999999999999,84.46054662605266
9.656,1.0,84.07812581461852
9.664,1.0,83.69565831644907
9.672,1.0,83.31314371802576
9.68,1.0,82.9305816082649
9.688,1.0,82.5479715785308
9.696,0.9999999999999999,82.16531322265033
9.704,0.9999999999999999,81.78260613692584
9.712,0.9999999999999999,81.39984992014952
9.72,1.0,81.01704417361637
9.728,1.0,80.63418850113824
9.736,1.0,80.25128250905671
9.744,0.9999999999999998,79.86832580625706
9.752,1.0,79.48531800418094
9.76,1.0,79.10225871684023
9.768,1.0,78.71914756082948
9.776,1.0,78.33598415533983
9.784,1.0,77.95276812217107
9.792,0.9999999999999999,77.56949908574549
9.8,1.0,77.18617667311995
9.808,1.0,76.80280051399934
9.816,1.0,76.4193702407486
9.824,1.0,76.03588548840607
9.832,1.0,75.65234589469532
9.84,0.9999999999999999,75.26875110003824
9.847999999999999,0.9999999999999999,74.88510074756707
9.856,1.0,74.50139448313662
9.864,0.9999999999999998,74.11763195533699
9.872,0.9999999999999999,73.73381281550532
9.879999999999999,1.0,73.34993671773785
9.888,1.0,72.96600331890193
9.896,0.9999999999999999,72.58201227864821
9.904,1.0000000000000002,72.19796325942227
