freq,mag,phase
6.0,0.9999933857047715,-161.91724294377772
6.008,0.9999965697818401,-162.29300327990234
6.016,0.9999995948150385,-162.66845995077085
6.024,0.9999999999999999,-163.0436179421876
6.032,0.9999999999999999,-163.41848223861967
6.04,1.0,-163.7930578231538
6.048,0.9999999999999998,-164.16734967745623
6.056,1.0000000000000002,-164.5413627817359
6.064,1.0,-164.91510211471007
6.072,1.0,-165.28857265357288
6.08,1.0,-165.66177937396702
6.088,0.9999999999999998,-166.03472724995737
6.096,1.0,-166.40742125400817
6.104,0.9999999999999999,-166.779866356962
6.112,1.0,-167.15206752802186
6.12,1.0,-167.52402973473522
6.128,1.0,-167.89575794298113
6.136,1.0000000000000002,-168.2672571169591
6.144,1.0,-168.63853221918046
6.152,1.0,-169.00958821046243
6.16,1.0,-169.38043004992377
6.168,0.9999999999999999,-169.75106269498283
6.176,1.0,-170.12149110135798
6.184,1.0,-170.49172022306976
6.192,1.0000000000000002,-170.8617550124451
6.2,1.0,-171.23160042012356
6.208,1.0,-171.60126139506573
6.216,1.0,-171.97074288456295
6.224,1.0,-172.3400498342492
6.232,1.0,-172.70918718811495
6.24,1.0,-173.07815988852218
6.248,0.9999999999999999,-173.4469728762216
6.256,0.9999999999999999,-173.81563109037114
6.264,0.9999999999999999,-174.1841394685563
6.272,1.0,-174.5525029468119
6.28,1.0,-174.92072645964512
6.288,1.0,-175.28881494006055
6.296,0.9999999999999999,-175.65677331958597
6.304,1.0,-176.02460652829996
6.312,1.0,-176.39231949486077
6.32,1.0,-176.75991714653617
6.328,1.0,-177.12740440923486
6.336,1.0,-177.49478620753888
6.344,0.9999999999999999,-177.86206746473727
6.352,1.0,-178.2292531028608
6.36,0.9999999999999999,-178.59634804271766
6.368,0.9999999999999999,-178.96335720393034
6.376,1.0,-179.33028550497343
6.384,0.9999999999999999,-179.69713786321216
6.392,1.0,179.93608080505777
6.4,1.0,179.5693655845698
6.408,0.9999999999999999,179.20271156104533
6.416,1.0,178.83611382115149
6.424,1.0,178.46956745245842
6.432,0.9999999999999998,178.1030675433958
6.44,0.9999999999999999,177.73660918320863
6.448,1.0,177.3701874619125
6.456,1.0,177.00379747024817
6.464,1.0,176.63743429963574
6.472,1.0,176.27109304212817
6.48,1.0,175.90476879036447
6.4879999999999995,1.0,175.5384566375224
6.496,0.9999999999999999,175.1721516772706
6.504,0.9999999999999999,174.8058490037209
6.5120000000000005,1.0,174.43954371137954
6.52,0.9999999999999999,174.07323089509896
6.5280000000000005,1.0,173.70690565002846
6.536,1.0,173.34056307156567
6.5440000000000005,0.9999999999999999,172.97419825530667
6.552,1.0,172.60780629699724
6.5600000000000005,0.9999999999999999,172.24138229248285
6.568,0.9999999999999998,171.87492133765969
6.5760000000000005,1.0,171.50841852842453
6.584,0.9999999999999999,171.14186896062586
6.592,0.9999999999999999,170.77526773001378
6.6,1.0,170.4086099321912
6.608,0.9999999999999999,170.0418906625643
6.616,1.0,169.67510501629351
6.624,0.9999996658121032,169.30824808824474
6.632,0.9999986700125907,168.9413149729407
6.64,0.9999976796818665,168.57430076451257
6.648,0.9999966954176418,168.20720055665205
6.656,0.9999957177956534,167.8400094425636
6.664,0.999994747370114,167.47272251491722
6.672,0.9999937846741527,167.10533486580167
6.68,0.9999928302202512,166.73784158667794
6.688,0.9999918845006746,166.37023776833354
6.696,0.999990947987893,166.00251850083706
6.704,0.9999900211349979,165.63467887349336
6.712,0.9999891043761142,165.26671397479973
6.72,0.9999881981268017,164.898618892402
6.728,0.999987302784456,164.530388713052
6.736,0.9999864187286981,164.16201852256543
6.744,0.9999855463217613,163.7935034057806
6.752,0.9999846859088704,163.42483844651784
6.76,0.9999838378186177,163.05601872754
6.768,0.9999830023633293,162.68703933051358
6.776,0.9999821798394286,162.31789533597092
6.784,0.999981370527794,161.9485818232734
6.792,0.9999805746941096,161.57909387057543
6.8,0.9999797925892109,161.2094265547897
6.808,0.9999790244494267,160.83957495155352
6.816,0.9999782704969128,160.46953413519597
6.824,0.9999775309399833,160.0992991787067
6.832,0.9999768059734339,159.7288651537055
6.84,0.9999760957788633,159.35822713041318
6.848,0.9999754005249858,158.98738017762417
6.856,0.9999747203679415,158.61631936267983
6.864,0.9999740554516011,158.24503975144341
6.872,0.9999734059078654,157.87353640827664
6.88,0.9999727718569593,157.5018043960173
6.888,0.9999721534077223,157.12983877595866
6.896,0.9999715506578944,156.75763460783043
6.904,0.9999709636943954,156.38518694978086
6.912,0.9999703925936014,156.0124908583612
6.92,0.9999698374216169,155.63954138851113
6.928,0.9999692982345415,155.26633359354636
6.936,0.9999687750787316,154.89286252514776
6.944,0.9999682679910592,154.51912323335227
6.952,0.9999677769991671,154.1451107665459
6.96,0.999967302121716,153.77082017145844
6.968,0.9999668433686326,153.39624649315996
6.976,0.9999664007413488,153.02138477505963
6.984,0.9999659742330406,152.64623005890644
6.992,0.9999655638288605,152.27077738479187
7.0,0.9999651695061668,151.89502179115473
7.008,0.9999647912347497,151.51895831478842
7.016,0.9999644289770514,151.1425819908501
7.024,0.999964082688386,150.76588785287225
7.032,0.9999637523171506,150.3888709327766
7.04,0.9999634378050378,150.01152626089043
7.048,0.999963139087242,149.63384886596515
7.056,0.9999628560926609,149.2558337751975
7.064,0.9999625887440963,148.87747601425332
7.072,0.999962336958449,148.4987706072937
7.08,0.9999621006469125,148.1197125770038
7.088,0.9999618797151602,147.74029694462473
7.096,0.9999616740635332,147.3605187299874
7.104,0.9999614835872199,146.98037295154998
7.112,0.9999613081764377,146.59985462643766
7.12,0.9999611477166068,146.21895877048541
7.128,0.9999610020885236,145.83768039828396
7.136,0.9999608711685302,145.4560145232284
7.144,0.9999607548286796,145.07395615757
7.152,0.999960652936902,144.6915003124713
7.16,0.9999605653571606,144.30864199806433
7.168,0.9999604919496118,143.92537622351162
7.176,0.9999604325707595,143.5416979970711
7.184,0.9999603870736049,143.1576023261642
7.192,0.9999603553077969,142.77308421744704
7.2,0.999960337119776,142.3881386768854
7.208,0.9999603323529185,142.00276070983318
7.216,0.9999603408476766,141.61694532111431
7.224,0.9999603624417156,141.2306875151085
7.232,0.9999603969700483,140.8439822958405
7.24,0.9999604442651687,140.4568246670732
7.248,0.9999605041571795,140.06920963240472
7.256,0.9999605764739212,139.68113219536914
7.264,0.9999606610410956,139.29258735954144
7.272,0.9999607576823868,138.9035701286462
7.28,0.9999608662195839,138.51407550667074
7.288,0.999960986472695,138.1240984979819
7.296,0.9999611182600637,137.73363410744759
7.304,0.9999612613984814,137.34267734056237
7.312,0.9999614157032966,136.9512232035773
7.32,0.9999615809885235,136.5592667036343
7.328,0.9999617570669477,136.16680284890506
7.336,0.9999619437502293,135.77382664873437
7.344,0.9999621408490037,135.38033311378817
7.352,0.9999623481729814,134.98631725620626
7.36,0.9999625655310446,134.59177408975978
7.368,0.9999627927313416,134.19669863001343
7.376,0.99996302958138,133.8010858944927
7.384,0.999963275888117,133.40493090285608
7.392,0.999963531458049,133.0082286770721
7.4,0.9999637960972969,132.61097424160184
7.4079999999999995,0.9999640696116915,132.21316262358621
7.416,0.9999643518068569,131.81478885303864
7.4239999999999995,0.9999646424882906,131.41584796304352
7.432,0.9999649414614428,131.01633498995895
7.4399999999999995,0.9999652485317926,130.61624497362652
7.448,0.9999655635049255,130.21557295758484
7.4559999999999995,0.9999658861866055,129.81431398929044
7.464,0.9999662163828463,129.41246312034266
7.4719999999999995,0.9999665538999832,129.01001540671604
7.48,0.999966898544739,128.60696590899684
7.4879999999999995,0.9999672501242937,128.20330969262687
7.496,0.9999676084463457,127.79904182815218
7.504,0.9999679733191773,127.39415739147891
7.5120000000000005,0.9999683445517181,126.988651464134
7.52,0.9999687219536001,126.58251913353342
7.5280000000000005,0.9999691053352209,126.17575549325541
7.536,0.9999694945077982,125.76835564332127
7.5440000000000005,0.9999698892834251,125.36031469048136
7.552,0.9999702894751252,124.95162774850887
7.5600000000000005,0.9999706948969029,124.54228993849877
7.568,0.9999711053637973,124.13229638917497
7.5760000000000005,0.9999715206919286,123.72164223720233
7.584,0.9999719406985468,123.3103226275076
7.5920000000000005,0.9999723652020799,122.898332713605
7.6,0.9999727940221762,122.48566765793082
7.6080000000000005,0.999973226979751,122.07232263218316
7.616,0.9999736638970266,121.65829281767039
7.6240000000000006,0.9999741045975746,121.24357340566519
7.632,0.9999745489063556,120.82815959776748
7.640000000000001,0.9999749966497566,120.41204660627295
7.648,0.9999754476556296,119.99522965455033
7.656000000000001,0.9999759017533264,119.57770397742516
7.664,0.999976358773733,119.15946482157176
7.672,0.9999768185493041,118.740507445912
7.68,0.9999772809140947,118.32082712202252
7.688,0.9999777457037902,117.90041913454901
7.696,0.9999782127557371,117.47927878162865
7.704,0.9999786819089723,117.05740137532008
7.712,0.9999791530042484,116.63478224204157
7.72,0.999979625884062,116.2114167230168
7.728,0.9999801003926783,115.7873001747291
7.736,0.9999805763761532,115.36242796938333
7.744,0.9999810536823609,114.9367954953761
7.752,0.9999815321610109,114.51039815777423
7.76,0.9999820116636713,114.08323137880149
7.768,0.9999824920437888,113.6552905983333
7.776,0.9999829731567059,113.22657127440036
7.784,0.9999834548596808,112.79706888370023
7.792,0.999983937011902,112.36677892211758
7.8,0.9999844194745053,111.9356969052529
7.808,0.9999849021105884,111.50381836895981
7.816,0.9999853847852241,111.07113886989103
7.824,0.9999858673654747,110.63765398605273
7.832,0.9999863497204018,110.20335931736795
7.84,0.9999868317210789,109.76825048624863
7.848,0.9999873132406004,109.33232313817616
7.856,0.9999877941540919,108.89557294229105
7.864,0.9999882743387183,108.4579955919913
7.872,0.9999887536736897,108.0195868055397
7.88,0.9999892320402697,107.58034232667988
7.888,0.9999897093217809,107.14025792526157
7.896,0.9999901854036087,106.69932939787437
7.904,0.9999906601732065,106.25755256849094
7.912,0.9999911335200987,105.81492328911892
7.92,0.9999916053358826,105.37143744046178
7.928,0.9999920755142302,104.92709093258892
7.936,0.9999925439508894,104.48187970561449
7.944,0.9999930105436846,104.03579973038552
7.952,0.9999934751925141,103.58884700917883
7.96,0.9999939377993508,103.14101757640704
7.968,0.9999943982682394,102.69230749933361
7.976,0.9999948565052931,102.24271287879687
7.984,0.99999531241869,101.79222984994293
7.992,0.9999957659186693,101.34085458296775
8.0,0.9999962169175266,100.8885832838679
8.008,0.9999966653296072,100.43541219520056
8.016,0.9999971110713007,99.98133759685179
8.024000000000001,0.9999975540610335,99.52635580681469
8.032,0.9999979942192615,99.07046318197538
8.04,0.9999984314684622,98.61365611890788
8.048,0.9999988657331242,98.15593105467829
8.056000000000001,0.9999992969397401,97.69728446765727
8.064,0.999999725016794,97.23771287834107
8.072,1.0,96.77721285018083
8.08,1.0,96.31578099042098
8.088000000000001,1.0,95.85341395094578
8.096,1.0,95.39010842913406
8.104,0.9999999999999999,94.92586116872187
8.112,0.9999999999999998,94.46066896067393
8.120000000000001,1.0,93.99452864406297
8.128,0.9999999999999998,93.52743710695664
8.136,0.9999999999999998,93.05939128731224
8.144,0.9999999999999999,92.59038817387959
8.152000000000001,0.9999999999999999,92.1204248071114
8.16,1.0,91.6494982800808
8.168,0.9999999999999999,91.17760573940612
8.176,1.0000000000000002,90.70474438618321
8.184000000000001,1.0,90.23091147692496
8.192,1.0,89.75610432450712
8.2,0.9999999999999999,89.28032029912089
8.208,1.0,88.8035568292324
8.216000000000001,1.0,88.32581140254877
8.224,1.0,87.84708156698959
8.232,0.9999999999999999,87.36736493166475
8.24,1.0,86.88665916785818
8.248000000000001,1.0,86.40496201001737
8.256,1.0,85.92227125674773
8.264,1.0,85.43858477181216
8.272,0.9999999999999999,84.95390048513585
8.280000000000001,0.9999999999999999,84.46821639381594
8.288,0.9999999999999999,83.98153056313498
8.296,0.9999999999999999,83.49384112757872
8.304,0.9999999999999999,83.00514629185815
8.312,1.0,82.51544433193526
8.32,1.0,82.02473359605126
8.328,1.0,81.53301250575926
8.336,1.0000000000000002,81.04027955695811
8.344,1.0000000000000002,80.54653332093046
8.352,0.9999999999999999,80.05177244538125
8.36,1.0,79.5559956554796
8.368,1.0,79.05920175490073
8.376,0.9999999999999999,78.56138962687056
8.384,0.9999999999999999,78.06255823520948
8.392,1.0,77.56270662537831
8.4,1.0,77.06183392552258
8.408,1.0,76.55993934751831
8.416,1.0,76.05702218801522
8.424,1.0,75.55308182948097
8.432,0.9999999999999999,75.04811774124178
8.44,1.0,74.5421294805231
8.448,1.0,74.03511669348634
8.456,0.9999999999999999,73.52707911626452
8.464,0.9999999999999999,73.0180165759929
8.472,0.9999999999999999,72.50792899183801
8.48,1.0,71.9968163760207
8.488,1.0,71.48467883483636
8.496,1.0,70.9715165696687
8.504,1.0,70.45732987799946
8.512,0.9999999999999999,69.9421191544106
8.52,1.0,69.42588489158189
8.528,1.0,68.90862768127953
8.536,1.0,68.3903482153393
8.544,1.0,67.87104728663998
8.552,1.0,67.35072579006977
8.56,1.0,66.82938472348226
8.568,0.9999999999999999,66.30702518864443
8.576,1.0,65.78364839217268
8.584,1.0,65.25925564646019
8.592,0.9999999999999999,64.73384837059105
8.6,1.0,64.20742809124461
8.608,0.9999999999999999,63.67999644358549
8.616,1.0,63.151555172142565
8.624,1.0,62.62210613167257
8.632,0.9999999999999999,62.09165128801146
8.64,0.9999999999999999,61.56019271890929
8.648,1.0,61.02773261485153
8.656,0.9999999999999999,60.494273279862725
8.664,1.0,59.95981713229554
8.672,1.0,59.424366705600754
8.68,1.0,58.88792464908154
8.688,1.0,58.350493728627434
8.696,1.0,57.81207682743127
8.704,0.9999999999999999,57.272676946684804
8.712,1.0,56.73229720625585
8.72,1.0,56.190940845342915
8.728,0.9999999999999999,55.64861122311019
8.736,1.0,55.105311819298656
8.744,1.0,54.56104623481647
8.752,1.0,54.015818192304124
8.76,0.9999999999999999,53.46963153667769
8.768,1.0,52.92249023564548
8.776,0.9999999999999999,52.37439838020171
8.784,0.9999999999999999,51.82536018509237
8.792,1.0,51.2753799892567
8.8,1.0,50.72446225623978
8.808,1.0,50.17261157457956
8.815999999999999,1.0,49.6198326581638
8.824,1.0,49.06613034655957
8.832,0.9999999999999999,48.51150960531331
8.84,1.0,47.95597552622048
8.847999999999999,1.0000000000000002,47.39953332756462
8.856,1.0,46.842188354326055
8.864,0.9999999999999999,46.283946078358866
8.872,1.0,45.72481209853513
8.879999999999999,1.0,45.16479214085679
8.888,1.0,44.603892058534434
8.896,0.9999999999999999,44.04211783203261
8.904,0.9999999999999999,43.47947556908019
8.911999999999999,1.0,42.915971504646265
8.92,1.0,42.35161200088095
8.928,1.0,41.786403547020925
8.936,1.0,41.22035275925799
8.943999999999999,0.9999999999999999,40.65346638057117
8.952,1.0,40.085751280522324
8.96,0.9999999999999999,39.517214455014276
8.968,1.0,38.947863026010715
8.975999999999999,0.9999999999999999,38.377704241217764
8.984,1.0,37.80674547372746
8.992,1.0,37.23499422162265
9.0,1.0,36.6624581075417
9.008,0.9999999999999999,36.08914487820398
9.016,1.0,35.515062403895946
9.024000000000001,0.9999999999999999,34.940218677916995
9.032,0.9999999999999999,34.36462181598476
9.04,1.0,33.78828005559944
9.048,0.9999999999999999,33.21120175536824
9.056000000000001,0.9999999999999999,32.63339539428872
9.064,1.0,32.05486957099033
9.072,0.9999999999999999,31.47563300293501
9.08,1.0,30.895694525576708
9.088000000000001,0.9999999999999999,30.315063091479544
9.096,1.0,29.73374776939399
9.104,0.9999999999999999,29.15175774329121
9.112,1.0,28.569102311356744
9.120000000000001,1.0,27.9857908849423
9.128,1.0,27.401832987475736
9.136,0.9999999999999999,26.81723825332932
9.144,1.0,26.232016426647387
9.152000000000001,1.0,25.646177360132565
9.16,1.0,25.059731013790387
9.168,1.0,24.472687453633025
9.176,0.9999999999999999,23.885056850342675
9.184000000000001,1.0,23.29684947789447
9.192,1.0,22.70807571213869
9.2,1.0,22.118746029342716
9.208,1.0,21.528871004694032
9.216000000000001,0.9999999999999999,20.93846131076385
9.224,1.0,20.347527715931093
9.232,0.9999999999999999,19.756081082767867
9.24,0.9999999999999999,19.164132366387197
9.248000000000001,1.0,18.57169261275323
9.256,1.0,17.978772956953314
9.264,0.9999999999999999,17.38538462143357
9.272,1.0,16.79153891419869
9.280000000000001,1.0,16.197247226976025
9.288,1.0,15.602521033344033
9.296,1.0,15.007371886826379
9.304,1.0,14.411811418952452
9.312000000000001,1.0,13.815851337285089
9.32,0.9999999999999999,13.219503423414862
9.328,1.0,12.62277953092281
9.336,1.0,12.025691583312682
9.344,1.0,11.428251571912906
9.352,1.0,10.830471553747824
9.36,1.0,10.232363649382252
9.368,1.0,9.633940040735958
9.376,1.0,9.035212968873457
9.384,1.0,8.436194731765402
9.392,1.0,7.836897682026957
9.4,0.9999999999999999,7.237334224629792
9.408,1.0,6.637516814592834
9.416,1.0,6.037457954648459
9.424,0.9999999999999999,5.437170192889438
9.432,1.0,4.836666120393374
9.44,1.0,4.235958368829831
9.448,1.0,3.6350596080469075
9.456,1.0,3.0339825436427827
9.464,1.0,2.432739914518675
9.472,0.9999999999999999,1.8313444904189007
9.48,1.0,1.2298090694545378
9.488,1.0,0.628146475616388
9.496,0.9999999999999999,0.026369556273750417
9.504,1.0,-0.5755088203353207
9.512,1.0,-1.177475767625649
9.52,1.0,-1.779518383192849
9.528,0.9999999999999999,-2.381623751350806
9.536,1.0,-2.983778945673316
9.544,1.0,-3.585971031542634
9.552,1.0,-4.188187068700211
9.56,1.0,-4.790414113801908
9.568,0.9999999999999999,-5.392639222972952
9.576,0.9999999999999999,-5.994849454365214
9.584,1.0,-6.597031870711749
9.592,1.0,-7.199173541881401
9.6,0.9999999999999999,-7.801261547428373
9.608,1.0,-8.403282979139446
9.616,1.0,-9.005224943573836
9.624,0.9999999999999999,-9.60707456459852
9.632,0.9999999999999999,-10.208818985913734
9.64,1.0,-10.810445373571827
9.648,0.9999999999999999,-11.411940918483788
9.656,0.9999999999999999,-12.013292838917023
9.664,0.9999999999999999,-12.614488382978617
9.672,1.0,-13.215514831087438
9.68,0.9999999999999999,-13.816359498429668
9.688,1.0,-14.417009737400965
9.696,0.9999999999999999,-15.017452940029925
9.704,1.0,-15.617676540385872
9.712,1.0,-16.217668016966154
9.72,1.0,-16.817414895065586
9.728,0.9999999999999999,-17.41690474912317
9.736,1.0,-18.016125205049207
9.744,1.0,-18.615063942527588
9.752,0.9999999999999999,-19.213708697296774
9.76,0.9999999999999999,-19.81204726340369
9.768,0.9999999999999999,-20.410067495434713
9.776,1.0,-21.007757310717857
9.784,0.9999999999999999,-21.605104691499967
9.792,1.0,-22.20209768709365
9.8,1.0000000000000002,-22.79872441599748
9.808,1.0,-23.394973067984274
9.816,1.0,-23.990831906161016
9.824,0.9999999999999998,-24.586289268995497
9.832,1.0,-25.181333572312898
9.84,1.0,-25.77595331125772
9.847999999999999,0.9999999999999998,-26.37013706222428
9.856,1.0,-26.963873484751794
9.864,0.9999999999999998,-27.55715132338506
9.872,1.0,-28.149959409500298
9.879999999999999,0.9999999999999999,-28.74228666309519
9.888,0.9999998297849457,-29.33412209454203
9.896,0.9999995437428211,-29.925454806303986
9.904,0.9999992576766601,-30.516273994614483
9.911999999999999,0.9999989716506834,-31.10656895111868
9.92,0.9999986857297092,-31.696329064476135
9.928,0.9999983999791329,-32.28554382192496
9.936,0.9999981144649089,-32.87420281080705
9.943999999999999,0.9999978292535269,-33.46229572005418
9.952,0.9999975444119924,-34.049812341633704
9.96,0.999997260007804,-34.63674257195415
9.968,0.9999969761089301,-35.22307641323108
9.975999999999999,0.9999966927837862,-35.80880397481234
9.984,0.999996410101211,-36.39391547446194
9.992,0.999996128130442,-36.978401239603095
10.0,0.9999958469410889,-37.5622517085205
10.008,0.9999955666031115,-38.14545743152139
10.016,0.9999952871867906,-38.72800907205478
10.024000000000001,0.9999950087627042,-39.309897407789094
10.032,0.9999947314016974,-39.89111333164893
10.04,0.9999944551748587,-40.47164785281024
10.048,0.9999941801534891,-41.05149209765346
10.056000000000001,0.9999939064090771,-41.63063731067508
10.064,0.9999936340132668,-42.20907485535835
