freq,mag,phase
6.0,0.9999984010731237,132.13065276232987
6.008,0.9999987265400289,132.0620609373471
6.016,0.9999990458673168,131.99345009344748
6.024,0.9999993591117505,131.92482020129614
6.032,0.9999996663297854,131.85617123156146
6.04,0.9999999675775689,131.78750315491519
6.048,0.9999999999999999,131.71881594203245
6.056,1.0,131.65010956359194
6.064,1.0,131.58138399027567
6.072,1.0,131.51263919276937
6.08,0.9999999999999999,131.44387514176242
6.088,1.0,131.3750918079477
6.096,1.0,131.306289162022
6.104,1.0,131.23746717468583
6.112,1.0,131.16862581664347
6.12,1.0000000000000002,131.09976505860314
6.128,1.0,131.03088487127698
6.136,1.0,130.96198522538114
6.144,0.9999999999999999,130.89306609163583
6.152,0.9999999999999999,130.8241274407653
6.16,0.9999999999999999,130.75516924349805
6.168,1.0,130.68619147056665
6.176,0.9999999999999999,130.61719409270805
6.184,1.0,130.54817708066344
6.192,1.0,130.47914040517844
6.2,0.9999999999999999,130.41008403700297
6.208,1.0,130.34100794689164
6.216,1.0000000000000002,130.27191210560335
6.224,1.0,130.20279648390166
6.232,0.9999999999999999,130.13366105255488
6.24,1.0,130.06450578233589
6.248,1.0,129.99533064402226
6.256,1.0,129.92613560839652
6.264,1.0,129.8569206462459
6.272,1.0,129.78768572836262
6.28,0.9999999999999999,129.71843082554386
6.288,1.0,129.64915590859172
6.296,0.9999999999999999,129.5798609483135
6.304,0.9999999999999999,129.51054591552145
6.312,0.9999999999999999,129.44121078103316
6.32,1.0,129.37185551567137
6.328,0.9999999999999999,129.30248009026408
6.336,1.0,129.2330844756447
6.344,1.0,129.16366864265188
6.352,1.0,129.09423256212997
6.36,1.0,129.02477620492854
6.368,1.0,128.95529954190292
6.376,1.0,128.88580254391388
6.384,1.0,128.816285181828
6.392,1.0000000000000002,128.74674742651754
6.4,1.0,128.67718924886043
6.408,0.9999999999999999,128.60761061974057
6.416,1.0,128.5380115100476
6.424,0.9999999999999999,128.46839189067725
6.432,0.9999999999999999,128.3987517325311
6.44,1.0,128.32909100651682
6.448,1.0,128.25940968354826
6.456,1.0,128.18970773454527
6.464,1.0,128.11998513043406
6.472,1.0,128.05024184214696
6.48,1.0,127.98047784062283
6.4879999999999995,1.0,127.91069309680664
6.496,1.0,127.84088758164998
6.504,1.0,127.77106126611083
6.5120000000000005,1.0,127.70121412115378
6.52,1.0,127.63134611774998
6.5280000000000005,1.0,127.56145722687722
6.536,0.9999999999999999,127.49154741952005
6.5440000000000005,0.9999999999999998,127.42161666666965
6.552,1.0,127.35166493932418
6.5600000000000005,0.9999999999999999,127.28169220848856
6.568,0.9999999999999999,127.2116984451747
6.5760000000000005,1.0,127.14168362040145
6.584,1.0,127.07164770519478
6.592,1.0,127.0015906705876
6.6,1.0,126.93151248762017
6.608,0.9999999999999999,126.86141312733976
6.616,1.0,126.79129256080104
6.624,0.9999999999999998,126.72115075906596
6.632,0.9999999999999999,126.65098769320385
6.64,1.0,126.58080333429142
6.648,1.0,126.51059765341296
6.656,1.0,126.44037062166021
6.664,0.9999999999999999,126.37012221013258
6.672,0.9999999999999999,126.2998523899371
6.68,0.9999999999999999,126.22956113218856
6.688,1.0,126.1592484080094
6.696,0.9999999999999999,126.08891418853005
6.704,1.0,126.01855844488868
6.712,0.9999999999999999,125.94818114823147
6.72,0.9999999999999999,125.87778226971261
6.728,1.0,125.80736178049429
6.736,1.0,125.73691965174682
6.744,1.0,125.66645585464873
6.752,0.9999999999999999,125.59597036038672
6.76,1.0,125.52546314015578
6.768,0.9999999999999999,125.45493416515922
6.776,0.9999999999999999,125.38438340660879
6.784,1.0,125.31381083572465
6.792,1.0,125.24321642373549
6.8,1.0,125.17260014187856
6.808,0.9999999999999999,125.10196196139975
6.816,0.9999999999999999,125.03130185355359
6.824,1.0,124.96061978960336
6.832,1.0,124.8899157408212
6.84,1.0000000000000002,124.81918967848799
6.848,1.0,124.74844157389359
6.856,1.0,124.67767139833686
6.864,1.0,124.60687912312564
6.872,0.9999999999999999,124.53606471957683
6.88,1.0,124.46522815901652
6.888,0.9999999999999999,124.39436941278
6.896,0.9999999999999999,124.32348845221178
6.904,1.0,124.25258524866574
6.912,1.0,124.18165977350505
6.92,1.0,124.11071199810243
6.928,0.9999999999999999,124.03974189384004
6.936,1.0,123.9687494321095
6.944,1.0,123.89773458431219
6.952,1.0,123.82669732185909
6.96,0.9999999999999999,123.75563761617086
6.968,1.0,123.68455543867802
6.976,1.0,123.6134507608209
6.984,0.9999999999999998,123.5423235540497
6.992,1.0,123.47117378982466
7.0,0.9999999999999999,123.400001439616
7.008,1.0,123.32880647490396
7.016,1.0,123.25758886717902
7.024,1.0,123.18634858794182
7.032,1.0,123.11508560870324
7.04,1.0,123.04379990098444
7.048,1.0000000000000002,122.97249143631706
7.056,1.0,122.9011601862431
7.064,1.0,122.82980612231506
7.072,1.0,122.75842921609603
7.08,0.9999999999999999,122.6870294391597
7.088,0.9999999999999999,122.61560676309037
7.096,0.9999999999999999,122.5441611594832
7.104,0.9999999999999999,122.47269259994404
7.112,1.0,122.40120105608963
7.12,1.0,122.32968649954765
7.128,1.0,122.25814890195669
7.136,0.9999999999999999,122.18658823496644
7.144,1.0,122.11500447023766
7.152,1.0,122.04339757944227
7.16,0.9999999999999999,121.97176753426335
7.168,1.0,121.9001143063954
7.176,0.9999999999999999,121.82843786754411
7.184,0.9999999999999999,121.75673818942663
7.192,1.0,121.68501524377155
7.2,0.9999999999999999,121.61326900231903
7.208,1.0000000000000002,121.54149943682079
7.216,1.0,121.4697065190401
7.224,1.0,121.39789022075207
7.232,1.0,121.32605051374354
7.24,1.0,121.2541873698131
7.248,0.9999999999999999,121.18230076077133
7.256,0.9999999999999999,121.11039065844064
7.264,1.0,121.0384570346556
7.272,1.0,120.96649986126272
7.28,0.9999999999999999,120.8945191101207
7.288,1.0,120.82251475310045
7.296,1.0,120.75048676208513
7.304,0.9999999999999999,120.67843510897018
7.312,0.9999999999999999,120.60635976566346
7.32,1.0,120.5342607040853
7.328,1.0,120.46213789616844
7.336,1.0,120.38999131385832
7.344,1.0,120.31782092911287
7.352,1.0,120.24562671390284
7.36,1.0,120.17340864021166
7.368,0.9999999999999999,120.1011666800356
7.376,0.9999999999999999,120.02890080538384
7.384,1.0,119.95661098827844
7.392,1.0,119.88429720075452
7.4,1.0,119.81195941486024
7.4079999999999995,0.9999999999999999,119.73959760265694
7.416,1.0,119.66721173621907
7.4239999999999995,0.9999999999999999,119.5948017876345
7.432,1.0,119.52236772900417
7.4399999999999995,1.0,119.44990953244269
7.448,1.0,119.37742717007791
7.4559999999999995,1.0,119.3049206140513
7.464,1.0,119.23238983651785
7.4719999999999995,0.9999999379846238,119.15983480964627
7.48,0.9999998103011983,119.0872555056189
7.4879999999999995,0.9999996825215878,119.01465189663188
7.496,0.9999995546588335,118.94202395489515
7.504,0.9999994267258103,118.86937165263261
7.5120000000000005,0.9999992987352275,118.79669496208211
7.52,0.9999991706996301,118.72399385549548
7.5280000000000005,0.9999990426313986,118.65126830513867
7.536,0.9999989145427505,118.5785182832918
7.5440000000000005,0.9999987864457409,118.50574376224918
7.552,0.9999986583522636,118.43294471431943
7.5600000000000005,0.999998530274051,118.36012111182552
7.568,0.9999984022226757,118.28727292710482
7.5760000000000005,0.9999982742095507,118.21440013250918
7.584,0.9999981462459302,118.14150270040503
7.5920000000000005,0.9999980183429115,118.06858060317336
7.6,0.9999978905114335,117.99563381320989
7.6080000000000005,0.9999977627622804,117.92266230292499
7.616,0.9999976351060795,117.84966604474397
7.6240000000000006,0.9999975075533039,117.7766450111069
7.632,0.999997380114273,117.70359917446886
7.640000000000001,0.9999972527991519,117.63052850729989
7.648,0.9999971256179546,117.55743298208512
7.656000000000001,0.9999969985805424,117.48431257132479
7.664,0.999996871696626,117.41116724753441
7.672,0.9999967449757657,117.33799698324465
7.68,0.9999966184273729,117.26480175100167
7.688,0.99999649206071,117.19158152336685
7.696,0.9999963658848909,117.11833627291716
7.704,0.9999962399088838,117.04506597224508
7.712,0.9999961141415091,116.97177059395872
7.72,0.9999959885914427,116.89845011068174
7.728,0.9999958632672146,116.82510449505368
7.736,0.9999957381772113,116.7517337197298
7.744,0.9999956133296759,116.67833775738124
7.752,0.9999954887327093,116.60491658069512
7.76,0.9999953643942698,116.5314701623745
7.768,0.9999952403221751,116.45799847513854
7.776,0.9999951165241026,116.38450149172256
7.784,0.9999949930075901,116.31097918487804
7.792,0.9999948697800364,116.2374315273728
7.8,0.9999947468487032,116.16385849199091
7.808,0.9999946242207133,116.09026005153294
7.816,0.9999945019030548,116.01663617881589
7.824,0.9999943799025788,115.94298684667332
7.832,0.9999942582260017,115.86931202795542
7.84,0.9999941368799059,115.79561169552899
7.848,0.9999940158707401,115.72188582227771
7.856,0.9999938952048206,115.64813438110195
7.864,0.9999937748883313,115.57435734491905
7.872,0.999993654927325,115.5005546866633
7.88,0.9999935353277243,115.42672637928595
7.888,0.9999934160953216,115.35287239575544
7.896,0.9999932972357809,115.27899270905733
7.904,0.9999931787546379,115.20508729219438
7.912,0.9999930606573006,115.1311561181867
7.92,0.9999929429490503,115.05719916007178
7.928,0.9999928256350424,114.98321639090449
7.936,0.9999927087203074,114.90920778375732
7.944,0.9999925922097512,114.83517331172021
7.952,0.9999924761081558,114.76111294790084
7.96,0.9999923604201807,114.6870266654246
7.968,0.9999922451503626,114.61291443743465
7.976,0.9999921303031171,114.53877623709202
7.984,0.9999920158827392,114.46461203757569
7.992,0.999991901893404,114.3904218120826
8.0,0.9999917883391675,114.3162055338278
8.008,0.9999916752239665,114.2419631760445
8.016,0.999991562551621,114.16769471198405
8.024000000000001,0.9999914503258338,114.09340011491616
8.032,0.9999913385501911,114.01907935812889
8.04,0.999991227228164,113.9447324149287
8.048,0.9999911163631091,113.87035925864052
8.056000000000001,0.9999910059582684,113.79595986260792
8.064,0.9999908960167716,113.72153420019306
8.072,0.9999907865416352,113.64708224477687
8.08,0.9999906775357638,113.57260396975899
8.088000000000001,0.9999905690019515,113.49809934855793
8.096,0.9999904609428826,113.42356835461123
8.104,0.9999903533611304,113.3490109613753
8.112,0.9999902462591609,113.27442714232566
8.120000000000001,0.9999901396393318,113.19981687095702
8.128,0.9999900335038926,113.12518012078328
8.136,0.9999899278549874,113.05051686533763
8.144,0.999989822694654,112.97582707817257
8.152000000000001,0.9999897180248248,112.90111073286015
8.16,0.9999896138473289,112.82636780299184
8.168,0.9999895101638906,112.75159826217872
8.176,0.9999894069761319,112.67680208405147
8.184000000000001,0.9999893042855732,112.6019792422606
8.192,0.9999892020936327,112.52712971047637
8.2,0.9999891004016284,112.45225346238888
8.208,0.9999889992107782,112.3773504717082
8.216000000000001,0.9999888985222011,112.30242071216445
8.224,0.9999887983369175,112.22746415750784
8.232,0.9999886986558497,112.15248078150871
8.24,0.999988599479824,112.07747055795767
8.248000000000001,0.9999885008095697,112.00243346066561
8.256,0.9999884026457208,111.92736946346392
8.264,0.9999883049888165,111.85227854020432
8.272,0.9999882078393021,111.77716066475914
8.280000000000001,0.9999881111975294,111.70201581102131
8.288,0.999988015063758,111.6268439529045
8.296,0.999987919438155,111.55164506434305
8.304,0.9999878243207966,111.4764191192922
8.312,0.9999877297116693,111.4011660917281
8.32,0.999987635610669,111.32588595564788
8.328,0.9999875420176029,111.25057868506975
8.336,0.9999874489321905,111.17524425403303
8.344,0.9999873563540633,111.09988263659832
8.352,0.9999872642827659,111.02449380684742
8.36,0.9999871727177574,110.94907773888357
8.368,0.9999870816584113,110.87363440683141
8.376,0.9999869911040163,110.79816378483716
8.384,0.9999869010537773,110.72266584706857
8.392,0.9999868115068163,110.6471405677151
8.4,0.9999867224621729,110.57158792098794
8.408,0.9999866339188044,110.49600788112014
8.416,0.9999865458755879,110.4204004223666
8.424,0.9999864583313192,110.34476551900427
8.432,0.9999863712847156,110.26910314533207
8.44,0.9999862847344152,110.19341327567113
8.448,0.9999861986789775,110.11769588436474
8.456,0.9999861131168848,110.04195094577854
8.464,0.9999860280465434,109.96617843430042
8.472,0.9999859434662824,109.8903783243409
8.48,0.9999858593743565,109.8145505903328
8.488,0.9999857757689457,109.73869520673173
8.496,0.9999856926481557,109.66281214801586
8.504,0.9999856100100195,109.58690138868617
8.512,0.999985527852498,109.51096290326646
8.52,0.9999854461734792,109.43499666630345
8.528,0.9999853649707809,109.3590026523668
8.536,0.9999852842421507,109.28298083604933
8.544,0.9999852039852664,109.20693119196693
8.552,0.9999851241977363,109.1308536947588
8.56,0.9999850448771015,109.05474831908734
8.568,0.999984966020835,108.97861503963843
8.576,0.9999848876263431,108.90245383112133
8.584,0.9999848096909663,108.82626466826898
8.592,0.9999847322119789,108.75004752583777
8.6,0.9999846551865917,108.67380237860795
8.608,0.99998457861195,108.59752920138342
8.616,0.9999845024851378,108.5212279689921
8.624,0.9999844268031745,108.44489865628567
8.632,0.9999843515630187,108.36854123814003
8.64,0.9999842767615675,108.29215568945502
8.648,0.9999842023956579,108.21574198515475
8.656,0.999984128462066,108.13930010018761
8.664,0.9999840549575101,108.06283000952628
8.672,0.9999839818786491,107.98633168816791
8.68,0.9999839092220847,107.90980511113418
8.688,0.9999838369843616,107.83325025347126
8.696,0.9999837651619673,107.75666709025013
8.704,0.9999836937513346,107.68005559656643
8.712,0.9999836227488407,107.60341574754071
8.72,0.9999835521508086,107.52674751831833
8.728,0.9999834819535082,107.45005088406977
8.736,0.9999834121531558,107.37332581999048
8.744,0.9999833427459155,107.2965723013012
8.752,0.9999832737279002,107.21979030324779
8.76,0.9999832050951717,107.14297980110156
8.768,0.9999831368437417,107.06614077015912
8.776,0.9999830689695719,106.98927318574268
8.784,0.999983001468576,106.91237702319992
8.792,0.9999829343366184,106.8354522579043
8.8,0.9999828675695173,106.75849886525492
8.808,0.9999828011630425,106.68151682067678
8.815999999999999,0.9999827351129194,106.60450609962076
8.824,0.9999826694148265,106.52746667756374
8.832,0.9999826040643982,106.4503985300087
8.84,0.9999825390572246,106.37330163248474
8.847999999999999,0.999982474388852,106.29617596054727
8.856,0.999982410054784,106.21902148977799
8.864,0.9999823460504829,106.14183819578498
8.872,0.9999822823713682,106.06462605420296
8.879999999999999,0.9999822190128196,105.9873850406931
8.888,0.9999821559701763,105.91011513094325
8.896,0.9999820932387374,105.83281630066813
8.904,0.9999820308137645,105.75548852560918
8.911999999999999,0.9999819686904793,105.67813178153484
8.92,0.9999819068640677,105.60074604424052
8.928,0.9999818453296776,105.52333128954878
8.936,0.9999817840824214,105.44588749330931
8.943999999999999,0.9999817231173753,105.36841463139912
8.952,0.9999816624295812,105.29091267972254
8.96,0.9999816020140462,105.21338161421133
8.968,0.9999815418657441,105.13582141082489
8.975999999999999,0.9999814819796157,105.0582320455501
8.984,0.9999814223505696,104.98061349440158
8.992,0.9999813629734827,104.90296573342182
9.0,0.9999813038432009,104.8252887386811
9.008,0.9999812449545397,104.74758248627772
9.016,0.9999811863022846,104.66984695233798
9.024000000000001,0.9999811278811924,104.59208211301636
9.032,0.9999810696859918,104.51428794449559
9.04,0.9999810117113824,104.43646442298666
9.048,0.9999809539520382,104.35861152472899
9.056000000000001,0.9999808964026058,104.2807292259905
9.064,0.9999808390577059,104.20281750306769
9.072,0.9999807819119338,104.12487633228577
9.08,0.999980724959861,104.04690568999861
9.088000000000001,0.9999806681960343,103.968905552589
9.096,0.9999806116149768,103.89087589646869
9.104,0.9999805552111898,103.81281669807841
9.112,0.9999804989791521,103.73472793388797
9.120000000000001,0.9999804429133206,103.65660958039648
9.128,0.9999803870081314,103.57846161413232
9.136,0.9999803312580012,103.5002840116532
9.144,0.9999802756573261,103.42207674954635
9.152000000000001,0.9999802202004833,103.34383980442858
9.16,0.9999801648818323,103.26557315294633
9.168,0.9999801096957136,103.1872767717758
9.176,0.999980054636452,103.10895063762301
9.184000000000001,0.9999799996983545,103.03059472722394
9.192,0.9999799448757127,102.95220901734459
9.2,0.9999798901628032,102.87379348478103
9.208,0.9999798355538868,102.79534810635958
9.216000000000001,0.9999797810432112,102.71687285893685
9.224,0.9999797266250102,102.63836771939984
9.232,0.9999796722935046,102.559832664666
9.24,0.9999796180429028,102.48126767168337
9.248000000000001,0.9999795638674018,102.40267271743066
9.256,0.9999795097611873,102.32404777891735
9.264,0.9999794557184343,102.24539283318377
9.272,0.9999794017333083,102.16670785730116
9.280000000000001,0.9999793477999648,102.08799282837182
9.288,0.9999792939125509,102.00924772352924
9.296,0.9999792400652058,101.93047251993801
9.304,0.9999791862520606,101.8516671947941
9.312000000000001,0.9999791324672399,101.77283172532495
9.32,0.9999790787048615,101.69396608878944
9.328,0.9999790249590371,101.61507026247807
9.336,0.9999789712238741,101.53614422371301
9.344,0.9999789174934747,101.45718794984828
9.352,0.9999788637619366,101.37820141826971
9.36,0.9999788100233543,101.2991846063952
9.368,0.9999787562718198,101.22013749167465
9.376,0.999978702501422,101.1410600515902
9.384,0.999978648706248,101.06195226365618
9.392,0.9999785948803842,100.98281410541937
9.4,0.9999785410179164,100.90364555445892
9.408,0.9999784871129291,100.82444658838664
9.416,0.9999784331595086,100.7452171848469
9.424,0.9999783791517416,100.66595732151687
9.432,0.9999783250837164,100.58666697610657
9.44,0.9999782709495232,100.50734612635897
9.448,0.9999782167432552,100.42799475005003
9.456,0.9999781624590086,100.34861282498896
9.464,0.9999781080908833,100.26920032901806
9.472,0.999978053632984,100.18975724001314
9.48,0.9999779990794193,100.11028353588327
9.488,0.9999779444243042,100.0307791945712
9.496,0.9999778896617592,99.95124419405322
9.504,0.9999778347859112,99.8716785123394
9.512,0.9999777797908939,99.79208212747362
9.52,0.9999777246708492,99.71245501753374
9.528,0.9999776694199265,99.63279716063157
9.536,0.9999776140322838,99.55310853491314
9.544,0.9999775585020887,99.47338911855861
9.552,0.9999775028235182,99.39363888978258
9.56,0.9999774469907589,99.31385782683404
9.568,0.9999773909980092,99.23404590799647
9.576,0.9999773348394777,99.15420311158807
9.584,0.9999772785093858,99.07432941596173
9.592,0.9999772220019658,98.99442479950515
9.6,0.9999771653114637,98.91448924064106
9.608,0.9999771084321389,98.83452271782714
9.616,0.9999770513582636,98.75452520955628
9.624,0.9999769940841254,98.67449669435659
9.632,0.9999769366040261,98.59443715079153
9.64,0.9999768789122823,98.51434655746007
9.648,0.9999768210032275,98.43422489299667
9.656,0.9999767628712105,98.35407213607145
9.664,0.9999767045105974,98.27388826539041
9.672,0.9999766459157713,98.19367325969526
9.68,0.9999765870811329,98.11342709776385
9.688,0.9999765280011021,98.03314975840993
9.696,0.9999764686701159,97.95284122048366
9.704,0.9999764090826317,97.87250146287127
9.712,0.9999763492331263,97.79213046449557
9.72,0.9999762891160962,97.71172820431576
9.728,0.999976228726059,97.6312946613277
9.736,0.9999761680575532,97.55082981456397
9.744,0.9999761071051387,97.47033364309395
9.752,0.9999760458633979,97.38980612602398
9.76,0.999975984326935,97.30924724249745
9.768,0.9999759224903778,97.22865697169483
9.776,0.9999758603483765,97.14803529283397
9.784,0.9999757978956064,97.06738218516996
9.792,0.9999757351267661,96.98669762799545
9.8,0.9999756720365793,96.90598160064062
9.808,0.9999756086197948,96.8252340824734
9.816,0.9999755448711872,96.74445505289948
9.824,0.9999754807855573,96.66364449136249
9.832,0.9999754163577318,96.58280237734405
9.84,0.9999753515825645,96.501928690364
9.847999999999999,0.9999752864549368,96.42102340998032
9.856,0.9999752209697582,96.34008651578941
9.864,0.9999751551219654,96.25911798742614
9.872,0.9999750889065246,96.17811780456398
