freq,mag,phase
6.0,0.9999957861400564,-156.34503157860536
6.008,0.9999961051403635,-156.74689462471503
6.016,0.9999964104579726,-157.14850176950034
6.024,0.9999967023816064,-157.549855883291
6.032,0.9999969811963275,-157.9509598478233
6.04,0.9999972471835591,-158.3518165560521
6.048,0.9999975006211088,-158.7524289119653
6.056,0.9999977417831877,-159.15279983039966
6.064,0.9999979709404365,-159.55293223685916
6.072,0.9999981883599475,-159.95282906733547
6.08,0.9999983943052857,-160.3524932681298
6.088,0.9999985890365157,-160.7519277956772
6.096,0.999998772810222,-161.1511356163729
6.104,0.9999989458795348,-161.55011970640012
6.112,0.9999991084941496,-161.9488830515602
6.12,0.9999992609003573,-162.34742864710464
6.128,0.9999994033410647,-162.74575949756874
6.136,0.9999995360558179,-163.14387861660754
6.144,0.9999996592808268,-163.5417890268332
6.152,0.9999997732489933,-163.93949375965454
6.16,0.9999998781899299,-164.33699585511835
6.168,0.9999999743299879,-164.73429836175245
6.176,1.0,-165.13140433641053
6.184,0.9999999999999999,-165.52831684411893
6.192,0.9999999999999999,-165.92503895792495
6.2,1.0,-166.3215737587472
6.208,1.0,-166.7179243352274
6.216,1.0,-167.11409378358397
6.224,1.0,-167.51008520746754
6.232,1.0,-167.90590171781778
6.24,0.9999999999999999,-168.30154643272223
6.248,1.0,-168.69702247727616
6.256,1.0,-169.09233298344512
6.264,0.9999999999999999,-169.4874810899279
6.272,1.0,-169.88246994202188
6.28,1.0,-170.27730269148947
6.288,0.9999999999999999,-170.67198249642658
6.296,0.9999999999999999,-171.06651252113198
6.304,0.9999999999999998,-171.46089593597875
6.312,1.0000000000000002,-171.8551359172867
6.32,0.9999999999999999,-172.24923564719663
6.328,0.9999999999999999,-172.64319831354592
6.336,1.0,-173.03702710974542
6.344,1.0,-173.43072523465779
6.352,1.0,-173.82429589247718
6.36,1.0,-174.21774229261064
6.368,1.0,-174.61106764955989
6.376,1.0,-175.00427518280586
6.384,0.9999999853110165,-175.39736811669286
6.392,0.9999999144672983,-175.7903496803155
6.4,0.9999998400803526,-176.1832231074058
6.408,0.999999762290316,-176.57599163622223
6.416,0.9999996812348418,-176.9686585094394
6.424,0.9999995970491206,-177.36122697403906
6.432,0.9999995098659055,-177.75370028120284
6.44,0.9999994198155371,-178.1460816862052
6.448,0.9999993270259702,-178.53837444830822
6.456,0.9999992316227921,-178.93058183065688
6.464,0.9999991337292534,-179.32270710017605
6.472,0.9999990334662902,-179.71475352746813
6.48,0.9999989309525431,179.89327561328847
6.4879999999999995,0.9999988263043885,179.5013770444392
6.496,0.9999987196359582,179.10954748495294
6.504,0.9999986110591631,178.71778365052043
6.5120000000000005,0.9999985006837202,178.32608225365126
6.52,0.9999983886171727,177.93444000377085
6.5280000000000005,0.9999982749649131,177.5428536073156
6.536,0.9999981598302103,177.1513197678282
6.5440000000000005,0.9999980433142305,176.75983518605082
6.552,0.9999979255160585,176.36839656001897
6.5600000000000005,0.9999978065327234,175.97700058515306
6.568,0.9999976864592228,175.58564395435062
6.5760000000000005,0.999997565388541,175.19432335807633
6.584,0.9999974434116756,174.80303548445278
6.592,0.9999973206176589,174.41177701934933
6.6,0.9999971970935791,174.0205446464709
6.608,0.9999970729246055,173.62933504744603
6.616,0.9999969481940078,173.2381449019143
6.624,0.9999968229831794,172.84697088761277
6.632,0.9999966973716597,172.45580968046255
6.64,0.9999965714371569,172.06465795465417
6.648,0.999996445255566,171.67351238273253
6.656,0.9999963189009945,171.28236963568173
6.664,0.9999961924457816,170.8912263830089
6.672,0.9999960659605218,170.50007929282785
6.68,0.9999959395140833,170.10892503194208
6.688,0.9999958131736305,169.7177602659276
6.696,0.9999956870046438,169.32658165921504
6.704,0.999995561070945,168.9353858751718
6.712,0.9999954354347117,168.5441695761833
6.72,0.9999953101564997,168.15292942373438
6.728,0.999995185295268,167.76166207849016
6.736,0.9999950609083933,167.37036420037657
6.744,0.9999949370516928,166.97903244866075
6.752,0.9999948137794451,166.58766348203108
6.76,0.9999946911444075,166.19625395867715
6.768,0.9999945691978384,165.8048005363694
6.776,0.9999944479895151,165.41329987253852
6.784,0.9999943275677553,165.02174862435493
6.792,0.9999942079794338,164.6301434488079
6.8,0.9999940892700054,164.2384810027848
6.808,0.9999939714835197,163.84675794314998
6.816,0.9999938546626431,163.45497092682382
6.824,0.9999937388486786,163.06311661086175
6.832,0.9999936240815803,162.67119165253297
6.84,0.9999935103999761,162.27919270939958
6.848,0.999993397841184,161.88711643939547
6.856,0.9999932864412315,161.4949595009053
6.864,0.9999931762348735,161.1027185528438
6.872,0.9999930672556094,160.7103902547347
6.88,0.9999929595357027,160.3179712667902
6.888,0.9999928531061977,159.9254582499905
6.896,0.9999927479969379,159.53284786616342
6.904,0.9999926442365822,159.14013677806412
6.912,0.9999925418526242,158.74732164945527
6.92,0.9999924408714082,158.35439914518741
6.928,0.9999923413181461,157.96136593127937
6.936,0.9999922432169358,157.5682186749992
6.944,0.9999921465907771,157.17495404494525
6.952,0.9999920514615884,156.78156871112773
6.96,0.9999919578502237,156.3880593450505
6.968,0.9999918657764892,155.99442261979328
6.976,0.9999917752591593,155.60065521009432
6.984,0.999991686315993,155.20675379243326
6.992,0.9999915989637503,154.81271504511483
7.0,0.9999915132182072,154.4185356483526
7.008,0.9999914290941733,154.02421228435344
7.016,0.9999913466055063,153.62974163740262
7.024,0.9999912657651272,153.23512039394902
7.032,0.9999911865850378,152.84034524269137
7.04,0.9999911090763332,152.4454128746647
7.048,0.9999910332492198,152.05031998332763
7.056,0.9999909591130287,151.6550632646502
7.064,0.9999908866762315,151.2596394172023
7.072,0.9999908159464551,150.8640451422428
7.08,0.9999907469304948,150.4682771438094
7.088,0.9999906796343335,150.07233212880925
7.096,0.9999906140631498,149.67620680711
7.104,0.9999905502213383,149.27989789163206
7.112,0.9999904881125193,148.8834020984413
7.12,0.9999904277395573,148.4867161468427
7.128,0.9999903691045706,148.08983675947462
7.136,0.9999903122089487,147.6927606624043
7.144,0.9999902570533648,147.29548458522387
7.152,0.9999902036377891,146.89800526114732
7.16,0.999990151961503,146.5003194271086
7.168,0.9999901020231121,146.10242382386025
7.176,0.9999900538205608,145.7043151960734
7.184,0.9999900073511441,145.30599029243842
7.192,0.9999899626115213,144.90744586576687
7.2,0.9999899195977289,144.50867867309407
7.208,0.9999898783051939,144.10968547578304
7.216,0.9999898387287462,143.71046303962933
7.224,0.9999898008626321,143.31100813496724
7.232,0.9999897647005253,142.91131753677632
7.24,0.999989730235541,142.5113880247902
7.248,0.999989697460248,142.1112163836054
7.256,0.9999896663666797,141.7107994027922
7.264,0.9999896369463479,141.31013387700594
7.272,0.9999896091902539,140.90921660610013
7.28,0.9999895830889017,140.50804439524057
7.288,0.999989558632307,140.1066140550204
7.296,0.9999895358100132,139.7049224015771
7.304,0.9999895146110992,139.30296625670994
7.312,0.9999894950241929,138.90074244799942
7.32,0.9999894770374832,138.49824780892774
7.328,0.9999894606387288,138.09547917900062
7.336,0.9999894458152725,137.6924334038704
7.344,0.9999894325540504,137.2891073354608
7.352,0.9999894208416039,136.88549783209274
7.36,0.9999894106640896,136.4816017586118
7.368,0.9999894020072928,136.07741598651702
7.376,0.9999893948566343,135.67293739409135
7.384,0.9999893891971837,135.26816286653312
7.392,0.9999893850136702,134.86308929608953
7.4,0.999989382290492,134.45771358219125
7.4079999999999995,0.9999893810117274,134.052032631589
7.416,0.9999893811611442,133.64604335849077
7.4239999999999995,0.9999893827222106,133.23974268470207
7.432,0.9999893856781067,132.83312753976602
7.4399999999999995,0.9999893900117308,132.42619486110675
7.448,0.9999893957057139,132.01894159417276
7.4559999999999995,0.9999894027424249,131.6113646925836
7.464,0.9999894111039858,131.20346111827638
7.4719999999999995,0.9999894207722755,130.79522784165587
7.48,0.9999894317289443,130.38666184174446
7.4879999999999995,0.9999894439554204,129.97776010633515
7.496,0.999989457432921,129.56851963214558
7.504,0.9999894721424601,129.15893742497408
7.5120000000000005,0.9999894880648595,128.74901049985698
7.52,0.9999895051807564,128.33873588122853
7.5280000000000005,0.9999895234706137,127.92811060308165
7.536,0.9999895429147284,127.51713170913119
7.5440000000000005,0.9999895634932398,127.10579625297837
7.552,0.9999895851861401,126.69410129827774
7.5600000000000005,0.9999896079732821,126.28204391890512
7.568,0.9999896318343869,125.8696211991283
7.5760000000000005,0.9999896567490546,125.45683023377849
7.584,0.9999896826967711,125.04366812842498
7.5920000000000005,0.9999897096569176,124.63013199955006
7.6,0.9999897376087773,124.21621897472764
7.6080000000000005,0.9999897665315468,123.80192619280183
7.616,0.9999897964043407,123.38725080406915
7.6240000000000006,0.9999898272062013,122.97218997046147
7.632,0.9999898589161074,122.55674086573148
7.640000000000001,0.999989891512981,122.14090067563967
7.648,0.9999899249756959,121.72466659814388
7.656000000000001,0.9999899592830844,121.30803584358979
7.664,0.9999899944139465,120.89100563490469
7.672,0.999990030347057,120.47357320779169
7.68,0.9999900670611717,120.05573581092735
7.688,0.999990104535037,119.63749070616016
7.696,0.9999901427473956,119.21883516871182
7.704,0.999990181676995,118.79976648737973
7.712,0.999990221302594,118.3802819647423
7.72,0.9999902616029701,117.96037891736539
7.728,0.9999903025569262,117.54005467601161
7.736,0.9999903441432986,117.11930658585084
7.744,0.9999903863409624,116.69813200667332
7.752,0.9999904291288398,116.27652831310442
7.76,0.9999904724859061,115.85449289482152
7.768,0.9999905163911966,115.43202315677296
7.776,0.9999905608238131,115.00911651939879
7.784,0.9999906057629299,114.58577041885381
7.792,0.9999906511878014,114.1619823072324
7.8,0.9999906970777684,113.73774965279539
7.808,0.9999907434122632,113.31306994019896
7.816,0.999990790170816,112.88794067072553
7.824,0.9999908373330633,112.46235936251668
7.832,0.9999908848787508,112.03632355080791
7.84,0.9999909327877412,111.60983078816561
7.848,0.99999098104002,111.18287864472576
7.856,0.9999910296157009,110.75546470843479
7.864,0.9999910784950318,110.3275865852923
7.872,0.9999911276584004,109.89924189959574
7.88,0.99999117708634,109.4704282941871
7.888,0.9999912267595349,109.04114343070144
7.896,0.9999912766588256,108.61138498981735
7.904,0.9999913267652143,108.18115067150943
7.912,0.9999913770598708,107.75043819530248
7.92,0.9999914275241367,107.31924530052784
7.928,0.9999914781395314,106.88756974658124
7.936,0.9999915288877564,106.4554093131829
7.944,0.9999915797507012,106.02276180063915
7.952,0.9999916307104467,105.58962503010594
7.96,0.9999916817492721,105.15599684385438
7.968,0.9999917328496573,104.72187510553775
7.976,0.9999917839942902,104.28725770046046
7.984,0.9999918351660687,103.85214253584866
7.992,0.9999918863481064,103.41652754112268
8.0,0.9999919375237375,102.98041066817106
8.008,0.9999919886765197,102.54378989162636
8.016,0.9999920397902401,102.10666320914228
8.024000000000001,0.9999920908489183,101.6690286416732
8.032,0.99999214183681,101.23088423375441
8.04,0.999992192738413,100.79222805378427
8.048,0.9999922435384683,100.353058194308
8.056000000000001,0.9999922942219669,99.91337277230319
8.064,0.999992344774151,99.4731699294662
8.072,0.9999923951805189,99.03244783250028
8.08,0.9999924454268289,98.59120467340522
8.088000000000001,0.9999924954991019,98.14943866976847
8.096,0.9999925453836249,97.70714806505734
8.104,0.999992595066955,97.2643311289123
8.112,0.9999926445359216,96.82098615744205
8.120000000000001,0.9999926937776306,96.37711147351982
8.128,0.999992742779467,95.9327054270804
8.136,0.9999927915290969,95.48776639541843
8.144,0.9999928400144724,95.042292783488
8.152000000000001,0.9999928882238321,94.59628302420346
8.16,0.9999929361457054,94.14973557874089
8.168,0.9999929837689143,93.70264893684028
8.176,0.9999930310825766,93.25502161710932
8.184000000000001,0.9999930780761069,92.80685216732788
8.192,0.9999931247392212,92.35813916475293
8.2,0.999993171061936,91.90888121642428
8.208,0.9999932170345737,91.45907695947142
8.216000000000001,0.9999932626477616,91.00872506142092
8.224,0.9999933078924366,90.5578242205042
8.232,0.9999933527598449,90.10637316596572
8.24,0.9999933972415442,89.65437065837202
8.248000000000001,0.9999934413294072,89.2018154899214
8.256,0.999993485015619,88.74870648475328
8.264,0.9999935282926838,88.29504249925812
8.272,0.9999935711534218,87.84082242238776
8.280000000000001,0.9999936135909726,87.38604517596616
8.288,0.9999936555987958,86.93070971499962
8.296,0.9999936971706727,86.47481502798728
8.304,0.9999937383007051,86.01836013723164
8.312,0.9999937789833196,85.56134409914962
8.32,0.9999938192132658,85.10376600458189
8.328,0.9999938589856161,84.64562497910379
8.336,0.9999938982957692,84.18692018333425
8.344,0.9999939371394486,83.72765081324594
8.352,0.9999939755127026,83.2678161004733
8.36,0.9999940134119055,82.80741531262163
8.368,0.999994050833758,82.34644775357404
8.376,0.9999940877752851,81.88491276379919
8.384,0.9999941242338384,81.42280972065663
8.392,0.9999941602070942,80.96013803870305
8.4,0.9999941956930548,80.4968971699957
8.408,0.9999942306900459,80.03308660439659
8.416,0.9999942651967175,79.56870586987381
8.424,0.9999942992120433,79.10375453280342
8.432,0.9999943327353198,78.63823219826814
8.44,0.9999943657661645,78.17213851035659
8.448,0.9999943983045154,77.70547315245906
8.456,0.9999944303506311,77.23823584756369
8.464,0.9999944619050876,76.77042635854902
8.472,0.9999944929687786,76.30204448847661
8.48,0.9999945235429132,75.83309008088007
8.488,0.9999945536290145,75.36356302005372
8.496,0.9999945832289177,74.89346323133768
8.504,0.9999946123447688,74.42279068140222
8.512,0.9999946409790234,73.95154537852841
8.52,0.9999946691344425,73.47972737288795
8.528,0.999994696814092,73.00733675681882
8.536,0.9999947240213414,72.53437366510008
8.544,0.9999947507598589,72.06083827522235
8.552,0.9999947770336104,71.58673080765703
8.56,0.999994802846858,71.11205152612116
8.568,0.9999948282041552,70.63680073784074
8.576,0.9999948531103454,70.16097879380935
8.584,0.9999948775705587,69.68458608904527
8.592,0.9999949015902087,69.20762306284351
8.6,0.9999949251749903,68.73009019902611
8.608,0.9999949483308747,68.25198802618716
8.616,0.9999949710641078,67.77331711793592
8.624,0.9999949933812063,67.29407809313437
8.632,0.9999950152889535,66.81427161613263
8.64,0.9999950367943958,66.33389839699863
8.648,0.9999950579048394,65.85295919174533
8.656,0.9999950786278465,65.37145480255211
8.664,0.9999950989712308,64.88938607798333
8.672,0.9999951189430528,64.40675391320092
8.68,0.9999951385516174,63.92355925017387
8.688,0.9999951578054681,63.439803077881486
8.696,0.9999951767133828,62.955486432513396
8.704,0.9999951952843695,62.47061039766304
8.712,0.999995213527662,61.98517610451764
8.72,0.9999952314527143,61.4991847320415
8.728,0.9999952490691968,61.01263750715549
8.736,0.9999952663869902,60.52553570490961
8.744,0.9999952834161816,60.037880648651566
8.752,0.9999953001670584,59.54967371018818
8.76,0.9999953166501038,59.060916309942556
8.768,0.9999953328759906,58.57160991710379
8.776,0.999995348855577,58.081756049772345
8.784,0.9999953645998999,57.59135627509751
8.792,0.9999953801201704,57.100412209410635
8.8,0.9999953954277665,56.608925518349956
8.808,0.9999954105342287,56.11689791698089
8.815999999999999,0.9999954254512536,55.624331169908054
8.824,0.9999954401906886,55.131227091381795
8.832,0.9999954547645242,54.637587545397665
8.84,0.9999954691848897,54.143414445788636
8.847999999999999,0.9999954834640453,53.648709756310325
8.856,0.9999954976143774,53.15347549071937
8.864,0.9999955116483911,52.6577137128448
8.872,0.9999955255787042,52.16142653665145
8.879999999999999,0.9999955394180402,51.664616126295876
8.888,0.9999955531792226,51.167284696175386
8.896,0.9999955668751671,50.669434510969104
8.904,0.9999955805188756,50.17106788567114
8.911999999999999,0.9999955941234293,49.67218718561555
8.92,0.9999956077019818,49.172794826494034
8.928,0.9999956212677518,48.672893274365535
8.936,0.9999956348340159,48.172485045657
8.943999999999999,0.9999956484141035,47.671572707156216
8.952,0.9999956620213863,47.17015887599645
8.96,0.9999956756692745,46.66824621963281
8.968,0.9999956893712075,46.16583745580955
8.975999999999999,0.9999957031406472,45.662935352518794
8.984,0.9999957169910707,45.15954272795094
8.992,0.999995730935964,44.65566245043631
9.0,0.9999957449888119,44.15129743837751
9.008,0.9999957591630939,43.64645066017275
9.016,0.9999957734722742,43.14112513413064
9.024000000000001,0.9999957879297956,42.63532392837589
9.032,0.9999958025490714,42.12905016074532
9.04,0.9999958173434783,41.62230699867469
9.048,0.9999958323263485,41.11509765907661
9.056000000000001,0.9999958475109622,40.607425408209195
9.064,0.9999958629105397,40.09929356153457
9.072,0.9999958785382347,39.59070548356823
9.08,0.999995894407126,39.081664587718954
9.088000000000001,0.9999959105302098,38.5721743361194
9.096,0.9999959269203929,38.06223823944636
9.104,0.999995943590484,37.551859856731504
9.112,0.9999959605531865,37.04104279516268
9.120000000000001,0.9999959778210922,36.52979070987555
9.128,0.9999959954066707,36.01810730373481
9.136,0.9999960133222654,35.50599632710574
9.144,0.9999960315800834,34.99346157761618
9.152000000000001,0.9999960501921891,34.48050689990861
9.16,0.9999960691704965,33.96713618538187
9.168,0.9999960885267616,33.45335337192297
9.176,0.9999961082725748,32.93916244362927
9.184000000000001,0.9999961284193539,32.42456743052075
9.192,0.999996148978337,31.909572408241846
9.2,0.9999961699605745,31.394181497753245
9.208,0.9999961913769219,30.87839886501409
9.216000000000001,0.9999962132380332,30.362228720654404
9.224,0.9999962355543528,29.845675319636737
9.232,0.9999962583361099,29.328742960908105
9.24,0.9999962815933092,28.81143598704232
9.248000000000001,0.9999963053357273,28.29375878387234
9.256,0.9999963295729013,27.775715780112304
9.264,0.9999963543141263,27.25731144696963
9.272,0.999996379568446,26.73855029774763
9.280000000000001,0.9999964053446471,26.219436887438505
9.288,0.9999964316512526,25.699975812305812
9.296,0.999996458496514,25.18017170945742
9.304,0.9999964858884077,24.660029256409004
9.312000000000001,0.9999965138346261,24.13955317063808
9.32,0.9999965423425725,23.618748209127787
9.328,0.9999965714193547,23.097619167901357
9.336,0.9999966010717795,22.576170881547288
9.344,0.9999966313063464,22.05440822273543
9.352,0.9999966621292412,21.532336101722574
9.36,0.9999966935463318,21.00995946585034
9.368,0.9999967255631613,20.487283299032192
9.376,0.9999967581849436,19.964312621233137
9.384,0.9999967914165571,19.441052487938624
9.392,0.9999968252625404,18.917507989616222
9.4,0.9999968597270871,18.39368425116681
9.408,0.9999968948140399,17.869586431368813
9.416,0.9999969305268882,17.34521972231189
9.424,0.9999969668687606,16.82058934882409
9.432,0.9999970038424223,16.29570056788875
9.44,0.99999704145027,15.770558668054912
9.448,0.9999970796943287,15.245168968837648
9.456,0.9999971185762463,14.71953682011241
9.464,0.9999971580972903,14.193667601499463
9.472,0.9999971982583447,13.667566721742459
9.48,0.9999972390599058,13.141239618077522
9.488,0.9999972805020787,12.61469175559662
9.496,0.9999973225845747,12.08792862660181
9.504,0.9999973653067075,11.560955749954154
9.512,0.9999974086673916,11.033778670413577
9.52,0.9999974526651378,10.506402957973815
9.528,0.9999974972980515,9.978834207188813
9.536,0.999997542563832,9.45107803649411
9.544,0.9999975884597663,8.92314008752035
9.552,0.9999976349827319,8.395026024402034
9.56,0.999997682129191,7.866741533078591
9.568,0.9999977298951915,7.338292320591279
9.576,0.9999977782763647,6.809684114372483
9.584,0.999997827267923,6.280922661531429
9.592,0.9999978768646608,5.752013728132517
9.6,0.9999979270609523,5.222963098470528
9.608,0.9999979778507505,4.693776574338771
9.616,0.9999980292275883,4.16445997429444
