freq,mag,phase
6.0,1.0000696201458337,-94.76920768075418
6.005586432,1.000034875783661,-95.03006153756348
6.011173376,0.9999982765101859,-95.29039887383233
6.016759808,0.9999621829170148,-95.55024398031524
6.02234624,0.9999284846128964,-95.80961927325302
6.027933184,0.9998991680592076,-96.06856134988358
6.033519616,0.9998759907488587,-96.32716636985646
6.039106048,0.9998603728178006,-96.58549496966677
6.044692992,0.9998530505084675,-96.84367175916911
6.050279424,0.9998546048293719,-97.10181377841266
6.055865856,0.9998647788662006,-97.36002240113935
6.061452288,0.9998831557984759,-97.61847136851057
6.067039232,0.9999085346312466,-97.87723632578415
6.072625664,0.9999395734341926,-98.1363519665496
6.078212096,0.9999743945987726,-98.39599279609318
6.08379904,1.0000110562448359,-98.65608587265974
6.089385472,1.0000474702725302,-98.91671355142792
6.094971904,1.000081439480872,-99.17782675298332
6.100558848,1.0001109565173383,-99.439407969887
6.10614528,1.0001345417874687,-99.70133704720054
6.111731712,1.0001506002117648,-99.96358897556776
6.117318656,1.0001582564410652,-100.22598722267948
6.122905088,1.0001572317736582,-100.48842743190374
6.12849152,1.000147419095095,-100.75079463182531
6.134078464,1.0001293048932949,-101.01299910096886
6.139664896,1.000104070383718,-101.27493186371196
6.145251328,1.0000732716790346,-101.53642732554395
6.15083776,1.0000383896506122,-101.79752952083788
6.156424704,1.0000016744312734,-102.05812407612034
6.162011136,0.9999650841289642,-102.31818740717439
6.167597568,0.9999309195906617,-102.5777995699815
6.173184512,0.9999010575680622,-102.83697135453275
6.178770944,0.9998771885665437,-103.09575529123529
6.184357376,0.9998607295427545,-103.35429471066091
6.18994432,0.9998526464996436,-103.6126575049638
6.195530752,0.9998532915035493,-103.87097671385536
6.201117184,0.9998627696860053,-104.12937507619152
6.206704128,0.9998805481426651,-104.3879613604377
6.21229056,0.9999055925688958,-104.64687585473474
6.217876992,0.9999363077990852,-104.90615605406036
6.223463936,0.9999712426643328,-105.16590808644058
6.229050368,1.000007959644991,-105.42616893936456
6.2346368,1.0000447168917566,-105.68692816683046
6.240223232,1.0000791880874986,-105.9482098049058
6.245810176,1.0001093889019932,-106.20992279777208
6.251396608,1.000133722088304,-106.47202283302902
6.25698304,1.0001505296170536,-106.73444674361141
6.262569984,1.000159130422101,-106.9970282172575
6.268156416,1.0001588149084173,-107.25968707227693
6.273742848,1.0001496571078239,-107.52230954405314
6.279329792,1.000132132651796,-107.7847037962471
6.284916224,1.0001073441729693,-108.04682082442045
6.290502656,1.0000766792514724,-108.30859750480005
6.2960896,1.000041906799605,-108.56990921972313
6.301676032,1.000005048764474,-108.8307211170584
6.307262464,0.9999681433422777,-109.0910425890104
6.312849408,0.9999334234790815,-109.35086068242911
6.31843584,0.9999029079335234,-109.610258617158
6.324022272,0.9998782878974277,-109.86924126943995
6.329608704,0.9998609471880255,-110.12796190698681
6.335195648,0.999852073080388,-110.38652471670804
6.34078208,0.9998519541170084,-110.64500713133134
6.346368512,0.9998607961414466,-110.90355626498442
6.351955456,0.9998780379213339,-111.16229310492425
6.357541888,0.9999026250521384,-111.42134566390612
6.36312832,0.9999331929573936,-111.68076467275537
6.368715264,0.9999679748994152,-111.94064325921131
6.374301696,1.0000049650578637,-112.20104765663129
6.379888128,1.0000419479160512,-112.46194268779888
6.385475072,1.0000769490546082,-112.7233654045489
6.391061504,1.0001078362821814,-112.98525338871951
6.396647936,1.0001327857306122,-113.24753845584972
6.40223488,1.0001504475923861,-113.51010852933028
6.407821312,1.0001598936447742,-113.77287876916202
6.413407744,1.0001602691008102,-114.03571976740176
6.418994176,1.0001518888661995,-114.29852414054845
6.42458112,1.0001349962876398,-114.56115508131093
6.430167552,1.0001106140813598,-114.82350444983096
6.435753984,1.0000801573101616,-115.08545904513448
6.441340928,1.00004544588271,-115.34700548269333
6.44692736,1.0000084151765334,-115.60807964776754
6.452513792,0.9999712117120283,-115.8685880064742
6.458100736,0.9999359778822003,-116.12863940161834
6.463687168,0.9999047759875349,-116.38823497795535
6.4692736,0.9998794160043032,-116.64739815085245
6.474860544,0.9998613584992373,-116.90630634587535
6.480446976,0.9998516479539677,-117.16503032013269
6.486033408,0.9998508188228388,-117.4236921261471
6.491620352,0.9998588588159971,-117.68241542364534
6.497206784,0.9998754988419548,-117.94128454962477
6.502793216,0.999899647482013,-118.20044509598877
6.508379648,0.9999299485650526,-118.45998934737419
6.513966592,0.9999646289709502,-118.7200211375306
6.519553024,1.0000017316728607,-118.98053203835634
6.525139456,1.000039091368941,-119.2415575463402
6.5307264,1.0000745856482702,-119.50311091022259
6.536312832,1.0001060957796446,-119.76512507397418
6.541899264,1.0001318976785862,-120.02756291364592
6.547486208,1.0001503803651264,-120.29029996761938
6.55307264,1.0001605367010291,-120.55324924324687
6.558659072,1.0001617623716825,-120.81626636901463
6.564246016,1.000154020724776,-121.0792661380206
6.569832448,1.0001377595131409,-121.34209351027893
6.57541888,1.0001137969178615,-121.60465828676773
6.581005824,1.0000836992236641,-121.86683762637311
6.586592256,1.0000490086539668,-122.1286112382371
6.592178688,1.0000118611432964,-122.3898584578853
6.59776512,0.9999744030276577,-122.65061268138622
6.603352064,0.999938587470754,-122.91085558120136
6.608938496,0.999906814187087,-123.17063138762153
6.614524928,0.999880682035758,-123.4300412541461
6.620111872,0.9998617393740512,-123.68910979780044
6.625698304,0.9998512033107012,-123.94795955688062
6.631284736,0.9998495314029062,-124.2067841912017
6.63687168,0.9998569102094959,-124.4656283739437
6.642458112,0.9998728973889328,-124.72464525381561
6.648044544,0.9998966407317142,-124.98395679619918
6.653631488,0.9999265647816512,-125.24361216810509
6.65921792,0.9999612621072785,-125.50372730359085
6.664804352,0.9999985343097452,-125.76436540881124
6.670391296,1.0000361553938528,-126.02554757737647
6.675977728,1.000072136192554,-126.28721136185588
6.68156416,1.000104306543353,-126.54935857737446
6.687150592,1.0001308077862234,-126.81192032887425
6.692737536,1.0001501168427798,-127.07483992859203
6.698323968,1.0001611347113917,-127.33790986418998
6.7039104,1.0001631288997639,-127.60110725352038
6.709497344,1.0001561844504712,-127.86430400760125
6.715083776,1.000140454693235,-128.12731923170202
6.720670208,1.0001170195264206,-128.3900926501001
6.726257152,1.0000871522396975,-128.65249615459715
6.731843584,1.000052579465351,-128.91442998706344
6.737430016,1.0000153132611733,-129.17592301977828
6.74301696,0.9999775270453359,-129.43686208298757
6.748603392,0.9999412450632925,-129.69730569382529
6.754189824,0.9999088061626636,-129.9572826045647
6.759776768,0.9998818965472887,-130.21683772377352
6.7653632,0.999862187788065,-130.47609640762778
6.770949632,0.9998507752886214,-130.73513601702763
6.776536064,0.9998482726954384,-130.99406703614022
6.782123008,0.9998549658474216,-131.2530584359971
6.78770944,0.9998703115961853,-131.51219593453152
6.793295872,0.9998935835588888,-131.77160866371202
6.798882816,0.9999233386520426,-132.0313782985547
6.804469248,0.9999579199953436,-132.29162363407877
6.81005568,0.9999952318020985,-132.55236976565112
6.815642624,1.0000331931945028,-132.8136343671647
6.821229056,1.0000696070620636,-133.0754298593886
6.826815488,1.0001024928086126,-133.33768442112492
6.832402432,1.0001297396634625,-133.60038138246887
6.837988864,1.0001498079923583,-133.8634224982947
6.843575296,1.000161728565923,-134.12666345887106
6.84916224,1.0001645989398835,-134.39002630715692
6.854748672,1.0001582948367542,-134.65339813608628
6.860335104,1.000143287894019,-134.91660588068254
6.865921536,1.0001203337593112,-135.1795483480826
6.87150848,1.0000907467673084,-135.44214256951975
6.877094912,1.0000561951806326,-135.70431594805643
6.882681344,1.000018902896124,-135.96595970114274
6.888268288,0.9999806891823951,-136.22710319209088
6.89385472,0.9999439932444352,-136.48772700604525
6.899441152,0.9999109212874182,-136.7479087563292
6.905028096,0.9998833010753623,-137.00764225797508
6.910614528,0.9998627049989767,-137.26704081215672
6.91620096,0.9998503719098651,-137.52622907370406
6.921787904,0.9998470989760965,-137.7853099636298
6.927374336,0.9998530475126576,-138.04439243078792
6.932960768,0.9998677245356441,-138.30365525534103
6.938547712,0.9998905238673426,-138.56315974356593
6.944134144,0.9999199793351738,-138.82304623689603
6.949720576,0.9999543727244845,-139.08338759872666
6.955307008,0.9999918356244736,-139.34422293227206
6.960893952,1.0000301629263815,-139.60558525236323
6.966480384,1.0000670093313457,-139.86749370288567
6.972066816,1.000100510878635,-140.12986810965037
6.97765376,1.000128497452794,-140.39266581506763
6.983240192,1.0001495313491042,-140.6558374325944
6.988826624,1.0001621780119487,-140.9192525153633
6.994413568,1.0001659281167568,-141.18277862123955
7.0,1.0001603958703769,-141.44628280806242
7.005586432,1.000146096734426,-141.70967967176372
7.011173376,1.000123490027334,-141.97279101133032
7.016759808,1.000094204134877,-142.23557035084042
7.02234624,1.000059824667175,-142.49792093871434
7.027933184,1.000022390998944,-142.75976974669874
7.033519616,0.9999839759319088,-143.02109960182898
7.039106048,0.9999467781275958,-143.28190951646994
7.044692992,0.9999130831904892,-143.54222958070886
7.050279424,0.9998846194222597,-143.80211447359306
7.055865856,0.9998632834515684,-144.06168657853073
7.061452288,0.9998501331805854,-144.321013341272
7.067039232,0.9998460215718099,-144.5802147138192
7.072625664,0.9998510815305152,-144.83944178987608
7.078212096,0.9998652487941709,-145.09879403827077
7.08379904,0.9998873909966914,-145.35840214765366
7.089385472,0.9999165188787619,-145.61838951458648
7.094971904,0.9999508346996875,-145.87879399662458
7.100558848,0.9999883691592882,-146.13970173152535
7.10614528,1.0000269812538065,-146.40115643929553
7.111731712,1.0000643908880424,-146.66316156132945
7.117318656,1.0000985353145795,-146.9256414115278
7.122905088,1.000127322719589,-147.18856708136144
7.12849152,1.000149123927414,-147.4518441476606
7.134078464,1.000162740094095,-147.71537649638464
7.139664896,1.0001672563597965,-147.97904039501464
7.145251328,1.0001625565290433,-148.24270676419823
7.15083776,1.000148805974034,-148.50626206839067
7.156424704,1.00012679779235,-148.76957578791988
7.162011136,1.0000978438260837,-149.03251595468163
7.167597568,1.0000635883986715,-149.29505331523447
7.173184512,1.0000260605305884,-149.55707110858324
7.178770944,0.999987292613776,-149.81858213270314
7.184357376,0.9999496623362388,-150.0795629485318
7.18994432,0.9999151862718487,-150.3400507197409
7.195530752,0.9998861003747629,-150.6000871596333
7.201117184,0.9998638702330798,-150.85979215743887
7.206704128,0.9998498736588814,-151.11925470453718
7.21229056,0.9998448082329103,-151.37856546159355
7.217876992,0.9998491874681439,-151.63788731569838
7.223463936,0.9998625992176556,-151.89733524986664
7.229050368,0.9998842985743143,-152.15705016076203
7.2346368,0.9999130675612548,-152.41708304620343
7.240223232,0.9999473199067822,-152.67759587020592
7.245810176,0.9999848963384301,-152.93856712518007
7.251396608,1.0000238477200836,-153.20011969585275
7.25698304,1.0000617827998821,-153.46215863231538
7.262569984,1.0000964136884491,-153.72474578661766
7.268156416,1.0001259351183167,-153.98776653955966
7.273742848,1.0001485993048451,-154.25116775569927
7.279329792,1.0001630793227394,-154.51481374341387
7.284916224,1.0001685583354367,-154.77862300124715
7.290502656,1.0001645341337726,-155.04242425658697
7.2960896,1.0001514991748668,-155.3061364995645
7.301676032,1.000130070740441,-155.56958465423702
7.307262464,1.0001014312457432,-155.83269693476043
7.312849408,1.0000672832410007,-156.09539727963508
7.31843584,1.0000296483592692,-156.35760523718884
7.324022272,0.9999906679521764,-156.6192789968736
7.329608704,0.9999525956128469,-156.88041837101267
7.335195648,0.999917519407861,-157.14105197543776
7.34078208,0.9998876167908631,-157.40123955636903
7.346368512,0.9998644687371018,-157.66107944435774
7.351955456,0.9998496227602571,-157.92065019497176
7.357541888,0.9998437325969903,-158.18009594348052
7.36312832,0.9998473052167345,-158.43949515322524
7.368715264,0.9998600041491196,-158.69903464206078
7.374301696,0.999881221216602,-158.95880824295818
7.379888128,0.9999096945545298,-159.2189174572406
7.385475072,0.9999436477761734,-159.47948070766736
7.391061504,0.9999814217783968,-159.74052711513272
7.396647936,1.0000205166453782,-160.00213161587143
7.40223488,1.0000589468928158,-160.26425308101335
7.407821312,1.0000941942748924,-160.52691626378427
7.413407744,1.0001245767408191,-160.79003318328728
7.418994176,1.0001480549241968,-161.05350945804034
7.42458112,1.0001635078672073,-161.31728395030225
7.430167552,1.000169765115939,-161.58121525073494
7.435753984,1.0001666260731386,-161.84515000239472
7.441340928,1.0001542251153297,-162.1089888701569
7.44692736,1.0001333457601314,-162.3726107644397
7.452513792,1.0001050119131707,-162.63588804274602
7.458100736,1.0000710946630398,-162.89874691595128
7.463687168,1.0000333969749342,-163.16111973402192
7.4692736,0.99999409055484,-163.42294533929237
7.474860544,0.9999555082004182,-163.6842219815196
7.480446976,0.9999199141064459,-163.9450082598112
7.486033408,0.9998891471491186,-164.20532476584484
7.491620352,0.9998652359841733,-164.46527990002744
7.497206784,0.9998494388539269,-164.72496731658313
7.502793216,0.9998426558643331,-164.9844963518911
7.508379648,0.9998454460729174,-165.24397676887895
7.513966592,0.9998574369387861,-165.50360923949717
7.519553024,0.9998780912039749,-165.7634381826624
7.525139456,0.9999061725613466,-166.0236022266999
7.5307264,0.999940010682735,-166.28422403454334
7.536312832,0.9999778311281972,-166.54533035426294
7.541899264,1.0000172238405272,-166.80697273577232
7.547486208,1.0000560151908264,-167.06918102877412
7.55307264,1.0000920413236438,-167.33190955072266
7.558659072,1.0001231480483173,-167.595076828391
7.564246016,1.0001475191769,-167.85865277351417
7.569832448,1.000163683812364,-168.12251238707242
7.57541888,1.0001708857369849,-168.38654207540728
7.581005824,1.0001685821228727,-168.65062676554072
7.586592256,1.0001569230795273,-168.91458017197573
7.592178688,1.0001365225826937,-169.1783493675281
7.59776512,1.0001087125116512,-169.44176617313926
7.603352064,1.0000749588144722,-169.70477312631752
7.608938496,1.0000371922706508,-169.96727185193174
7.614524928,0.9999976639285196,-170.22926584839084
7.620111872,0.9999585869572044,-170.49068656032205
7.625698304,0.9999222684276863,-170.75159216226984
7.631284736,0.9998907965593538,-171.0120586879749
7.63687168,0.9998659708227856,-171.27211918426505
7.642458112,0.9998492791484767,-171.53190563578323
7.648044544,0.9998417218810035,-171.7914957542678
7.653631488,0.9998435555311169,-172.05108419131383
7.65921792,0.9998548715544496,-172.31075756069453
7.664804352,0.9998749209953971,-172.57064065773446
7.670391296,0.9999026069143354,-172.83087173453364
7.675977728,0.9999362825439837,-173.09153057412422
7.68156416,0.9999740863839883,-173.35266957593728
7.687150592,1.0000138125789249,-173.61437472963718
7.692737536,1.0000530212407763,-173.87661813237582
7.698323968,1.0000897274724276,-174.1393832508647
7.7039104,1.0001215496844362,-174.40263936567504
7.709497344,1.000146819009495,-174.66628205280026
7.715083776,1.000163908171633,-174.93023697922163
7.720670208,1.00017203689775,-175.194367272077
7.726257152,1.0001705036013717,-175.4585336566894
7.731843584,1.0001597162951708,-175.7226278381547
7.737430016,1.000139849803277,-175.98650650129278
7.74301696,1.000112338315803,-176.25008450047775
7.748603392,1.000078761121705,-176.51322378080798
7.754189824,1.0000409924212406,-176.77586325766725
7.759776768,1.0000012134895706,-177.03797347342584
7.7653632,0.999961642992812,-177.29953726763426
7.770949632,0.9999247457118398,-177.56059723517464
7.776536064,0.9998923655065772,-177.82116033946443
7.782123008,0.9998668265278752,-178.08133202205798
7.78770944,0.9998491348845524,-178.34117607482779
7.793295872,0.9998406832700151,-178.6008759479685
7.798882816,0.9998417007633622,-178.86052787972073
7.804469248,0.999852324501433,-179.1202423153329
7.81005568,0.9998717638161679,-179.380181246727
7.815642624,0.9998990492231434,-179.64043918080648
7.821229056,0.9999325263818514,-179.9011234630069
7.826815488,0.9999703355236386,179.83769470583536
7.832402432,1.0000103365440134,179.5759855704844
7.837988864,1.0000501038154284,179.31370482499955
7.843575296,1.0000873228395961,179.050883405048
7.84916224,1.0001200186270858,178.78757200601513
7.854748672,1.0001460027083378,178.523858997904
7.860335104,1.0001641267326273,178.2598381369077
7.865921536,1.0001731866233323,177.9956418778242
7.87150848,1.0001725564373511,177.73136430981864
7.877094912,1.0001623182247814,177.4671451343972
7.882681344,1.0001432016824972,177.20314968251043
7.888268288,1.0001160167394554,176.93946327606795
7.89385472,1.0000826704134045,176.67618037516604
7.899441152,1.0000448964126645,176.41341774617533
7.905028096,1.0000047866456123,176.15115974256074
7.910614528,0.9999648193283086,175.88946945994175
7.91620096,0.9999272817829569,175.62831622147726
7.921787904,0.9998942303787316,175.36763042324182
7.927374336,0.9998677502537738,175.10738025467668
7.932960768,0.9998491849141462,174.8474434943271
7.938547712,0.9998396902101708,174.5876916883347
7.944134144,0.9998399426377871,174.32798692621427
7.949720576,0.999849779879884,174.0682163843247
7.955307008,0.9998685932187655,173.80826880901296
7.960893952,0.9998954257433832,173.5479838634779
7.966480384,0.9999288062863814,173.28727121018358
7.972066816,0.999966628252503,173.02606914410643
7.97765376,1.0000067631512504,172.7643327885502
7.983240192,1.0000469915258687,172.5020348638615
7.988826624,1.0000848432174712,172.23917900007012
7.994413568,1.0001182499026244,171.9758469976642
8.0,1.0001452454932906,171.7120676976133
8.005586432,1.0001642864470182,171.4479785520374
8.011173376,1.000174140090248,171.18369513392156
8.016759808,1.000174373293936,170.91933413818055
8.02234624,1.0001649753195168,170.65504033892273
8.027933184,1.0001464278449577,170.3909187115245
8.033519616,1.0001197999789937,170.1271086979828
8.039106048,1.000086623138731,169.86374311428594
8.044692992,1.0000487483875975,169.60082400717312
8.050279424,1.00000845287452,169.33846517698564
8.055865856,0.9999679875540959,169.07665345228668
8.061452288,0.999929867603558,168.81539061778872
8.067039232,0.9998960830194901,168.55464022097075
8.072625664,0.9998686338225775,168.29428420645658
8.078212096,0.999849122861336,168.0342912685313
8.08379904,0.9998388118810984,167.77446667137588
8.089385472,0.9998380339614549,167.51473126743758
8.094971904,0.9998470302750502,167.25492770619036
8.100558848,0.9998653552506118,166.99494524165735
8.10614528,0.9998917427940645,166.73464268466623
8.111731712,0.9999248631081722,166.47391818615029
8.117318656,0.9999627291537665,166.21271506223607
8.122905088,1.0000031304975443,165.95097369433896
8.12849152,1.0000437829784228,165.68866687247902
8.134078464,1.000082302683968,165.42578889155868
8.139664896,1.0001164868684829,165.16242603049741
8.145251328,1.0001443719336245,164.89861853281573
8.15083776,1.000164304882198,164.63447864190195
8.156424704,1.0001751775882781,164.3701243225981
8.162011136,1.0001763913506232,164.1056865784735
8.167597568,1.0001677218346046,163.84128668144177
8.173184512,1.000149727844519,163.57706668505884
8.178770944,1.0001235402077502,163.31318167011926
8.184357376,1.000090583657463,163.04967618279275
8.18994432,1.0000527732423732,162.78666430358376
8.195530752,1.0000122305423558,162.52419500351337
8.201117184,0.9999713443528381,162.26227994041722
8.206704128,0.9999325083628243,162.00093172483338
8.21229056,0.9998978336828546,161.7400721604868
8.217876992,0.9998695968581007,161.4796550221067
8.223463936,0.9998491993971664,161.21958488530774
