freq,mag,phase
6.0,0.9999935747007228,-165.0986661138968
6.008,0.9999936969454983,-165.5372289376376
6.016,0.9999938154320723,-165.97559504098174
6.024,0.9999939302170596,-166.41376659407317
6.032,0.9999940413566444,-166.85174578265077
6.04,0.9999941489065776,-167.28953480782187
6.048,0.9999942529221767,-167.72713588583667
6.056,0.999994353458326,-168.1645512478642
6.064,0.9999944505694747,-168.6017831397691
6.072,0.9999945443096383,-169.03883382189028
6.08,0.9999946347323978,-169.47570556882013
6.088,0.9999947218908986,-169.91240066918562
6.096,0.9999948058378502,-170.3489214254303
6.104,0.9999948866255293,-170.78527015359765
6.112,0.999994964305776,-171.22144918311568
6.12,0.9999950389299952,-171.65746085658307
6.128,0.9999951105491572,-172.093307529556
6.136,0.9999951792137987,-172.5289915703369
6.144,0.9999952449740209,-172.96451535976402
6.152,0.9999953078794918,-173.3998812910024
6.16,0.9999953679794471,-173.83509176933637
6.168,0.9999954253226866,-174.2701492119628
6.176,0.9999954799575806,-174.70505604778606
6.184,0.9999955319320651,-175.1398147172141
6.192,0.9999955812936485,-175.5744276719556
6.2,0.9999956280894066,-176.00889737481884
6.208,0.9999956723659846,-176.44322629951122
6.216,0.9999957141696014,-176.87741693044057
6.224,0.9999957535460477,-177.3114717625172
6.232,0.9999957905406854,-177.74539330095797
6.24,0.9999958251984541,-178.17918406109044
6.248,0.999995857563864,-178.6128465681593
6.256,0.9999958876810073,-179.04638335713355
6.264,0.9999959155935493,-179.47979697251472
6.272,0.9999959413447357,-179.91308996814683
6.28,0.9999959649773917,179.65373509297302
6.288,0.9999959865339249,179.22067563888237
6.296,0.9999960060563231,178.78772908884054
6.304,0.9999960235861611,178.35489285351383
6.312,0.9999960391645962,177.92216433516035
6.32,0.9999960528323749,177.489540927813
6.328,0.9999960646298309,177.05702001746187
6.336,0.9999960745968876,176.62459898223509
6.344,0.9999960827730613,176.19227519257876
6.352,0.9999960891974587,175.7600460114359
6.36,0.9999960939087813,175.3279087944237
6.368,0.9999960969453301,174.89586089001074
6.376,0.9999960983450019,174.4638996396919
6.384,0.9999960981452926,174.032022378163
6.392,0.999996096383301,173.6002264334943
6.4,0.9999960930957276,173.16850912730274
6.408,0.9999960883188806,172.73686777492316
6.416,0.9999960820886711,172.30529968557858
6.424,0.9999960744406242,171.87380216254965
6.432,0.9999960654098701,171.44237250334257
6.44,0.9999960550311559,171.01100799985673
6.448,0.9999960433388406,170.57970593855077
6.456,0.999996030366902,170.14846360060812
6.464,0.9999960161489334,169.71727826210116
6.472,0.9999960007181516,169.286147194155
6.48,0.9999959841073939,168.85506766310982
6.4879999999999995,0.9999959663491226,168.4240369306826
6.496,0.999995947475427,167.99305225412775
6.504,0.999995927518025,167.56211088639762
6.5120000000000005,0.9999959065082651,167.13121007630042
6.52,0.9999958844771292,166.70034706865968
6.5280000000000005,0.999995861455232,166.2695191044706
6.536,0.9999958374728293,165.83872342105724
6.5440000000000005,0.9999958125598127,165.40795725222787
6.552,0.9999957867457169,164.97721782843038
6.5600000000000005,0.9999957600597201,164.54650237690586
6.568,0.9999957325306461,164.11580812184278
6.5760000000000005,0.9999957041869666,163.68513228452898
6.584,0.9999956750568041,163.25447208350428
6.592,0.9999956451679332,162.8238247347113
6.6,0.9999956145477836,162.3931874516463
6.608,0.9999955832234415,161.96255744550896
6.616,0.9999955512216524,161.53193192535173
6.624,0.9999955185688237,161.1013080982284
6.632,0.9999954852910263,160.67068316934208
6.64,0.9999954514139967,160.24005434219254
6.648,0.9999954169631402,159.809418818723
6.656,0.9999953819635324,159.37877379946644
6.664,0.9999953464399222,158.94811648369097
6.672,0.9999953104167327,158.51744406954518
6.68,0.9999952739180654,158.0867537542026
6.688,0.999995236967701,157.65604273400564
6.696,0.9999951995891022,157.22530820460932
6.704,0.9999951618054161,156.79454736112416
6.712,0.9999951236394767,156.3637573982589
6.72,0.999995085113807,155.9329355104626
6.728,0.9999950462506197,155.50207889206632
6.736,0.9999950070718235,155.07118473742446
6.744,0.9999949675990208,154.6402502410557
6.752,0.9999949278535135,154.20927259778335
6.76,0.999994887856303,153.77824900287587
6.768,0.9999948476280941,153.34717665218616
6.776,0.9999948071892961,152.9160527422914
6.784,0.9999947665600261,152.48487447063215
6.792,0.9999947257601105,152.05363903565112
6.8,0.9999946848090876,151.62234363693165
6.808,0.99999464372621,151.19098547533616
6.816,0.9999946025304469,150.75956175314428
6.824,0.9999945612404855,150.32806967419032
6.832,0.9999945198747354,149.89650644400118
6.84,0.9999944784513283,149.46486926993356
6.848,0.9999944369881215,149.0331553613112
6.856,0.9999943955027012,148.60136192956193
6.864,0.9999943540123825,148.16948618835448
6.872,0.9999943125342132,147.7375253537353
6.88,0.9999942710849757,147.30547664426496
6.888,0.9999942296811893,146.8733372811549
6.896,0.9999941883391124,146.44110448840365
6.904,0.9999941470747433,146.00877549293318
6.912,0.9999941059038265,145.57634752472532
6.92,0.99999406484185,145.14381781695764
6.928,0.9999940239040497,144.71118360613994
6.936,0.9999939831054125,144.27844213225018
6.944,0.9999939424606769,143.84559063887096
6.952,0.9999939019843358,143.41262637332525
6.96,0.9999938616906395,142.97954658681294
6.968,0.9999938215935963,142.546348534547
6.976,0.9999937817069746,142.11302947588968
6.984,0.9999937420443078,141.67958667448895
6.992,0.9999937026188924,141.24601739841498
7.0,0.9999936634437936,140.8123189202967
7.008,0.9999936245318459,140.3784885174584
7.016,0.9999935858956537,139.94452347205666
7.024,0.9999935475475973,139.51042107121714
7.032,0.9999935094998306,139.07617860717176
7.04,0.9999934717642868,138.641793377396
7.048,0.9999934343526774,138.2072626847463
7.056,0.9999933972764974,137.77258383759767
7.064,0.9999933605470245,137.3377541499817
7.072,0.9999933241753219,136.9027709417244
7.08,0.9999932881722424,136.46763153858475
7.088,0.9999932525484274,136.0323332723931
7.096,0.9999932173143101,135.59687348119
7.104,0.9999931824801179,135.16124950936532
7.112,0.9999931480558748,134.7254587077977
7.12,0.9999931140514018,134.28949843399414
7.128,0.9999930804763199,133.85336605222983
7.136,0.9999930473400522,133.41705893368876
7.144,0.9999930146518241,132.98057445660405
7.152,0.9999929824206678,132.543910006399
7.16,0.9999929506554234,132.10706297582848
7.168,0.9999929193647388,131.67003076512054
7.176,0.9999928885570749,131.23281078211846
7.184,0.9999928582407034,130.79540044242313
7.192,0.9999928284237132,130.3577971695359
7.2,0.999992799114009,129.91999839500187
7.208,0.9999927703193137,129.48200155855346
7.216,0.9999927420471719,129.04380410825434
7.224,0.9999927143049491,128.60540350064417
7.232,0.9999926870998352,128.16679720088328
7.24,0.9999926604388473,127.72798268289814
7.248,0.9999926343288272,127.28895742952719
7.256,0.9999926087764484,126.84971893266697
7.264,0.9999925837882153,126.41026469341924
7.272,0.9999925593704637,125.97059222223767
7.28,0.9999925355293654,125.53069903907596
7.288,0.999992512270927,125.09058267353593
7.296,0.9999924896009956,124.65024066501614
7.304,0.9999924675252542,124.20967056286113
7.312,0.9999924460492303,123.76886992651134
7.32,0.9999924251782916,123.32783632565283
7.328,0.9999924049176528,122.88656734036861
7.336,0.9999923852723739,122.44506056128958
7.344,0.9999923662473615,122.0033135897463
7.352,0.9999923478473742,121.56132403792151
7.36,0.9999923300770184,121.11908952900302
7.368,0.9999923129407552,120.67660769733683
7.376,0.9999922964428998,120.23387618858149
7.384,0.9999922805876221,119.79089265986235
7.392,0.9999922653789506,119.34765477992669
7.4,0.9999922508207698,118.9041602292994
7.4079999999999995,0.9999922369168279,118.46040670043914
7.416,0.9999922236707327,118.0163918978949
7.4239999999999995,0.9999922110859562,117.57211353846378
7.432,0.9999921991658346,117.12756935134809
7.4399999999999995,0.9999921879135698,116.6827570783146
7.448,0.9999921773322326,116.23767447385273
7.4559999999999995,0.9999921674247627,115.79231930533491
7.464,0.9999921581939694,115.3466893531758
7.4719999999999995,0.9999921496425346,114.90078241099378
7.48,0.9999921417730123,114.45459628577143
7.4879999999999995,0.9999921345878336,114.00812879801805
7.496,0.9999921280893037,113.56137778193116
7.504,0.9999921222796054,113.11434108556027
7.5120000000000005,0.9999921171608018,112.66701657096948
7.52,0.9999921127348345,112.21940211440219
7.5280000000000005,0.9999921090035271,111.7714956064449
7.536,0.9999921059685858,111.32329495219304
7.5440000000000005,0.9999921036316012,110.87479807141571
7.552,0.99999210199405,110.42600289872276
7.5600000000000005,0.9999921010572934,109.97690738373039
7.568,0.9999921008225827,109.52750949122934
7.5760000000000005,0.9999921012910574,109.07780720135162
7.584,0.999992102463747,108.62779850973949
7.5920000000000005,0.9999921043415735,108.17748142771339
7.6,0.9999921069253512,107.7268539824419
7.6080000000000005,0.9999921102157894,107.27591421711045
7.616,0.9999921142134905,106.8246601910924
7.6240000000000006,0.9999921189189563,106.3730899801187
7.632,0.9999921243325836,105.92120167644978
7.640000000000001,0.9999921304546696,105.46899338904612
7.648,0.9999921372854099,105.01646324374104
7.656000000000001,0.9999921448249037,104.56360938341226
7.664,0.99999215307315,104.11042996815526
7.672,0.9999921620300513,103.65692317545582
7.68,0.9999921716954159,103.20308720036398
7.688,0.9999921820689562,102.74892025566774
7.696,0.9999921931502923,102.29442057206735
7.704,0.9999922049389511,101.83958639834978
7.712,0.999992217434369,101.3844160015638
7.72,0.9999922306358906,100.9289076671951
7.728,0.9999922445427731,100.47305969934183
7.736,0.9999922591541844,100.01687042089044
7.744,0.9999922744692057,99.56033817369169
7.752,0.9999922904868318,99.10346131873709
7.76,0.9999923072059725,98.64623823633531
7.768,0.9999923246254528,98.18866732628904
7.776,0.9999923427440157,97.73074700807192
7.784,0.9999923615603209,97.2724757210056
7.792,0.9999923810729466,96.8138519244372
7.8,0.9999924012803917,96.35487409791652
7.808,0.9999924221810749,95.89554074137367
7.816,0.999992443773336,95.43585037529674
7.824,0.9999924660554382,94.97580154090933
7.832,0.9999924890255675,94.5153928003485
7.84,0.9999925126818336,94.05462273684228
7.848,0.9999925370222728,93.59348995488762
7.856,0.999992562044845,93.131993080428
7.864,0.9999925877474389,92.67013076103116
7.872,0.9999926141278696,92.20790166606669
7.88,0.9999926411838814,91.74530448688351
7.888,0.9999926689131478,91.2823379369872
7.896,0.9999926973132718,90.81900075221733
7.904,0.9999927263817882,90.35529169092435
7.912,0.9999927561161632,89.89120953414647
7.92,0.9999927865137955,89.4267530857862
7.928,0.9999928175720169,88.96192117278672
7.936,0.9999928492880938,88.49671264530777
7.944,0.9999928816592272,88.03112637690137
7.952,0.9999929146825537,87.56516126468719
7.96,0.9999929483551465,87.09881622952732
7.968,0.9999929826740156,86.63209021620082
7.976,0.9999930176361088,86.16498219357784
7.984,0.9999930532383134,85.69749115479296
7.992,0.9999930894774548,85.2296161174183
8.0,0.9999931263502986,84.76135612363602
8.008,0.9999931638535517,84.29271024041006
8.016,0.9999932019838627,83.82367755965726
8.024000000000001,0.9999932407378205,83.35425719841821
8.032,0.9999932801119586,82.884448299027
8.04,0.999993320102753,82.41425002927998
8.048,0.9999933607066243,81.94366158260435
8.056000000000001,0.9999934019199368,81.47268217822585
8.064,0.9999934437390017,81.00131106133524
8.072,0.9999934861600742,80.52954750325381
8.08,0.9999935291793586,80.05739080159837
8.088000000000001,0.9999935727930045,79.58484028044539
8.096,0.9999936169971096,79.11189529049356
8.104,0.9999936617877213,78.63855520922539
8.112,0.9999937071608342,78.16481944106805
8.120000000000001,0.9999937531123944,77.69068741755315
8.128,0.9999937996382969,77.21615859747487
8.136,0.9999938467343885,76.74123246704688
8.144,0.9999938943964665,76.26590854005839
8.152000000000001,0.9999939426202803,75.79018635802896
8.16,0.9999939914015326,75.31406549036141
8.168,0.9999940407358778,74.83754553449344
8.176,0.9999940906189257,74.36062611604814
8.184000000000001,0.9999941410462386,73.88330688898309
8.192,0.9999941920133343,73.4055875357375
8.2,0.9999942435156852,72.92746776737759
8.208,0.9999942955487204,72.44894732374102
8.216000000000001,0.9999943481078243,71.97002597357948
8.224,0.9999944011883385,71.49070351469915
8.232,0.9999944547855614,71.01097977409943
8.24,0.9999945088947495,70.53085460811027
8.248000000000001,0.9999945635111178,70.05032790252756
8.256,0.9999946186298393,69.56939957274628
8.264,0.9999946742460466,69.08806956389161
8.272,0.9999947303548317,68.60633785094849
8.280000000000001,0.9999947869512473,68.12420443888911
8.288,0.999994844030306,67.6416693627978
8.296,0.999994901586982,67.15873268799386
8.304,0.9999949596162104,66.67539451015253
8.312,0.9999950181128887,66.19165495542384
8.32,0.9999950770718768,65.70751418054805
8.328,0.9999951364879973,65.22297237297029
8.336,0.9999951963560362,64.73802975095124
8.344,0.9999952566707428,64.25268656367683
8.352,0.9999953174268309,63.76694309136388
8.36,0.9999953786189788,63.28079964536479
8.368,0.9999954402418295,62.79425656826792
8.376,0.9999955022899916,62.307314233997154
8.384,0.9999955647580399,61.81997304790674
8.392,0.9999956276405146,61.3322334468753
8.4,0.9999956909319231,60.844095899395306
8.408,0.9999957546267391,60.35556090566119
8.416,0.9999958187194044,59.866628997653024
8.424,0.9999958832043283,59.377300739219
8.432,0.9999959480758885,58.887576726152766
8.44,0.9999960133284305,58.3974575862699
8.448,0.9999960789562692,57.9069439794792
8.456,0.9999961449536896,57.416036597852695
8.464,0.999996211314945,56.92473616569051
8.472,0.9999962780342595,56.433043439584516
8.48,0.9999963451058276,55.9409592084765
8.488,0.9999964125238141,55.448484293714976
8.496,0.9999964802823561,54.95561954910683
8.504,0.9999965483755611,54.462365860967054
8.512,0.9999966167975086,53.9687241481634
8.52,0.9999966855422505,53.47469536215901
8.528,0.9999967546038122,52.98028048704991
8.536,0.9999968239761909,52.48548053960041
8.544,0.9999968936533566,51.990296569273
8.552,0.9999969636292549,51.494729658256524
8.56,0.9999970338978035,50.99878092148842
8.568,0.9999971044528951,50.50245150667505
8.576,0.9999971752883979,50.00574259430649
8.584,0.9999972463981538,49.50865539766884
8.592,0.9999973177759811,49.011191162851
8.6,0.9999973894156726,48.51335116874915
8.608,0.9999974613109986,48.015136727065325
8.616,0.9999975334557052,47.516549182303685
8.624,0.999997605843514,47.01758991176077
8.632,0.9999976784681258,46.51826032551357
8.64,0.9999977513232177,46.01856186640119
8.648,0.9999978244024439,45.5184960100044
8.656,0.9999978976994378,45.0180642646188
8.664,0.9999979712078108,44.517268171225595
8.672,0.9999980449211523,44.016109303456076
8.68,0.999998118833032,43.51458926755351
8.688,0.999998192936998,43.01270970232878
8.696,0.9999982672265786,42.51047227911319
8.704,0.9999983416952819,42.007878701705216
8.712,0.9999984163365968,41.50493070631422
8.72,0.999998491143992,41.00163006149778
8.728,0.9999985661109182,40.49797856809641
8.736,0.9999986412308071,39.99397805916163
8.744,0.9999987164970722,39.48963039988115
8.752,0.9999987919031085,38.984937487497625
8.76,0.9999988674422942,38.47990125122439
8.768,0.9999989431079895,37.974523652154616
8.776,0.9999990188935383,37.46880668316768
8.784,0.999999094792267,36.96275236882852
8.792,0.9999991707974866,36.4563627652843
8.8,0.9999992469024913,35.94963996015435
8.808,0.9999993231005608,35.44258607241682
8.815999999999999,0.9999993993849582,34.93520325228901
8.824,0.9999994757489323,34.42749368110372
8.832,0.9999995521857172,33.919459571180724
8.84,0.9999996286885335,33.41110316569266
8.847999999999999,0.9999997052505863,32.90242673852609
8.856,0.9999997818650684,32.393432594138055
8.864,0.9999998585251587,31.88412306740751
8.872,0.9999999352240239,31.374500523481455
8.879999999999999,0.9999999999999999,30.864567357616036
8.888,1.0,30.35432599501298
8.896,1.0,29.843778890651265
8.904,1.0,29.33292852911304
8.911999999999999,1.0,28.82177742440471
8.92,1.0,28.31032811977343
8.928,1.0,27.79858318751854
8.936,0.9999999999999999,27.286545228797543
8.943999999999999,1.0,26.77421687342715
8.952,0.9999999999999999,26.261600779679668
8.96,0.9999999999999999,25.748699634074452
8.968,0.9999999999999999,25.235516151163928
8.975999999999999,1.0,24.72205307331457
8.984,1.0,24.208313170483496
8.992,1.0,23.694299239989927
9.0,0.9999999999999999,23.180014106281487
9.008,1.0,22.66546062069533
9.016,0.9999999999999998,22.15064166121506
9.024000000000001,1.0,21.635560132222583
9.032,0.9999999999999998,21.12021896424476
9.04,1.0,20.604621113695163
9.048,1.0,20.088769562611574
9.056000000000001,1.0,19.57266731838848
9.064,1.0,19.05631741350464
9.072,0.9999999999999999,18.539722905245736
9.08,1.0,18.022886875422795
9.088000000000001,0.9999999999999999,17.505812430086067
9.096,0.9999999999999998,16.98850269923367
9.104,0.9999999999999999,16.47096083651576
9.112,0.9999999999999999,15.953190018934544
9.120000000000001,1.0,15.435193446539824
9.128,0.9999999999999999,14.916974342119532
9.136,1.0,14.398535950885945
9.144,1.0,13.879881540157905
9.152000000000001,0.9999999999999998,13.361014399038677
9.16,0.9999999999999999,12.841937838089153
9.168,1.0,12.322655188996716
9.176,1.0,11.803169804240436
9.184000000000001,1.0,11.283485056752095
9.192,1.0,10.76360433957269
9.2,0.9999999999999999,10.243531065504895
9.208,1.0,9.723268666762026
9.216000000000001,1.0,9.202820594613078
9.224,0.9999999999999999,8.68219031902345
9.232,1.0,8.161381328291899
9.24,1.0,7.640397128684217
9.248000000000001,1.0,7.119241244063225
9.256,1.0,6.597917215514735
9.264,0.9999999999999999,6.0764286009700195
9.272,1.0,5.55477897482515
9.280000000000001,0.9999999999999999,5.03297192755711
9.288,1.0,4.511011065336017
9.296,0.9999999999999999,3.988900009634141
9.304,1.0,3.4666423968321993
9.312000000000001,0.9999999999999999,2.9442418778225856
9.32,1.0,2.421702117609013
9.328,1.0,1.899026794903415
9.336,0.9999999999999999,1.3762196017202168
9.344,1.0,0.853284242968069
9.352,0.9999999999999999,0.3302244360377652
9.36,0.9999999999999999,-0.19295608961088181
9.368,1.0000000000000002,-0.7162535928664195
9.376,1.0,-1.2396643213837415
9.384,1.0,-1.7631845120064047
9.392,1.0,-2.2868103911892206
9.4,1.0,-2.810538175425014
9.408,1.0000000000000002,-3.334364071671553
9.416,0.9999999999999999,-3.8582842777824085
9.424,1.0,-4.382294982937835
9.432,1.0,-4.9063923680793735
9.44,1.0,-5.430572606344335
9.448,1.0,-5.954831863503779
9.456,1.0,-6.479166298400164
9.464,1.0,-7.003572063388452
9.472,1.0,-7.528045304776499
9.48,0.9999999999999999,-8.052582163268822
9.488,1.0,-8.577178774409541
9.496,1.0,-9.101831269028256
9.504,0.9999999999999999,-9.626535773685141
9.512,0.9999999999999999,-10.15128841111876
9.52,0.9999999999999999,-10.67608530069269
9.528,0.9999999999999999,-11.200922558844992
9.536,0.9999999999999998,-11.725796299536073
9.544,1.0,-12.250702634699218
9.552,1.0,-12.775637674689392
9.56,1.0,-13.300597528734466
9.568,0.9999999999999999,-13.825578305384587
9.576,0.9999999999999999,-14.350576112963672
9.584,1.0,-14.875587060018836
9.592,0.9999999999999999,-15.400607255771956
9.6,1.0,-15.92563281056875
9.608,0.9999999999999999,-16.450659836329795
9.616,0.9999999999999998,-16.975684446999118
9.624,1.0,-17.500702758994155
9.632,0.9999999999999999,-18.02571089165339
9.64,1.0,-18.550704967685075
9.648,0.9999999999999999,-19.075681113613363
9.656,0.9999999999999999,-19.60063546022545
9.664,0.9999999999999999,-20.125564143015794
9.672,0.9999999999999999,-20.65046330263123
9.68,1.0,-21.175329085313095
9.688,0.9999999999999999,-21.700157643339804
9.696,0.9999999999999999,-22.224945135466374
9.704,1.0,-22.7496877273643
9.712,0.9999999999999999,-23.27438159205802
9.72,1.0,-23.799022910361625
9.728,0.9999999999999999,-24.323607871312102
9.736,0.9999999999999998,-24.848132672602354
