freq,mag,phase
6.0,0.9999967073102246,87.53182332607244
6.008,0.9999971637373785,87.39657086961566
6.016,0.9999975997097033,87.26127449204
6.024,0.9999980156262979,87.12593413472733
6.032,0.9999984118824473,86.9905497391874
6.04,0.9999987888696303,86.85512124705944
6.048,0.999999146975525,86.71964860011363
6.056,0.9999994865840172,86.58413174025256
6.064,0.9999998080752076,86.44857060951281
6.072,1.0,86.31296515006643
6.08,1.0,86.17731530422242
6.088,1.0,86.04162101442827
6.096,1.0,85.90588222327143
6.104,0.9999999999999999,85.77009887348079
6.112,0.9999999999999999,85.63427090792825
6.12,1.0,85.49839826963017
6.128,1.0,85.36248090174885
6.136,1.0,85.22651874759407
6.144,0.9999999999999999,85.09051175062453
6.152,1.0,84.9544598544494
6.16,1.0,84.81836300282973
6.168,0.9999999999999999,84.68222113968002
6.176,0.9999999999999998,84.54603420906972
6.184,1.0,84.40980215522455
6.192,0.9999999999999999,84.27352492252821
6.2,1.0,84.13720245552365
6.208,1.0,84.00083469891472
6.216,0.9999999999999999,83.86442159756751
6.224,1.0,83.72796309651194
6.232,1.0,83.59145914094313
6.24,1.0,83.45490967622294
6.248,1.0,83.3183146478814
6.256,1.0,83.18167400161815
6.264,0.9999999999999999,83.04498768330399
6.272,1.0,82.90825563898223
6.28,0.9999999999999999,82.77147781487022
6.288,1.0,82.6346541573608
6.296,0.9999999999999999,82.49778461302368
6.304,1.0,82.36086912860698
6.312,1.0,82.22390765103859
6.32,0.9999999999999999,82.08690012742767
6.328,0.9999999999999999,81.94984650506608
6.336,0.9999999999999999,81.81274673142975
6.344,0.9999999999999998,81.67560075418022
6.352,0.9999999999999999,81.53840852116599
6.36,1.0,81.40116998042393
6.368,0.9999999999999999,81.26388508018073
6.376,0.9999999999999999,81.12655376885438
6.384,1.0,80.98917599505543
6.392,0.9999999999999999,80.85175170758855
6.4,0.9999999999999999,80.71428085545382
6.408,1.0,80.57676338784825
6.416,0.9999999999999999,80.43919925416701
6.424,1.0,80.301588404005
6.432,1.0,80.1639307871581
6.44,1.0,80.02622635362461
6.448,0.9999999999999999,79.88847505360665
6.456,1.0,79.75067683751149
6.464,1.0,79.61283165595293
6.472,0.9999999177777604,79.47493945975269
6.48,0.9999997300933849,79.3370001999417
6.4879999999999995,0.9999995392641425,79.19901382776155
6.496,0.9999993454805143,79.06098029466574
6.504,0.9999991489298152,78.92289955232113
6.5120000000000005,0.9999989497962127,78.78477155260914
6.52,0.9999987482607401,78.6465962476273
6.5280000000000005,0.9999985445013129,78.50837358969025
6.536,0.9999983386927443,78.37010353133142
6.5440000000000005,0.9999981310067623,78.23178602530406
6.552,0.9999979216120229,78.09342102458272
6.5600000000000005,0.9999977106741303,77.95500848236446
6.568,0.9999974983556502,77.81654835207028
6.5760000000000005,0.999997284816127,77.67804058734617
6.584,0.9999970702121006,77.53948514206469
6.592,0.9999968546971231,77.40088197032597
6.6,0.9999966384217769,77.26223102645919
6.608,0.9999964215336892,77.12353226502377
6.616,0.9999962041775516,76.98478564081061
6.624,0.9999959864951365,76.84599110884335
6.632,0.999995768625314,76.70714862437966
6.64,0.9999955507040701,76.5682581429124
6.648,0.9999953328645249,76.42931962017092
6.656,0.9999951152369501,76.29033301212226
6.664,0.9999948979487859,76.15129827497238
6.672,0.9999946811246617,76.01221536516734
6.68,0.9999944648864117,75.87308423939449
6.688,0.9999942493530954,75.73390485458373
6.696,0.9999940346410147,75.59467716790866
6.704,0.9999938208637335,75.45540113678776
6.712,0.9999936081320964,75.3160767188855
6.72,0.9999933965542473,75.17670387211363
6.728,0.9999931862356491,75.03728255463226
6.736,0.9999929772791024,74.89781272485094
6.744,0.9999927697847649,74.75829434142995
6.752,0.9999925638501719,74.6187273632813
6.76,0.999992359570254,74.4791117495699
6.768,0.999992157037359,74.33944745971469
6.776,0.9999919563412699,74.19973445338972
6.784,0.999991757569226,74.05997269052521
6.792,0.9999915608059441,73.92016213130873
6.8,0.9999913661336354,73.78030273618616
6.808,0.9999911736320292,73.64039446586285
6.816,0.9999909833783924,73.50043728130463
6.824,0.9999907954475493,73.36043114373882
6.832,0.9999906099119032,73.22037601465539
6.84,0.9999904268414574,73.08027185580787
6.848,0.9999902463038353,72.94011862921441
6.856,0.9999900683643023,72.7999162971588
6.864,0.9999898930857868,72.65966482219144
6.872,0.9999897205289014,72.51936416713036
6.88,0.9999895507519647,72.37901429506218
6.888,0.9999893838110225,72.23861516934303
6.896,0.9999892197598697,72.09816675359967
6.904,0.9999890586500715,71.95766901173018
6.912,0.9999889005309865,71.8171219079051
6.92,0.9999887454497874,71.67652540656832
6.928,0.9999885934514842,71.53587947243791
6.936,0.9999884445789449,71.39518407050707
6.944,0.9999882988729202,71.2544391660451
6.952,0.9999881563720634,71.1136447245981
6.96,0.9999880171129542,70.97280071199003
6.968,0.9999878811301209,70.83190709432341
6.976,0.9999877484560639,70.69096383798029
6.984,0.9999876191212774,70.54997090962299
6.992,0.999987493154273,70.40892827619496
7.0,0.9999873705816018,70.2678359049216
7.008,0.9999872514278787,70.12669376331105
7.016,0.9999871357158048,69.98550181915495
7.024,0.9999870234661904,69.84426004052924
7.032,0.9999869146979791,69.7029683957949
7.04,0.9999868094282701,69.56162685359875
7.048,0.9999867076723437,69.42023538287413
7.056,0.9999866094436812,69.27879395284158
7.064,0.9999865147539927,69.13730253300969
7.072,0.999986423613238,68.99576109317567
7.08,0.9999863360296516,68.8541696034261
7.088,0.9999862520097654,68.71252803413758
7.096,0.9999861715584344,68.57083635597736
7.104,0.9999860946788589,68.42909453990406
7.112,0.9999860213726093,68.28730255716822
7.12,0.9999859516396503,68.14546037931292
7.128,0.9999858854783649,68.00356797817449
7.136,0.9999858228855781,67.861625325883
7.144,0.9999857638565821,67.71963239486284
7.152,0.9999857083851594,67.57758915783333
7.16,0.9999856564636088,67.4354955878092
7.168,0.9999856080827678,67.29335165810127
7.176,0.9999855632320389,67.15115734231676
7.184,0.9999855218994127,67.00891261436
7.192,0.9999854840714925,66.86661744843275
7.2,0.99998544973352,66.72427181903481
7.208,0.9999854188693988,66.58187570096446
7.216,0.9999853914617194,66.4394290693188
7.224,0.9999853674917837,66.29693189949434
7.232,0.9999853469396297,66.15438416718732
7.24,0.9999853297840562,66.01178584839415
7.248,0.9999853160026473,65.86913691941182
7.256,0.9999853055717974,65.7264373568382
7.264,0.9999852984667361,65.5836871375725
7.272,0.9999852946615523,65.44088623881554
7.28,0.9999852941292188,65.29803463807013
7.288,0.9999852968416185,65.15513231314137
7.296,0.9999853027695679,65.01217924213694
7.304,0.9999853118828416,64.8691754034674
7.312,0.9999853241501976,64.72612077584645
7.32,0.9999853395394028,64.58301533829122
7.328,0.9999853580172559,64.43985907012241
7.336,0.9999853795496135,64.29665195096467
7.344,0.9999854041014146,64.1533939607467
7.352,0.9999854316367047,64.01008507970141
7.36,0.9999854621186607,63.866725288366275
7.368,0.9999854955096164,63.72331456758328
7.376,0.9999855317710853,63.57985289849923
7.384,0.999985570863787,63.436340262565786
7.392,0.99998561274767,63.292776641539625
7.4,0.999985657381938,63.14916201748255
7.4079999999999995,0.9999857047250728,63.005496372761556
7.416,0.9999857547348594,62.86177969004883
7.4239999999999995,0.9999858073684104,62.718011952322
7.432,0.9999858625821899,62.574193142863926
7.4399999999999995,0.9999859203320381,62.43032324526294
7.448,0.9999859805731953,62.28640224341266
7.4559999999999995,0.9999860432603263,62.14243012151219
7.464,0.9999861083475432,61.998406864065835
7.4719999999999995,0.9999861757884316,61.854332455883366
7.48,0.9999862455360725,61.710206882079646
7.4879999999999995,0.9999863175430671,61.56603012807484
7.496,0.9999863917615606,61.4218021795941
7.504,0.9999864681432648,61.27752302266765
7.5120000000000005,0.9999865466394828,61.13319264363048
7.52,0.9999866272011328,60.98881102912241
7.5280000000000005,0.9999867097787699,60.844378166087694
7.536,0.9999867943226106,60.69989404177517
7.5440000000000005,0.9999868807825556,60.55535864373772
7.552,0.9999869691082135,60.4107719598324
7.5600000000000005,0.9999870592489224,60.266133978219955
7.568,0.9999871511537739,60.12144468736481
7.5760000000000005,0.9999872447716358,59.97670407603462
7.584,0.9999873400511742,59.831912133300236
7.5920000000000005,0.9999874369408763,59.68706884853518
7.6,0.9999875353890726,59.54217421141561
7.6080000000000005,0.9999876353439597,59.39722821191968
7.616,0.9999877367536212,59.25223084032769
7.6240000000000006,0.999987839566051,59.10718208722123
7.632,0.9999879437291743,58.96208194348322
7.640000000000001,0.99998804919087,58.8169304002973
7.648,0.999988155898991,58.67172744914764
7.656000000000001,0.9999882638013871,58.526473081818324
7.664,0.9999883728459248,58.38116729039322
7.672,0.9999884829805097,58.23581006725517
7.68,0.9999885941531061,58.09040140508595
7.688,0.9999887063117591,57.94494129686547
7.696,0.9999888194046134,57.799429735871605
7.704,0.9999889333799357,57.65386671567948
7.712,0.9999890481861337,57.50825223016101
7.72,0.9999891637717757,57.36258627348452
7.728,0.9999892800856125,57.21686884011402
7.736,0.9999893970765938,57.07109992480881
7.744,0.9999895146938915,56.92527952262285
7.752,0.9999896328869154,56.77940762890424
7.76,0.9999897516053349,56.633484239294525
7.768,0.9999898707990962,56.48750934972824
7.776,0.9999899904184418,56.341482956432216
7.784,0.9999901104139292,56.1954050559249
7.792,0.9999902307364481,56.049275645015896
7.8,0.9999903513372393,55.903094720805065
7.808,0.9999904721679121,55.75686228068208
7.816,0.9999905931804624,55.61057832232564
7.824,0.9999907143272893,55.46424284370276
7.832,0.9999908355612126,55.31785584306813
7.84,0.99999095683549,55.17141731896333
7.848,0.9999910781038331,55.0249272702162
7.856,0.9999911993204242,54.87838569593997
7.864,0.9999913204399332,54.73179259553264
7.872,0.9999914414175322,54.58514796867609
7.88,0.9999915622089114,54.438451815335384
7.888,0.9999916827702959,54.291704135757975
7.896,0.999991803058459,54.144904930472876
7.904,0.9999919230307389,53.99805420028985
7.912,0.9999920426450517,53.85115194629863
7.92,0.9999921618599074,53.704198169868036
7.928,0.9999922806344224,53.55719287264514
7.936,0.9999923989283352,53.410136056554464
7.944,0.9999925167020184,53.263027723797066
7.952,0.9999926339164922,53.115867876849684
7.96,0.9999927505334393,52.96865651846382
7.968,0.9999928665152148,52.8213936516649
7.976,0.9999929818248612,52.67407927975133
7.984,0.999993096426119,52.52671340629363
7.992,0.9999932102834392,52.37929603513348
8.0,0.9999933233619955,52.23182717038274
8.008,0.9999934356276943,52.08430681642267
8.016,0.9999935470471867,51.936734977902766
8.024000000000001,0.9999936575878796,51.78911165974
8.032,0.9999937672179448,51.64143686711784
8.04,0.9999938759063306,51.49371060548507
8.048,0.9999939836227704,51.345932880555026
8.056000000000001,0.9999940903377931,51.1981036983046
8.064,0.999994196022733,51.0502230649732
8.072,0.9999943006497359,50.9022909870617
8.08,0.9999944041917715,50.754307471331465
8.088000000000001,0.9999945066226391,50.606272524803465
8.096,0.999994607916976,50.458186154757136
8.104,0.9999947080502662,50.31004836872931
8.112,0.9999948069988469,50.161859174513296
8.120000000000001,0.9999949047399157,50.01361858015784
8.128,0.9999950012515376,49.86532659396609
8.136,0.999995096512651,49.71698322449444
8.144,0.999995190503074,49.568588480551604
8.152000000000001,0.9999952832035106,49.420142371197535
8.16,0.9999953745955559,49.27164490574246
8.168,0.9999954646617003,49.12309609374556
8.176,0.9999955533853353,48.974495945014176
8.184000000000001,0.9999956407507589,48.82584446960265
8.192,0.9999957267431769,48.677141677811306
8.2,0.9999958113487094,48.52838758018522
8.208,0.9999958945543936,48.37958218751331
8.216000000000001,0.9999959763481863,48.23072551082724
8.224,0.9999960567189667,48.08181756140037
8.232,0.9999961356565408,47.93285835074651
8.24,0.9999962131516402,47.783847890619015
8.248000000000001,0.9999962891959278,47.63478619300968
8.256,0.9999963637819963,47.485673270147686
8.264,0.9999964369033706,47.33650913449834
8.272,0.9999965085545093,47.18729379876221
8.280000000000001,0.9999965787308036,47.03802727587399
8.288,0.999996647428579,46.88870957900136
8.296,0.9999967146450949,46.73934072154397
8.304,0.9999967803785429,46.589920717132266
8.312,0.999996844628048,46.44044957962664
8.32,0.9999969073936661,46.29092732311604
8.328,0.9999969686763833,46.141353961917254
8.336,0.9999970284781128,45.99172951057348
8.344,0.9999970868016953,45.842053983853575
8.352,0.9999971436508941,45.69232739675074
8.36,0.9999971990303939,45.54254976448171
8.368,0.9999972529457972,45.3927211024854
8.376,0.9999973054036212,45.24284142642222
8.384,0.9999973564112936,45.092910752172585
8.392,0.9999974059771494,44.94292909583638
8.4,0.9999974541104257,44.79289647373138
8.408,0.9999975008212576,44.6428129023927
8.416,0.9999975461206738,44.49267839857142
8.424,0.9999975900205905,44.3424929792338
8.432,0.9999976325338051,44.19225666156005
8.44,0.9999976736739931,44.0419694629435
8.448,0.9999977134556983,43.89163140098948
8.456,0.9999977518943299,43.74124249351439
8.464,0.9999977890061525,43.59080275854462
8.472,0.9999978248082824,43.44031221431572
8.48,0.9999978593186764,43.2897708792712
8.488,0.9999978925561276,43.1391787720618
8.496,0.9999979245402554,42.988535911544304
8.504,0.9999979552914985,42.83784231678079
8.512,0.9999979848311049,42.687098007037505
8.52,0.9999980131811244,42.53630300178407
8.528,0.9999980403643997,42.385457320692424
8.536,0.9999980664045556,42.234560983636065
8.544,0.9999980913259908,42.08361401068891
8.552,0.999998115153867,41.93261642212471
8.56,0.9999981379141,41.781568238415794
8.568,0.9999981596333476,41.630469480232506
8.576,0.9999981803390008,41.47932016844213
8.584,0.9999982000591707,41.32812032410818
8.592,0.9999982188226797,41.17686996848936
8.6,0.9999982366590485,41.025569123039006
8.608,0.999998253598484,40.87421780940389
8.616,0.9999982696718697,40.72281604942383
8.624,0.9999982849107508,40.5713638651305
8.632,0.9999982993473235,40.41986127874693
8.64,0.999998313014422,40.268308312686486
8.648,0.9999983259455061,40.11670498955237
8.656,0.9999983381746463,39.96505133213656
8.664,0.9999983497365135,39.81334736341937
8.672,0.9999983606663627,39.66159310656848
8.68,0.9999983710000214,39.50978858493842
8.688,0.9999983807738743,39.35793382206965
8.696,0.9999983900248496,39.206028841688116
8.704,0.9999983987904053,39.05407366770435
8.712,0.9999984071085142,38.902068324213026
8.72,0.9999984150176494,38.75001283549205
8.728,0.9999984225567689,38.59790722600226
8.736,0.9999984297653016,38.44575152038644
8.744,0.9999984366831315,38.29354574346906
8.752,0.9999984433505826,38.14128992025542
8.76,0.999998449808403,37.98898407593128
8.768,0.99999845609775,37.83662823586211
8.776,0.9999984622601726,37.68422242559275
8.784,0.9999984683375988,37.53176667084667
8.792,0.9999984743723154,37.37926099752566
8.8,0.9999984804069554,37.22670543170917
8.808,0.9999984864844793,37.074099999653946
8.815999999999999,0.9999984926481601,36.92144472779346
8.824,0.9999984989415653,36.76873964273749
8.832,0.9999985054085416,36.61598477127178
8.84,0.9999985120931973,36.463180140357565
8.847999999999999,0.9999985190398855,36.31032577713107
8.856,0.9999985262931871,36.157421708903186
8.864,0.9999985338978941,36.00446796315919
8.872,0.999998541898992,35.85146456755834
8.879999999999999,0.9999985503416423,35.69841154993345
8.888,0.9999985592711663,35.54530893829058
8.896,0.9999985687330264,35.39215676080893
8.904,0.9999985787728093,35.238955045840356
8.911999999999999,0.9999985894362087,35.08570382190907
8.92,0.9999986007690067,34.93240311771154
8.928,0.9999986128170583,34.77905296211615
8.936,0.9999986256262706,34.625653384163044
8.943999999999999,0.9999986392425887,34.47220441306383
8.952,0.9999986537119754,34.3187060782014
8.96,0.9999986690803944,34.16515840912993
8.968,0.9999986853937921,34.01156143557449
8.975999999999999,0.999998702698081,33.857915187431054
8.984,0.9999987210391211,33.70421969476626
8.992,0.9999987404627022,33.55047498781746
9.0,0.9999987610145259,33.396681096992566
9.008,0.9999987827401884,33.24283805286988
9.016,0.9999988056851628,33.08894588619808
9.024000000000001,0.9999988298947813,32.93500462789638
9.032,0.9999988554142172,32.78101430905424
9.04,0.9999988822884679,32.62697496093147
9.048,0.9999989105623368,32.47288661495819
9.056000000000001,0.9999989402804157,32.318749302735
9.064,0.999998971487069,32.1645630560329
9.072,0.9999990042264134,32.01032790679332
9.08,0.9999990385423029,31.856043887128237
9.088000000000001,0.9999990744783107,31.70171102932032
9.096,0.9999991120777119,31.54732936582305
9.104,0.9999991513834668,31.392898929260646
9.112,0.9999991924382038,31.23841975242839
9.120000000000001,0.9999992352842018,31.08389186829273
9.128,0.9999992799633742,30.92931530999154
9.136,0.9999993265172519,30.774690110834037
9.144,0.9999993749869668,30.620016304301238
9.152000000000001,0.9999994254132352,30.465293924046126
9.16,0.999999477836341,30.3105230038938
9.168,0.9999995322961205,30.15570357784177
9.176,0.999999588831945,30.00083568006015
9.184000000000001,0.9999996474827059,29.845919344892042
9.192,0.9999997082867984,29.690954606853815
9.2,0.9999997712821056,29.53594150063523
9.208,0.9999998365059837,29.38088006109993
9.216000000000001,0.9999999039952455,29.225770323285754
9.224,0.999999973786146,29.070612322405054
9.232,0.9999999999999999,28.915406093844968
9.24,1.0,28.760151673167858
9.248000000000001,1.0,28.604849096111767
9.256,1.0,28.449498398590737
9.264,1.0,28.29409961669514
9.272,1.0,28.13865278669217
9.280000000000001,1.0,27.98315794502637
9.288,1.0,27.827615128319977
9.296,1.0,27.672024373373286
9.304,1.0,27.516385717165242
9.312000000000001,1.0,27.36069919685397
9.32,1.0,27.20496484977713
9.328,1.0,27.049182713452435
9.336,0.9999999999999999,26.89335282557821
9.344,0.9999999999999999,26.737475224033954
9.352,0.9999999999999999,26.581549946880703
9.36,1.0,26.42557703236182
9.368,1.0,26.269556518903254
9.376,1.0,26.11348844511438
9.384,1.0,25.9573728497883
9.392,1.0,25.80120977190269
9.4,1.0,25.64499925062012
9.408,0.9999999999999999,25.488741325288895
9.416,1.0,25.332436035443415
9.424,0.9999999999999999,25.176083420805007
9.432,1.0000000000000002,25.019683521282335
9.44,1.0,24.863236376972242
9.448,1.0,24.706742028160125
9.456,1.0,24.550200515320828
9.464,1.0,24.39361187911906
9.472,0.9999999999999999,24.236976160410258
9.48,1.0,24.080293400240976
9.488,1.0,23.923563639849867
9.496,1.0,23.766786920668007
9.504,1.0,23.60996328431987
9.512,1.0,23.453092772623734
9.52,0.9999999999999999,23.2961754275926
9.528,0.9999999999999999,23.139211291434652
9.536,1.0,22.98220040655412
9.544,1.0,22.825142815551832
9.552,1.0,22.66803856122603
9.56,0.9999999999999999,22.510887686572893
9.568,1.0,22.353690234787447
9.576,1.0000000000000002,22.196446249264028
9.584,1.0,22.039155773597216
9.592,1.0,21.881818851582267
9.6,1.0,21.724435527216126
9.608,1.0000000000000002,21.56700584469781
9.616,1.0,21.40952984842938
9.624,0.9999999999999999,21.252007583016393
9.632,1.0,21.094439093268868
9.64,1.0,20.936824424201706
9.648,0.9999999999999999,20.77916362103566
9.656,0.9999999999999999,20.621456729197764
9.664,1.0,20.46370379432229
9.672,0.9999999999999999,20.305904862251193
9.68,1.0,20.14805997903505
9.688,0.9999999999999999,19.99016919093348
9.696,1.0,19.832232544416108
9.704,0.9999999999999999,19.674250086162996
9.712,1.0,19.516221863065518
9.72,1.0,19.35814792222686
9.728,0.9999999999999999,19.20002831096289
9.736,1.0,19.041863076802596
9.744,1.0,18.883652267488994
9.752,0.9999999999999999,18.725395930979516
9.76,0.9999999999999999,18.56709411544694
9.768,0.9999999999999998,18.408746869279764
9.776,1.0,18.25035424108309
9.784,1.0,18.09191627967904
9.792,1.0,17.933433034107573
9.8,1.0,17.77490455362694
9.808,0.9999999999999999,17.616330887714447
9.816,1.0,17.457712086066877
9.824,1.0,17.29904819860132
9.832,1.0,17.140339275455496
9.84,1.0,16.981585366988604
