freq,mag,phase
6.0,0.9999385843555504,-46.914768017871125
6.008879104,0.9999559897313121,-47.25642961235718
6.017758208,0.9999748462307234,-47.598368562910224
6.026637312,0.9999948998296861,-47.94054089640258
6.035515904,1.0000150433128103,-48.28299770711333
6.044395008,1.00003435493098,-48.625749916971934
6.053274112,1.000051529238226,-48.968804051093066
6.062153216,1.0000658602971788,-49.312044833124645
6.07103232,1.0000767453046924,-49.65549541810869
6.079911424,1.000083580996179,-49.99906352932454
6.088790016,1.0000856969401442,-50.34274522695885
6.09766912,1.0000831451661372,-50.686443597020926
6.106548224,1.0000761488016217,-51.030062820450446
6.115427328,1.000064991692746,-51.37358143988353
6.124306432,1.0000502296699152,-51.71701215009516
6.133185536,1.0000325346636503,-52.060203032334954
6.142064128,1.0000130456752332,-52.403179891081315
6.150943232,0.9999927721991647,-52.74592656171898
6.159822336,0.9999726555460948,-53.08843569115646
6.16870144,0.9999536787967378,-53.43068354565437
6.177580544,0.9999370419433882,-53.7727138426938
6.186459648,0.9999233897635524,-54.114608108584
6.195338752,0.9999137053085922,-54.45631671796692
6.204217344,0.99990818637328,-54.79797514586898
6.213096448,0.9999073174672997,-55.139627866640176
6.221975552,0.9999111592055246,-55.48130126055532
6.230854656,0.9999196063625332,-55.82309731846449
6.23973376,0.999931789629507,-56.165033745275935
6.248612864,0.9999475932285362,-56.507170040291584
6.257491456,0.9999660814533746,-56.8495587579462
6.26637056,0.9999860329525104,-57.19221803992151
6.275249664,1.0000064940551467,-57.535201538298615
6.284128768,1.0000266334966093,-57.87839450171717
6.293007872,1.000045190641738,-58.22193905716367
6.301886976,1.0000612913603717,-58.56568641285939
6.310765568,1.000073889478999,-58.909644847144726
6.319644672,1.0000824890917377,-59.2537712994021
6.328523776,1.0000867620554206,-59.59804559754424
6.33740288,1.0000863204343786,-59.94234385404228
6.346281984,1.0000811443687048,-60.28663126965268
6.355161088,1.000071560902873,-60.630822115945136
6.364040192,1.0000580184679382,-60.974884108190494
6.372918784,1.00004132602481,-61.3187591386642
6.381797888,1.0000224446412103,-61.66247689592685
6.390676992,1.0000020718299267,-62.00589878865519
6.399556096,0.9999813214792699,-62.34909808053938
6.4084352,0.9999614870233214,-62.692070180613314
6.417314304,0.9999434480086383,-63.034787128092546
6.426192896,0.9999280833559248,-63.37728691529026
6.435072,0.9999164769603509,-63.71964593706656
6.443951104,0.9999088007110837,-64.06188618707569
6.452830208,0.9999059906751666,-64.40410504504894
6.461709312,0.999907802979189,-64.74631462199416
6.470588416,0.9999142474066461,-65.08865071773329
6.479467008,0.9999250076442618,-65.43105882565841
6.488346112,0.9999396873947591,-65.77366694573948
6.497225216,0.9999572695686378,-66.11651368458469
6.50610432,0.9999769336030667,-66.45963241297503
6.514983424,0.9999976884366379,-66.80304758260087
6.523862528,1.000018509634774,-67.14671175794338
6.532741632,1.000038026102043,-67.49070432314682
6.541620224,1.0000555653678715,-67.83498571482139
6.550499328,1.0000700830969012,-68.17945776311016
6.559378432,1.0000807367840627,-68.52414675870605
6.568257536,1.0000870681031417,-68.86891094481348
6.57713664,1.0000886379479765,-69.2137991264393
6.586015744,1.0000854662079237,-69.55869521621179
6.594894336,1.0000776827246556,-69.90353741972402
6.60377344,1.0000657400121735,-70.24825828951049
6.612652544,1.000050053517261,-70.59281133745955
6.621531648,1.0000318077132635,-70.93715429074038
6.630410752,1.0000114946372276,-71.28128243307292
6.639289856,0.9999903936205925,-71.62516219625532
6.648168448,0.999969669320553,-71.96879766401563
6.657047552,0.9999504750922198,-72.31218209323423
6.665926656,0.9999334946402489,-72.65538106762989
6.67480576,0.9999199776822908,-72.99833470381989
6.683684864,0.999910342701444,-73.34118324441445
6.692563968,0.9999053076592268,-73.68395825338582
6.701443072,0.9999051036648609,-74.02670341020301
6.710321664,0.999909657376468,-74.3695154098031
6.719200768,0.9999186931649376,-74.71242527324812
6.728079872,0.9999318557997602,-75.05551071773581
6.736958976,0.9999486162689261,-75.39878688422127
6.74583808,0.9999678058003271,-75.7423598158542
6.754717184,0.9999884853634041,-76.0861806140826
6.763595776,1.0000096913494096,-76.43030445298089
6.77247488,1.0000302876665548,-76.77473088074679
6.781353984,1.0000491304403025,-77.11943209191486
6.790233088,1.0000653407721327,-77.46442045504658
6.799112192,1.0000779657895171,-77.80955231577911
6.807991296,1.0000865274884154,-78.15490470889328
6.8168704,1.0000902824829725,-78.50031320701494
6.825748992,1.0000891396422897,-78.84577492449377
6.834628096,1.0000833282820694,-79.19120809480364
6.8435072,1.0000727874387738,-79.53659047661371
6.852386304,1.000058533405128,-79.88178356068236
6.861265408,1.0000409925879918,-80.22680333440232
6.870144512,1.0000211147700535,-80.5716112378582
6.879023104,0.9999999680031747,-80.9161616943253
6.887902208,0.9999786198271212,-81.2604449309724
6.896781312,0.9999583266088168,-81.60446769102897
6.905660416,0.9999399070643139,-81.94829087305519
6.91453952,0.9999245791823624,-82.2918409657487
6.923418624,0.9999128819239652,-82.6352764343864
6.932297216,0.9999057141308154,-82.9785901210104
6.94117632,0.9999033470067765,-83.32187344696003
6.950055424,0.9999057234782881,-83.6651897580238
6.958934528,0.999912978714496,-84.008577279406
6.967813632,0.9999245620088304,-84.35209881996234
6.976692736,0.9999401261189627,-84.69581932309677
6.98557184,0.9999586329723508,-85.03980408534105
6.994450432,0.9999791368728554,-85.38403108029817
7.003329536,1.0000005580594833,-85.72857499917723
7.01220864,1.0000219831428756,-86.07339877855321
7.021087744,1.0000420543110817,-86.41853038105148
7.029966848,1.0000599091009144,-86.7639320119475
7.038845952,1.0000743582077891,-87.10957971361425
7.047724544,1.0000849086898924,-87.4553844669143
7.056603648,1.0000908475318138,-87.80134944739558
7.065482752,1.0000920157095676,-88.14734130083905
7.074361856,1.0000881306725204,-88.49336850052715
7.08324096,1.0000795479513855,-88.8393248502912
7.092120064,1.0000667445139204,-89.18514463411573
7.100998656,1.0000501042733494,-89.53078506918136
7.10987776,1.0000309432500323,-89.87623715712016
7.118756864,1.0000097329683317,-90.22143063430893
7.127635968,0.9999880599307804,-90.56637479204252
7.136515072,0.9999668405460072,-90.91101743365604
7.145394176,0.9999470072846618,-91.25540803826425
7.15427328,0.9999300049144488,-91.59962700715796
7.163151872,0.9999162879437905,-91.94363673696486
7.172030976,0.9999069491053583,-92.28748238661255
7.18091008,0.9999023371380431,-92.6312986850428
7.189789184,0.9999026833389789,-92.97509435049847
7.198668288,0.999907834300292,-93.31890729086867
7.207547392,0.9999178559684296,-93.66285101772608
7.216425984,0.9999319732112386,-94.0069965007026
7.225305088,0.9999494988802338,-94.35136972607296
7.234184192,0.9999695653974988,-94.69598956696666
7.243063296,0.9999912814494022,-95.04089472158745
7.2519424,1.000013177962022,-95.3861283692031
7.260821504,1.0000342616732538,-95.731655485254
7.269700096,1.000053502177628,-96.07743103721509
7.2785792,1.0000698986194965,-96.42352843928447
7.287458304,1.0000824858071593,-96.76979381980998
7.296337408,1.0000906445312898,-97.11620900945705
7.305216512,1.0000940297073695,-97.4627494451685
7.314095616,1.0000923173543668,-97.80930464908246
7.32297472,1.000085645795642,-98.15580053491495
7.331853312,1.0000744600538518,-98.50220091791238
7.340732416,1.0000591805480314,-98.84846645296112
7.34961152,1.000040614487546,-99.19450845502362
7.358490624,1.0000198554357649,-99.54034822595888
7.367369728,0.9999979392700465,-99.88588481790954
7.376248832,0.999975934378426,-100.23115555835031
7.385127424,0.9999549490392026,-100.57618553420959
7.394006528,0.9999363410029253,-100.92094341466387
7.402885632,0.9999207568956966,-101.26549270300656
7.411764736,0.9999093078896464,-101.60989950746563
7.42064384,0.9999023793099671,-101.95418949240559
7.429522944,0.9999003888988205,-102.29844166942131
7.438401536,0.9999035773764389,-102.64274326845205
7.44728064,0.9999117250349919,-102.98707294633553
7.456159744,0.9999242295082086,-103.33160077364657
7.465038848,0.9999406506226852,-103.67636016035863
7.473917952,0.9999600599402516,-104.02131225827429
7.482797056,0.9999814878196671,-104.36660675995857
7.49167616,1.0000037850487125,-104.71216708406197
7.500554752,1.0000258471181742,-105.05804001845968
7.509433856,1.0000464320063878,-105.40422857867907
7.51831296,1.000064484970298,-105.75068753498715
7.527192064,1.0000791343937183,-106.09735206192191
7.536071168,1.0000895161548033,-106.4442381066854
7.544950272,1.000095117893666,-106.79121597685993
7.553828864,1.0000956999054018,-107.13825277614
7.562707968,1.000091144061132,-107.4852955784747
7.571587072,1.0000816629315552,-107.83225459701963
7.580466176,1.0000678326593948,-108.17905551592118
7.58934528,1.0000503674621377,-108.52570633683781
7.598224384,1.0000300439017655,-108.87210817198729
7.607102976,1.0000081785875803,-109.21827774731017
7.61598208,0.9999856303931862,-109.56414509770289
7.624861184,0.999963637848568,-109.90971403434763
7.633740288,0.9999435167894867,-110.25505776645845
7.642619392,0.9999261789381415,-110.60016209828328
7.651498496,0.9999124803661825,-110.94507111137014
7.6603776,0.9999034045747137,-111.28983437283232
7.669256192,0.9998990898605586,-111.63454176794873
7.678135296,0.9999000634102747,-111.97923247286636
7.6870144,0.999906081303228,-112.32400590524465
7.695893504,0.9999168849127233,-112.66887432123161
7.704772608,0.9999320035364435,-113.01395210781517
7.713651712,0.9999505242479992,-113.35925482683764
7.722530304,0.9999716535763944,-113.70482260297311
7.731409408,0.9999940701967664,-114.05071061562242
7.740288512,1.0000168191204641,-114.39692011635101
7.749167616,1.0000385832819734,-114.74340877875325
7.75804672,1.000058223283952,-115.0902327165522
7.766925824,1.0000748386472078,-115.43728496100874
7.775804416,1.0000873990246455,-115.78452855142255
7.78468352,1.0000953714869203,-116.13196489476067
7.793562624,1.0000982124315279,-116.47943431135555
7.802441728,1.000095856072957,-116.82696105166343
7.811320832,1.000088429585827,-117.17441815815766
7.820199936,1.0000762580248448,-117.52177296946607
7.82907904,1.0000599959424636,-117.86895677128878
7.837957632,1.0000404649285881,-118.2159500067236
7.846836736,1.000018700607144,-118.56266272073552
7.85571584,0.9999958285656289,-118.90907348429212
7.864594944,0.9999731466858934,-119.25521991111832
7.873474048,0.9999516073441234,-119.60108072416038
7.882353152,0.9999325043870143,-119.94670246286596
7.891231744,0.9999168454182044,-120.2921202411633
7.900110848,0.9999053803833402,-120.63737496495577
7.908989952,0.9998988399627876,-120.98248976961487
7.917869056,0.9998974483061839,-121.32758270778669
7.92674816,0.9999012199663456,-121.67270840478936
7.935627264,0.9999101481252601,-122.0179431785057
7.944505856,0.9999236701180457,-122.36330382777052
7.95338496,0.9999411648832239,-122.70891588388135
7.962264064,0.9999616604164214,-123.05477002594215
7.971143168,0.9999840405454139,-123.40094543277017
7.980022272,1.0000072862889242,-123.74741772685239
7.988901376,1.0000299773064143,-124.09421626899034
7.99778048,1.0000511695791583,-124.44130864037533
8.006659072,1.0000695315455541,-124.78868695799738
8.015538176,1.0000843009013993,-125.13629706075368
8.02441728,1.000094614630891,-125.48406805757064
8.033296384,1.0000998030595822,-125.8319715415518
8.042175488,1.0000998593453685,-126.17993478820344
8.051054592,1.0000944346725515,-126.52787272273957
8.059933184,1.0000840953805927,-126.87571101399811
8.068812288,1.0000693299089785,-127.22341075248838
8.077691392,1.0000507748754308,-127.57087756558403
8.086570496,1.00002942359746,-127.91814553443692
8.0954496,1.0000064575285414,-128.26510016870438
8.104328704,0.999983061448551,-128.61177143198827
8.113207296,0.9999604557125684,-128.95815129810907
8.1220864,0.9999398056432595,-129.3042588247622
8.130965504,0.9999221444788117,-129.65014460749427
8.139844608,0.999908469742549,-129.99581141263485
8.148723712,0.9998994744593265,-130.34135608246257
8.157602816,0.9998957031685466,-130.68682519888847
8.16648192,0.9998972250955547,-131.03228922856016
8.175360512,0.9999040154113733,-131.3778156534131
8.184239616,0.9999158406444227,-131.72349781276307
8.19311872,0.9999319376113208,-132.06935757249505
8.201997824,0.9999516022060676,-132.41546152437894
8.210876928,0.999973736971426,-132.76187631680105
8.219756032,0.9999972028654702,-133.1085709644287
8.228634624,1.0000207607106053,-133.45561021090936
8.237513728,1.0000432330833093,-133.8029640034556
8.246392832,1.0000633394387657,-134.1506232530303
8.255271936,1.0000801400090362,-134.49852294760564
8.26415104,1.0000927482281028,-134.8466381129312
8.273030144,1.0001004309768045,-135.19490157755345
8.281908736,1.0001028033367045,-135.54324463227337
8.29078784,1.0000997807000884,-135.89157953289495
8.299666944,1.0000914666937486,-136.23986428432465
8.308546048,1.0000782312908358,-136.58803938288636
8.317425152,1.0000609921399404,-136.9360195231156
8.326304256,1.000040291313584,-137.28371886489373
8.33518336,1.0000175139550183,-137.63120315400394
8.344061952,0.9999936694127607,-137.97837291146428
8.352941056,0.9999701179028545,-138.32522506882117
8.36182016,0.999947918055696,-138.67178957787206
8.370699264,0.999928460753657,-139.01811535194753
8.379578368,0.9999125815770687,-139.3641985458849
8.388457472,0.9999011750866079,-139.7101355970064
8.397336064,0.9998948348596924,-140.05596519335515
8.406215168,0.9998940484792207,-140.40172825767473
8.415094272,0.9998986590886547,-140.7475707751033
8.423973376,0.9999084151093445,-141.09348686104659
8.43285248,0.9999230190627025,-141.43957821085527
8.441731584,0.9999416143739491,-141.78590239410624
8.450610688,0.9999632169778447,-142.13250711087605
8.45948928,0.9999866549861919,-142.4794064933187
8.468368384,1.0000107703089292,-142.82665529141664
8.477247488,1.0000343901839412,-143.17421020329567
8.486126592,1.0000561264707546,-143.52208504342076
8.495005696,1.000074926377142,-143.87022912976767
8.5038848,1.0000897815291643,-144.21861716557706
8.512763392,1.0000999884866502,-144.56718798257174
8.521642496,1.0001048168600932,-144.91583977972797
8.5305216,1.0001042058181517,-145.26456256517713
8.539400704,1.0000980931088608,-145.61324321888506
8.548279808,1.0000867570654222,-145.9618209578527
8.557158912,1.0000708608769047,-146.31022986646764
8.566037504,1.0000512193299276,-146.6584058576042
8.574916608,1.0000287455877976,-147.00634135862217
8.583795712,1.0000046893323205,-147.35395890543353
8.592674816,0.9999803309287378,-147.70129473886385
8.60155392,0.9999569187211044,-148.0482970928865
8.610433024,0.9999356544093961,-148.39503188602066
8.619312128,0.9999176789670581,-148.74151231478257
8.628191232,0.9999039549468365,-149.0878073514989
8.637070336,0.9998952026165363,-149.43394368695775
8.64594944,0.9998917375732544,-149.78000820928764
8.65482752,0.9998939777760059,-150.12610132128074
8.663706624,0.9999016526791693,-150.47223041775234
8.672585728,0.9999145305879075,-150.81852568664877
8.681464832,0.9999317367628865,-151.16502738265063
8.690343936,0.9999525234172928,-151.51179402122892
8.69922304,0.9999757577506582,-151.85884939985928
8.708102144,1.000000297031298,-152.20623571945086
8.716981248,1.0000247986563664,-152.55396150177563
8.725860352,1.000048019063583,-152.902018932732
8.734739456,1.0000687123765546,-153.2503638305549
8.74361856,1.0000858393225989,-153.59895837996882
8.752497664,1.0000984106284323,-153.94777389233752
8.761375744,1.000105785615841,-154.29669270361978
8.770254848,1.0001077005022652,-154.64571367831397
8.779133952,1.0001039493965653,-154.99473973847225
8.788013056,1.0000947416614592,-155.34370686404367
8.79689216,1.0000805091537346,-155.69251043971056
8.805771264,1.0000619816885483,-156.04111007066098
8.814650368,1.0000400998039203,-156.38946821028128
8.823529472,1.0000162253428548,-156.73747871669573
8.832408576,0.9999912897227837,-157.08521701018293
8.84128768,0.9999667734886294,-157.4326677897058
8.850166784,0.9999439128636471,-157.77975645692396
8.859045888,0.9999239510452036,-158.12661180623576
8.867924992,0.9999078529053458,-158.47323217351857
8.876803072,0.9998964703975528,-158.8196688093206
8.885682176,0.9998905284323351,-159.166032456947
8.89456128,0.9998902062356192,-159.51230893038593
8.903440384,0.9998956374359741,-159.8586684879714
8.912319488,0.9999064944439876,-160.20513405415215
8.921198592,0.999922181470464,-160.55177410699682
8.930077696,0.9999419257851966,-160.89865026318535
8.9389568,0.999964717493836,-161.24581651211992
8.947835904,0.9999893993944264,-161.59330345034013
8.956715008,1.0000146000827164,-161.94113910436351
8.965594112,1.0000390791056262,-162.28929830826436
8.974473216,1.0000615113251967,-162.63779396832663
8.98335232,1.000080827399944,-162.98654711854377
8.9922304,1.000095817882753,-163.33554808635398
9.001109504,1.0001058477587432,-163.68472396955812
9.009988608,1.0001103633634396,-164.0340047027478
9.018867712,1.0001090645686348,-164.38331321223282
9.027746816,1.0001020994102017,-164.7325751281962
9.03662592,1.0000896660871297,-165.081724242184
9.045505024,1.0000725613349792,-165.43069108097382
9.054384128,1.0000516945528644,-165.77940008815503
9.063263232,1.0000279798442469,-166.12783650593835
9.072142336,1.0000028086445447,-166.4759707383629
9.08102144,0.999977400393359,-166.82374978444955
9.089900544,0.9999530797212557,-167.17122476941785
9.098778624,0.9999312522254915,-167.5183975736203
9.107657728,0.9999128946226161,-167.8653335239466
9.116536832,0.9998990667436435,-168.2120309114702
9.125415936,0.9998903577981761,-168.5586021622359
9.13429504,0.9998874608947604,-168.90508899052207
9.143174144,0.9998903736653056,-169.25161910251592
9.152053248,0.9998990713925334,-169.59819263029837
9.160932352,0.9999129318185306,-169.9449441583166
9.169811456,0.9999313335399113,-170.29190635786202
9.17869056,0.9999534027402911,-170.6391422962088
9.187569664,0.9999779855543156,-170.9866962106391
9.196448768,1.0000036053172794,-171.3345609219614
9.205327872,1.0000291969250568,-171.68280474232068
9.214205952,1.0000532079918754,-172.03138822220257
9.223085056,1.000074456518479,-172.38023666555748
9.23196416,1.0000918695382275,-172.72940208805298
9.240843264,1.0001045170280156,-173.078710169694
9.249722368,1.0001116990277488,-173.42819367179573
9.258601472,1.000113115391349,-173.77774538585516
9.267480576,1.0001085401400032,-174.12725715205258
9.27635968,1.0000982929032531,-174.47669477103986
9.285238784,1.0000828410886673,-174.82599487146845
9.294117888,1.0000630834734598,-175.17502410105854
9.302996992,1.0000399426844235,-175.52380575774137
9.311876096,1.0000147293546275,-175.8722495147702
9.3207552,0.9999886169227251,-176.22039883829052
9.32963328,0.9999631348899705,-176.56819935561808
9.338512384,0.9999394288116508,-176.91565922987905
9.347391488,0.9999188776504363,-177.2628655161476
9.356270592,0.9999025822329651,-177.60984292439298
9.365149696,0.9998912417575486,-177.95660477311142
9.3740288,0.9998856233649874,-178.30327270910865
9.382907904,0.9998857912164315,-178.64991617535372
9.391787008,0.9998921408652882,-178.99659114093697
9.400666112,0.9999040083365105,-179.343403591974
9.409545216,0.9999210173233664,-179.69041394036043
9.41842432,0.9999420418089539,179.96234531320005
9.427303424,0.9999662162474301,179.61476872432223
9.436182528,0.9999921551502267,179.2668741388816
9.445060608,1.0000184814476083,178.91862755748048
9.453939712,1.0000439456398738,178.57000531368897
9.462818816,1.0000671211620893,178.2211051721904
9.47169792,1.0000869777493147,177.87189740865676
9.480577024,1.0001021223230309,177.52245069749398
9.489456128,1.0001120787326634,177.17283948994896
9.498335232,1.000116176075832,176.82311850156304
9.507214336,1.0001142074856768,176.47338574171295
9.51609344,1.000106323036723,176.1237025918347
9.524972544,1.0000928262136155,175.7741746382452
9.533851648,1.0000744258736431,175.42484039460933
