freq,mag,phase
6.0,1.0002628985023767,-87.13794199074741
6.002287616,1.000322583698288,-87.27272503566672
6.004575232,1.000364546862991,-87.40830556607233
6.006862848,1.000383871067324,-87.54430046726759
6.009150464,1.0003793791979527,-87.68043391429151
6.011438592,1.0003513758666271,-87.81637517219345
6.013726208,1.0003014385081284,-87.95176719714763
6.016013824,1.000233137023802,-88.08631246875194
6.01830144,1.0001503118183497,-88.21978185788018
6.020589056,1.0000586619311043,-88.35196889380956
6.022876672,0.9999637734404719,-88.48283812886385
6.025164288,0.9998717744969475,-88.61232772613991
6.027451904,0.9997884153265718,-88.74055931978954
6.029740032,0.999719201152723,-88.86773035276573
6.032027648,0.9996682400000777,-88.99403049449714
6.034315264,0.9996394066610543,-89.11974127182764
6.03660288,0.9996339169505218,-89.24523186468522
6.038890496,0.9996522780853714,-89.37082320427393
6.041178112,0.9996936706351963,-89.49687148613485
6.043465728,0.9997550103219733,-89.62369577724066
6.045753344,0.9998327913247831,-89.7515519430062
6.04804096,0.9999219433623652,-89.88059954056556
6.050329088,1.00001646929137,-90.01099395646284
6.052616704,1.000110993315202,-90.14286228379389
6.05490432,1.000198761291948,-90.2759780636309
6.057191936,1.0002748041571843,-90.41037382048992
6.059479552,1.000333865845061,-90.54575282217856
6.061767168,1.0003723200925942,-90.68186440685145
6.064054784,1.000387906109847,-90.81836506848153
6.0663424,1.0003791470784225,-90.95493662789544
6.068630016,1.0003470153411271,-91.09125879895394
6.070918144,1.0002933613046758,-91.22695247461354
6.07320576,1.0002215034624973,-91.3617357919087
6.075493376,1.0001363144285134,-91.49543534088261
6.077780992,1.0000427729578154,-91.62778460339784
6.080068608,0.9999472188103414,-91.75879545899224
6.082356224,0.9998555738063454,-91.88846992578094
6.08464384,0.9997737029968201,-92.01690562936558
6.086931456,0.9997066869418125,-92.14424883802302
6.089219584,0.9996589960968603,-92.27076121977618
6.0915072,0.9996338093307133,-92.39675571061008
6.093794816,0.9996322927591539,-92.52257821340947
6.096082432,0.9996549219807603,-92.64861301834469
6.098370048,0.9997002990609675,-92.77507506406947
6.100657664,0.9997652939945457,-92.90240992681483
6.10294528,0.9998459727704102,-93.03076431481307
6.105232896,0.9999370833669806,-93.1604424397628
6.107520512,1.0000329883433585,-93.29149574119222
6.10980864,1.0001272923076125,-93.42392904668908
6.112096256,1.0002142908599736,-93.55772442411144
6.114383872,1.0002883294318796,-93.69264730080792
6.116671488,1.00034466782487,-93.82856513490496
6.118959104,1.0003797158802932,-93.96522991163047
6.12124672,1.0003910596105505,-94.10217491427038
6.123534336,1.0003783560671133,-94.23916407201897
6.125821952,1.0003422222633913,-94.37577053320696
6.128109568,1.000284730967317,-94.5117210784703
6.130397696,1.0002096371616986,-94.64677898703354
6.132685312,1.0001218200080777,-94.78060081153421
6.134972928,1.0000268608234015,-94.91314586114888
6.137260544,0.9999306101265065,-95.04427682851323
6.13954816,0.9998395434734394,-95.17407236569754
6.141835776,0.9997591255681542,-95.30264023673968
6.144123392,0.9996946868460027,-95.43013775804476
6.146411008,0.9996502343666429,-95.55687731484758
6.148699136,0.9996288497436828,-95.68315991541472
6.150986752,0.9996314197068695,-95.80930459663514
6.153274368,0.999658267882083,-95.93565551021312
6.155561984,0.9997076944519723,-96.06260014757675
6.1578496,0.9997762897906682,-96.19038311667988
6.160137216,0.9998596571968253,-96.31930911489488
6.162424832,0.9999526496287239,-96.44958356121725
6.164712448,1.0000495364157738,-96.5811967902318
6.167000064,1.0001438362035397,-96.71421469238686
6.169288192,1.0002296698144564,-96.84858693993974
6.171575808,1.0003017185716188,-96.98408235384034
6.173863424,1.0003549944818215,-97.12053127208279
6.17615104,1.0003864913421967,-97.25761677254727
6.178438656,1.0003938553783112,-97.39501678315953
6.180726272,1.0003769804017595,-97.53231398309924
6.183013888,1.0003365077387498,-97.66926004447743
6.185301504,1.0002752434626947,-97.80547257443624
6.18758912,1.00019712533565,-97.94066306688704
6.189877248,1.00010686777807,-98.07465468922808
6.192164864,1.0000104824492535,-98.20726815318315
6.19445248,0.9999140920440545,-98.3385164025692
6.196740096,0.9998236001610341,-98.4684161893902
6.199027712,0.9997448006369799,-98.59709791533514
6.201315328,0.9996829899874108,-98.72476535345724
6.203602944,0.999641872411593,-98.85166530544565
6.20589056,0.9996243387358639,-98.97819319285315
6.208178688,0.9996311938681004,-99.10460101676875
6.210466304,0.999662295206476,-99.23134598997181
6.21275392,0.9997154341888446,-99.35868824410576
6.215041536,0.9997874297260918,-99.4869349915524
6.217329152,0.9998736748787035,-99.61638671290325
6.219616768,0.999968500388311,-99.74715691510366
6.221904384,1.0000662646937084,-99.87934457650466
6.224192,1.000160332422941,-100.01291969321126
6.226479616,1.0002448876384187,-100.14782836706874
6.228767744,1.0003145478363162,-100.28389133932065
6.23105536,1.0003648277213508,-100.4208055685739
6.233342976,1.0003925223227699,-100.55834415152933
6.235630592,1.000395954864021,-100.69609491739814
6.237918208,1.0003746965836167,-100.83376867928799
6.240205824,1.0003300484488198,-100.97088458356697
6.24249344,1.0002653517292364,-101.10729631299509
6.244781056,1.0001841410428516,-101.24262073071779
6.247068672,1.0000916984716521,-101.37669375592212
6.2493568,0.9999940307671619,-101.50943972787448
6.251644416,0.999897403928501,-101.64073637628458
6.253932032,0.9998076644024391,-101.77069922612017
6.256219648,0.9997308597761816,-101.89944035459914
6.258507264,0.999671805461168,-102.02724038437078
6.26079488,0.9996342243394021,-102.15431825472177
6.263082496,0.9996205525554924,-102.28105707213086
6.265370112,0.9996316411219943,-102.4077440757826
6.26765824,0.999666841215696,-102.53481874167167
6.269945856,0.9997240008458353,-102.66253794547363
6.272233472,0.9997992781274563,-102.7912626191384
6.274521088,0.9998880647331885,-102.92116482545242
6.276808704,0.9999848169322323,-103.05245273389889
6.27909632,1.000083145305162,-103.18516675054722
6.281383936,1.000176732945455,-103.31930682027578
6.283671552,1.000259850729764,-103.45475246923787
6.285959168,1.0003270316858526,-103.59126405863229
6.288247296,1.0003741600356089,-103.72865773074089
6.290534912,1.0003980541759039,-103.86654855319196
6.292822528,1.0003972989290841,-104.00464960189021
6.295110144,1.000371856384296,-104.14252395470615
6.29739776,1.0003233219471053,-104.2799528485906
6.299685376,1.0002547374783812,-104.41648494226692
6.301972992,1.0001705290843081,-104.55189400260686
6.304260608,1.0000761789535277,-104.68606892158634
6.306548224,0.9999773151018457,-104.81883737089906
6.308836352,0.9998805495312968,-104.95016130899799
6.311123968,0.9997920288858726,-105.08016370236585
6.313411584,0.9997172593040291,-105.20899414690632
6.3156992,0.9996609524512727,-105.3368477952309
6.317986816,0.9996270195136004,-105.4640653951155
6.320274432,0.9996174601995614,-105.59098886728776
6.322562048,0.999632800045848,-105.71791282810231
6.324849664,0.9996721569076145,-105.84528843107839
6.327137792,0.9997331953001303,-105.97341095137521
6.329425408,0.999811709388663,-106.10254088690195
6.331713024,0.9999030518887382,-106.2329310302476
6.33400064,1.0000012075510787,-106.3646946498269
6.336288256,1.0000999741361891,-106.49788395931843
6.338575872,1.0001931121611294,-106.63252144182647
6.340863488,1.0002745553094468,-106.76845182937537
6.343151104,1.0003392351609692,-106.90543417444789
6.34543872,1.0003829819340107,-107.04321940230501
6.347726848,1.0004030144143625,-107.18144447797089
6.350014464,1.0003979842943675,-107.3198161094867
6.35230208,1.0003683815325506,-107.4579988361137
6.354589696,1.000315767315927,-107.59555579785972
6.356877312,1.000243542510135,-107.73222376284663
6.359164928,1.0001567292012807,-107.86769951762768
6.361452544,1.000060267784679,-108.00184804302995
6.36374016,0.9999605106236198,-108.13462858297657
6.366027776,0.9998639378060121,-108.2659764042741
6.368315904,0.9997764253983624,-108.39595884940857
6.37060352,0.9997039513199356,-108.52480605412876
6.372891136,0.9996507145141804,-108.65277853316324
6.375178752,0.99962046144575,-108.78009388708112
6.377466368,0.9996150068380698,-108.90718706914187
6.379753984,0.9996345951638593,-109.03434565533604
6.3820416,0.9996781838217743,-109.1620119929561
6.384329216,0.9997429658369553,-109.29046294630072
6.386617344,0.9998247436747933,-109.42000023179128
6.38890496,0.9999183790303682,-109.55078822939932
6.391192576,1.0000179121100632,-109.68304030923137
6.393480192,1.0001169954302278,-109.81670397424718
6.395767808,1.0002093507307566,-109.95181214702062
6.398055424,1.0002890558099096,-110.08815762040673
6.40034304,1.0003510047411437,-110.22558963915547
6.402630656,1.0003913453341904,-110.36369658493238
6.404918272,1.000407321121836,-110.50228658730192
6.4072064,1.0003980929725507,-110.64091394076185
6.409494016,1.0003641650433461,-110.77923221354271
6.411781632,1.0003075656501168,-110.91689285487541
6.414069248,1.0002320661381194,-111.05365264063393
6.416356864,1.0001422943848273,-111.18914362377112
6.41864448,1.000044053698486,-111.3233267070641
6.420932096,0.9999436301105311,-111.45604396447429
6.423219712,0.9998473284561933,-111.5873258677387
6.425507328,0.9997612026147766,-111.71731942283861
6.427795456,0.9996910210950978,-111.84613336160322
6.430083072,0.9996410907725339,-111.97413801543482
6.432370688,0.9996145673584178,-112.101539916292
6.434658304,0.99961324505077,-112.22880002602022
6.43694592,0.999637194111593,-112.3561640243279
6.439233536,0.9996849685695108,-112.48411775642428
6.441521152,0.9997534185131558,-112.6128404679514
6.443808768,0.9998383118259352,-112.74276737290145
6.446096896,0.9999341183152795,-112.87400917007172
6.448384512,1.000034981515324,-113.0066414008568
6.450672128,1.0001342128420752,-113.14081166578755
6.452959744,1.0002255954504107,-113.27630706172937
6.45524736,1.0003033106060548,-113.41305262653226
6.457534976,1.000362376778754,-113.55082335467391
6.459822592,1.0003991388453932,-113.68930328689017
6.462110208,1.000411076547575,-113.82812996292527
6.464397824,1.0003975322998386,-113.96697188773136
6.466685952,1.000359313478964,-114.10542528588861
6.468973568,1.0002988371289325,-114.24318295239898
6.471261184,1.0002197898023204,-114.37995435454117
6.4735488,1.0001275191690933,-114.51546398366803
6.475836416,1.000027564853785,-114.6495528415235
6.478124032,0.9999265411575254,-114.7822441134498
6.480411648,0.9998307255938024,-114.91344223001906
6.482699264,0.9997461543942777,-115.04336732129259
6.48498688,0.9996785298721551,-115.17216719083552
6.487275008,0.9996318007770196,-115.30013890568208
6.489562624,0.9996091736441124,-115.42762563911006
6.49185024,0.9996120950266927,-115.55497329166428
6.494137856,0.9996403836699986,-115.68258667731922
6.496425472,0.9996923077443176,-115.81070287183803
6.498713088,0.9997644203301655,-115.93980612890482
6.501000704,0.9998522852797982,-116.07003191043054
6.50328832,0.999950236327338,-116.20164264950965
6.505576448,1.000052053435332,-116.33468812588949
6.507864064,1.000151194595778,-116.46919082929473
6.51015168,1.000241496332465,-116.60513556878726
6.512439296,1.000317102829727,-116.74229528337081
6.514726912,1.0003731557914737,-116.88038952571182
6.517014528,1.000406253746922,-117.01912174511156
6.519302144,1.000414080522517,-117.15821204234805
6.52158976,1.000396177080189,-117.29719882303192
6.523877376,1.000353640933376,-117.43575673919794
6.526165504,1.0002893104644015,-117.5735502851659
6.52845312,1.000207096649525,-117.71026993060656
6.530740736,1.0001122480235758,-117.84574710396923
6.533028352,1.0000108289462974,-117.97975552607421
6.535315968,0.9999093019843412,-118.11227871021278
6.537603584,0.9998141465541763,-118.24343570620941
6.5398912,0.999731293714359,-118.3732530457031
6.542178816,0.9996662200690393,-118.5020134641159
6.544466432,0.9996230731116839,-118.62995245997773
6.54675456,0.9996044620962138,-118.75747975965605
6.549042176,0.9996116643981932,-118.88491533140169
6.551329792,0.9996443253534751,-119.01263002444688
6.553617408,0.9997002361450047,-119.14102266135352
6.555905024,0.9997759836905191,-119.27036341886864
6.55819264,0.9998666826820196,-119.40092990196716
6.560480256,0.9999666297678513,-119.53287312185765
6.562767872,1.0000692908602846,-119.66632976679375
6.565056,1.0001683301963098,-119.80122374057122
6.567343616,1.0002572929495943,-119.93751953361782
6.569631232,1.0003306428252114,-120.07494953535965
6.571918848,1.0003836136138773,-120.21335657932454
6.574206464,1.0004129116642904,-120.352334316453
6.57649408,1.0004164416812802,-120.49162185920677
6.578781696,1.0003941749252194,-120.63070150091289
6.581069312,1.0003473774454663,-120.76934208741936
6.583356928,1.0002792716056674,-120.90714372930367
6.585645056,1.0001938014279406,-121.04379290663918
6.587932672,1.0000965857077118,-121.17911738901363
6.590220288,0.9999938661959326,-121.31300296889627
6.592507904,0.9998920034434513,-121.44542325685646
6.59479552,0.9997976009528355,-121.57640392900879
6.597083136,0.9997167300161653,-121.70611876997731
6.599370752,0.9996545237846287,-121.83475283210426
6.601658368,0.9996148420706501,-121.96267219396488
6.603945984,0.9996003071448812,-122.09021910386065
6.606234112,0.9996119885258669,-122.21770373340603
6.608521728,0.9996489333004235,-122.34556750175874
6.610809344,0.9997089963209259,-122.47413221575844
6.61309696,0.9997882423935239,-122.60373947710609
6.615384576,0.9998816314947965,-122.73457244934961
6.617672192,0.9999832504619751,-122.86686245879605
6.619959808,1.0000867600114818,-123.00062091548298
6.622247424,1.0001853474326026,-123.13585194526114
6.624535552,1.0002729239299035,-123.27248323895245
6.626823168,1.0003438052990803,-123.41023398449059
6.629110784,1.0003934827131709,-123.54887046271082
6.6313984,1.0004188134213838,-123.6880546710745
6.633686016,1.0004181013797866,-123.82745030995419
6.635973632,1.0003913530252297,-123.96662124694198
6.638261248,1.0003404177174446,-124.10526306717325
6.640548864,1.0002683736735325,-124.24302025072532
6.64283648,1.0001798158060846,-124.37956458399961
6.645124608,1.0000804424448264,-124.51476398757579
6.647412224,0.9999765000038545,-124.64850624750952
6.64969984,0.999874524066074,-124.78070090924538
6.651987456,0.9997811974124102,-124.91150584274365
6.654275072,0.9997023800439232,-125.04105957189186
6.656562688,0.9996430575965987,-125.1695966338703
6.658850304,0.999607167351318,-125.29742671315047
6.66113792,0.999596794214615,-125.42495190542053
6.663426048,0.9996128528685052,-125.55252724698927
6.665713664,0.9996542194629687,-125.68046310200104
6.66800128,0.9997182266536558,-125.8091656599827
6.670288896,0.9998009232061854,-125.93900551415184
6.672576512,0.9998969906168502,-126.07009776197762
6.674864128,1.0000003180786008,-126.20268736075109
6.677151744,1.000104330302205,-126.33676393170524
6.67943936,1.0002024047588989,-126.4723226783176
6.681726976,1.0002883631011112,-126.60919052063076
6.684015104,1.0003565951457094,-126.74721509502226
6.68630272,1.000402776564959,-126.88608004253986
6.688590336,1.0004241134271314,-127.02543314381543
6.690877952,1.00041908614669,-127.16491734765629
6.693165568,1.0003879626609313,-127.304095815862
6.695453184,1.000332717485571,-127.44269844697439
6.6977408,1.0002570191212246,-127.58034272374861
6.700028416,1.0001653964545112,-127.71676261022162
6.702316032,1.0000639807127638,-127.85177175633653
6.70460416,0.9999589025530873,-127.98526565585776
6.706891776,0.999857055668842,-128.11727070657312
6.709179392,0.99976490321368,-128.24787720733224
6.711467008,0.9996883153260272,-128.3772215731063
6.713754624,0.9996320969767349,-128.50562225542797
6.71604224,0.9996000342240858,-128.63335693807406
6.718329856,0.9995940067238278,-128.76083506490133
6.720617472,0.9996144363587635,-128.88839508408816
6.7229056,0.9996601511269005,-129.01646488303456
6.725193216,0.9997282749670096,-129.14532642482888
6.727480832,0.9998141821327864,-129.27532064777841
6.729768448,0.9999127611521528,-129.40666146146467
6.732056064,1.0000175526828547,-129.53950677754983
6.73434368,1.0001220791709433,-129.6738381451586
6.736631296,1.0002194197844174,-129.80965287510745
6.738918912,1.0003035041494333,-129.94681344153216
6.741206528,1.000368915505074,-130.0850462144343
6.743494656,1.000411602453614,-130.22407058872986
6.745782272,1.0004287718866531,-130.36352245114688
6.748069888,1.0004192433342785,-130.50302029371892
6.750357504,1.000383665306568,-130.64222061959984
6.75264512,1.0003242350144792,-130.78074514323026
6.754932736,1.0002448718431236,-130.9182384321888
6.757220352,1.000150485218682,-131.05445328881322
6.759507968,1.0000469815232043,-131.18922825802176
6.761795584,0.9999410983804262,-131.32250087382545
6.764083712,0.9998395366309395,-131.45427019907106
6.766371328,0.9997487107290409,-131.5846057594965
6.768658944,0.9996744931482949,-131.71374859087754
6.77094656,0.9996216621624827,-131.8419308232988
6.773234176,0.9995934688243936,-131.96956863573362
6.775521792,0.9995917414244123,-132.09694654437197
6.777809408,0.9996167144993934,-132.22453952334024
6.780097024,0.9996668916721572,-132.35260235136917
6.782385152,0.9997387354155478,-132.4816294176453
6.784672768,0.9998280558641294,-132.6117886065909
6.786960384,0.9999290619629203,-132.7433500770657
6.789248,1.0000351722104965,-132.87637968251798
6.791535616,1.000139870238699,-133.01099998574313
6.793823232,1.000236274085764,-133.14705371051642
6.796110848,1.000318491416117,-133.2843844007413
6.798398464,1.0003808648994401,-133.4228249547989
6.80068608,1.0004199697180076,-133.56196133217077
6.802974208,1.0004328213679266,-133.70147644006565
6.805261824,1.0004188402073588,-133.8410143593593
6.80754944,1.0003788035210242,-133.9801316314685
6.809837056,1.00031523172923,-134.11851623694523
6.812124672,1.0002322449213479,-134.2558147637282
6.814412288,1.0001349738551848,-134.39181197976112
6.816699904,1.000029730586901,-134.5263312551348
6.81898752,0.9999231236800141,-134.65931805619476
6.821275136,0.9998220461531506,-134.79076984200694
6.823563264,0.9997327569424381,-134.92082771931527
6.82585088,0.9996610769855793,-135.0497093601891
6.828138496,0.9996116449603396,-135.17770467314165
6.830426112,0.9995875089459572,-135.30517188947994
6.832713728,0.9995902988965771,-135.4324708368785
6.835001344,0.9996197676543349,-135.559990607801
6.83728896,0.9996742192179424,-135.68815521207216
6.839576576,0.9997500845351496,-135.81721460414042
6.841864704,0.999842516000701,-135.94752311639638
6.84415232,0.9999456556586599,-136.07926462455836
6.846439936,1.000053046451438,-136.21251561310905
6.848727552,1.0001577207693289,-136.34730836872868
6.851015168,1.0002530942143457,-136.4835769845829
6.853302784,1.0003330051645405,-136.6211088525956
6.8555904,1.0003924905401662,-136.7596348496754
6.857878016,1.0004275673864211,-136.8989110382671
6.860165632,1.0004361583947528,-137.0384358923401
6.86245376,1.0004176230804682,-137.1779063339199
6.864741376,1.000373107313223,-137.31693565328848
6.867028992,1.0003054663001683,-137.45514169297644
6.869316608,1.0002189579455558,-137.5922357859363
6.871604224,1.000119091074146,-137.72791588521605
6.87389184,1.0000122304642587,-137.86214004934558
6.876179456,0.9999050814778448,-137.99477951364503
6.878467072,0.9998045328286653,-138.1259140618475
6.880754688,0.9997170707010986,-138.25566721189108
6.883042816,0.9996480501087999,-138.38426958352068
6.885330432,0.9996021550323698,-138.51203638620248
6.887618048,0.9995821670238584,-138.63930948004523
6.889905664,0.9995894912188598,-138.7664711105801
6.89219328,0.999623586722122,-138.89395664802788
6.894480896,0.9996823256472502,-139.0220920790615
6.896768512,0.9997620567309377,-139.15126173909255
6.899056128,0.9998575100054079,-139.2816650801976
6.901344256,0.9999627511413532,-139.4135508206199
6.903631872,1.0000711367356543,-139.5469948176835
6.905919488,1.0001756982666556,-139.6819569097206
6.908207104,1.0002697918919092,-139.81839434404134
