freq,mag,phase
6.0,0.9999943872892163,-124.91868935243164
6.008,0.9999928253255421,-125.29403342622896
6.016,0.9999913143237242,-125.66885592482635
6.024,0.9999898533730466,-126.04315914387195
6.032,0.9999884415725004,-126.41694539824408
6.04,0.9999870780307606,-126.79021702173178
6.048,0.9999857618661566,-127.16297636671874
6.056,0.9999844922066459,-127.53522580387042
6.064,0.9999832681897827,-127.90696772182444
6.072,0.9999820889626868,-128.27820452688408
6.08,0.9999809536820121,-128.6489386427148
6.088,0.9999798615139118,-129.01917251004446
6.096,0.9999788116340034,-129.38890858636628
6.104,0.9999778032273315,-129.7581493456452
6.112,0.9999768354883324,-130.12689727802754
6.12,0.999975907620793,-130.49515488955376
6.128,0.9999750188378125,-130.86292470187442
6.136,0.9999741683617606,-131.23020925196937
6.144,0.9999733554242357,-131.59701109187023
6.152,0.9999725792660229,-131.963332788386
6.16,0.9999718391370483,-132.32917692283186
6.168,0.9999711342963354,-132.69454609076124
6.176,0.9999704640119585,-133.05944290170083
6.184,0.9999698275609968,-133.42386997888934
6.192,0.9999692242294871,-133.78782995901867
6.2,0.9999686533123728,-134.1513254919789
6.208,0.999968114113458,-134.51435924060598
6.216,0.9999676059453567,-134.87693388043297
6.224,0.9999671281294401,-135.23905209944405
6.232,0.9999666799957885,-135.6007165978319
6.24,0.9999662608831372,-135.9619300877581
6.248,0.9999658701388237,-136.32269529311657
6.256,0.9999655071187357,-136.68301494930026
6.264,0.999965171187257,-137.04289180297084
6.272,0.9999648617172117,-137.40232861183148
6.28,0.9999645780898113,-137.7613281444025
6.288,0.9999643196945978,-138.11989317980044
6.296,0.9999640859293877,-138.4780265075197
6.304,0.9999638762002174,-138.83573092721764
6.312,0.999963689921284,-139.19300924850216
6.32,0.9999635265148891,-139.54986429072284
6.328,0.9999633854113827,-139.90629888276456
6.336,0.9999632660491029,-140.2623158628442
6.344,0.9999631678743176,-140.61791807831045
6.352,0.9999630903411686,-140.97310838544632
6.36,0.9999630329116093,-141.3278896492745
6.368,0.9999629950553478,-141.6822647433658
6.376,0.9999629762497864,-142.03623654965034
6.384,0.9999629759799614,-142.38980795823147
6.392,0.9999629937384852,-142.74298186720273
6.4,0.9999630290254841,-143.09576118246721
6.408,0.9999630813485393,-143.44814881756028
6.416,0.9999631502226248,-143.8001476934745
6.424,0.999963235170049,-144.1517607384877
6.432,0.9999633357203933,-144.5029908879933
6.44,0.9999634514104486,-144.85384108433382
6.448,0.9999635817841591,-145.2043142766368
6.456,0.999963726392557,-145.55441342065342
6.464,0.9999638847937048,-145.9041414785996
6.472,0.9999640565526308,-146.25350141900012
6.48,0.9999642412412715,-146.60249621653475
6.4879999999999995,0.9999644384384074,-146.9511288518875
6.496,0.9999646477296043,-147.29940231159821
6.504,0.9999648687071495,-147.64731958791612
6.5120000000000005,0.9999651009699932,-147.9948836786572
6.52,0.9999653441236869,-148.3420975870625
6.5280000000000005,0.9999655977803203,-148.68896432166028
6.536,0.9999658615584631,-149.03548689612913
6.5440000000000005,0.9999661350831027,-149.3816683291653
6.552,0.9999664179855837,-149.72751164435056
6.5600000000000005,0.9999667099035459,-150.07301987002398
6.568,0.9999670104808669,-150.41819603915468
6.5760000000000005,0.999967319367598,-150.7630431892184
6.584,0.9999676362199066,-151.10756436207464
6.592,0.999967960700014,-151.45176260384787
6.6,0.9999682924761373,-151.79564096480948
6.608,0.9999686312224276,-152.13920249926295
6.616,0.9999689766189117,-152.48245026543057
6.624,0.9999693283514318,-152.8253873253429
6.632,0.9999696861115867,-153.16801674473004
6.64,0.9999700495966721,-153.510341592915
6.648,0.9999704185096219,-153.85236494270953
6.656,0.9999707925589502,-154.19408987031161
6.664,0.9999711714586907,-154.5355194552054
6.672,0.9999715549283418,-154.87665678006283
6.68,0.9999719426928044,-155.21750493064766
6.688,0.9999723344823284,-155.55806699572122
6.696,0.9999727300324511,-155.89834606695013
6.704,0.9999731290839428,-156.23834523881624
6.712,0.9999735313827491,-156.57806760852822
6.72,0.999973936679933,-156.91751627593513
6.728,0.9999743447316195,-157.256694343442
6.736,0.9999747552989392,-157.59560491592723
6.744,0.9999751681479719,-157.93425110066153
6.752,0.9999755830496915,-158.27263600722935
6.76,0.9999759997799101,-158.61076274745122
6.768,0.9999764181192232,-158.94863443530872
6.776,0.9999768378529554,-159.28625418687062
6.784,0.9999772587711045,-159.62362512022105
6.792,0.9999776806682891,-159.96075035538922
6.8,0.9999781033436931,-160.2976330142808
6.808,0.9999785266010139,-160.63427622061127
6.816,0.9999789502484074,-160.97068309984044
6.824,0.9999793740984363,-161.3068567791091
6.832,0.9999797979680168,-161.64280038717672
6.84,0.9999802216783671,-161.9785170543613
6.848,0.9999806450549549,-162.31400991248017
6.856,0.999981067927446,-162.64928209479308
6.864,0.9999814901296529,-162.98433673594587
6.872,0.9999819114994835,-163.31917697191656
6.88,0.9999823318788921,-163.65380593996224
6.888,0.9999827511138271,-163.98822677856765
6.896,0.9999831690541822,-164.32244262739545
6.904,0.9999835855537472,-164.65645662723725
6.912,0.9999840004701579,-164.99027191996672
6.92,0.9999844136648468,-165.3238916484936
6.928,0.9999848250029972,-165.65731895671934
6.936,0.9999852343534915,-165.99055698949383
6.944,0.9999856415888659,-166.3236088925737
6.952,0.9999860465852612,-166.65647781258158
6.96,0.999986449222378,-166.9891668969669
6.968,0.9999868493834277,-167.3216792939679
6.976,0.9999872469550863,-167.6540181525747
6.984,0.9999876418274495,-167.9861866224937
6.992,0.999988033893987,-168.31818785411323
7.0,0.9999884230514949,-168.65002499847014
7.008,0.9999888092000538,-168.98170120721784
7.016,0.9999891922429816,-169.31321963259518
7.024,0.9999895720867908,-169.64458342739675
7.032,0.9999899486411437,-169.97579574494378
7.04,0.9999903218188089,-170.30685973905673
7.048,0.9999906915356188,-170.6377785640285
7.056,0.9999910577104254,-170.9685553745988
7.064,0.9999914202650579,-171.29919332592942
7.072,0.9999917791242826,-171.6296955735808
7.08,0.9999921342157588,-171.96006527348933
7.088,0.999992485469997,-172.29030558194552
7.096,0.9999928328203196,-172.62041965557336
7.104,0.9999931762028189,-172.95041065131056
7.112,0.9999935155563172,-173.28028172638957
7.12,0.9999938508223257,-173.61003603831944
7.128,0.9999941819450063,-173.93967674486873
7.136,0.99999450887113,-174.2692070040493
7.144,0.9999948315500401,-174.59862997410067
7.152,0.9999951499336119,-174.92794881347544
7.16,0.9999954639762142,-175.25716668082535
7.168,0.9999957736346733,-175.58628673498825
7.176,0.9999960788682316,-175.91531213497566
7.184,0.999996379638514,-176.2442460399615
7.192,0.9999966759094882,-176.57309160927076
7.2,0.9999969676474282,-176.90185200236974
7.208,0.9999972548208803,-177.23053037885632
7.216,0.999997537400624,-177.55912989845157
7.224,0.9999978153596367,-177.88765372099115
7.232,0.9999980886730608,-178.21610500641825
7.24,0.9999983573181644,-178.54448691477646
7.248,0.9999986212743109,-178.87280260620372
7.256,0.9999988805229214,-179.20105524092665
7.264,0.9999991350474406,-179.52924797925544
7.272,0.9999993848333065,-179.85738398157932
7.28,0.9999996298679112,179.8145335916373
7.288,0.9999998701405725,179.48650157985833
7.296,1.0,179.15851682247887
7.304,0.9999999999999999,178.83057615882768
7.312,0.9999999999999998,178.50267642816902
7.32,0.9999999999999999,178.1748144697044
7.328,0.9999999999999999,177.8469871225731
7.336,1.0,177.51919122585338
7.344,1.0000000000000002,177.19142361856223
7.352,1.0,176.86368113965523
7.36,1.0,176.53596062802606
7.368,1.0,176.2082589225055
7.376,1.0,175.88057286186
7.384,0.9999999999999999,175.55289928479016
7.392,0.9999999999999999,175.22523502992857
7.4,0.9999999999999998,174.89757693583772
7.4079999999999995,0.9999999999999999,174.5699218410073
7.416,0.9999999999999999,174.2422665838513
7.4239999999999995,1.0,173.91460800270508
7.432,1.0,173.58694293582167
7.4399999999999995,0.9999999999999999,173.25926822136864
7.448,1.0,172.9315806974238
7.4559999999999995,0.9999999999999999,172.6038772019717
7.464,1.0000000000000002,172.27615457289886
7.4719999999999995,1.0,171.94840964799008
7.48,0.9999999999999998,171.62063926492314
7.4879999999999995,1.0,171.2928402612651
7.496,1.0,170.96500947446654
7.504,1.0,170.63714374185753
7.5120000000000005,1.0,170.30923990064193
7.52,1.0,169.98129478789306
7.5280000000000005,0.9999999999999999,169.6533052405478
7.536,0.9999999999999999,169.32526809540232
7.5440000000000005,1.0,168.997180189106
7.552,0.9999999999999999,168.6690383581569
7.5600000000000005,1.0,168.3408394388961
7.568,1.0,168.01258026750287
7.5760000000000005,1.0,167.68425767998912
7.584,1.0,167.35586851219466
7.5920000000000005,0.9999999999999999,167.02740959978175
7.6,0.9999999999999999,166.6988777782305
7.6080000000000005,1.0,166.37026988283347
7.616,0.9999999999999999,166.04158274869155
7.6240000000000006,1.0,165.7128132107085
7.632,1.0,165.38395810358708
7.640000000000001,1.0,165.05501426182408
7.648,1.0,164.7259785197067
7.656000000000001,1.0,164.39684771130774
7.664,1.0,164.0676186704826
7.672,0.9999999999999999,163.7382882308648
7.68,0.9999999999999999,163.40885322586314
7.688,1.0,163.0793104886583
7.696,0.9999999999999999,162.74965685219996
7.704,0.9999999999999999,162.41988914920404
7.712,0.9999999999999999,162.09000421215046
7.72,1.0,161.75999887328106
7.728,1.0,161.4298699645978
7.736,1.0,161.0996143178614
7.744,0.9999999999999999,160.76922876459028
7.752,0.9999999999999999,160.4387101360598
7.76,1.0,160.108055263302
7.768,1.0,159.77726097710575
7.776,1.0,159.44632410801714
7.784,0.9999999999999999,159.11524148634044
7.792,1.0,158.7840099421395
7.8,0.9999999999999999,158.45262630523962
7.808,1.0000000000000002,158.12108740522967
7.816,0.9999999999999999,157.78939007146516
7.824,1.0,157.45753113307146
7.832,1.0,157.12550741894748
7.84,1.0,156.7933157577703
7.848,1.0,156.4609529779999
7.856,0.9999999999999999,156.12841590788491
7.864,0.9999999999999999,155.79570137546844
7.872,1.0,155.46280620859508
7.88,1.0,155.129727234918
7.888,1.0,154.7964612819071
7.896,0.9999999999999999,154.46300517685762
7.904,1.0,154.12935574689942
7.912,0.9999999999999999,153.795509819007
7.92,0.9999999999999999,153.46146422001033
7.928,1.0,153.12721577660608
7.936,0.9999999999999998,152.79276131537011
7.944,0.9999999999999999,152.4580976627702
7.952,1.0,152.1232216451799
7.96,1.0,151.788130088893
7.968,1.0,151.45281982013904
7.976,1.0,151.11728766509924
7.984,0.9999999999999999,150.78153044992382
7.992,0.9999999999999999,150.44554500074963
8.0,1.0,150.1093281437193
8.008,0.9999999999999999,149.77287670500053
8.016,1.0,149.43618751080695
8.024000000000001,0.9999999999999999,149.09925738741978
8.032,1.0,148.76208316121023
8.04,1.0,148.42466165866287
8.048,0.9999999999999999,148.0869897064003
8.056000000000001,1.0,147.7490641312087
8.064,1.0,147.4108817600645
8.072,1.0000000000000002,147.0724394201616
8.08,1.0,146.73373393894025
8.088000000000001,1.0,146.39476214411707
8.096,0.9999999999999999,146.05552086371577
8.104,1.0,145.71600692609894
8.112,1.0,145.37621716000146
8.120000000000001,0.9999999999999999,145.03614839456498
8.128,1.0,144.69579745937332
8.136,0.9999999999999999,144.35516118448902
8.144,1.0000000000000002,144.01423640049154
8.152000000000001,1.0,143.67301993851657
8.16,0.9999999999999999,143.33150863029647
8.168,1.0,142.98969930820184
8.176,1.0,142.64758880528478
8.184000000000001,1.0,142.30517395532357
8.192,1.0,141.96245159286823
8.2,0.9999999999999999,141.61941855328755
8.208,1.0,141.27607167281778
8.216000000000001,1.0,140.93240778861284
8.224,1.0,140.58842373879554
8.232,0.9999999999999999,140.2441163625103
8.24,1.0,139.89948249997758
8.248000000000001,1.0,139.55451899255013
8.256,1.0,139.20922268276988
8.264,0.9999999999999999,138.86359041442694
8.272,1.0000000000000002,138.51761903262025
8.280000000000001,1.0,138.1713053838196
8.288,1.0,137.8246463159294
8.296,0.9999999999999999,137.47763867835377
8.304,1.0,137.13027932206347
8.312,1.0,136.78256509966513
8.32,1.0,136.4344928654707
8.328,1.0,136.0860594755704
8.336,1.0,135.73726178790574
8.344,1.0,135.38809666234582
8.352,0.9999999999999999,135.03856096076393
8.36,0.9999999999999999,134.68865154711747
8.368,0.9999999999999999,134.3383652875283
8.376,1.0,133.98769905036613
8.384,0.9999999999999999,133.6366497063328
8.392,0.9999999999999999,133.28521412854934
8.4,0.9999999999999999,132.93338919264406
8.408,1.0,132.5811717768436
8.416,1.0,132.22855876206484
8.424,1.0,131.8755470320099
8.432,0.9999999999999999,131.5221334732622
8.44,0.9999999999999999,131.16831497538533
8.448,0.9999999999999999,130.81408843102324
8.456,1.0,130.45945073600348
8.464,1.0,130.1043987894413
8.472,0.9999999999999999,129.74892949384727
8.48,1.0,129.39303975523575
8.488,1.0,129.0367264832367
8.496,1.0,128.67998659120838
8.504,0.9999999999999999,128.32281699635405
8.512,0.9999999999999999,127.96521461983887
8.52,1.0,127.607176386911
8.528,0.9999999894018756,127.24869922702325
8.536,0.9999999528155472,126.88978007395878
8.544,0.9999999181959747,126.5304158659574
8.552,0.9999998855718272,126.17060354584586
8.56,0.9999998549710296,125.8103400611691
8.568,0.999999826420759,125.4496223643252
8.576,0.9999997999474365,125.08844741270144
8.584,0.9999997755767216,124.72681216881436
8.592,0.9999997533335074,124.36471360045051
8.6,0.9999997332419145,124.00214868081156
8.608,0.9999997153252852,123.6391143886603
8.616,0.9999996996061786,123.27560770847039
8.624,0.9999996861063649,122.91162563057779
8.632,0.9999996748468208,122.54716515133578
8.64,0.9999996658477229,122.18222327327122
8.648,0.9999996591284462,121.81679700524502
8.656,0.9999996547075549,121.45088336261385
8.664,0.999999652602801,121.08447936739562
8.672,0.9999996528311187,120.71758204843682
8.68,0.9999996554086195,120.3501884415834
8.688,0.9999996603505888,119.9822955898534
8.696,0.9999996676714814,119.61390054361345
8.704,0.9999996773849166,119.24500036075705
8.712,0.9999996895036756,118.87559210688657
8.72,0.9999997040396977,118.50567285549707
8.728,0.999999721004075,118.1352396881641
8.736,0.9999997404070509,117.76428969473312
8.744,0.9999997622580158,117.39281997351318
8.752,0.9999997865655035,117.02082763147207
8.76,0.9999998133371887,116.64830978443572
8.768,0.9999998425798846,116.27526355728938
8.776,0.9999998742995386,115.90168608418281
8.784,0.9999999085012308,115.52757450873742
8.792,0.9999999451891708,115.15292598425741
8.8,0.9999999843666959,114.77773767394294
8.808,1.0000000000000002,114.40200675110732
8.815999999999999,0.9999999999999999,114.0257303993963
8.824,1.0,113.64890581301091
8.832,1.0,113.27153019693371
8.84,1.0,112.89360076715728
8.847999999999999,0.9999999999999999,112.5151147509164
8.856,1.0,112.13606938692311
8.864,0.9999999999999999,111.75646192560532
8.872,1.0,111.37628962934802
8.879999999999999,1.0,110.99554977273765
8.888,1.0,110.61423964281005
8.896,1.0,110.23235653930153
8.904,0.9999999999999999,109.84989777490284
8.911999999999999,1.0,109.46686067551623
8.92,0.9999999999999999,109.08324258051609
8.928,1.0,108.69904084301298
8.936,1.0,108.31425283012024
8.943999999999999,1.0,107.92887592322403
8.952,0.9999999999999999,107.54290751825691
8.96,1.0,107.1563450259746
8.968,0.9999999999999999,106.76918587223567
8.975999999999999,1.0,106.38142749828454
8.984,0.9999999999999999,105.99306736103797
8.992,1.0,105.60410293337482
9.0,0.9999999999999999,105.21453170442882
9.008,0.9999999999999999,104.82435117988443
9.016,1.0,104.4335588822765
9.024000000000001,0.9999999999999999,104.0421523512929
9.032,0.9999999999999999,103.65012914408037
9.04,1.0000000000000002,103.25748683555337
9.048,0.9999999999999999,102.86422301870665
9.056000000000001,0.9999999999999999,102.47033530493103
9.064,1.0,102.07582132433191
9.072,0.9999999999999999,101.68067872605131
9.08,1.0,101.28490517859322
9.088000000000001,1.0,100.88849837015218
9.096,1.0,100.49145600894475
9.104,1.0,100.09377582354423
9.112,1.0,99.6954555632188
9.120000000000001,1.0,99.29649299827268
9.128,1.0,98.89688592039045
9.136,0.9999999999999999,98.49663214298404
9.144,0.9999999999999999,98.09572950154354
9.152000000000001,1.0,97.6941758539909
9.16,1.0,97.29196908103624
9.168,1.0,96.88910708653754
9.176,1.0,96.48558779786326
9.184000000000001,1.0,96.08140916625833
9.192,1.0,95.67656916721245
9.2,1.0,95.27106580083151
9.208,0.9999999999999999,94.86489709221216
9.216000000000001,1.0,94.45806109181927
9.224,1.0,94.05055587586595
9.232,0.9999999999999999,93.6423795466962
9.24,0.9999999999999999,93.23353023317087
9.248000000000001,0.9999999999999999,92.82400609105613
9.256,1.0,92.41380530341452
9.264,1.0,92.00292608099845
9.272,1.0,91.59136666264672
9.280000000000001,1.0,91.17912531568358
9.288,0.9999999999999999,90.76620033632001
9.296,1.0,90.35259005005734
9.304,1.0,89.93829281209374
9.312000000000001,0.9999999999999999,89.52330700773305
9.32,1.0,89.10763105279545
9.328,1.0,88.69126339403059
9.336,0.9999999999999999,88.27420250953301
9.344,1.0,87.85644690916001
9.352,0.9999999999999999,87.43799513495057
9.36,1.0,87.01884576154755
9.368,0.9999999999999998,86.59899739662062
9.376,0.9999999999999999,86.17844868129227
9.384,0.9999999999999999,85.75719829056426
9.392,1.0,85.33524493374735
9.4,1.0,84.912587354891
9.408,0.9999999999999999,84.48922433321636
9.416,0.9999999999999999,84.0651546835491
9.424,1.0,83.64037725675527
9.432,1.0,83.21489094017684
9.44,1.0,82.7886946580703
9.448,0.9999999999999999,82.36178737204446
9.456,0.9999999999999999,81.93416808150135
9.464,1.0,81.50583582407613
9.472,0.9999999999999999,81.07678967607978
9.48,1.0,80.64702875294074
9.488,1.0,80.2165522096491
9.496,1.0,79.78535924119949
9.504,1.0,79.35344908303642
9.512,1.0,78.92082101149809
9.52,1.0,78.48747434426218
9.528,1.0,78.05340844079038
9.536,1.0,77.61862270277436
9.544,1.0,77.18311657458017
9.552,1.0,76.74688954369401
9.56,1.0,76.30994114116639
9.568,1.0,75.87227094205704
9.576,1.0,75.43387856587803
9.584,1.0,74.99476367703768
9.592,1.0,74.5549259852822
9.6,0.9999999999999999,74.11436524613782
9.608,1.0,73.67308126135056
9.616,1.0,73.23107387932612
9.624,1.0,72.78834299556708
9.632,0.9999999999999999,72.34488855311008
9.64,1.0,71.90071054296001
9.648,1.0,71.45580900452383
9.656,0.9999999999999999,71.01018402604107
9.664,0.9999999999999999,70.5638357450138
9.672,0.9999999999999999,70.11676434863291
9.68,1.0,69.66897007420361
9.688,0.9999999999999999,69.22045320956683
9.696,1.0,68.7712140935196
9.704,0.9999999999999999,68.32125311623108
9.712,0.9999999999999999,67.87057071965712
9.72,1.0,67.41916739795025
9.728,1.0,66.96704369786785
9.736,0.9999999999999999,66.51420021917536
9.744,1.0,66.0606376150475
9.752,1.0,65.60635659246398
9.76,1.0,65.15135791260302
9.768,1.0,64.6956423912291
9.776,1.0,64.23921089907786
9.784,0.9999999999999998,63.78206436223526
9.792,1.0,63.324203762513314
9.8,1.0,62.86563013781972
9.808,1.0,62.40634458252389
9.816,1.0,61.946348247816275
9.824,1.0,61.48564234206393
9.832,0.9999999999999999,61.02422813115891
9.84,1.0,60.56210693886255
9.847999999999999,1.0,60.09928014714231
9.856,1.0,59.63574919650359
9.864,1.0,59.17151558631503
9.872,1.0,58.70658087512705
9.879999999999999,1.0,58.240946680983704
9.888,1.0,57.774614681728075
9.896,1.0,57.30758661530055
9.904,1.0,56.83986428002967
9.911999999999999,1.0,56.37144953491529
9.92,1.0,55.90234429990482
9.928,0.9999999999999999,55.432550556161395
9.936,1.0,54.96207034632388
9.943999999999999,1.0,54.490905774758495
9.952,1.0,54.01905900780268
9.96,1.0,53.54653227400019
9.968,1.0,53.07332786432725
9.975999999999999,1.0,52.59944813240951
9.984,1.0,52.12489549473059
9.992,1.0,51.64967243083103
10.0,0.9999999999999999,51.17378148349746
10.008,1.0,50.69722525894216
10.016,1.0,50.22000642697289
10.024000000000001,0.9999999999999999,49.74212772115303
10.032,0.9999999999999998,49.26359193895068
10.04,0.9999999999999999,48.7844019418777
10.048,0.9999999999999999,48.3045606556182
10.056000000000001,1.0,47.824071070146594
10.064,1.0000000000000002,47.34293623983408
