freq,mag,phase
6.0,0.9999969239105854,-143.48782062797306
6.008,0.9999966392047447,-143.8454691287003
6.016,0.9999963582983037,-144.2028659179972
6.024,0.9999960811649832,-144.56001218154324
6.032,0.999995807778481,-144.91690912991982
6.04,0.9999955381124758,-145.27355799845463
6.048,0.9999952721406282,-145.62996004706613
6.056,0.9999950098365868,-145.98611656010834
6.064,0.9999947511739902,-146.34202884621547
6.072,0.9999944961264664,-146.69769823814724
6.08,0.9999942446676432,-147.05312609263396
6.088,0.9999939967711466,-147.4083137902222
6.096,0.9999937524106031,-147.76326273512075
6.104,0.9999935115596423,-148.1179743550467
6.112,0.9999932741919076,-148.47245010107193
6.12,0.999993040281045,-148.82669144747024
6.128,0.9999928098007204,-149.1806998915645
6.136,0.9999925827246138,-149.53447695357443
6.144,0.9999923590264214,-149.88802417646488
6.152,0.9999921386798641,-150.24134312579426
6.16,0.9999919216586854,-150.59443538956413
6.168,0.9999917079366571,-150.94730257806853
6.176,0.9999914974875787,-151.29994632374417
6.184,0.9999912902852819,-151.65236828102152
6.192,0.9999910863036334,-152.0045701261759
6.2,0.9999908855165346,-152.3565535571796
6.208,0.9999906878979301,-152.70832029355435
6.216,0.9999904934218002,-153.05987207622462
6.224,0.9999903020621739,-153.41121066737153
6.232,0.9999901137931293,-153.76233785028725
6.24,0.9999899285887814,-154.11325542923058
6.248,0.9999897464233036,-154.46396522928262
6.256,0.9999895672709234,-154.8144690962035
6.264,0.9999893911059213,-155.16476889629004
6.272,0.9999892179026307,-155.51486651623378
6.28,0.9999890476354506,-155.8647638629799
6.288,0.9999888802788383,-156.21446286358722
6.296,0.9999887158073073,-156.56396546508864
6.304,0.9999885541954456,-156.9132736343525
6.312,0.9999883954179066,-157.2623893579448
6.32,0.9999882394494057,-157.61131464199255
6.328,0.9999880862647336,-157.96005151204727
6.336,0.9999879358387559,-158.3086020129499
6.344,0.9999877881464034,-158.6569682086971
6.352,0.9999876431626894,-159.00515218230674
6.36,0.9999875008627039,-159.3531560356861
6.368,0.9999873612216121,-159.70098188950018
6.376,0.9999872242146631,-160.04863188304077
6.384,0.9999870898171884,-160.39610817409687
6.392,0.9999869580045999,-160.74341293882577
6.4,0.9999868287523964,-161.09054837162526
6.408,0.9999867020361618,-161.43751668500664
6.416,0.9999865778315711,-161.78432010946847
6.424,0.9999864561143874,-162.13096089337228
6.432,0.9999863368604567,-162.47744130281782
6.44,0.9999862200457339,-162.82376362152044
6.448,0.9999861056462507,-163.16993015068877
6.456,0.9999859936381464,-163.5159432089038
6.464,0.9999858839976425,-163.86180513199892
6.472,0.9999857767010689,-164.20751827294055
6.48,0.9999856717248478,-164.55308500171043
6.4879999999999995,0.9999855690455018,-164.89850770518814
6.496,0.9999854686396521,-165.24378878703558
6.504,0.9999853704840318,-165.58893066758125
6.5120000000000005,0.9999852745554675,-165.93393578370703
6.52,0.9999851808308808,-166.27880658873454
6.5280000000000005,0.9999850892873123,-166.62354555231377
6.536,0.9999849999019047,-166.96815516031123
6.5440000000000005,0.9999849126519059,-167.31263791470093
6.552,0.9999848275146676,-167.65699633345523
6.5600000000000005,0.9999847444676564,-168.00123295043633
6.568,0.999984663488442,-168.34535031529035
6.5760000000000005,0.9999845845547086,-168.68935099334095
6.584,0.999984507644243,-169.0332375654847
6.592,0.9999844327349565,-169.37701262808685
6.6,0.9999843598048633,-169.7206787928794
6.608,0.9999842888320865,-170.06423868685866
6.616,0.9999842197948837,-170.4076949521844
6.624,0.9999841526715969,-170.7510502460811
6.632,0.9999840874407049,-171.09430724073786
6.64,0.9999840240807955,-171.4374686232118
6.648,0.9999839625705709,-171.78053709533083
6.656,0.9999839028888514,-172.1235153735979
6.664,0.9999838450145747,-172.46640618909666
6.672,0.9999837889268004,-172.80921228739732
6.68,0.9999837346046981,-173.15193642846418
6.688,0.9999836820275624,-173.49458138656382
6.696,0.9999836311748039,-173.83714995017382
6.704,0.9999835820259567,-174.17964492189404
6.712,0.9999835345606694,-174.5220691183567
6.72,0.9999834887587195,-174.86442537013897
6.728,0.9999834445999949,-175.20671652167601
6.736,0.9999834020645167,-175.54894543117473
6.744,0.9999833611324143,-175.89111497052932
6.752,0.9999833217839502,-176.233228025236
6.76,0.9999832839995095,-176.57528749431094
6.768,0.9999832477595837,-176.91729629020753
6.776,0.9999832130448085,-177.25925733873478
6.784,0.9999831798359327,-177.60117357897684
6.792,0.9999831481138205,-177.94304796321387
6.8,0.9999831178594784,-178.28488345684232
6.808,0.9999830890540201,-178.6266830382985
6.816,0.9999830616786937,-178.96844969897992
6.824,0.9999830357148617,-179.3101864431705
6.832,0.9999830111440199,-179.6518962879642
6.84,0.9999829879477846,-179.99358226319129
6.848,0.9999829661079005,179.6647525886559
6.856,0.9999829456062265,179.32310521249542
6.864,0.9999829264247546,178.98147254072794
6.872,0.9999829085456031,178.6398514933086
6.88,0.9999828919510121,178.29823897781674
6.888,0.9999828766233456,177.95663188952585
6.896,0.9999828625450904,177.6150271114732
6.904,0.9999828496988692,177.2734215145274
6.912,0.9999828380674168,176.93181195745657
6.92,0.9999828276335985,176.59019528699469
6.928,0.9999828183804076,176.24856833790827
6.936,0.9999828102909543,175.90692793306155
6.944,0.9999828033484852,175.56527088348147
6.952,0.9999827975363588,175.22359398842175
6.96,0.9999827928380667,174.8818940354267
6.968,0.9999827892372299,174.5401678003939
6.976,0.9999827867175779,174.19841204763637
6.984,0.9999827852629802,173.8566235299447
6.992,0.999982784857423,173.51479898864832
7.0,0.9999827854850187,173.17293515367513
7.008,0.9999827871300103,172.831028743613
7.016,0.9999827897767491,172.48907646576777
7.024,0.9999827934097293,172.14707501622377
7.032,0.999982798013553,171.80502107990085
7.04,0.9999828035729597,171.4629113306138
7.048,0.9999828100727998,171.1207424311287
7.056,0.9999828174980526,170.77851103322098
7.064,0.9999828258338251,170.43621377773175
7.072,0.9999828350653385,170.09384729462388
7.08,0.9999828451779463,169.75140820303844
7.088,0.999982856157115,169.40889311134978
7.096,0.9999828679884406,169.06629861722098
7.104,0.9999828806576401,168.72362130765862
7.112,0.9999828941505473,168.38085775906714
7.12,0.9999829084531239,168.0380045373035
7.128,0.9999829235514476,167.69505819773076
7.136,0.9999829394317238,167.35201528527207
7.144,0.9999829560802767,167.008872334464
7.152,0.9999829734835456,166.66562586950974
7.16,0.9999829916280963,166.32227240433247
7.168,0.9999830105006143,165.97880844262798
7.176,0.9999830300879031,165.63523047791756
7.184,0.9999830503768858,165.2915349936007
7.192,0.9999830713546055,164.9477184630073
7.2,0.9999830930082269,164.6037773494506
7.208,0.9999831153250274,164.25970810627913
7.216,0.999983138292412,163.91550717692922
7.224,0.9999831618978948,163.57117099497734
7.232,0.9999831861291089,163.22669598419236
7.24,0.9999832109738145,162.882078558588
7.248,0.9999832364198785,162.5373151224752
7.256,0.9999832624552866,162.19240207051453
7.264,0.9999832890681472,161.847335787769
7.272,0.9999833162466794,161.50211264975655
7.28,0.9999833439792187,161.15672902250304
7.288,0.999983372254221,160.8111812625954
7.296,0.9999834010602493,160.4654657172346
7.304,0.9999834303859907,160.11957872428954
7.312,0.9999834602202393,159.77351661235042
7.32,0.9999834905519096,159.42727570078304
7.328,0.9999835213700277,159.08085229978298
7.336,0.9999835526637338,158.73424271043038
7.344,0.9999835844222785,158.38744322474483
7.352,0.9999836166350289,158.04045012574088
7.36,0.9999836492914677,157.69325968748413
7.368,0.9999836823811815,157.3458681751469
7.376,0.9999837158938757,156.9982718450657
7.384,0.9999837498193656,156.65046694479793
7.392,0.9999837841475749,156.30244971318018
7.4,0.9999838188685461,155.95421638038616
7.4079999999999995,0.9999838539724227,155.60576316798603
7.416,0.9999838894494648,155.25708628900557
7.4239999999999995,0.9999839252900399,154.90818194798703
7.432,0.999983961484627,154.5590463410492
7.4399999999999995,0.9999839980238124,154.2096756559501
7.448,0.9999840348982905,153.86006607214813
7.4559999999999995,0.9999840720988696,153.51021376086658
7.464,0.9999841096164581,153.16011488515636
7.4719999999999995,0.9999841474420793,152.80976559996174
7.48,0.9999841855668599,152.45916205218543
7.4879999999999995,0.999984223982035,152.10830038075568
7.496,0.9999842626789472,151.75717671669324
7.504,0.999984301649044,151.40578718318056
7.5120000000000005,0.9999843408838798,151.05412789563067
7.52,0.9999843803751148,150.70219496175824
7.5280000000000005,0.9999844201145162,150.34998448165095
7.536,0.9999844600939513,149.99749254784237
7.5440000000000005,0.9999845003053976,149.64471524538578
7.552,0.9999845407409335,149.29164865192962
7.5600000000000005,0.9999845813927429,148.93828883779307
7.568,0.9999846222531137,148.5846318660446
7.5760000000000005,0.9999846633144353,148.23067379257992
7.584,0.9999847045692011,147.87641066620304
7.5920000000000005,0.9999847460100071,147.52183852870695
7.6,0.9999847876295527,147.16695341495762
7.6080000000000005,0.999984829420637,146.81175135297747
7.616,0.9999848713761618,146.45622836403197
7.6240000000000006,0.9999849134891304,146.10038046271669
7.632,0.9999849557526468,145.74420365704677
7.640000000000001,0.9999849981599147,145.38769394854677
7.648,0.9999850407042404,145.03084733234385
7.656000000000001,0.9999850833790269,144.67365979726083
7.664,0.9999851261777797,144.31612732591273
7.672,0.999985169094101,143.9582458948033
7.68,0.9999852121216934,143.60001147442495
7.688,0.9999852552543589,143.24142002935957
7.696,0.9999852984859955,142.8824675183816
7.704,0.9999853418106011,142.52314989456272
7.712,0.9999853852222689,142.1634631053791
7.72,0.999985428715192,141.80340309282002
7.728,0.9999854722836591,141.44296579349898
7.736,0.9999855159220559,141.08214713876686
7.744,0.9999855596248636,140.720943054827
7.752,0.9999856033866605,140.35934946285275
7.76,0.9999856472021196,139.9973622791072
7.768,0.9999856910660105,139.63497741506492
7.776,0.9999857349731964,139.27219077753665
7.784,0.9999857789186359,138.9089982687957
7.792,0.9999858228973824,138.54539578670713
7.8,0.9999858669045829,138.1813792248594
7.808,0.9999859109354785,137.81694447269848
7.816,0.9999859549854029,137.45208741566452
7.824,0.9999859990497847,137.08680393533115
7.832,0.9999860431241437,136.72108990954746
7.84,0.9999860872040935,136.35494121258264
7.848,0.9999861312853393,135.98835371527355
7.856,0.9999861753636782,135.62132328517487
7.864,0.9999862194349997,135.25384578671222
7.872,0.9999862634952843,134.88591708133828
7.88,0.9999863075406028,134.5175330276917
7.888,0.9999863515671181,134.1486894817592
7.896,0.9999863955710827,133.77938229704048
7.904,0.9999864395488399,133.40960732471657
7.912,0.9999864834968225,133.03936041382113
7.92,0.9999865274115534,132.66863741141498
7.928,0.9999865712896436,132.29743416276392
7.936,0.9999866151277946,131.92574651151992
7.944,0.9999866589227961,131.5535702999057
7.952,0.9999867026715259,131.18090136890245
7.96,0.9999867463709505,130.8077355584416
7.968,0.999986790018124,130.43406870759947
7.976,0.999986833610188,130.05989665479592
7.984,0.9999868771443717,129.6852152379966
7.992,0.999986920617991,129.31002029491864
8.0,0.9999869640284488,128.93430766324033
8.008,0.9999870073732342,128.55807318081466
8.016,0.9999870506499231,128.1813126858862
8.024000000000001,0.9999870938561761,127.80402201731275
8.032,0.9999871369897403,127.42619701479
8.04,0.9999871800484476,127.04783351908084
8.048,0.9999872230302155,126.66892737224845
8.056000000000001,0.9999872659330458,126.28947441789383
8.064,0.9999873087550246,125.90947050139714
8.072,0.9999873514943223,125.52891147016321
8.08,0.999987394149193,125.14779317387163
8.088000000000001,0.9999874367179755,124.7661114647314
8.096,0.9999874791990898,124.3838621977393
8.104,0.9999875215910401,124.00104123094295
8.112,0.9999875638924137,123.61764442570859
8.120000000000001,0.9999876061018794,123.23366764699348
8.128,0.9999876482181885,122.84910676362263
8.136,0.9999876902401742,122.46395764856985
8.144,0.9999877321667505,122.07821617924434
8.152000000000001,0.9999877739969135,121.69187823778168
8.16,0.9999878157297395,121.30493971133943
8.168,0.9999878573643853,120.91739649239759
8.176,0.9999878989000894,120.52924447906437
8.184000000000001,0.9999879403361686,120.14047957538686
8.192,0.9999879816720199,119.75109769166639
8.2,0.9999880229071194,119.36109474477894
8.208,0.9999880640410226,118.9704666585013
8.216000000000001,0.9999881050733636,118.5792093638419
8.224,0.9999881460038549,118.18731879937701
8.232,0.9999881868322866,117.79479091159189
8.24,0.9999882275585272,117.4016216552279
8.248000000000001,0.9999882681825222,117.00780699363462
8.256,0.9999883087042937,116.61334289912755
8.264,0.9999883491239411,116.21822535335068
8.272,0.99998838944164,115.82245034764539
8.280000000000001,0.9999884296576415,115.42601388342484
8.288,0.9999884697722735,115.02891197255349
8.296,0.999988509785938,114.63114063773226
8.304,0.9999885496991122,114.23269591288984
8.312,0.999988589512348,113.83357384357993
8.32,0.9999886292262714,113.43377048738314
8.328,0.999988668841582,113.03328191431613
8.336,0.9999887083590531,112.63210420724532
8.344,0.9999887477795306,112.23023346230777
8.352,0.9999887871039335,111.82766578933669
8.36,0.9999888263332523,111.42439731229419
8.368,0.99998886546855,111.02042416970883
8.376,0.9999889045109606,110.61574251512052
8.384,0.9999889434616882,110.2103485175301
8.392,0.9999889823220093,109.80423836185639
8.4,0.9999890210932689,109.3974082493981
8.408,0.9999890597768815,108.98985439830328
8.416,0.9999890983743323,108.58157304404341
8.424,0.9999891368871735,108.17256043989536
8.432,0.9999891753170261,107.76281285742806
8.44,0.9999892136655797,107.35232658699681
8.448,0.9999892519345894,106.94109793824259
8.456,0.9999892901258787,106.52912324059902
8.464,0.9999893282413358,106.11639884380428
8.472,0.9999893662829165,105.70292111842072
8.48,0.99998940425264,105.28868645635941
8.488,0.9999894421525911,104.87369127141272
8.496,0.9999894799849188,104.45793199979146
8.504,0.999989517751835,104.04140510067003
8.512,0.999989555455615,103.62410705673679
8.52,0.9999895930985965,103.20603437475168
8.528,0.9999896306831791,102.78718358610932
8.536,0.9999896682118236,102.36755124740971
8.544,0.9999897056870513,101.94713394103388
8.552,0.9999897431114431,101.52592827572748
8.56,0.9999897804876404,101.10393088718905
8.568,0.9999898178183421,100.68113843866645
8.576,0.9999898551063059,100.25754762155788
8.584,0.9999898923543467,99.83315515602085
8.592,0.9999899295653358,99.40795779158594
8.6,0.999989966742201,98.98195230777824
8.608,0.9999900038879251,98.55513551474375
8.616,0.9999900410055452,98.12750425388337
8.624,0.9999900780981534,97.69905539849148
8.632,0.999990115168893,97.2697858544025
8.64,0.9999901522209611,96.83969256064168
8.648,0.9999901892576064,96.40877249008376
8.656,0.9999902262821271,95.97702265011601
8.664,0.9999902632978722,95.54444008330881
8.672,0.9999903003082398,95.11102186809056
8.68,0.9999903373166764,94.67676511943012
8.688,0.9999903743266751,94.24166698952335
8.696,0.9999904113417764,93.80572466848714
8.704,0.999990448365566,93.36893538505728
8.712,0.9999904854016751,92.93129640729377
8.72,0.9999905224537775,92.49280504328995
8.728,0.9999905595255904,92.05345864188857
8.736,0.9999905966208734,91.6132545934018
8.744,0.9999906337434271,91.17219033033797
8.752,0.9999906708970911,90.73026332813188
8.76,0.9999907080857455,90.28747110588195
8.768,0.9999907453133062,89.84381122709043
8.776,0.9999907825837284,89.39928130041034
8.784,0.9999908199010019,88.95387898039552
8.792,0.9999908572691516,88.50760196825671
8.8,0.9999908946922356,88.06044801262077
8.808,0.9999909321743453,87.6124149102958
8.815999999999999,0.9999909697196034,87.16350050703892
8.824,0.9999910073321627,86.71370269832931
8.832,0.9999910450162053,86.26301943014502
8.84,0.9999910827759414,85.81144869974324
8.847999999999999,0.9999911206156076,85.35898855644416
8.856,0.9999911585394663,84.90563710241895
8.864,0.9999911965518047,84.45139249348085
8.872,0.9999912346569321,83.99625293987916
8.879999999999999,0.9999912728591803,83.54021670709623
8.888,0.9999913111629014,83.0832821166477
8.896,0.9999913495724664,82.6254475468853
8.904,0.9999913880922647,82.16671143380182
8.911999999999999,0.9999914267267019,81.70707227183824
8.92,0.9999914654801989,81.2465286146934
8.928,0.9999915043571898,80.78507907613542
8.936,0.999991543362121,80.32272233081444
8.943999999999999,0.9999915824994514,79.85945711507682
8.952,0.999991621773647,79.39528222778075
8.96,0.9999916611891834,78.93019653111308
8.968,0.9999917007505423,78.46419895140629
8.975999999999999,0.9999917404622103,77.99728847995596
8.984,0.9999917803286774,77.52946417383905
8.992,0.999991820354436,77.06072515673195
9.0,0.9999918605439784,76.59107061972806
9.008,0.9999919009017955,76.1204998221546
9.016,0.999991941432376,75.64901209238927
9.024000000000001,0.9999919821402047,75.17660682867573
9.032,0.9999920230297588,74.7032834999372
9.04,0.9999920641055093,74.22904164658858
9.048,0.9999921053719171,73.75388088134696
9.056000000000001,0.9999921468334326,73.27780089003984
9.064,0.9999921884944933,72.80080143241054
9.072,0.9999922303595221,72.32288234292048
9.08,0.9999922724329257,71.84404353154913
9.088000000000001,0.9999923147190937,71.36428498458999
9.096,0.9999923572223957,70.88360676544261
9.104,0.9999923999471789,70.40200901540042
9.112,0.9999924428977695,69.91949195443452
9.120000000000001,0.9999924860784664,69.43605588197238
9.128,0.9999925294935433,68.9517011776714
9.136,0.9999925731472449,68.46642830218639
9.144,0.9999926170437848,67.98023779793208
9.152000000000001,0.9999926611873455,67.49313028983902
9.16,0.9999927055820744,67.00510648610258
9.168,0.9999927502320834,66.5161671789249
9.176,0.9999927951414461,66.02631324525001
9.184000000000001,0.9999928403141966,65.53554564749096
9.192,0.9999928857543275,65.04386543424866
9.2,0.9999929314657872,64.55127374102192
9.208,0.9999929774524788,64.05777179090917
9.216000000000001,0.9999930237182587,63.56336089530087
9.224,0.999993070266933,63.06804245456158
9.232,0.9999931171022567,62.5718179587021
9.24,0.999993164227932,62.074688988041395
9.248000000000001,0.9999932116476055,61.57665721385758
9.256,0.999993259364867,61.07772439902719
9.264,0.9999933073832465,60.577892398652516
9.272,0.9999933557062143,60.07716316067735
9.280000000000001,0.9999934043371763,59.575538726489974
9.288,0.9999934532794743,59.07302123151274
9.296,0.9999935025363831,58.56961290577817
9.304,0.9999935521111084,58.065316074491506
9.312000000000001,0.9999936020067854,57.5601331585792
9.32,0.9999936522264764,57.054066675221826
9.328,0.9999937027731689,56.547119238372105
9.336,0.9999937536497743,56.03929355925765
9.344,0.9999938048591248,55.53059244686779
9.352,0.9999938564039729,55.021018808422745
9.36,0.9999939082869878,54.51057564982769
9.368,0.9999939605107554,53.99926607610759
9.376,0.9999940130777746,53.487093291826056
9.384,0.9999940659904568,52.97406060148427
9.392,0.9999941192511238,52.46017140990309
9.4,0.9999941728620043,51.94542922258422
9.408,0.999994226825235,51.42983764605379
9.416,0.9999942811428559,50.9134003881842
9.424,0.999994335816811,50.39612125849756
9.432,0.9999943908489437,49.87800416844638
9.44,0.9999944462409986,49.3590531316752
9.448,0.9999945019946159,48.83927226425879
9.456,0.9999945581113328,48.318665784919915
9.464,0.9999946145925795,47.79723801522362
9.472,0.9999946714396798,47.27499337974985
9.48,0.9999947286538473,46.751936406241654
9.488,0.9999947862361847,46.22807172573147
9.496,0.999994844187683,45.70340407264177
9.504,0.9999949025092187,45.177938284863394
9.512,0.9999949612015522,44.65167930380711
9.52,0.9999950202653274,44.124632174432556
9.528,0.9999950797010694,43.59680204524948
9.536,0.9999951395091836,43.06819416829564
9.544,0.9999951996899532,42.53881389908662
9.552,0.99999526024354,42.00866669654115
9.56,0.9999953211699798,41.47775812287819
