freq,mag,phase
6.0,0.9999957422279256,75.91265949098934
6.008,0.9999965766683777,75.75810216351002
6.016,0.9999973842738235,75.60348585736817
6.024,0.9999981654450711,75.44881053212583
6.032,0.9999989205801507,75.29407614750446
6.04,0.9999996500743183,75.13928266338625
6.048,1.0,74.9844300398154
6.056,0.9999999999999999,74.82951823699929
6.064,0.9999999999999998,74.67454721530981
6.072,1.0,74.51951693528461
6.08,1.0,74.3644273576283
6.088,0.9999999999999999,74.20927844321376
6.096,0.9999999999999998,74.05407015308342
6.104,1.0,73.8988024484504
6.112,1.0,73.74347529069989
6.12,1.0,73.58808864139031
6.128,1.0,73.43264246225463
6.136,0.9999999999999999,73.27713671520156
6.144,1.0,73.12157136231687
6.152,0.9999999999999999,72.96594636586453
6.16,1.0,72.8102616882881
6.168,1.0,72.65451729221184
6.176,0.9999999999999999,72.49871314044205
6.184,0.9999999999999999,72.34284919596828
6.192,1.0,72.18692542196457
6.2,1.0,72.03094178179074
6.208,0.9999999999999998,71.87489823899354
6.216,1.0,71.71879475730796
6.224,1.0,71.56263130065847
6.232,0.9999999999999999,71.40640783316023
6.24,0.9999999999999999,71.25012431912037
6.248,1.0,71.09378072303915
6.256,1.0,70.93737700961131
6.264,0.9999999999999999,70.78091314372716
6.272,0.9999999999999999,70.62438909047398
6.28,1.0,70.46780481513711
6.288,1.0,70.31116028320125
6.296,1.0,70.15445546035168
6.304,1.0,69.99769031247547
6.312,0.9999999999999999,69.84086480566278
6.32,1.0,69.68397890620794
6.328,1.0,69.52703258061084
6.336,1.0,69.37002579557802
6.344,0.9999999999999999,69.21295851802398
6.352,0.9999999999999999,69.05583071507239
6.36,1.0,68.89864235405723
6.368,1.0,68.7413934025241
6.376,0.9999999999999999,68.58408382823139
6.384,1.0,68.4267135991515
6.392,1.0,68.26928268347208
6.4,1.0,68.11179104959722
6.408,1.0,67.9542386661486
6.416,1.0,67.79662550196684
6.424,0.9999999999999999,67.63895152611255
6.432,0.9999999999999999,67.48121670786765
6.44,1.0,67.32342101673652
6.448,0.9999999999999998,67.16556442244719
6.456,0.9999999999999999,67.00764689495259
6.464,0.9999999999999998,66.84966840443171
6.472,0.9999999999999999,66.6916289212908
6.48,0.9999999999999999,66.53352841616456
6.4879999999999995,1.0,66.37536685991735
6.496,1.0,66.21714422364435
6.504,0.9999999999999999,66.05886047867283
6.5120000000000005,1.0,65.90051559656315
6.52,1.0,65.74210954911024
6.5280000000000005,1.0,65.5836423083444
6.536,1.0,65.42511384653294
6.5440000000000005,1.0,65.26652413618086
6.552,1.0,65.10787315003249
6.5600000000000005,0.9999999999999999,64.94916086107226
6.568,0.9999999999999999,64.79038724252624
6.5760000000000005,1.0,64.63155226786294
6.584,0.9999999999999999,64.4726559107949
6.592,1.0,64.31369814527937
6.6,1.0,64.15467894551995
6.608,1.0,63.99559828596735
6.616,0.9999999999999999,63.836456141320866
6.624,0.9999999999999999,63.67725248652929
6.632,1.0,63.51798729679225
6.64,1.0,63.358660547561215
6.648,0.9999999999999999,63.19927221454076
6.656,0.9999999999999999,63.03982227368965
6.664,1.0,62.880310701221966
6.672,1.0,62.720737473608324
6.68,1.0,62.561102567576924
6.688,1.0,62.401405960114765
6.696,1.0,62.24164762846873
6.704,1.0,62.08182755014672
6.712,1.0,61.921945702918805
6.72,0.9999999999999999,61.76200206481832
6.728,1.0,61.601996614143054
6.736,1.0,61.44192932945627
6.744,0.9999999999999999,61.28180018958789
6.752,0.9999999999999999,61.12160917363563
6.76,1.0,60.96135626096603
6.768,0.9999999999999999,60.80104143121564
6.776,1.0,60.64066466429209
6.784,1.0,60.48022594037519
6.792,1.0,60.319725239918064
6.8,0.9999999999999999,60.15916254364821
6.808,1.0,59.99853783256861
6.816,0.9999999643111448,59.83785108795882
6.824,0.9999996664466761,59.677102291376066
6.832,0.999999369068179,59.516291424656345
6.84,0.9999990723180239,59.355418469915435
6.848,0.9999987763363938,59.19448340955007
6.856,0.9999984812612924,59.03348622623892
6.864,0.9999981872285536,58.8724269029438
6.872,0.9999978943718489,58.71130542291058
6.88,0.9999976028226969,58.55012176967033
6.888,0.9999973127104721,58.38887592704043
6.896,0.9999970241624132,58.22756787912553
6.904,0.9999967373036323,58.066197610318675
6.912,0.9999964522571242,57.904765105302324
6.92,0.9999961691437735,57.74327034904944
6.928,0.9999958880823666,57.581713326824456
6.936,0.9999956091895978,57.42009402418447
6.944,0.9999953325800804,57.25841242698007
6.952,0.9999950583663552,57.09666852135657
6.96,0.9999947866588984,56.934862293754904
6.968,0.999994517566133,56.77299373091273
6.976,0.9999942511944373,56.61106281986544
6.984,0.999993987648153,56.449069547947154
6.992,0.9999937270295958,56.28701390279176
7.0,0.9999934694390652,56.12489587233396
7.008,0.9999932149748526,55.96271544481018
7.016,0.9999929637332513,55.800472608759684
7.024,0.999992715808567,55.638167353025516
7.032,0.9999924712931261,55.475799666755556
7.04,0.9999922302772856,55.31336953940342
7.048,0.9999919928494436,55.150876960729505
7.056,0.9999917590960476,54.98832192080202
7.064,0.9999915291016066,54.82570440999789
7.072,0.9999913029486975,54.663024419003776
7.08,0.9999910807179782,54.50028193881707
7.088,0.9999908624881952,54.33747696074677
7.096,0.9999906483361957,54.17460947641458
7.104,0.9999904383369352,54.01167947775579
7.112,0.9999902325634892,53.848686957020256
7.12,0.9999900310870625,53.68563190677334
7.128,0.9999898339770001,53.52251431989683
7.136,0.9999896413007959,53.35933418959001
7.144,0.9999894531241048,53.19609150937046
7.152,0.9999892695107513,53.032786273075075
7.16,0.9999890905227402,52.86941847486092
7.168,0.9999889162202679,52.70598810920631
7.176,0.9999887466617314,52.542495170911536
7.184,0.9999885819037394,52.378939655099934
7.192,0.9999884220011224,52.21532155721872
7.2,0.9999882670069434,52.051640873039965
7.208,0.9999881169725092,51.88789759866144
7.216,0.9999879719473788,51.724091730507546
7.224,0.9999878319793761,51.560223265330215
7.232,0.9999876971146001,51.39629220020977
7.24,0.9999875673974342,51.23229853255589
7.248,0.999987442870559,51.06824226010838
7.256,0.9999873235749612,50.90412338093813
7.264,0.9999872095499452,50.739941893447984
7.272,0.9999871008331449,50.57569779637355
7.28,0.9999869974605321,50.411391088784136
7.288,0.9999868994664298,50.24702177008359
7.296,0.9999868068835222,50.0825898400111
7.304,0.9999867197428649,49.91809529864212
7.312,0.999986638073897,49.75353814638915
7.32,0.9999865619044518,49.588918384002596
7.328,0.9999864912607683,49.42423601257167
7.336,0.999986426167501,49.25949103352506
7.344,0.9999863666477322,49.09468344863197
7.352,0.9999863127229837,48.929813260002696
7.36,0.9999862644132256,48.76488047008967
7.368,0.9999862217368908,48.59988508168809
7.376,0.9999861847108831,48.43482709793687
7.384,0.9999861533505907,48.26970652231926
7.392,0.9999861276698971,48.10452335866386
7.4,0.9999861076811922,47.939277611145194
7.4079999999999995,0.999986093395383,47.77396928428465
7.416,0.9999860848219067,47.60859838295111
7.4239999999999995,0.9999860819687404,47.44316491236195
7.432,0.9999860848424146,47.27766887808348
7.4399999999999995,0.9999860934480218,47.11211028603206
7.448,0.9999861077892318,46.94648914247452
7.4559999999999995,0.9999861278683003,46.78080545402922
7.464,0.9999861536860815,46.615059227666485
7.4719999999999995,0.99998618524204,46.44925047070966
7.48,0.9999862225342624,46.28337919083551
7.4879999999999995,0.9999862655594683,46.1174453960753
7.496,0.9999863143130242,45.95144909481516
7.504,0.9999863687889514,45.78539029579715
7.5120000000000005,0.999986428979942,45.6192690081196
7.52,0.9999864948773681,45.45308524123822
7.5280000000000005,0.9999865664712942,45.28683900496636
7.536,0.9999866437504895,45.12053030947615
7.5440000000000005,0.9999867267024394,44.954159165298755
7.552,0.9999868153133574,44.78772558332546
7.5600000000000005,0.9999869095681976,44.62122957480798
7.568,0.999987009450666,44.454671151359406
7.5760000000000005,0.999987114943233,44.28805032495469
7.584,0.9999872260271448,44.12136710793144
7.5920000000000005,0.9999873426824362,43.9546215129904
7.6,0.999987464887942,43.787813553196315
7.6080000000000005,0.9999875926213094,43.62094324197829
7.616,0.9999877258590113,43.45401059313077
7.6240000000000006,0.9999878645763552,43.28701562081379
7.632,0.9999880087474989,43.11995833955392
7.640000000000001,0.9999881583454608,42.95283876424461
7.648,0.9999883133421325,42.785656910147075
7.656000000000001,0.9999884737082907,42.61841279289054
7.664,0.9999886394136104,42.45110642847327
7.672,0.9999888104266762,42.283737833262705
7.68,0.9999889867149946,42.11630702399641
7.688,0.9999891682450072,41.94881401778246
7.696,0.9999893549821018,41.78125883210002
7.704,0.9999895468906256,41.613641484799956
7.712,0.9999897439338981,41.44596199410536
7.72,0.999989946074221,41.27822037861215
7.728,0.9999901532728934,41.110416657289505
7.736,0.9999903654902237,40.942550849480526
7.744,0.9999905826855395,40.774622974902655
7.752,0.9999908048172036,40.606633053648295
7.76,0.9999910318426242,40.438581106185225
7.768,0.9999912637182673,40.27046715335718
7.776,0.9999915003996709,40.10229121638439
7.784,0.9999917418414558,39.934053316863924
7.792,0.9999919879973385,39.765753476770335
7.8,0.9999922388201447,39.59739171845607
7.808,0.99999249426182,39.428968064651926
7.816,0.9999927542734445,39.26048253846758
7.824,0.9999930188052436,39.09193516339201
7.832,0.9999932878066017,38.92332596329395
7.84,0.999993561226074,38.754654962422315
7.848,0.9999938390114,38.585922185406694
7.856,0.9999941211095152,38.41712765725777
7.864,0.9999944074665637,38.248271403367674
7.872,0.9999946980279122,38.07935344951051
7.88,0.9999949927381601,37.91037382184269
7.888,0.9999952915411546,37.741332546903394
7.896,0.9999955943800023,37.57222965161489
7.904,0.9999959011970817,37.403065163282996
7.912,0.9999962119340556,37.233839109597454
7.92,0.9999965265318846,37.06455151863222
7.928,0.9999968449308393,36.89520241884599
7.936,0.9999971670705127,36.725791839082426
7.944,0.9999974928898329,36.55631980857052
7.952,0.9999978223270767,36.38678635692502
7.96,0.9999981553198808,36.21719151414669
7.968,0.9999984918052558,36.047535310622685
7.976,0.999998831719598,35.87781777712685
7.984,0.9999991749987018,35.708038944820075
7.992,0.999999521577774,35.538198845250534
8.0,0.9999998713914448,35.368297510354026
8.008,0.9999999999999999,35.19833497245432
8.016,1.0,35.028311264263294
8.024000000000001,1.0,34.85822641888139
8.032,1.0,34.68808046979781
8.04,0.9999999999999999,34.5178734508907
8.048,0.9999999999999999,34.347605396427475
8.056000000000001,1.0,34.177276341065095
8.064,1.0,34.00688631985036
8.072,1.0,33.8364353682199
8.08,1.0,33.665923522000625
8.088000000000001,1.0000000000000002,33.49535081740987
8.096,0.9999999999999999,33.32471729105564
8.104,1.0,33.15402297993671
8.112,0.9999999999999999,32.98326792144288
8.120000000000001,1.0000000000000002,32.812452153355196
8.128,1.0,32.64157571384615
8.136,1.0,32.47063864147967
8.144,1.0,32.299640975211396
8.152000000000001,1.0,32.12858275438895
8.16,1.0,31.957464018751914
8.168,1.0,31.78628480843199
8.176,0.9999999999999999,31.61504516395311
8.184000000000001,1.0,31.44374512623174
8.192,1.0000000000000002,31.27238473657679
8.2,1.0,31.100964036689742
8.208,1.0000000000000002,30.92948306866478
8.216000000000001,1.0,30.757941874988948
8.224,1.0,30.586340498542175
8.232,1.0,30.41467898259726
8.24,1.0,30.242957370820008
8.248000000000001,1.0,30.07117570726937
8.256,1.0,29.899334036397356
8.264,0.9999999999999999,29.72743240304914
8.272,1.0,29.555470852462978
8.280000000000001,1.0,29.383449430270474
8.288,1.0,29.211368182496372
8.296,1.0000000000000002,29.039227155558624
8.304,1.0,28.86702639626835
8.312,0.9999999999999999,28.69476595182999
8.32,0.9999999999999999,28.522445869841
8.328,1.0,28.350066198292158
8.336,0.9999999999999999,28.17762698556719
8.344,0.9999999999999999,28.00512828044303
8.352,1.0,27.832570132089472
8.36,1.0,27.659952590069427
8.368,1.0,27.4872757043385
8.376,0.9999999999999999,27.314539525245262
8.384,0.9999999999999999,27.141744103530804
8.392,1.0,26.968889490329023
8.4,0.9999999999999999,26.795975737166135
8.408,1.0,26.623002895960894
8.416,1.0,26.449971019024186
8.424,1.0,26.27688015905913
8.432,1.0,26.103730369160733
8.44,0.9999999999999999,25.93052170281597
8.448,1.0,25.75725421390335
8.456,0.9999999999999999,25.583927956693046
8.464,1.0,25.410542985846433
8.472,0.9999999999999999,25.237099356416145
8.48,0.9999999999999999,25.0635971238457
8.488,1.0,24.890036343969438
8.496,0.9999999999999998,24.716417073012188
8.504,0.9999999999999998,24.54273936758919
8.512,1.0,24.369003284705645
8.52,1.0,24.195208881756802
8.528,0.9999999999999999,24.02135621652735
8.536,0.9999999999999999,23.847445347191496
8.544,1.0,23.67347633231239
8.552,1.0,23.499449230842167
8.56,1.0,23.32536410212136
8.568,1.0,23.15122100587889
8.576,1.0,22.977020002231505
8.584,0.9999999999999999,22.802761151683743
8.592,1.0,22.628444515127317
8.6,1.0,22.454070153841094
8.608,1.0,22.279638129490465
8.616,0.9999999999999999,22.10514850412731
8.624,1.0,21.930601340189316
8.632,1.0,21.75599670049994
8.64,1.0,21.581334648267713
8.648,1.0,21.40661524708622
8.656,0.9999999999999999,21.231838560933337
8.664,1.0,21.057004654171166
8.672,0.9999999999999999,20.88211359154534
8.68,1.0,20.707165438184884
8.688,0.9999999999999999,20.532160259601532
8.696,1.0,20.357098121689543
8.704,0.9999999999999999,20.18197909072496
8.712,0.9999999999999999,20.006803233365545
8.72,1.0,19.831570616649877
8.728,0.9999999999999999,19.656281307997308
8.736,1.0,19.48093537520713
8.744,0.9999999999999999,19.30553288645837
8.752,1.0,19.130073910309026
8.76,1.0,18.95455851569585
8.768,1.0,18.778986771933585
8.776,1.0,18.60335874871461
8.784,0.9999999999999999,18.427674516108237
8.792,0.9999999999999998,18.251934144560426
8.8,1.0,18.076137704892922
8.808,1.0,17.90028526830299
8.815999999999999,0.9999999999999999,17.724376906362615
8.824,0.9999999999999999,17.548412691018022
8.832,0.9999999999999999,17.372392694589156
8.84,0.9999999999999999,17.19631698976901
8.847999999999999,1.0,17.020185649622974
8.856,1.0,16.843998747588255
8.864,1.0,16.66775635747337
8.872,1.0,16.491458553457402
8.879999999999999,0.9999999999999999,16.315105410089316
8.888,0.9999999999999999,16.138697002287362
8.896,0.9999999999999999,15.962233405338495
8.904,1.0,15.785714694897633
8.911999999999999,1.0,15.609140946986937
8.92,0.9999999999999999,15.43251223799516
8.928,0.9999999999999999,15.255828644677026
8.936,0.9999999999999999,15.079090244152459
8.943999999999999,1.0,14.902297113905838
8.952,0.9999999999999999,14.725449331785281
8.96,1.0,14.548546976002044
8.968,0.9999999999999999,14.371590125129664
8.975999999999999,0.9999999999999999,14.194578858103187
8.984,1.0,14.017513254218422
8.992,1.0,13.840393393131306
9.0,1.0,13.663219354857018
9.008,0.9999999999999999,13.48599121976915
9.016,1.0,13.308709068598963
9.024000000000001,0.9999999999999999,13.131372982434653
9.032,0.9999999999999999,12.953983042720521
9.04,1.0,12.776539331256009
9.048,0.9999999999999999,12.599041930194979
9.056000000000001,1.0,12.421490922044947
9.064,1.0,12.243886389666187
9.072,0.9999999999999999,12.066228416270752
9.08,1.0,11.88851708542172
9.088000000000001,0.9999999999999999,11.710752481032388
9.096,0.9999999999999999,11.53293468736532
9.104,1.0,11.355063789031357
9.112,1.0,11.177139870988837
9.120000000000001,1.0,10.999163018542728
9.128,1.0,10.821133317343657
9.136,0.9999999999999999,10.643050853386875
9.144,1.0,10.46491571301145
9.152000000000001,0.9999999999999999,10.286727982899357
9.16,0.9999999999999999,10.108487750074477
9.168,0.9999999999999999,9.930195101901564
9.176,1.0000000000000002,9.751850126085305
9.184000000000001,0.9999999999999998,9.573452910669486
9.192,1.0,9.395003544035903
9.2,1.0,9.216502114903262
9.208,1.0,9.037948712326298
9.216000000000001,1.0,8.859343425694806
9.224,0.9999999999999999,8.680686344732596
9.232,1.0,8.501977559496304
9.24,1.0,8.323217160374519
9.248000000000001,1.0,8.144405238086744
9.256,0.9999999999999999,7.965541883682324
9.264,0.9999999999999999,7.786627188539267
9.272,1.0,7.607661244363266
9.280000000000001,0.9999999999999999,7.4286441431866885
9.288,0.9999999999999999,7.249575977367444
9.296,1.0,7.070456839587747
9.304,1.0,6.891286822853169
9.312000000000001,1.0,6.712066020491534
9.32,1.0,6.532794526151768
9.328,1.0,6.3534724338026765
9.336,0.9999999999999999,6.174099837731876
9.344,0.9999999999999999,5.9946768325447835
9.352,0.9999999999999999,5.815203513163177
9.36,0.9999999999999999,5.635679974824356
9.368,1.0,5.45610631307965
9.376,0.9999999999999999,5.276482623793562
9.384,1.0,5.096809003142272
9.392,1.0,4.917085547612738
9.4,1.0,4.737312354001212
9.408,1.0,4.557489519412311
9.416,1.0,4.37761714125752
9.424,0.9999999999999999,4.197695317254244
9.432,1.0,4.017724145424298
9.44,1.0,3.8377037240929397
9.448,0.9999999999999999,3.657634151887346
9.456,0.9999999999999999,3.4775155277356498
9.464,1.0,3.2973479508653547
9.472,1.0,3.1171315208024035
9.48,1.0,2.9368663373695467
9.488,0.9999999999999999,2.7565525006854044
9.496,0.9999999999999999,2.5761901111628385
9.504,1.0,2.3957792695079734
9.512,1.0,2.215320076718545
9.52,0.9999999999999999,2.034812634082952
9.528,1.0,1.8542570431785512
9.536,1.0,1.6736534058706887
9.544,0.9999999999999999,1.493001824311021
9.552,1.0,1.3123024009364852
9.56,1.0,1.1315552384676373
9.568,0.9999999999999999,0.9507604399075927
9.576,1.0,0.7699181085403504
9.584,0.9999999999999999,0.5890283479297307
9.592,0.9999999999999999,0.40809126191767336
9.6,1.0,0.2271069546231566
9.608,0.9999999999999998,0.04607553044049735
9.616,1.0,-0.13500290596175832
9.624,0.9999999999999998,-0.3161282496425404
9.632,0.9999999999999998,-0.49730039538937953
9.64,1.0,-0.6785192377201408
9.648,0.9999999999999999,-0.8597846708841379
9.656,1.0,-1.0410965888639019
9.664,1.0,-1.2224548853762929
9.672,0.9999999999999998,-1.4038594538742915
9.68,1.0,-1.5853101875481272
9.688,0.9999999999999999,-1.7668069793270762
9.696,0.9999999999999998,-1.9483497218806056
9.704,0.9999999999999999,-2.129938307620188
9.712,1.0,-2.311572628700449
9.72,0.9999999999999999,-2.493252577021013
9.728,0.9999999999999999,-2.674978044227646
9.736,0.9999999999999999,-2.8567489217141113
9.744,0.9999999999999999,-3.038565100623357
9.752,1.0,-3.220426471849351
9.76,0.9999999999999999,-3.4023329260382873
9.768,1.0,-3.5842843535904483
9.776,1.0,-3.7662806446614177
9.784,0.9999999999999999,-3.948321689163943
9.792,0.9999999999999999,-4.130407376769178
9.8,1.0,-4.312537596908546
9.808,1.0,-4.494712238774998
9.816,0.9999999999999999,-4.676931191324896
9.824,1.0,-4.859194343279269
9.832,1.0,-5.041501583125715
9.84,1.0,-5.223852799119675
9.847999999999999,1.0,-5.4062478792863
9.856,1.0,-5.588686711421934
9.864,1.0,-5.771169183095632
9.872,0.9999999999999999,-5.953695181650869
9.879999999999999,1.0,-6.136264594207222
9.888,0.9999999999999999,-6.31887730766191
9.896,1.0,-6.501533208691365
9.904,1.0,-6.684232183752914
9.911999999999999,1.0,-6.866974119086524
9.92,0.9999999999999999,-7.049758900716355
9.928,1.0,-7.2325864144523315
9.936,1.0,-7.41545654589188
9.943999999999999,0.9999999999999999,-7.598369180421666
9.952,0.9999999999999999,-7.781324203219185
9.96,0.9999999999999999,-7.964321499254356
9.968,0.9999999999999999,-8.147360953291265
9.975999999999999,1.0,-8.330442449889947
9.984,1.0,-8.513565873407961
9.992,1.0,-8.69673110800205
10.0,0.9999999999999999,-8.87993803762986
10.008,0.9999999999999998,-9.06318654605177
10.016,1.0,-9.24647651683249
10.024000000000001,1.0,-9.429807833342704
10.032,0.9999999999999999,-9.613180378760864
10.04,1.0,-9.796594036074978
10.048,0.9999999999999999,-9.980048688084283
10.056000000000001,1.0,-10.163544217400876
10.064,0.9999999999999999,-10.347080506451512
10.072,1.0,-10.530657437479462
10.08,1.0,-10.714274892546142
10.088000000000001,1.0,-10.897932753532807
10.096,0.9999999999999999,-11.081630902142361
10.104,1.0,-11.265369219901194
10.112,0.9999999999999999,-11.449147588160887
10.120000000000001,1.0,-11.632965888099873
10.128,1.0,-11.816824000725283
10.136,1.0,-12.000721806874825
10.144,1.0,-12.184659187218461
10.152000000000001,1.0,-12.368636022260093
