freq,mag,phase
6.0,1.0016189849116253,148.23024142935472
6.002286592,1.0019359940116888,148.06100781791417
6.004572672,1.0021307884310755,147.88817031515407
6.006859264,1.0021910887389403,147.7135316515898
6.009145344,1.0021132419767205,147.5391021640141
6.011431936,1.001901767751886,147.3668163851638
6.013718016,1.001570298782845,147.19849944205117
6.016004608,1.0011392863141957,147.03575736605669
6.018290688,1.0006362771210922,146.87987250724632
6.02057728,1.0000928572618053,146.73163612639306
6.022863872,0.9995435025407944,146.59138591653152
6.025149952,0.9990229635857583,146.45899910797468
6.027436544,0.9985644286922957,146.33380244638755
6.029722624,0.9981969875526964,146.21475045649922
6.032009216,0.9979442044775526,146.10026487830237
6.034295296,0.9978220710548856,145.98860688015208
6.036581888,0.9978384820779428,145.87777877045247
6.03886848,0.9979925481685249,145.76578328321574
6.04115456,0.9982743721502233,145.65067049182593
6.043441152,0.9986660170243804,145.53072634319832
6.045727232,0.9991426425250292,145.4044689855116
6.048013824,0.9996738303748038,145.27094686594782
6.050299904,1.0002260987600262,145.12959064869253
6.052586496,1.0007643147861947,144.9803962785874
6.054872576,1.001254425665395,144.82378843709384
6.057159168,1.0016653304081524,144.660723182854
6.05944576,1.0019710503149322,144.49256020456863
6.06173184,1.0021524864519153,144.32090420708442
6.064018432,1.002197917722962,144.14765236912655
6.066304512,1.0021046295072884,143.97483826759935
6.068591104,1.0018783166527967,143.80437423511472
6.070877184,1.0015333582016863,143.63811767266017
6.073163776,1.0010912718795255,143.47760114905088
6.075450368,1.0005800838545962,143.32406661948664
6.077736448,1.0000320034130346,143.17826731241283
6.08002304,0.9994819096104036,143.04054219025713
6.08230912,0.9989644653357882,142.91058171084038
6.084595712,0.9985129070280246,142.7878243655386
6.086881792,0.9981555756289352,142.67104546661824
6.089168384,0.9979154851767558,142.5586731601118
6.091454464,0.9978080464316522,142.44890740918623
6.093741056,0.9978400503121975,142.33976617950395
6.096027648,0.9980096317173437,142.22924931633563
6.098313728,0.9983057940898576,142.11534962026087
6.10060032,0.998709917743517,141.99639031778185
6.1028864,0.9991962092529763,141.87103010373468
6.105172992,0.9997337961645104,141.73826291834283
6.107459072,1.0002885059819329,141.59762150477167
6.109745664,1.0008251197428535,141.44909538467496
6.112032256,1.0013098219131256,141.29323859985
6.114318336,1.0017118456135938,141.13101286740059
6.116604928,1.0020057242389253,140.96380972859416
6.118891008,1.0021729703822908,140.79330534710158
6.1211776,1.002203107553218,140.62145839965626
6.12346368,1.0020938876214616,140.45024626129415
6.125750272,1.0018526004972472,140.28160012486353
6.128036352,1.0014939061375812,140.11736883273542
6.130322944,1.0010406752254095,139.95904445734666
6.132609536,1.0005214972865162,139.80786625609724
6.134895616,0.9999691993969277,139.66452347753054
6.137182208,0.9994186673529663,139.52924811991423
6.139468288,0.9989049428791914,139.40176317869378
6.14175488,0.9984607736108039,139.28136482892023
6.14404096,0.9981142525067974,139.16680182895297
6.146327552,0.9978876288801211,139.0565111957674
6.148614144,0.997795437366026,138.94857867946357
6.150900224,0.9978435486973044,138.84104537121303
6.153186816,0.9980289167112382,138.7319064012083
6.155472896,0.9983397037907762,138.61917378188596
6.157759488,0.998756291474932,138.50117545179012
6.160045568,0.999252342646273,138.37662994730246
6.16233216,0.999795817757052,138.24452159740326
6.16461824,1.000352576698401,138.1044967469938
6.166904832,1.0008872721799729,137.9565844564345
6.169191424,1.0013659965082367,137.80137490014332
6.171477504,1.0017584065549483,137.63995032218432
6.173764096,1.0020399122440637,137.47367460156948
6.176050176,1.0021925250110266,137.30433987965029
6.178336768,1.0022066270782701,137.1338554255028
6.180622848,1.002081217266606,136.96417930489898
6.18290944,1.0018243002246934,136.7973736017652
6.18519552,1.0014520145360082,136.6351651264993
6.187482112,1.0009876453140165,136.47905398492838
6.189768704,1.0004606523883972,136.3302145347487
6.192054784,0.9999044559848399,136.18926694098826
6.194341376,0.9993540622845427,136.05644596910182
6.196627456,0.9988446679940949,135.9314111074502
6.198914048,0.9984084622041668,135.81332982163565
6.201200128,0.9980734105552642,135.70093877251298
6.20348672,0.9978608827421457,135.59263792764645
6.205773312,0.9977844257982953,135.4865069220208
6.208059392,0.9978491537676029,135.3805495115457
6.210345984,0.9980507404400419,135.27267737978931
6.212632064,0.998376425351636,135.1610293975089
6.214918656,0.9988055817704242,135.0439203841794
6.217204736,0.9993106747461353,134.92004757910308
6.219491328,0.9998599515099189,134.78856062870864
6.221777408,1.0004183437627425,134.64905395109813
6.224064,1.0009505207285216,134.5017432011085
6.226350592,1.0014225829760504,134.34714830730283
6.228636672,1.001804932705937,134.18642165864273
6.230923264,1.0020732337534644,134.02107762292673
6.233209344,1.0022104198856723,133.85282768728257
6.235495936,1.0022081161576115,133.68364750643295
6.237782016,1.0020661503846042,133.51556902067858
6.240068608,1.0017934510210873,133.35055193680756
6.2423552,1.0014073509093007,133.1903598561609
6.24464128,1.0009320113310518,133.0364325059704
6.246927872,1.0003975821058626,132.8899178132515
6.249213952,0.9998377359361985,132.7514103159513
6.251500544,0.9992881187821339,132.62101133003674
6.253786624,0.998783518364587,132.4983647683081
6.256073216,0.9983561133550486,132.38257282936792
6.258359296,0.9980331585600675,132.2723348757264
6.260645888,0.9978353404520598,132.16594804745728
6.26293248,0.9977752152304515,132.06158996298555
6.26521856,0.9978568646440046,131.95705336939093
6.267505152,0.9980749809805516,131.85040537723944
6.269791232,0.998415583874192,131.73973542070544
6.272077824,0.9988573060626186,131.62343531042217
6.274363904,0.9993717075043075,131.50019164341026
6.276650496,0.9999262887388268,131.36920914775214
6.278937088,1.0004858965535768,131.23019840129777
6.281223168,1.0010147948008894,131.08332528208675
6.28350976,1.0014796588986055,130.92933271721665
6.28579584,1.001851082023716,130.76927271221368
6.288082432,1.0021056834068924,130.60478553149113
6.290368512,1.0022270789584502,130.4376185099529
6.292655104,1.00220759773262,130.26975772243676
6.294941184,1.0020488088142527,130.1032350990156
6.297227776,1.001760360461165,129.9400074169422
6.299514368,1.0013603041753405,129.78183621663786
6.301800448,1.000874025624153,129.6300885645226
6.30408704,1.000332214420686,129.4858878321669
6.30637312,0.9997693386064384,129.34977179364228
6.308659712,0.9992208596663987,129.22176671993986
6.310945792,0.9987218006631854,129.1014865120059
6.313232384,0.9983038410531341,128.98795013751283
6.315518464,0.997993679791521,128.87979706827275
6.317805056,0.9978111511603633,128.77531503151593
6.320091648,0.9977680969440313,128.672555993036
6.322377728,0.9978669250803034,128.56940968064106
6.32466432,0.9981017759100465,128.4639207298099
6.3269504,0.9984576982020287,128.35416211963386
6.329236992,0.9989116493578203,128.23853586551343
6.331523072,0.9994350417149146,128.11583497574225
6.333809664,0.9999945936131982,127.98531533486523
6.336096256,1.000554742233931,127.84670004993167
6.338382336,1.0010799619305881,127.70025717916718
6.340668928,1.001536974712156,127.54672297738142
6.342955008,1.00189682955128,127.38735842247338
6.3452416,1.0021367615106476,127.22367926403228
6.34752768,1.0022417293648656,127.05754453823633
6.349814272,1.002204891350245,126.89098171447564
6.352100352,1.0020288226556935,126.72603140083726
6.354386944,1.0017240638027602,126.56459469310471
6.356673536,1.0013101782052525,126.40839947967831
6.358959616,1.000813265064936,126.25883246065291
6.361246208,1.0002645907479417,126.11693755453346
6.363532288,0.9996990870038174,125.98318031545688
6.36581888,0.9991524245981579,125.85756506642242
6.36810496,0.9986594940044863,125.73961369209309
6.370391552,0.9982515964165729,125.62828240908833
6.372678144,0.9979550266007688,125.52217791324108
6.374964224,0.9977883381368957,125.41950714945446
6.377250816,0.997762675744608,125.31829277336007
6.379536896,0.9978793722820539,125.21650715212711
6.381823488,0.9981312865172675,125.11205395476517
6.384109568,0.9985021957405927,125.0030965921938
6.38639616,0.9989686577997571,124.88809612473041
6.38868224,0.9995006809529317,124.76585847313886
6.390968832,1.000064790767768,124.63568400409744
6.393255424,1.0006249541944445,124.49739704032226
6.395541504,1.0011457129658168,124.35130840158885
6.397828096,1.0015941084160174,124.19823148790721
6.400114176,1.0019417435867108,124.0394413319769
6.402400768,1.0021666581234245,123.8765541028344
6.404686848,1.0022545406808798,123.71144919614412
6.40697344,1.0021999033056623,123.5461885370207
6.409260032,1.0020061038542039,123.38272984311747
6.411546112,1.0016851918682057,123.2230699534372
6.413832704,1.001257531277842,123.06884541966326
6.416118784,1.0007499908205681,122.92149625552123
6.418405376,1.0001949106399857,122.7818563596823
6.420691456,0.9996270788593498,122.6504334350141
6.422978048,0.9990829757512755,122.52721092703284
6.425264128,0.9985968316293518,122.41155321810643
6.42755072,0.9981998796547368,122.30237268881241
6.429837312,0.9979173611053888,122.19821966504733
6.432123392,0.9977673305264718,122.09732675211573
6.434409984,0.9977596421805502,121.99760705565573
6.436696064,0.9978945393158947,121.897030525803
6.438982656,0.9981635605911522,121.79352489098054
6.441268736,0.9985496645652016,121.68531575890613
6.443555328,0.9990282621314077,121.57084577902545
6.44584192,0.9995687506898248,121.44898051073376
6.448128,1.0001369360217809,121.31908439510725
6.450414592,1.00069658029644,121.18103030620195
6.452700672,1.0012122081651702,121.03526503748104
6.454987264,1.001651391856194,120.8825718785906
6.457273344,1.0019861273625947,120.72436504491719
6.459559936,1.0021952290642464,120.56223645094394
6.461846016,1.0022654144134848,120.39814815397462
6.464132608,1.0021924307012406,120.23411539069126
6.4664192,1.0019807816006192,120.07220548232448
6.46870528,1.0016435004951223,119.91429362114694
6.470991872,1.0012019719741418,119.76209543866948
6.473277952,1.0006843978226798,119.61686131828067
6.475564544,1.0001229565588927,119.47950185427057
6.477850624,0.9995537185307789,119.35045094397263
6.480137216,0.9990124616198802,119.22953202156872
6.482423296,0.9985339610112386,119.116106988076
6.484709888,0.9981485906684526,119.00901613482326
6.48699648,0.9978809036535041,118.90680798685528
6.48928256,0.9977482235701393,118.80757194525296
6.491569152,0.9977587871813504,118.70926292502179
6.493855232,0.9979121811051179,118.6098301140984
6.496141824,0.9981987058568239,118.50721980413692
6.498427904,0.9986000623129674,118.39964591105348
6.500714496,0.9990905185470863,118.28561200578461
6.503001088,0.9996390793904231,118.1640254634479
6.505287168,1.0002107521268941,118.03435509263518
6.50757376,1.0007693115144871,117.89650330720518
6.50985984,1.0012792665722816,117.75094366609044
6.512146432,1.0017083728461014,117.59860920849445
6.514432512,1.0020294790805622,117.4408871814871
6.516719104,1.0022222103173655,117.27951824122285
6.519005184,1.0022744222533195,117.11640343635662
6.521291776,1.0021825570165122,116.95361432093829
6.523578368,1.0019527409541162,116.79320750444816
6.525864448,1.0015990465745936,116.63705864171624
6.52815104,1.0011440768215967,116.48684631094049
6.53043712,1.0006162096058084,116.34373187982952
6.532723712,1.000049281926388,116.20866419953539
6.535009792,0.9994789832024017,116.08191923352348
6.537296384,0.998941582922001,115.96328082646721
6.539582976,0.9984713517684529,115.8520578225853
6.541869056,0.9980981302954709,115.74706501955916
6.544155648,0.99784603098925,115.64666160709866
6.546441728,0.9977311242951336,115.5490117240179
6.54872832,0.9977606258800362,115.45207019583559
6.5510144,0.9979327987632062,115.35368618128614
6.553300992,0.9982367982339325,115.25186935800893
6.555587072,0.998653238905731,115.14484198394169
6.557873664,0.999155555713228,115.03115527923052
6.560160256,0.9997118067417599,114.90975648061176
6.562446336,1.0002864802037308,114.78022937809806
6.564732928,1.0008432086290069,114.64247710485395
6.567019008,1.0013465234753067,114.49709384093325
6.5693056,1.0017649832766526,114.34507379972152
6.57159168,1.0020716624898616,114.18784661115903
6.573878272,1.0022473125813542,114.0271827900388
6.576164864,1.0022808772774232,113.8650115850167
6.578450944,1.002169922701004,113.70348461067324
6.580737536,1.0019216395323929,113.54454491168921
6.583023616,1.0015515669084203,113.3901728547159
6.585310208,1.0010831535943523,113.2418936479145
6.587596288,1.0005457221188345,113.10095303584946
6.58988288,0.9999734218816558,112.96814007668941
6.59216896,0.9994027484395995,112.84365345641444
6.594455552,0.9988698398432874,112.72726843800852
6.596742144,0.9984085541048313,112.61821730110762
6.599028224,0.9980485419290018,112.51521920479746
6.601314816,0.9978124880966036,112.41661293836172
6.603600896,0.9977159257791329,112.32050274409048
6.605887488,0.9977648359834098,112.22481491109392
6.608173568,0.9979563496976841,112.12739249818397
6.61046016,0.9982778318550407,112.02627218956202
6.612746752,0.998709259829958,111.91969267910471
6.615032832,0.9992230732112902,111.80628272492149
6.617319424,0.9997863733388879,111.68500852737864
6.619605504,1.0003635615298436,111.55552783646772
6.621892096,1.0009178537603078,111.4178335791186
6.624178176,1.001414149088142,111.27257712649288
6.626464768,1.0018209304447314,111.12081145644876
6.628750848,1.0021125975634617,110.96403264058816
6.63103744,1.0022704891126304,110.80403089561426
6.633324032,1.002284815547519,110.64282792040778
6.635610112,1.0021543712787562,110.48250732540568
6.637896704,1.0018876040135356,110.32509798058668
6.640182784,1.0015010833743516,110.17244098372242
6.642469376,1.0010193891744321,110.02611964968949
6.644755456,1.0004727348049016,109.88730608641
6.647042048,0.999895819899513,109.7567330927343
6.649328128,0.9993254541371283,109.63453788364816
6.65161472,0.9987976917985646,109.52036858831092
6.653901312,0.9983461666560197,109.4133931888717
6.656187392,0.9979998275261681,109.31235801766613
6.658473984,0.9977808815986559,109.21546607865193
6.660760064,0.9977031061853985,109.12081593105017
6.663046656,0.9977718419863353,109.02627282479278
6.665332736,0.9979826364033204,108.92973167851589
6.667619328,0.9983219834776917,108.82921828979607
6.66990592,0.9987681912268618,108.72301266974503
6.672192,0.9992931169949173,108.60975042390925
6.674478592,0.9998631277845719,108.4885447928877
6.676764672,1.000442174725365,108.3590339641771
6.679051264,1.0009931490856643,108.22133191012043
6.681337344,1.0014815397513328,108.07615405417782
6.683623936,1.0018761157418714,107.92458481042408
6.685910016,1.0021518833436769,107.7682113026739
6.688196608,1.0022914566191599,107.60887113082121
6.6904832,1.002286225030286,107.44860324721031
6.69276928,1.0021360536227186,107.28949935536642
6.695055872,1.0018505790730765,107.13359795813231
6.697341952,1.0014476620503294,106.98268161323385
6.699628544,1.0009528624889765,106.83833435174542
6.701914624,1.0003974253915424,106.70161972035278
6.704201216,0.9998164848121407,106.57323650294464
6.706487808,0.9992470082557513,106.45326927912717
6.708773888,0.9987252082060465,106.3412981735497
6.71106048,0.9982843353209759,106.23641997779247
6.71334656,0.9979524317646696,106.13722824558613
6.715633152,0.9977510641264531,106.04197858590231
6.717919232,0.9976928117954309,105.94871116916465
6.720205824,0.9977816495508031,105.8552477311737
6.722491904,0.9980119474684351,105.75952354077185
6.724778496,0.9983690197371944,105.65948427957417
6.727065088,0.9988300353822586,105.55357354941852
6.729351168,0.999365747209177,105.44037940899153
6.73163776,0.9999420596171205,105.31915068980169
6.73392384,1.0005220908865753,105.18951623400802
6.736210432,1.0010692168730524,105.05177226374732
6.738496512,1.0015487757028412,104.90658494710658
6.740783104,1.0019302104590941,104.75520671539083
6.743069696,1.0021896963090917,104.59923641903785
6.745355776,1.0023103860428164,104.44053900159855
6.747642368,1.0022849648521321,104.28119643237422
6.749928448,1.0021147076029593,104.1232626772917
6.75221504,1.0018103885685994,103.96886789175412
6.75450112,1.0013913026451498,103.81970162979566
6.756787712,1.0008837742819823,103.67727443863794
6.759073792,1.0003199150137874,103.54271261441589
6.761360384,0.9997355833334329,103.41649345269118
6.763646976,0.9991677075696834,103.29873889759423
6.765933056,0.9986525450052091,103.18890284600444
6.768219648,0.9982230560173343,103.08605815763794
6.770505728,0.9979064587558811,102.98868354233466
6.77279232,0.9977233173665299,102.89499678038837
6.7750784,0.9976851179400227,102.8030156432633
6.777364992,0.9977945081880575,102.71056686529616
6.779651584,0.99804452482314,102.6155039153991
6.781937664,0.9984192651082185,102.51590886886493
6.784224256,0.9988948344230856,102.41018086807325
6.786510336,0.999440820186163,102.29699230211519
6.788796928,1.0000226422244363,102.17563699549135
6.791083008,1.0006032407982737,102.0458633767855
6.7933696,1.0011456386282755,101.90795704251511
6.79565568,1.0016157266794932,101.76274701529016
6.797942272,1.0019833406456793,101.61150115024024
6.800228864,1.0022255682146985,101.45590037913787
6.802514944,1.0023268884764205,101.29782401586776
6.804801536,1.0022807997822694,101.13937376423193
6.807087616,1.0020902540536498,100.98269069945836
6.809374208,1.0017671906993748,100.82973753126268
6.811660288,1.0013319537590526,100.68233395767876
6.81394688,1.0008119581211934,100.54186581878946
6.81623296,1.0002403385255463,100.40937670712152
6.818519552,0.9996530885730196,100.28536150871665
6.820806144,0.9990877287902731,100.16974344492654
6.823092224,0.9985801560224304,100.0620302229324
6.825378816,0.9981626376201608,99.96112772168344
6.827664896,0.9978620718171568,99.86551462268478
6.829951488,0.9976977156111164,99.77333537693954
6.832237568,0.9976801080356676,99.6825558329717
6.83452416,0.9978103440074568,99.59097825155973
6.836810752,0.9980802873870405,99.49655480328909
6.839096832,0.9984726071030655,99.39729705136851
6.841383424,0.9989623044503718,99.2916341201773
6.843669504,0.9995181843530443,99.17836492430239
6.845956096,1.0001050702748089,99.05681027357186
6.848242176,1.0006854723619967,98.92680398933345
6.850528768,1.0012223872862724,98.78870791510886
6.852814848,1.0016820371033706,98.64343813526246
6.85510144,1.002035285269307,98.49229797166922
6.857388032,1.0022595716626568,98.3370272010902
6.859674112,1.0023407098140313,98.17956763804222
6.861960704,1.0022737152023509,98.02202052266435
6.864246784,1.0020626558039707,97.86651475970699
6.866533376,1.0017207086806483,97.71506363282394
6.868819456,1.0012695955637925,97.56938873937274
6.871106048,1.0007376568469208,97.43088449453973
6.87339264,1.000158608308891,97.30045008714204
6.87567872,0.9995691778489909,97.17858676299579
6.877965312,0.9990070011268672,97.06512896880977
6.880251392,0.998507684640222,96.95946759317978
6.882537984,0.9981032798614021,96.86044567511213
6.884824064,0.9978195154049373,96.76655185006406
6.887110656,0.997674657914511,96.67581539863733
6.889396736,0.9976779079718926,96.58614895845176
6.891683328,0.997829347845896,96.49537963410984
6.89396992,0.9981191770807694,96.40143373459475
6.896256,0.9985290293209623,96.3024271188915
6.898542592,0.9990325894354245,96.1967686160505
6.900828672,0.9995980104545907,96.08333567544153
6.903115264,1.0001892133709382,95.96151951623312
6.905401344,1.0007685099147918,95.83121915558422
6.907687936,1.001299177843157,95.69288868976408
6.909974528,1.0017477197817053,95.54749026712523
6.912260608,1.0020854741069607,95.39642422941397
6.9145472,1.0022911887311188,95.241461020316
6.91683328,1.002351928459147,95.08459589279464
6.919119872,1.002263591069306,94.9279721220334
6.921405952,1.0020316874053778,94.77367592295013
6.923692544,1.0016709898862024,94.62369483180846
