freq,mag,phase
6.0,0.9999964634795977,55.66685306324726
6.008,0.9999970333055841,55.480982913898366
6.016,0.9999975867036885,55.29505706074748
6.024,0.9999981239272502,55.10907561008181
6.032,0.9999986452274157,54.92303866883444
6.04,0.9999991508531452,54.7369463445847
6.048,0.9999996410512209,54.55079874555833
6.056,0.9999999999999999,54.36459598062768
6.064,1.0,54.178338159311906
6.072,1.0,53.992025391777254
6.08,0.9999999999999999,53.8056577888371
6.088,0.9999999999999999,53.6192354619522
6.096,0.9999999999999999,53.43275852323074
6.104,1.0,53.24622708542856
6.112,1.0,53.05964126194916
6.12,1.0,52.87300116684382
6.128,1.0,52.68630691481176
6.136,1.0,52.49955862119998
6.144,0.9999999999999999,52.312756402003565
6.152,1.0,52.12590037386552
6.16,0.9999999999999999,51.938990654076804
6.168,0.9999999999999998,51.75202736057639
6.176,1.0,51.56501061195117
6.184,0.9999999999999999,51.377940527435946
6.192,1.0,51.1908172269133
6.2,1.0,51.003640830913646
6.208,1.0,50.81641146061497
6.216,0.9999999999999999,50.629129237842896
6.224,1.0,50.441794285070415
6.232,1.0,50.25440672541775
6.24,0.9999999999999999,50.06696668265232
6.248,1.0,49.87947428118837
6.256,1.0,49.69192964608694
6.264,1.0,49.50433290305553
6.272,1.0,49.31668417844797
6.28,1.0,49.128983599264096
6.288,1.0,48.941231293149464
6.296,1.0,48.75342738839518
6.304,1.0,48.56557201393747
6.312,0.9999999999999999,48.377665299357425
6.32,0.9999999999999999,48.189707374880655
6.328,0.9999999999999999,48.00169837137694
6.336,0.9999999999999999,47.813638420359844
6.344,1.0,47.625527653986325
6.352,0.9999999999999999,47.43736620505635
6.36,1.0,47.24915420701246
6.368,1.0,47.0608917939393
6.376,0.9999999999999999,46.87257910056317
6.384,1.0,46.68421626225158
6.392,1.0,46.49580341501275
6.4,0.9999999999999999,46.307340695495036
6.408,0.9999999999999999,46.11882824098648
6.416,0.9999999999999999,45.930266189414155
6.424,1.0,45.74165467934376
6.432,0.9999999999999999,45.55299384997883
6.44,0.9999999999999999,45.36428384116032
6.448,1.0,45.17552479336587
6.456,1.0,44.98671684770921
6.464,0.9999999999999999,44.79786014593948
6.472,0.9999999999999998,44.60895483044057
6.48,0.9999999999999999,44.42000104423042
6.4879999999999995,1.0,44.23099893096034
6.496,1.0,44.04194863491415
6.504,1.0,43.852850301007706
6.5120000000000005,1.0,43.66370407478775
6.52,0.9999999999999999,43.47451010243155
6.5280000000000005,0.9999999999999999,43.28526853074566
6.536,1.0,43.095979507165566
6.5440000000000005,1.0,42.90664317975433
6.552,1.0,42.71725969720228
6.5600000000000005,1.0,42.5278292088256
6.568,1.0,42.33835186456593
6.5760000000000005,1.0,42.14882781498899
6.584,1.0,41.9592572112841
6.592,1.0,41.7696402052628
6.6,0.9999999999999998,41.57997694935824
6.608,0.9999999999999999,41.39026759662395
6.616,0.9999999999999998,41.200512300733
6.624,0.9999999999999999,41.01071121597684
6.632,1.0,40.820864497264346
6.64,1.0,40.63097230012077
6.648,0.9999999999999999,40.441034780686564
6.656,1.0,40.25105209571643
6.664,0.9999999999999999,40.06102440257804
6.672,1.0,39.87095185925105
6.68,1.0,39.68083462432582
6.688,0.9999999999999999,39.49067285700238
6.696,0.9999999999999999,39.30046671708909
6.704,1.0,39.110216365001584
6.712,0.9999999999999999,38.91992196176141
6.72,1.0,38.72958366899485
6.728,0.9999999999999999,38.5392016489317
6.736,1.0,38.34877606440387
6.744,1.0,38.158307078844196
6.752,1.0,37.96779485628508
6.76,1.0,37.77723956135712
6.768,1.0,37.58664135928781
6.776,1.0,37.39600041590014
6.784,1.0,37.20531689761116
6.792,1.0,37.014590971430714
6.8,1.0,36.82382280495978
6.808,1.0,36.633012566389255
6.816,0.9999999999999999,36.44216042449831
6.824,1.0,36.25126654865303
6.832,1.0,36.06033110880484
6.84,0.9999999999999999,35.86935427548898
6.848,1.0,35.678336219823024
6.856,1.0,35.4872771135053
6.864,1.0,35.296177128813206
6.872,0.9999999999999999,35.10503643860181
6.88,0.9999999999999999,34.91385521630208
6.888,1.0,34.72263363591928
6.896,0.9999999999999999,34.53137187203141
6.904,1.0,34.34007009978741
6.912,0.9999999999999998,34.148728494905555
6.92,0.9999999999999999,33.95734723367175
6.928,1.0,33.76592649293773
6.936,0.9999999999999999,33.57446645011941
6.944,0.9999999999999999,33.382967283195086
6.952,0.9999999999999999,33.191429170703636
6.96,1.0,32.99985229174275
6.968,1.0,32.808236825967136
6.976,0.9999999999999999,32.61658295358664
6.984,1.0,32.42489085536439
6.992,1.0,32.23316071261498
7.0,1.0,32.0413927072026
7.008,1.0,31.849587021539
7.016,1.0,31.65774383858169
7.024,1.0,31.465863341832016
7.032,1.0,31.273945715333028
7.04,1.0,31.081991143667757
7.048,1.0,30.88999981195702
7.056,0.9999999999999999,30.697971905857433
7.064,0.9999999999999999,30.50590761155952
7.072,1.0,30.31380711578549
7.08,0.9999999999999999,30.121670605787298
7.088,0.9999999642314771,29.929498269344467
7.096,0.9999998353736625,29.73729029476207
7.104,0.9999997077653515,29.545046870868568
7.112,0.9999995814391943,29.352768187013663
7.12,0.9999994564268558,29.16045443306617
7.128,0.9999993327590222,28.968105799411845
7.136,0.9999992104654124,28.77572247695119
7.144,0.9999990895747868,28.583304657097248
7.152,0.9999989701149572,28.390852531773348
7.16,0.9999988521127956,28.198366293410935
7.168,0.9999987355942445,28.00584613494726
7.176,0.9999986205843258,27.813292249823117
7.184,0.9999985071071505,27.620704831980525
7.192,0.9999983951859281,27.428084075860497
7.2,0.9999982848429759,27.235430176400627
7.208,0.9999981760997291,27.042743329032795
7.216,0.9999980689767485,26.850023729680792
7.224,0.999997963493732,26.657271574757946
7.232,0.9999978596695237,26.464487061164725
7.24,0.9999977575221208,26.27167038628633
7.248,0.9999976570686863,26.078821747990276
7.256,0.9999975583255563,25.885941344623927
7.264,0.9999974613082494,25.693029375012074
7.272,0.999997366031478,25.500086038454384
7.28,0.9999972725091543,25.307111534723003
7.288,0.9999971807544019,25.114106064059964
7.296,0.9999970907795651,24.921069827174723
7.304,0.999997002596217,24.728003025241563
7.312,0.9999969162151694,24.534905859897084
7.32,0.9999968316464817,24.341778533237573
7.328,0.9999967488994707,24.148621247816482
7.336,0.9999966679827187,23.955434206641737
7.344,0.999996588904084,23.76221761317321
7.352,0.9999965116707092,23.568971671319993
7.36,0.9999964362890299,23.37569658543779
7.368,0.9999963627647847,23.18239256032626
7.376,0.9999962911030238,22.989059801226283
7.384,0.9999962213081183,22.7956985138173
7.392,0.9999961533837692,22.602308904214528
7.4,0.9999960873330156,22.408891178966364
7.4079999999999995,0.9999960231582447,22.21544554505151
7.416,0.9999959608612011,22.021972209876164
7.4239999999999995,0.999995900442994,21.828471381271516
7.432,0.9999958419041076,21.63494326749054
7.4399999999999995,0.9999957852444097,21.441388077205644
7.448,0.9999957304631597,21.247806019505372
7.4559999999999995,0.9999956775590194,21.054197303892014
7.464,0.9999956265300591,20.860562140278365
7.4719999999999995,0.999995577373769,20.666900738985202
7.48,0.999995530087066,20.473213310738032
7.4879999999999995,0.9999954846663037,20.279500066664617
7.496,0.9999954411072806,20.08576121829162
7.504,0.9999953994052484,19.891996977542078
7.5120000000000005,0.9999953595549211,19.698207556732118
7.52,0.9999953215504839,19.504393168568313
7.5280000000000005,0.9999952853856012,19.310554026144395
7.536,0.9999952510534261,19.116690342938597
7.5440000000000005,0.9999952185466073,18.92280233281032
7.552,0.999995187857299,18.72889020999749
7.5600000000000005,0.9999951589771687,18.534954189113122
7.568,0.9999951318974062,18.340994485142687
7.5760000000000005,0.9999951066087318,18.147011313440686
7.584,0.999995083101404,17.953004889727943
7.5920000000000005,0.999995061365229,17.758975430088135
7.6,0.9999950413895684,17.56492315096512
7.6080000000000005,0.9999950231633468,17.37084826915942
7.616,0.9999950066750615,17.176751001825465
7.6240000000000006,0.9999949919127903,16.982631566468118
7.632,0.9999949788641981,16.78849018093987
7.640000000000001,0.9999949675165476,16.59432706343734
7.648,0.9999949578567058,16.400142432498452
7.656000000000001,0.9999949498711521,16.205936506998885
7.664,0.9999949435459867,16.01170950614923
7.672,0.9999949388669395,15.81746164949147
7.68,0.9999949358193758,15.623193156895962
7.688,0.9999949343883064,15.42890424855816
7.696,0.9999949345583954,15.234595144995279
7.704,0.9999949363139659,15.040266067043161
7.712,0.9999949396390101,14.8459172358529
7.72,0.9999949445171963,14.651548872887634
7.728,0.9999949509318771,14.457161199919199
7.736,0.9999949588660958,14.26275443902484
7.744,0.9999949683025958,14.0683288125839
7.752,0.999994979223827,13.873884543274484
7.76,0.9999949916119536,13.679421854070117
7.768,0.9999950054488627,13.484940968236382
7.776,0.9999950207161701,13.29044210932758
7.784,0.9999950373952291,13.095925501183332
7.792,0.9999950554671377,12.901391367925198
7.8,0.999995074912746,12.7068399339533
7.808,0.9999950957126625,12.51227142394288
7.816,0.9999951178472634,12.317686062840922
7.824,0.999995141296698,12.123084075862685
7.832,0.9999951660408974,11.928465688488282
7.84,0.9999951920595807,11.733831126459247
7.848,0.9999952193322624,11.539180615775052
7.856,0.99999524783826,11.344514382689633
7.864,0.9999952775567001,11.149832653707945
7.872,0.9999953084665265,10.955135655582431
7.88,0.9999953405465069,10.760423615309561
7.888,0.9999953737752388,10.565696760126292
7.896,0.9999954081311577,10.370955317506574
7.904,0.9999954435925437,10.17619951515781
7.912,0.9999954801375278,9.981429581017318
7.92,0.9999955177440988,9.786645743248803
7.928,0.9999955563901102,9.591848230238783
7.936,0.9999955960532874,9.397037270593037
7.944,0.9999956367112324,9.202213093133025
7.952,0.999995678341433,9.007375926892312
7.96,0.9999957209212681,8.812526001112982
7.968,0.9999957644280131,8.617663545242044
7.976,0.9999958088388481,8.422788788927797
7.984,0.9999958541308627,8.227901962016272
7.992,0.9999959002810646,8.033003294547559
8.0,0.9999959472663835,7.838093016752183
8.008,0.9999959950636789,7.643171359047533
8.016,0.9999960436497445,7.448238552034052
8.024000000000001,0.9999960930013176,7.253294826491811
8.032,0.9999961430950816,7.0583404133767385
8.04,0.9999961939076738,6.863375543816865
8.048,0.9999962454156925,6.668400449108716
8.056000000000001,0.9999962975957,6.4734153607137594
8.064,0.9999963504242315,6.278420510254588
8.072,0.9999964038777992,6.08341612951116
8.08,0.9999964579328982,5.888402450417186
8.088000000000001,0.9999965125660132,5.693379705056499
8.096,0.9999965677536237,5.498348125659255
8.104,0.9999966234722094,5.303307944598126
8.112,0.9999966796982557,5.108259394384675
8.120000000000001,0.9999967364082601,4.913202707665682
8.128,0.9999967935787365,4.718138117219346
8.136,0.9999968511862226,4.523065855951437
8.144,0.9999969092072822,4.3279861568916385
8.152000000000001,0.9999969676185139,4.13289925318989
8.16,0.9999970263965541,3.937805378112518
8.168,0.9999970855180834,3.7427047650384093
8.176,0.9999971449598313,3.547597647455303
8.184000000000001,0.9999972046985811,3.352484258956122
8.192,0.9999972647111756,3.157364833235095
8.2,0.9999973249745224,2.96223960408389
8.208,0.9999973854655975,2.767108805387911
8.216000000000001,0.9999974461614518,2.5719726711225874
8.224,0.9999975070392148,2.376831435349498
8.232,0.9999975680760997,2.181685332212477
8.24,0.9999976292494097,1.9865345959338936
8.248000000000001,0.9999976905365399,1.7913794608109366
8.256,0.9999977519149836,1.5962201612117042
8.264,0.999997813362338,1.4010569315713106
8.272,0.9999978748563062,1.2058900063881446
8.280000000000001,0.9999979363747037,1.0107196202201425
8.288,0.9999979978954622,0.815546007680867
8.296,0.999998059396634,0.6203694034355992
8.304,0.999998120856396,0.4251900421975729
8.312,0.9999981822530544,0.2300081587242988
8.32,0.9999982435650487,0.034823987813403415
8.328,0.999998304770957,-0.16036223570085448
8.336,0.9999983658494979,-0.3555502769517814
8.344,0.9999984267795363,-0.550739901043735
8.352,0.9999984875400875,-0.7459308730563344
8.36,0.9999985481103194,-0.9411229580479419
8.368,0.9999986084695588,-1.1363159210598766
8.376,0.9999986685972936,-1.331509527119904
8.384,0.9999987284731764,-1.5267035412464502
8.392,0.99999878807703,-1.7218977284520987
8.4,0.9999988473888488,-1.9170918537478028
8.408,0.9999989063888054,-2.1122856821463896
8.416,0.9999989650572502,-2.3074789786667624
8.424,0.9999990233747182,-2.5026715083374125
8.432,0.999999081321932,-2.6978630362006295
8.44,0.9999991388798031,-2.8930533273160206
8.448,0.9999991960294374,-3.0882421467646926
8.456,0.9999992527521386,-3.2834292596527974
8.464,0.9999993090294091,-3.4786144311157132
8.472,0.9999993648429559,-3.6737974263215714
8.48,0.9999994201746925,-3.86897801047546
8.488,0.9999994750067409,-4.064155948822937
8.496,0.9999995293214374,-4.259331006654235
8.504,0.9999995831013327,-4.454502949307775
8.512,0.999999636329197,-4.649671542174369
8.52,0.9999996889880209,-4.844836550700732
8.528,0.9999997410610194,-5.039997740393685
8.536,0.9999997925316351,-5.235154876823661
8.544,0.9999998433835399,-5.430307725628904
8.552,0.9999998936006369,-5.625456052518987
8.56,0.9999999431670656,-5.820599623278987
8.568,0.9999999920672025,-6.015738203773007
8.576,1.0,-6.2108715599483615
8.584,0.9999999999999999,-6.4059994578390755
8.592,1.0,-6.601121663570069
8.6,1.0,-6.796237943360667
8.608,1.0,-6.9913480635287675
8.616,0.9999999999999999,-7.186451790494337
8.624,1.0,-7.381548890783592
8.632,1.0,-7.576639131032477
8.64,1.0,-7.77172227799085
8.648,0.9999999999999999,-7.966798098525951
8.656,0.9999999999999999,-8.161866359626565
8.664,1.0,-8.356926828406506
8.672,1.0,-8.551979272108774
8.68,0.9999999999999999,-8.74702345810901
8.688,1.0,-8.942059153919669
8.696,1.0,-9.137086127193445
8.704,1.0,-9.332104145727454
8.712,1.0,-9.527112977466658
8.72,1.0,-9.722112390508006
8.728,1.0,-9.917102153103878
8.736,0.9999999999999999,-10.112082033666212
8.744,1.0,-10.307051800769946
8.752,1.0,-10.502011223157103
8.76,0.9999999999999999,-10.696960069740246
8.768,1.0,-10.891898109606581
8.776,1.0,-11.086825112021351
8.784,1.0,-11.281740846431951
8.792,0.9999999999999999,-11.47664508247132
8.8,0.9999999999999999,-11.671537589962032
8.808,1.0,-11.866418138919677
8.815999999999999,0.9999999999999999,-12.061286499556905
8.824,1.0,-12.256142442287013
8.832,0.9999999999999999,-12.45098573772757
8.84,1.0,-12.645816156704225
8.847999999999999,0.9999999999999999,-12.840633470254486
8.856,0.9999999999999999,-13.035437449631354
8.864,1.0,-13.230227866306908
8.872,1.0,-13.425004491976065
8.879999999999999,1.0,-13.619767098560377
8.888,1.0,-13.814515458211597
8.896,1.0,-14.009249343315252
8.904,0.9999999999999999,-14.203968526494394
8.911999999999999,1.0,-14.398672780613337
8.92,1.0,-14.593361878781206
8.928,1.0,-14.78803559435548
8.936,0.9999999999999999,-14.982693700945742
8.943999999999999,0.9999999999999999,-15.177335972417314
8.952,0.9999999999999999,-15.371962182894837
8.96,1.0,-15.566572106765808
8.968,1.0,-15.761165518684145
8.975999999999999,1.0,-15.955742193574004
8.984,0.9999999999999999,-16.150301906633192
8.992,1.0,-16.344844433336647
9.0,0.9999999999999999,-16.53936954944011
9.008,1.0,-16.733877030983756
9.016,1.0,-16.928366654295623
9.024000000000001,0.9999999999999998,-17.12283819599512
9.032,0.9999999999999999,-17.317291432996562
9.04,0.9999999999999999,-17.511726142512842
9.048,1.0,-17.706142102058806
9.056000000000001,1.0000000000000002,-17.90053908945466
9.064,0.9999999999999999,-18.094916882829583
9.072,0.9999999999999999,-18.28927526062526
9.08,1.0,-18.48361400159925
9.088000000000001,0.9999999999999999,-18.677932884828394
9.096,1.0,-18.872231689712315
9.104,0.9999999999999999,-19.066510195976974
9.112,0.9999999999999998,-19.26076818367797
9.120000000000001,1.0,-19.455005433203908
9.128,1.0,-19.64922172527986
9.136,1.0,-19.843416840970892
9.144,0.9999999999999999,-20.037590561685295
9.152000000000001,1.0,-20.23174266917792
9.16,0.9999999999999999,-20.425872945553635
9.168,0.9999999999999999,-20.61998117327072
9.176,1.0000000000000002,-20.814067135144153
9.184000000000001,1.0,-21.008130614348858
9.192,1.0,-21.20217139442308
9.2,1.0,-21.396189259271807
9.208,1.0,-21.590183993169955
9.216000000000001,1.0,-21.78415538076559
9.224,0.9999999999999999,-21.978103207083272
9.232,1.0,-22.172027257527397
9.24,1.0,-22.365927317885365
9.248000000000001,0.9999999999999999,-22.559803174330735
9.256,1.0,-22.753654613426537
9.264,1.0,-22.947481422128526
9.272,1.0,-23.141283387788373
9.280000000000001,1.0,-23.335060298156726
9.288,0.9999999999999999,-23.52881194138644
9.296,0.9999999999999999,-23.72253810603586
9.304,0.9999999999999999,-23.91623858107191
9.312000000000001,1.0,-24.10991315587307
9.32,0.9999999999999999,-24.303561620232653
9.328,0.9999999999999999,-24.497183764362
9.336,1.0,-24.690779378893414
9.344,1.0,-24.88434825488321
9.352,0.9999999999999999,-25.077890183815047
9.36,1.0,-25.271404957602606
9.368,1.0,-25.464892368593084
9.376,0.9999999773487235,-25.65835220956973
9.384,0.9999999259870425,-25.851784273755364
9.392,0.9999998738267648,-26.045188354814925
9.4,0.9999998208805266,-26.238564246858854
9.408,0.9999997671611822,-26.431911744445703
9.416,0.999999712681801,-26.625230642585475
9.424,0.9999996574556651,-26.818520736742183
9.432,0.9999996014962663,-27.0117818228372
9.44,0.9999995448173048,-27.205013697251736
9.448,0.9999994874326851,-27.398216156830184
9.456,0.9999994293565146,-27.591388998882596
9.464,0.9999993706030998,-27.784532021187953
9.472,0.9999993111869446,-27.97764502199667
9.48,0.9999992511227472,-28.170727800033795
9.488,0.9999991904253974,-28.36378015450144
9.496,0.9999991291099735,-28.556801885082056
9.504,0.9999990671917398,-28.74979279194081
9.512,0.9999990046861443,-28.942752675728755
9.52,0.9999989416088145,-29.135681337585222
9.528,0.9999988779755556,-29.328578579140963
9.536,0.9999988138023478,-29.52144420252056
9.544,0.9999987491053425,-29.714278010345453
9.552,0.999998683900859,-29.90707980573638
9.56,0.9999986182053836,-30.099849392316344
9.568,0.9999985520355638,-30.292586574212987
9.576,0.9999984854082078,-30.485291156061656
9.584,0.9999984183402795,-30.6779629430076
9.592,0.9999983508488967,-30.87060174070909
9.6,0.999998282951327,-31.063207355339575
9.608,0.999998214664986,-31.255779593590695
9.616,0.9999981460074323,-31.448318262674544
9.624,0.9999980769963663,-31.640823170326527
9.632,0.9999980076496254,-31.833294124807672
9.64,0.9999979379851812,-32.025730934907415
9.648,0.9999978680211372,-32.218133409945835
9.656,0.999997797775725,-32.41050135977657
9.664,0.9999977272672996,-32.60283459478886
9.672,0.9999976565143385,-32.795132925910416
9.68,0.9999975855354363,-32.9873961646096
9.688,0.9999975143493034,-33.17962412289813
9.696,0.9999974429747608,-33.37181661333324
9.704,0.9999973714307374,-33.563973449020345
9.712,0.9999972997362667,-33.75609444361525
9.72,0.9999972279104837,-33.948179411326734
9.728,0.9999971559726213,-34.14022816691865
9.736,0.9999970839420054,-34.3322405257126
9.744,0.9999970118380542,-34.52421630358993
9.752,0.9999969396802727,-34.716155316994396
9.76,0.9999968674882497,-34.90805738293411
9.768,0.9999967952816541,-35.099922318984206
9.776,0.9999967230802326,-35.291749943288686
9.784,0.9999966509038041,-35.48354007456314
9.792,0.999996578772258,-35.67529253209651
9.8,0.9999965067055497,-35.86700713575374
9.808,0.9999964347236974,-36.05868370597761
9.816,0.9999963628467782,-36.250322063791224
9.824,0.9999962910949247,-36.441922030799944
9.832,0.9999962194883215,-36.63348342919377
9.84,0.9999961480472015,-36.825006081749166
9.847999999999999,0.9999960767918422,-37.016489811831526
9.856,0.9999960057425623,-37.2079344433971
9.864,0.9999959349197175,-37.399339800995
9.872,0.9999958643436978,-37.590705709769395
9.879999999999999,0.9999957940349231,-37.78203199546153
9.888,0.999995724013839,-37.973318484411855
9.896,0.9999956543009151,-38.16456500356177
9.904,0.9999955849166393,-38.35577138045589
9.911999999999999,0.9999955158815147,-38.54693744324393
9.92,0.999995447216057,-38.73806302068272
9.928,0.999995378940789,-38.929147942138016
