freq,mag,phase
6.0,0.999996327467836,-151.71855582921287
6.008,0.9999959604733892,-152.0193164949471
6.016,0.9999956200338279,-152.31958813177815
6.024,0.9999953053653807,-152.61937623985176
6.032,0.9999950156997917,-152.9186863005629
6.04,0.9999947502840759,-153.2175237767052
6.048,0.9999945083802725,-153.5158941126225
6.056,0.9999942892652084,-153.8138027343617
6.064,0.9999940922302593,-154.11125504982704
6.072,0.9999939165811154,-154.40825644893644
6.08,0.999993761637552,-154.70481230377882
6.088,0.9999936267332067,-155.00092796877306
6.096,0.999993511215344,-155.2966087808282
6.104,0.9999934144446484,-155.59186005950517
6.112,0.9999933357949939,-155.88668710717957
6.12,0.9999932746532427,-156.18109520920572
6.128,0.9999932304190166,-156.47508963408248
6.136,0.9999932025045043,-156.76867563361887
6.144,0.9999931903342487,-157.06185844310224
6.152,0.9999931933449399,-157.3546432814669
6.16,0.9999932109852211,-157.6470353514636
6.168,0.9999932427154923,-157.9390398398302
6.176,0.9999932880077081,-158.23066191746346
6.184,0.9999933463451979,-158.52190673959143
6.192,0.9999934172224654,-158.81277944594717
6.2,0.9999935001450081,-159.1032851609425
6.208,0.9999935946291331,-159.39342899384386
6.216,0.9999937002017829,-159.68321603894736
6.224,0.9999938164003435,-159.97265137575633
6.232,0.999993942772483,-160.261740069158
6.24,0.9999940788759641,-160.55048716960204
6.248,0.9999942242784884,-160.83889771327907
6.256,0.9999943785575157,-161.1269767223003
6.264,0.9999945413001143,-161.41472920487735
6.272,0.9999947121027786,-161.70216015550292
6.28,0.9999948905712813,-161.9892745551322
6.288,0.9999950763205168,-162.27607737136418
6.296,0.9999952689743311,-162.56257355862445
6.304,0.9999954681653854,-162.84876805834747
6.312,0.999995673534995,-163.13466579916022
6.32,0.9999958847329826,-163.42027169706532
6.328,0.9999961014175291,-163.705590655626
6.336,0.9999963232550343,-163.9906275661497
6.344,0.9999965499199719,-164.27538730787364
6.352,0.9999967810947438,-164.55987474814992
6.36,0.9999970164695487,-164.8440947426313
6.368,0.9999972557422512,-165.12805213545704
6.376,0.9999974986182316,-165.41175175943908
6.384,0.9999977448102699,-165.69519843624911
6.392,0.9999979940384036,-165.97839697660538
6.4,0.9999982460298101,-166.26135218045968
6.408,0.9999985005186716,-166.54406883718494
6.416,0.9999987572460608,-166.8265517257629
6.424,0.9999990159598077,-167.10880561497217
6.432,0.9999992764143864,-167.39083526357632
6.44,0.9999995383707961,-167.67264542051234
6.448,0.9999998015964443,-167.95424082507907
6.456,0.9999999999999999,-168.2356262071261
6.464,1.0,-168.51680628724256
6.472,1.0,-168.79778577694634
6.48,0.9999999999999999,-169.07856937887334
6.4879999999999995,1.0,-169.35916178696672
6.496,0.9999999999999998,-169.63956768666668
6.504,0.9999999999999999,-169.9197917550996
6.5120000000000005,0.9999999999999999,-170.19983866126853
6.52,1.0,-170.47971306624225
6.5280000000000005,1.0,-170.7594196233459
6.536,1.0,-171.03896297835055
6.5440000000000005,1.0,-171.31834776966366
6.552,1.0,-171.59757862851896
6.5600000000000005,1.0,-171.876660179167
6.568,0.9999999999999998,-172.15559703906527
6.5760000000000005,1.0,-172.4343938190688
6.584,1.0,-172.71305512362017
6.592,0.9999999999999999,-172.9915855509405
6.6,0.9999999999999999,-173.26998969321957
6.608,1.0,-173.5482721368065
6.616,0.9999999999999999,-173.8264374624003
6.624,1.0,-174.10449024524033
6.632,1.0,-174.38243505529707
6.64,0.9999999999999999,-174.66027645746266
6.648,1.0,-174.9380190117414
6.656,0.9999999999999999,-175.21566727344052
6.664,1.0,-175.4932257933606
6.672,1.0,-175.7706991179865
6.68,1.0,-176.0480917896776
6.688,1.0,-176.32540834685855
6.696,1.0,-176.6026533242099
6.704,0.9999999999999998,-176.87983125285848
6.712,1.0,-177.1569466605681
6.72,1.0,-177.43400407193005
6.728,1.0,-177.71100800855336
6.736,1.0,-177.9879629892556
6.744,1.0,-178.26487353025294
6.752,1.0,-178.54174414535098
6.76,1.0,-178.81857934613447
6.768,0.9999999999999999,-179.09538364215825
6.776,0.9999999999999999,-179.37216154113722
6.784,1.0,-179.64891754913646
6.792,1.0,-179.92565617076178
6.8,1.0,179.79761809065053
6.808,1.0,179.52090073284336
6.816,1.0,179.24418725444886
6.824,0.9999999999999999,178.9674731547985
6.832,0.9999999999999999,178.69075393373288
6.84,1.0,178.41402509141219
6.848,1.0,178.1372821281262
6.856,1.0,177.8605205441045
6.864,0.9999999999999999,177.58373583932692
6.872,0.9999999999999999,177.3069235133337
6.88,0.9999999999999998,177.03007906503623
6.888,1.0,176.7531979925272
6.896,1.0,176.47627579289139
6.904,1.0,176.19930796201626
6.912,0.9999999999999999,175.9222899944027
6.92,0.9999999999999999,175.64521738297572
6.928,1.0,175.36808561889538
6.936,0.9999999999999999,175.0908901913677
6.944,1.0,174.81362658745576
6.952,0.9999999999999999,174.5362902918907
6.96,1.0,174.25887678688326
6.968,0.9999999999999999,173.9813815519342
6.976,1.0,173.7038000636469
6.984,0.9999999999999999,173.4261277955377
6.992,1.0,173.1483602178483
7.0,1.0,172.8704927973569
7.008,1.0,172.59252099719038
7.016,1.0,172.3144402766356
7.024,0.9999999999999999,172.03624609095232
7.032,1.0,171.75793389118425
7.04,0.9999999999999999,171.47949912397198
7.048,1.0,171.20093723136534
7.056,0.9999999999999999,170.92224365063527
7.064,0.9999999999999999,170.64341381408715
7.072,1.0,170.36444314887305
7.08,1.0,170.08532707680482
7.088,1.0,169.80606101416714
7.096,1.0,169.5266403715306
7.104,1.0,169.24706055356495
7.112,1.0,168.96731695885293
7.12,1.0,168.68740497970373
7.128,0.9999999999999999,168.40732000196658
7.136,1.0,168.12705740484537
7.144,0.9999999999999999,167.84661256071223
7.152,1.0,167.5659808349224
7.16,1.0,167.2851575856286
7.168,1.0,167.00413816359588
7.176,1.0,166.7229179120168
7.184,1.0,166.44149216632655
7.192,1.0,166.1598562540184
7.2,0.9999999999999999,165.87800549445964
7.208,1.0,165.5959351987075
7.216,1.0,165.31364066932542
7.224,0.9999999999999999,165.03111720019947
7.232,1.0,164.74836007635523
7.24,1.0,164.4653645737753
7.248,1.0,164.18212595921594
7.256,1.0,163.89863949002566
7.264,0.9999999999999999,163.6149004139628
7.272,1.0,163.33090396901417
7.28,1.0,163.04664538321347
7.288,0.9999999999999998,162.76211987446118
7.296,1.0,162.4773226503433
7.304,1.0,162.1922489079519
7.312,0.9999999999999998,161.90689383370528
7.32,1.0,161.62125260316859
7.328,1.0,161.33532038087537
7.336,1.0,161.04909232014924
7.344,1.0,160.76256356292575
7.352,1.0000000000000002,160.4757292395756
7.36,1.0,160.18858446872736
7.368,1.0,159.90112435709165
7.376,1.0,159.61334399928543
7.384,1.0,159.32523847765628
7.392,1.0,159.03680286210889
7.4,0.9999999999999999,158.74803220993033
7.4079999999999995,1.0000000000000002,158.45892156561735
7.416,1.0,158.16946596070358
7.4239999999999995,1.0,157.87966041358763
7.432,1.0,157.58949992936215
7.4399999999999995,1.0,157.29897949964342
7.448,0.9999999999999999,157.0080941024013
7.4559999999999995,0.9999999999999999,156.7168387017909
7.464,1.0,156.42520824798424
7.4719999999999995,0.9999999999999999,156.13319767700335
7.48,0.9999999999999999,155.84080191055364
7.4879999999999995,1.0,155.548015855859
7.496,1.0,155.25483440549675
7.504,1.0,154.96125243723472
7.5120000000000005,0.9999999999999999,154.66726481386868
7.52,0.9999999999999999,154.37286638306085
7.5280000000000005,0.9999999999999999,154.07805197717957
7.536,0.9999999999999999,153.7828164131402
7.5440000000000005,0.9999999999999999,153.48715449224682
7.552,0.9999999999999999,153.1910610000358
7.5600000000000005,1.0,152.8945307061197
7.568,1.0000000000000002,152.59755836403326
7.5760000000000005,0.9999999999999999,152.30013871107982
7.584,1.0,152.0022664681804
7.5920000000000005,1.0,151.70393633972242
7.6,1.0,151.4051430134117
7.6080000000000005,0.9999999999999999,151.1058811601242
7.616,1.0,150.80614543376097
7.6240000000000006,0.9999999999999999,150.50593047110323
7.632,1.0,150.20523089167008
7.640000000000001,1.0,149.90404129757704
7.648,1.0,149.6023562733973
7.656000000000001,0.9999999999999999,149.3001703860239
7.664,1.0,148.99747818453412
7.672,1.0,148.69427420005582
7.68,0.9999999999999999,148.3905529456354
7.688,1.0,148.08630891610827
7.696,0.9999999999999999,147.78153658797086
7.704,0.9999999999999999,147.47623041925505
7.712,0.9999999999999999,147.17038484940474
7.72,0.9999999999999999,146.86399429915488
7.728,1.0,146.55705317041208
7.736,0.9999999999999999,146.24955584613872
7.744,1.0,145.9414966902386
7.752,1.0,145.6328700474454
7.76,0.9999999999999999,145.32367024321402
7.768,0.9999999999999999,145.01389158361408
7.776,0.9999999999999998,144.70352835522664
7.784,0.9999999999999999,144.39257482504345
7.792,0.9999999999999999,144.08102524036923
7.8,0.9999999999999999,143.76887382872687
7.808,1.0,143.4561147977657
7.816,0.9999999999999999,143.14274233517304
7.824,1.0,142.82875060858873
7.832,1.0,142.5141337655233
7.84,1.0,142.19888593327929
7.848,0.9999999999999998,141.88300121887613
7.856,1.0,141.56647370897895
7.864,1.0,141.24929746983037
7.872,1.0,140.931466547187
7.88,0.9999999999999999,140.612974966259
7.888,0.9999999999999999,140.29381673165423
7.896,0.9999999999999999,139.9739858273262
7.904,0.999999839073305,139.65347621652626
7.912,0.9999996558023689,139.33228184176028
7.92,0.9999994732790626,139.01039662474952
7.928,0.9999992915488795,138.6878144663963
7.936,0.9999991106569552,138.3645292467541
7.944,0.9999989306480608,138.0405348250026
7.952,0.9999987515665956,137.71582503942744
7.96,0.9999985734565843,137.3903937074053
7.968,0.9999983963616688,137.06423462539388
7.976,0.9999982203251055,136.73734156892718
7.984,0.999998045389756,136.40970829261624
7.992,0.9999978715980862,136.08132853015553
8.0,0.999997698992157,135.75219599433478
8.008,0.9999975276136212,135.4223043770568
8.016,0.9999973575037179,135.0916473493612
8.024000000000001,0.9999971887032673,134.76021856145417
8.032,0.999997021252664,134.42801164274476
8.04,0.9999968551918748,134.09502020188702
8.048,0.9999966905604311,133.7612378268291
8.056000000000001,0.9999965273974254,133.42665808486927
8.064,0.9999963657415054,133.09127452271812
8.072,0.9999962056308691,132.7550806665683
8.08,0.9999960471032613,132.41807002217115
8.088000000000001,0.9999958901959665,132.08023607492117
8.096,0.9999957349458058,131.74157228994736
8.104,0.999995581389132,131.40207211221255
8.112,0.9999954295618232,131.06172896662062
8.120000000000001,0.9999952794992805,130.7205362581319
8.128,0.9999951312364215,130.37848737188648
8.136,0.9999949848076759,130.03557567333604
8.144,0.999994840246982,129.6917945083842
8.152000000000001,0.9999946975877819,129.34713720353616
8.16,0.9999945568630143,129.00159706605658
8.168,0.9999944181051138,128.65516738413697
8.176,0.9999942813460047,128.30784142707245
8.184000000000001,0.9999941466170948,127.95961244544833
8.192,0.9999940139492748,127.61047367133611
8.2,0.9999938833729095,127.26041831849919
8.208,0.9999937549178378,126.90943958260969
8.216000000000001,0.9999936286133643,126.55753064147508
8.224,0.9999935044882577,126.20468465527534
8.232,0.9999933825707451,125.85089476681124
8.24,0.999993262888508,125.49615410176354
8.248000000000001,0.9999931454686786,125.14045576896392
8.256,0.9999930303378345,124.78379286067695
8.264,0.9999929175219952,124.42615845289366
8.272,0.9999928070466177,124.06754560563787
8.280000000000001,0.9999926989365919,123.70794736328438
8.288,0.9999925932162365,123.34735675488943
8.296,0.9999924899092961,122.98576679453417
8.304,0.9999923890389348,122.62317048168096
8.312,0.999992290627734,122.25956080154343
8.32,0.9999921946976876,121.89493072546908
8.328,0.999992101270197,121.52927321133656
8.336,0.9999920103660679,121.16258120396643
8.344,0.9999919220055068,120.7948476355465
8.352,0.9999918362081172,120.42606542607143
8.36,0.9999917529928914,120.05622748379754
8.368,0.9999916723782141,119.68532670571211
8.376,0.9999915943818507,119.3133559780191
8.384,0.999991519020949,118.9403081766391
8.392,0.9999914463120313,118.56617616772665
8.4,0.9999913762709923,118.19095280820251
8.408,0.9999913089130968,117.81463094630371
8.416,0.9999912442529721,117.4372034221489
8.424,0.9999911823046073,117.05866306832246
8.432,0.9999911230813471,116.6790027104744
8.44,0.9999910665958907,116.29821516793918
8.448,0.9999910128602852,115.9162932543715
8.456,0.9999909618859234,115.5332297784015
8.464,0.9999909136835402,115.1490175443071
8.472,0.9999908682632079,114.76364935270671
8.48,0.9999908256343333,114.37711800126974
8.488,0.9999907858056539,113.98941628544785
8.496,0.9999907487852343,113.60053699922493
8.504,0.9999907145804617,113.21047293588802
8.512,0.9999906831980445,112.81921688881789
8.52,0.9999906546440064,112.42676165230111
8.528,0.9999906289236843,112.03310002236233
8.536,0.9999906060417248,111.63822479761886
8.544,0.9999905860020796,111.24212878015571
8.552,0.9999905688080042,110.84480477642403
8.56,0.9999905544620526,110.44624559816025
8.568,0.9999905429660759,110.04644406332939
8.576,0.9999905343212168,109.64539299708981
8.584,0.9999905285279093,109.24308523278249
8.592,0.9999905255858716,108.83951361294257
8.6,0.9999905254941084,108.4346709903359
8.608,0.9999905282509026,108.02855022901872
8.616,0.9999905338538162,107.62114420542258
8.624,0.9999905422996849,107.21244580946326
8.632,0.9999905535846164,106.80244794567558
8.64,0.999990567703989,106.39114353437247
8.648,0.9999905846524458,105.97852551283096
8.656,0.9999906044238949,105.5645868365026
8.664,0.9999906270115055,105.14932048025183
8.672,0.9999906524077055,104.73271943961888
8.68,0.9999906806041801,104.3147767321114
8.688,0.999990711591868,103.89548539852137
8.696,0.9999907453609612,103.47483850427083
8.704,0.9999907819009014,103.05282914078389
8.712,0.9999908212003782,102.62945042688774
8.72,0.9999908632473277,102.20469551024061
8.728,0.9999909080289309,101.77855756878922
8.736,0.9999909555316114,101.35102981225351
8.744,0.9999910057410341,100.92210548364163
8.752,0.9999910586421042,100.49177786079238
8.76,0.9999911142189654,100.06004025794839
8.768,0.9999911724549988,99.62688602735724
8.776,0.9999912333328225,99.19230856090383
8.784,0.9999912968342892,98.75630129177075
8.792,0.9999913629404877,98.31885769613045
8.8,0.9999914316317402,97.87997129486584
8.808,0.9999915028876036,97.43963565532285
8.815999999999999,0.9999915766868673,96.99784439309177
8.824,0.9999916530075541,96.55459117382028
8.832,0.9999917318269222,96.10986971505707
8.84,0.9999918131214608,95.66367378812558
8.847999999999999,0.9999918968668954,95.21599722002892
8.856,0.9999919830381845,94.76683389538573
8.864,0.9999920716095236,94.31617775839734
8.872,0.9999921625543432,93.86402281484524
8.879999999999999,0.9999922558453122,93.41036313411965
8.888,0.9999923514543388,92.95519285127958
8.896,0.999992449352571,92.49850616914362
8.904,0.9999925495103996,92.0402973604116
8.911999999999999,0.9999926518974604,91.58056076981683
8.92,0.999992756482635,91.11929081630963
8.928,0.9999928632340547,90.65648199527159
8.936,0.9999929721191025,90.19212888075997
8.943999999999999,0.9999930831044174,89.72622612778243
8.952,0.9999931961558964,89.25876847460243
8.96,0.9999933112386974,88.78975074507478
8.968,0.9999934283172451,88.3191678510104
8.975999999999999,0.999993547355234,87.84701479457078
8.984,0.9999936683156314,87.37328667069204
8.992,0.9999937911606858,86.89797866953803
9.0,0.9999939158519274,86.42108607898169
9.008,0.9999940423501764,85.94260428711448
9.016,0.9999941706155479,85.46252878478438
9.024000000000001,0.9999943006074568,84.9808551681612
9.032,0.9999944322846261,84.49757914132843
9.04,0.9999945656050906,84.01269651890172
9.048,0.9999947005262068,83.5262032286737
9.056000000000001,0.9999948370046583,83.03809531428418
9.064,0.9999949749964631,82.54836893791496
9.072,0.9999951144569836,82.05702038300853
9.08,0.9999952553409323,81.56404605701113
9.088000000000001,0.9999953976023828,81.06944249413824
9.096,0.9999955411947774,80.57320635816222
9.104,0.9999956860709379,80.0753344452208
9.112,0.9999958321830728,79.5758236866469
9.120000000000001,0.9999959794827905,79.07467115181787
9.128,0.999996127921109,78.57187405102322
9.136,0.9999962774484665,78.06742973835004
9.144,0.9999964280147319,77.56133571458582
9.152000000000001,0.9999965795692192,77.05358963013704
9.16,0.9999967320606976,76.54418928796203
9.168,0.9999968854374053,76.03313264651761
9.176,0.9999970396470623,75.52041782271861
9.184000000000001,0.9999971946368836,75.00604309490868
9.192,0.9999973503535947,74.49000690584066
9.2,0.9999975067434432,73.97230786566597
9.208,0.9999976637522168,73.45294475493164
9.216000000000001,0.999997821325257,72.93191652758351
9.224,0.9999979794074757,72.40922231397373
9.232,0.9999981379433691,71.88486142387121
9.24,0.9999982968770387,71.35883334947455
9.248000000000001,0.9999984561522045,70.83113776842468
9.256,0.9999986157122245,70.30177454681584
9.264,0.9999987755001122,69.77074374220334
9.272,0.999998935458556,69.23804560660682
9.280000000000001,0.9999990955299373,68.70368058950709
9.288,0.9999992556563501,68.16764934083398
9.296,0.9999994157796205,67.62995271394409
9.304,0.9999995758413291,67.09059176858676
9.312000000000001,0.9999997357828289,66.54956777385615
9.32,0.9999998955452688,66.00688221112682
9.328,1.0,65.46253677697115
9.336,1.0,64.91653338605744
9.344,1.0,64.36887417402559
9.352,0.9999999999999999,63.819561500337755
9.36,1.0,63.26859795110378
9.368,0.9999999999999999,62.71598634187632
9.376,1.0,62.16172972041692
9.384,1.0,61.60583136942672
9.392,0.9999999999999999,61.048294809243465
9.4,1.0,60.48912380049903
9.408,1.0,59.92832234673784
9.416,1.0,59.36589469699111
9.424,0.9999999999999999,58.80184534830743
9.432,1.0,58.23617904823378
9.44,0.9999999999999999,57.668900797248256
9.448,1.0,57.10001585113778
9.456,1.0,56.529529723322746
9.464,1.0,55.957448187121415
9.472,1.0,55.38377727795585
9.48,0.9999999999999999,54.8085232954927
9.488,1.0,54.23169280572014
9.496,1.0,53.653292642954206
9.504,0.9999999999999999,53.073329911776256
9.512,0.9999999999999998,52.49181198889449
9.52,0.9999999999999999,51.908746524931104
9.528,1.0,51.324141446128344
9.536,1.0,50.73800495597487
9.544,1.0,50.15034553674558
9.552,1.0,49.56117195095663
9.56,0.9999999999999999,48.97049324272861
9.568,1.0,48.3783187390597
9.576,1.0,47.78465805100156
9.584,1.0,47.18952107474036
9.592,1.0000000000000002,46.59291799257536
9.6,1.0,45.99485927379749
9.608,1.0,45.39535567546037
9.616,0.9999999999999999,44.794418243046785
9.624,1.0,44.192058311022635
9.632,0.9999999999999999,43.58828750328131
9.64,0.9999999999999999,42.9831177334713
9.648,1.0,42.37656120520942
9.656,1.0000000000000002,41.76863041217288
9.664,1.0,41.15933813807281
9.672,1.0,40.54869745650226
9.68,0.9999999999999999,39.93672173066158
9.688,1.0,39.32342461295457
9.696,1.0,38.70882004445804
9.704,1.0,38.09292225425856
9.712,0.9999999999999999,37.47574575865932
9.72,0.9999999999999999,36.857305360250756
9.728,1.0,36.23761614684823
9.736,1.0,35.61669349029065
9.744,1.0,34.9945530451034
9.752,0.9999999999999999,34.3712107470196
9.76,1.0,33.74668281136359
9.768,1.0,33.12098573129056
9.776,1.0,32.49413627588641
9.784,1.0,31.86615148812247
9.792,1.0,31.237048682668835
9.8,0.9999999999999999,30.60684544356133
9.808,1.0,29.97555962172651
9.816,1.0,29.3432093323594
9.824,1.0,28.70981295215895
9.832,1.0,28.075389116416215
9.84,1.0,27.43995671596021
9.847999999999999,1.0,26.803534893957313
9.856,1.0,26.166143042568034
9.864,1.0,25.527800799460284
9.872,0.9999999999999999,24.88852804417941
9.879999999999999,0.9999999999999999,24.248344894376384
9.888,1.0,23.607271701895712
9.896,1.0,22.9653290487237
9.904,1.0000000000000002,22.32253774279768
9.911999999999999,1.0,21.67891881367834
9.92,1.0,21.034493508087195
9.928,1.0,20.38928328531045
9.936,1.0,19.743309812470493
9.943999999999999,1.0,19.096594959667666
9.952,1.0,18.449160794995024
9.96,1.0,17.80102957942784
9.968,0.9999999999999999,17.15222376158976
9.975999999999999,1.0,16.5027659723987
9.984,0.9999999999999999,15.852679019595882
9.992,1.0,15.201985882160352
10.0,1.0,14.550709704611254
10.008,1.0,13.898873791201677
10.016,0.9999999999999999,13.246501600008024
10.024000000000001,1.0,12.593616736917538
