freq,mag,phase
6.0,0.9999948346812956,-169.30740910232996
6.008,0.9999944219692383,-169.72416741845328
6.016,0.9999940350622615,-170.1407605084785
6.024,0.9999936732911412,-170.5571915841524
6.032,0.999993335995789,-170.97346386885184
6.04,0.9999930225251978,-171.38958059738988
6.048,0.999992732237388,-171.80554501582387
6.056,0.9999924644993528,-172.221360381265
6.064,0.9999922186870006,-172.63702996168982
6.072,0.9999919941851024,-173.05255703575352
6.08,0.9999917903872333,-173.46794489260458
6.088,0.9999916066957157,-173.88319683170124
6.096,0.9999914425215634,-174.29831616263002
6.104,0.9999912972844214,-174.713306204925
6.112,0.9999911704125128,-175.1281702878897
6.12,0.9999910613425769,-175.54291175041973
6.128,0.9999909695198106,-175.9575339408277
6.136,0.9999908943978124,-176.3720402166689
6.144,0.9999908354385194,-176.78643394456947
6.152,0.9999907921121534,-177.20071850005527
6.16,0.9999907638971538,-177.61489726738256
6.168,0.999990750280127,-178.02897363937024
6.176,0.9999907507557799,-178.44295101723336
6.184,0.9999907648268599,-178.85683281041813
6.192,0.999990792004097,-179.2706224364383
6.2,0.9999908318061439,-179.684323320713
6.208,0.9999908837595127,179.9020611035941
6.216,0.9999909473985158,179.48852739573442
6.224,0.9999910222652036,179.0750721075326
6.232,0.9999911079093069,178.66169178354363
6.24,0.9999912038881706,178.24838296120814
6.248,0.9999913097666977,177.83514217100716
6.256,0.9999914251172857,177.42196593661532
6.264,0.9999915495197658,177.00885077505276
6.272,0.9999916825613389,176.59579319683604
6.28,0.9999918238365206,176.18278970612798
6.288,0.9999919729470745,175.76983680088608
6.296,0.9999921295019515,175.3569309730103
6.304,0.9999922931172307,174.94406870848934
6.312,0.9999924634160601,174.53124648754618
6.32,0.9999926400285869,174.1184607847825
6.328,0.999992822591905,173.70570806932204
6.336,0.9999930107499919,173.29298480495316
6.344,0.9999932041536437,172.8802874502705
6.352,0.9999934024604197,172.46761245881527
6.36,0.9999936053345772,172.05495627921545
6.368,0.999993812447013,171.64231535532448
6.376,0.9999940234752013,171.22968612635927
6.384,0.9999942381031355,170.81706502703776
6.392,0.9999944560212652,170.40444848771517
6.4,0.9999946769264363,169.99183293451992
6.408,0.9999949005218318,169.5792147894887
6.416,0.9999951265169129,169.16659047070075
6.424,0.9999953546273552,168.75395639241174
6.432,0.999995584574992,168.34130896518656
6.44,0.9999958160877546,167.92864459603211
6.448,0.9999960488996116,167.51595968852905
6.456,0.9999962827505119,167.10325064296305
6.464,0.9999965173863221,166.69051385645582
6.472,0.99999675255877,166.27774572309522
6.48,0.999996988025387,165.8649426340653
6.4879999999999995,0.9999972235494454,165.45210097777561
6.496,0.9999974588999054,165.03921713999014
6.504,0.9999976938513541,164.6262875039564
6.5120000000000005,0.9999979281839466,164.213308450533
6.52,0.9999981616833501,163.8002763583182
6.5280000000000005,0.9999983941406878,163.38718760377714
6.536,0.999998625352476,162.97403856136972
6.5440000000000005,0.9999988551205761,162.56082560367724
6.552,0.9999990832521288,162.14754510152974
6.5600000000000005,0.9999993095595036,161.73419342413246
6.568,0.999999533860239,161.3207669391928
6.5760000000000005,0.999999755976989,160.90726201304642
6.584,0.9999999757374656,160.49367501078405
6.592,1.0,160.08000229637744
6.6,1.0,159.666240232806
6.608,1.0,159.2523851821827
6.616,0.9999999999999999,158.83843350588091
6.624,0.9999999999999999,158.42438156466028
6.632,1.0,158.0102257187934
6.64,1.0,157.59596232819237
6.648,1.0,157.18158775253542
6.656,1.0,156.76709835139386
6.664,1.0000000000000002,156.35249048435904
6.672,1.0,155.9377605111696
6.68,1.0,155.52290479183924
6.688,1.0,155.1079196867843
6.696,0.9999999999999999,154.692801556952
6.704,0.9999999999999999,154.27754676394883
6.712,1.0,153.86215167016954
6.72,1.0,153.4466126389263
6.728,0.9999999999999998,153.0309260345783
6.736,1.0000000000000002,152.61508822266208
6.744,0.9999999999999999,152.19909557002194
6.752,0.9999999999999999,151.78294444494128
6.76,1.0,151.36663121727403
6.768,1.0,150.9501522585772
6.776,0.9999999999999999,150.5335039422435
6.784,1.0,150.11668264363493
6.792,1.0,149.69968474021695
6.8,0.9999999999999999,149.28250661169318
6.808,1.0,148.86514464014115
6.816,0.9999999999999999,148.44759521014845
6.824,0.9999999999999999,148.0298547089499
6.832,1.0,147.61191952656532
6.84,0.9999999999999999,147.19378605593835
6.848,0.9999999999999999,146.77545069307592
6.856,0.9999999999999998,146.3569098371888
6.864,0.9999999999999999,145.9381598908328
6.872,1.0000000000000002,145.51919726005133
6.88,1.0000000000000002,145.10001835451845
6.888,0.9999999999999999,144.68061958768328
6.896,1.0,144.26099737691533
6.904,0.9999999999999999,143.8411481436507
6.912,1.0,143.4210683135397
6.92,1.0,143.00075431659528
6.928,1.0,142.58020258734285
6.936,0.9999999999999999,142.15940956497099
6.944,0.9999999999999999,141.73837169348354
6.952,1.0,141.31708542185302
6.96,0.9999999999999999,140.89554720417482
6.968,0.9999999999999999,140.47375349982312
6.976,1.0,140.0517007736082
6.984,1.0,139.62938549593434
6.992,1.0,139.2068041429601
7.0,0.9999999999999999,138.78395319675892
7.008,0.9999999999999999,138.36082914548206
7.016,0.9999999999999999,137.93742848352227
7.024,0.9999999999999999,137.51374771167923
7.032,0.9999999999999999,137.0897833373266
7.04,0.9999999999999999,136.66553187458013
7.048,1.0,136.2409898444676
7.056,0.9999999999999999,135.81615377510053
7.064,0.9999999999999999,135.3910202018468
7.072,1.0,134.96558566750548
7.08,0.9999999999999999,134.53984672248302
7.088,1.0,134.1137999249712
7.096,1.0,133.68744184112646
7.104,0.9999999999999999,133.26076904525144
7.112,1.0,132.83377811997752
7.12,1.0,132.40646565644994
7.128,0.9999999999999999,131.97882825451396
7.136,1.0,131.55086252290295
7.144,0.9999999999999999,131.12256507942885
7.152,1.0,130.69393255117356
7.16,1.0,130.2649615746827
7.168,1.0,129.83564879616148
7.176,1.0,129.40599087167152
7.184,1.0,128.97598446733068
7.192,1.0,128.54562625951397
7.2,1.0,128.11491293505694
7.208,1.0,127.68384119146059
7.216,1.0,127.25240773709857
7.224,1.0,126.82060929142628
7.232,1.0000000000000002,126.38844258519188
7.24,1.0,125.95590436064944
7.248,1.0,125.5229913717742
7.256,0.9999999999999999,125.08970038447951
7.264,1.0,124.65602817683647
7.272,1.0,124.2219715392949
7.28,1.0,123.78752727490709
7.288,1.0000000000000002,123.35269219955329
7.296,1.0000000000000002,122.91746314216935
7.304,0.9999999999999999,122.48183694497658
7.312,1.0,122.04581046371379
7.32,0.9999999668067321,121.60938056787133
7.328,0.9999997457454447,121.17254414092749
7.336,0.9999995216342266,120.73529808058699
7.344,0.999999294564246,120.29763929902153
7.352,0.9999990646275153,119.8595647231128
7.36,0.9999988319168561,119.42107129469758
7.368,0.9999985965258688,118.98215597081493
7.376,0.9999983585488942,118.54281572395574
7.384,0.9999981180809826,118.1030475423146
7.392,0.9999978752178599,117.66284843004348
7.4,0.9999976300558924,117.22221540750836
7.4079999999999995,0.9999973826920576,116.78114551154727
7.416,0.9999971332239068,116.33963579573111
7.4239999999999995,0.999996881749533,115.89768333062685
7.432,0.9999966283675414,115.45528520406212
7.4399999999999995,0.9999963731770116,115.01243852139346
7.448,0.9999961162774701,114.569140405775
7.4559999999999995,0.9999958577688528,114.12538799843144
7.464,0.9999955977514758,113.68117845893103
7.4719999999999995,0.9999953363260046,113.2365089654632
7.48,0.9999950735934178,112.79137671511609
7.4879999999999995,0.9999948096549777,112.34577892415822
7.496,0.9999945446121994,111.89971282832094
7.504,0.9999942785668167,111.45317568308437
7.5120000000000005,0.9999940116207522,111.00616476396418
7.52,0.9999937438760866,110.5586773668021
7.5280000000000005,0.9999934754350254,110.11071080805698
7.536,0.9999932063998687,109.66226242509967
7.5440000000000005,0.9999929368729801,109.21332957650856
7.552,0.9999926669567573,108.76390964236867
7.5600000000000005,0.9999923967535983,108.31400002457153
7.568,0.9999921263658741,107.86359814711844
7.5760000000000005,0.9999918558958962,107.41270145642474
7.584,0.9999915854458864,106.96130742162727
7.5920000000000005,0.9999913151179467,106.50941353489263
7.6,0.9999910450140308,106.05701731172894
7.6080000000000005,0.999990775235912,105.60411629129813
7.616,0.9999905058851536,105.1507080367318
7.6240000000000006,0.9999902370630825,104.69679013544744
7.632,0.9999899688707533,104.24236019946824
7.640000000000001,0.9999897014089265,103.78741586574331
7.648,0.9999894347780337,103.33195479647131
7.656000000000001,0.9999891690781502,102.87597467942435
7.664,0.9999889044089673,102.41947322827552
7.672,0.9999886408697615,101.9624481829264
7.68,0.9999883785593671,101.50489730983803
7.688,0.999988117576148,101.04681840236253
7.696,0.9999878580179687,100.58820928107689
7.704,0.9999875999821655,100.12906779411827
7.712,0.9999873435655199,99.66939181752123
7.72,0.9999870888642299,99.20917925555621
7.728,0.9999868359738828,98.74842804106983
7.736,0.9999865849894269,98.28713613582663
7.744,0.9999863360051456,97.82530153085233
7.752,0.9999860891146275,97.36292224677842
7.76,0.9999858444107427,96.89999633418833
7.768,0.9999856019856138,96.43652187396475
7.776,0.9999853619305903,95.97249697763837
7.784,0.9999851243362207,95.50791978773785
7.792,0.999984889292228,95.04278847814086
7.8,0.999984656887483,94.57710125442655
7.808,0.999984427209977,94.11085635422864
7.816,0.9999842003467988,93.64405204759004
7.824,0.9999839763841067,93.17668663731801
7.832,0.9999837554071047,92.70875845934054
7.84,0.9999835375000165,92.24026588306337
7.848,0.9999833227460613,91.7712073117278
7.856,0.9999831112274284,91.30158118276941
7.864,0.9999829030252545,90.83138596817717
7.872,0.9999826982195968,90.36062017485324
7.88,0.9999824968894111,89.88928234497331
7.888,0.9999822991125271,89.41737105634735
7.896,0.9999821049656259,88.94488492278069
7.904,0.9999819145242154,88.47182259443535
7.912,0.9999817278626075,87.9981827581917
7.92,0.9999815450538969,87.52396413801017
7.928,0.9999813661699367,87.04916549529293
7.936,0.9999811912813169,86.57378562924573
7.944,0.9999810204573427,86.09782337723948
7.952,0.9999808537660126,85.62127761517159
7.96,0.9999806912739967,85.1441472578272
7.968,0.9999805330466158,84.66643125923981
7.976,0.999980379147821,84.18812861305162
7.984,0.9999802296401725,83.70923835287321
7.992,0.9999800845848195,83.2297595526426
8.0,0.9999799440414804,82.74969132698351
8.008,0.9999798080684236,82.2690328315629
8.016,0.9999796767224473,81.78778326344721
8.024000000000001,0.9999795500588612,81.30594186145825
8.032,0.999979428131468,80.82350790652723
8.04,0.9999793109925449,80.34048072204763
8.048,0.9999791986928248,79.8568596742271
8.056000000000001,0.9999790912814802,79.3726441724378
8.064,0.9999789888061058,78.88783366956497
8.072,0.9999788913126997,78.40242766235359
8.08,0.9999787988456494,77.91642569175372
8.088000000000001,0.9999787114477146,77.429827343264
8.096,0.9999786291600108,76.9426322472727
8.104,0.9999785520219957,76.4548400793965
8.112,0.9999784800714524,75.96645056081766
8.120000000000001,0.9999784133444762,75.47746345861852
8.128,0.9999783518754595,74.98787858611328
8.136,0.9999782956970792,74.49769580317725
8.144,0.9999782448402823,74.0069150165734
8.152000000000001,0.9999781993342743,73.51553618027657
8.16,0.9999781592065055,73.02355929579372
8.168,0.9999781244826594,72.53098441248152
8.176,0.9999780951866424,72.03781162786076
8.184000000000001,0.999978071340571,71.5440410879277
8.192,0.9999780529647625,71.04967298746118
8.2,0.9999780400777241,70.55470757032633
8.208,0.9999780326961438,70.05914512977476
8.216000000000001,0.9999780308348815,69.56298600874103
8.224,0.9999780345069592,69.06623060013447
8.232,0.9999780437235545,68.5688793471269
8.24,0.9999780584939915,68.07093274343646
8.248000000000001,0.9999780788257348,67.57239133360707
8.256,0.9999781047243818,67.07325571328268
8.264,0.9999781361936578,66.57352652947701
8.272,0.9999781732354105,66.07320448083868
8.280000000000001,0.9999782158496028,65.57229031791147
8.288,0.9999782640343123,65.07078484338885
8.296,0.9999783177857231,64.56868891236337
8.304,0.9999783770981258,64.06600343257102
8.312,0.9999784419639126,63.56272936462999
8.32,0.9999785123735773,63.058867722272794
8.328,0.999978588315711,62.55441957257415
8.336,0.9999786697770036,62.04938603617092
8.344,0.9999787567422415,61.54376828747804
8.352,0.9999788491943088,61.03756755489592
8.36,0.9999789471141877,60.530785121013615
8.368,0.9999790504809599,60.02342232280335
8.376,0.9999791592718086,59.51548055181031
8.384,0.9999792734620214,59.00696125433365
8.392,0.999979393024993,58.4978659316023
8.4,0.9999795179322284,57.988196139941934
8.408,0.9999796481533502,57.47795349093641
8.416,0.9999797836560991,56.96713965157992
8.424,0.9999799244063445,56.455756344423385
8.432,0.9999800703680871,55.94380534771143
8.44,0.9999802215034682,55.43128849551321
8.448,0.9999803777727759,54.918207677843576
8.456,0.9999805391344548,54.40456484077779
8.464,0.9999807055451142,53.890361986556165
8.472,0.9999808769595365,53.3756011736823
8.48,0.9999810533306907,52.86028451701082
8.488,0.9999812346097393,52.34441418782825
8.496,0.9999814207460538,51.82799241392343
8.504,0.999981611687224,51.31102147965074
8.512,0.9999818073790722,50.79350372598234
8.52,0.999982007765667,50.275441550553275
8.528,0.9999822127893374,49.75683740769535
8.536,0.9999824223906871,49.237693808463305
8.544,0.9999826365086104,48.71801332064986
8.552,0.9999828550803099,48.19779856879266
8.56,0.9999830780413103,47.67705223416975
8.568,0.9999833053254791,47.15577705478703
8.576,0.9999835368650438,46.6339758253537
8.584,0.99998377259061,46.111651397249595
8.592,0.9999840124311818,45.58880667848031
8.6,0.9999842563141829,45.06544463362394
8.608,0.999984504165475,44.54156828376546
8.616,0.9999847559093821,44.01718070642249
8.624,0.9999850114687117,43.492285035458494
8.632,0.9999852707647768,42.96688446098717
8.64,0.9999855337174208,42.44098222926413
8.648,0.9999858002450408,41.914581642569544
8.656,0.9999860702646126,41.38768605907791
8.664,0.9999863436917165,40.860298892718646
8.672,0.9999866204405629,40.33242361302363
8.68,0.9999869004240196,39.80406374496544
8.688,0.999987183553638,39.27522286878232
8.696,0.9999874697396823,38.745904619793755
8.704,0.9999877588911572,38.216112688202735
8.712,0.9999880509158376,37.68585081888822
8.72,0.9999883457202973,37.15512281118456
8.728,0.9999886432099404,36.62393251865076
8.736,0.9999889432890322,36.09228384882657
8.744,0.9999892458607296,35.560180762978526
8.752,0.9999895508271135,35.027627275832515
8.76,0.999989858089222,34.494627455296424
8.768,0.9999901675470828,33.96118542216908
8.776,0.999990479099747,33.42730534983924
8.784,0.9999907926453232,32.89299146397094
8.792,0.9999911080810117,32.35824804217873
8.8,0.9999914253031408,31.8230794136893
8.808,0.999991744207201,31.287489958992904
8.815999999999999,0.9999920646878824,30.751484109481364
8.824,0.9999923866391098,30.215066347075165
8.832,0.9999927099540804,29.678241203838635
8.84,0.9999930345253022,29.141013261582795
8.847999999999999,0.9999933602446296,28.60338715145628
8.856,0.9999936870033039,28.065367553524997
8.864,0.9999940146919905,27.526959196339842
8.872,0.9999943432008186,26.988166856492292
8.879999999999999,0.9999946724194198,26.44899535815818
8.888,0.9999950022369685,25.90944957263021
8.896,0.9999953325422223,25.369534417838896
8.904,0.9999956632235615,24.829254857861372
8.911999999999999,0.9999959941690297,24.28861590241863
8.92,0.9999963252663756,23.747622606361773
8.928,0.9999966564030947,23.20628006914684
8.936,0.9999969874664678,22.6645934342978
8.943999999999999,0.9999973183436067,22.122567888858264
8.952,0.9999976489214936,21.5802086628325
8.96,0.9999979790870233,21.0375210286153
8.968,0.9999983087270465,20.494510300410404
8.975999999999999,0.9999986377284124,19.951181833638007
8.984,0.9999989659780095,19.407541024331888
8.992,0.9999992933628108,18.8635933085259
9.0,0.9999996197699146,18.31934416162931
9.008,0.9999999450865887,17.774799097791774
9.016,1.0,17.229963669258364
9.024000000000001,1.0,16.68484346571442
9.032,1.0,16.13944411361978
9.04,0.9999999999999999,15.593771275533163
9.048,1.0,15.047830649427166
9.056000000000001,1.0,14.501627967993619
9.064,1.0,13.955168997939
9.072,1.0,13.408459539270446
9.08,1.0,12.861505424573128
9.088000000000001,0.9999999999999999,12.314312518278658
9.096,1.0,11.766886715924048
9.104,1.0,11.219233943402166
9.112,1.0,10.671360156204104
9.120000000000001,0.9999999999999999,10.123271338653325
9.128,1.0,9.574973503131186
9.136,1.0,9.026472689294604
9.144,1.0,8.477774963286473
9.152000000000001,0.9999999999999999,7.928886416938591
9.16,1.0,7.3798131669668745
9.168,1.0,6.830561354159399
9.176,1.0,6.281137142558182
9.184000000000001,1.0,5.7315467186341875
9.192,1.0,5.181796290455588
9.2,1.0,4.631892086849681
9.208,0.9999999999999999,4.081840356559463
9.216000000000001,1.0,3.5316473673943736
9.224,0.9999999999999999,2.9813194053751184
9.232,0.9999999999999999,2.4308627738732413
9.24,1.0,1.880283792746128
9.248000000000001,1.0,1.3295887974673002
9.256,1.0,0.7787841382516558
9.264,1.0,0.22787617917649247
9.272,1.0,-0.3231287027010908
9.280000000000001,1.0,-0.874224118230388
9.288,1.0,-1.425403667057498
9.296,1.0,-1.9766609385187395
9.304,1.0,-2.527989512536792
9.312000000000001,1.0,-3.079382960519336
9.32,0.9999999999999999,-3.6308348462608966
9.328,1.0,-4.182338726846627
9.336,1.0000000000000002,-4.733888153557702
9.344,1.0,-5.285476672778174
9.352,1.0,-5.837097826904529
9.36,1.0,-6.388745155254389
9.368,1.0,-6.940412194978148
9.376,1.0000000000000002,-7.492092481969225
9.384,0.9999999999999999,-8.043779551776508
9.392,1.0,-8.595466940514985
9.4,0.9999999999999998,-9.147148185778036
9.408,0.9999999999999999,-9.698816827547308
9.416,0.9999999999999999,-10.250466409103712
9.424,1.0,-10.80209047793556
9.432,1.0,-11.35368258664721
9.44,1.0,-11.905236293864283
9.448,1.0000000000000002,-12.456745165138901
9.456,1.0,-13.008202773850988
9.464,0.9999999999999999,-13.559602702108998
9.472,0.9999999999999999,-14.110938541646165
9.48,1.0,-14.662203894715779
9.488,1.0,-15.213392374981334
9.496,0.9999999999999999,-15.764497608405255
9.504,0.9999999999999999,-16.31551323413184
9.512,0.9999999999999999,-16.866432905368463
9.52,1.0,-17.417250290260498
9.528,1.0,-17.967959072763726
9.536,0.9999999999999999,-18.5185529535102
9.544,1.0,-19.069025650671104
9.552,0.9999999999999999,-19.61937090081244
9.56,1.0,-20.169582459747364
9.568,1.0,-20.71965410338082
9.576,1.0,-21.269579628550265
9.584,0.9999999999999999,-21.819352853858426
9.592,1.0,-22.36896762050149
9.6,0.9999999999999999,-22.918417793088995
9.608,0.9999999999999999,-23.46769726045873
9.616,1.0,-24.016799936482744
9.624,0.9999999999999999,-24.56571976086811
9.632,1.0,-25.114450699948318
9.64,1.0,-25.66298674746895
9.648,0.9999999999999999,-26.211321925363656
9.656,0.9999999999999999,-26.759450284523997
9.664,1.0,-27.30736590555917
9.672,0.9999999999999999,-27.855062899549253
9.68,1.0,-28.402535408787948
9.688,0.9999999999999999,-28.949777607518495
9.696,1.0,-29.49678370265871
9.704,1.0,-30.043547934518873
9.712,0.9999999999999999,-30.590064577508375
9.72,1.0,-31.13632794083492
9.728,1.0,-31.682332369192164
9.736,0.9999999999999999,-32.22807224343966
9.744,0.9999999999999999,-32.77354198127077
9.752,0.9999999999999999,-33.3187360378727
9.76,1.0,-33.86364890657449
9.768,1.0,-34.408275119486376
9.776,1.0,-34.952609248127025
9.784,1.0,-35.496645904042225
9.792,1.0,-36.040379739410795
9.8,1.0,-36.58380544764185
9.808,0.9999999999999999,-37.12691776395917
9.816,1.0000000000000002,-37.669711465976654
9.824,1.0,-38.21218137426067
9.832,1.0,-38.75432235288326
9.84,1.0,-39.29612930996225
9.847999999999999,1.0,-39.83759719819179
9.856,1.0,-40.37872101536028
9.864,0.9999999999999999,-40.919495804857156
9.872,0.9999999999999999,-41.45991665616846
9.879999999999999,1.0,-41.999978705360924
9.888,1.0,-42.53967713555405
9.896,0.9999999999999999,-43.0790071773804
