freq,mag,phase
6.0,1.000695454484463,66.4683190558504
6.002287616,1.0005568552507327,66.30661014790084
6.004575232,1.0003835293929966,66.14716367417503
6.006862848,1.0001853111572814,65.9904092100109
6.009150464,0.9999747694014026,65.83661609451119
6.011438592,0.9997653985669086,65.685880969896
6.013726208,0.9995701642187516,65.53806075718984
6.016013824,0.9994016227838977,65.3929030231795
6.01830144,0.9992704826179695,65.24990876819218
6.020589056,0.9991849333583074,65.10850936258964
6.022876672,0.999150570686027,64.9679624261583
6.025164288,0.9991695258929765,64.82754102812316
6.027451904,0.9992405531777088,64.68645653841006
6.029740032,0.999359351504316,64.54397855820245
6.032027648,0.9995181809247042,64.3994776833068
6.034315264,0.9997071341769288,64.25246633586416
6.03660288,0.999914190272999,64.10254041617786
6.038890496,1.000126203172358,63.94957847120125
6.041178112,1.0003298731749881,63.79358100218719
6.043465728,1.000512231242435,63.634787243156254
6.045753344,1.0006617243072096,63.4735816900916
6.04804096,1.000768855213948,63.31050872972348
6.050329088,1.0008269843143105,63.146208826166976
6.052616704,1.0008322703461054,62.981454579354114
6.05490432,1.0007844495293023,62.817002797380184
6.057191936,1.000686531275556,62.65360223205933
6.059479552,1.0005447135070813,62.49193248126885
6.061767168,1.0003677382699931,62.332561830503785
6.064054784,1.000166970776017,62.17592953529651
6.0663424,0.9999551320306675,62.02227709355339
6.068630016,0.999745450822143,61.87168715940283
6.070918144,0.9995513811470481,61.72400946836044
6.07320576,0.9993851436704679,61.57896308692102
6.075493376,0.9992573196709211,61.43605928258261
6.077780992,0.9991758984217369,61.29465451863946
6.080068608,0.99914633283853,61.15406644598363
6.082356224,0.9991702071565723,61.01350634388023
6.08464384,0.9992461794540971,60.87221373504173
6.086931456,0.9993695688599099,60.72944743760695
6.089219584,0.9995323677418375,60.58462118501933
6.0915072,0.9997243950103692,60.43718850386857
6.093794816,0.9999333521164945,60.28685536173657
6.096082432,1.000146164360183,60.13341135973584
6.098370048,1.000349202307647,59.97695739617595
6.100657664,1.0005297907437944,59.817728209496565
6.10294528,1.0006764396420813,59.65609367096195
6.105232896,1.0007798097438105,59.49263680790463
6.107520512,1.0008334006270387,59.32802998495956
6.10980864,1.0008338613376708,59.16302509645733
6.112096256,1.0007809689244778,58.99837694736021
6.114383872,1.0006783318299897,58.83485871736397
6.116671488,1.000532063153598,58.673127491687126
6.118959104,1.0003517899530856,58.5137527993303
6.12124672,1.0001485282582967,58.357139523157
6.123534336,0.9999353734549873,58.20355974141444
6.125821952,0.9997256693181451,58.05303489930681
6.128109568,0.999532793931431,57.90541827372059
6.130397696,0.999368845233172,57.76040209962513
6.132685312,0.9992444361605731,57.617454884876466
6.134972928,0.9991672618624119,57.475984880010024
6.137260544,0.9991423445024138,57.335241080877225
6.13954816,0.9991713961649623,57.19446573221557
6.141835776,0.9992522871855793,57.052876614348506
6.144123392,0.9993801776171491,56.90975973912037
6.146411008,0.9995468465235875,56.76448784118441
6.148699136,0.9997418053281966,56.616568780844446
6.150986752,0.9999526697696102,56.46568337459998
6.153274368,1.0001659827550942,56.31170813582542
6.155561984,1.0003685256199735,56.154708373372436
6.1578496,1.0005472735055767,55.99492545904887
6.160137216,1.0006908526367255,55.83278949249231
6.162424832,1.0007904059539579,55.66888586808875
6.164712448,1.0008394759859234,55.503854998438605
6.167000064,1.0008349762890114,55.33851661396273
6.169288192,1.0007770909910485,55.17359646441453
6.171575808,1.0006696351325333,55.00988044221199
6.173863424,1.000519324145595,54.848009570041526
6.17615104,1.0003355538296088,54.68853896652795
6.178438656,1.0001299396774614,54.531890823814464
6.180726272,0.9999155166840497,54.37828795177129
6.183013888,0.9997058632104032,54.22772874551536
6.185301504,0.9995142768778871,54.080085544368636
6.18758912,0.9993528710746622,53.93499734703361
6.189877248,0.9992319022679521,53.791948245040814
6.192164864,0.9991589988101731,53.65031687922637
6.19445248,0.9991388523707694,53.50931388197881
6.196740096,0.9991728636539235,53.368210502071484
6.199027712,0.9992587561172763,53.226222499863475
6.201315328,0.9993910640981237,53.08264803359242
6.203602944,0.9995616311330924,52.93684927674952
6.20589056,0.9997593989276705,52.788344717798736
6.208178688,0.9999720253379764,52.636857428107895
6.210466304,1.0001859622626816,52.48223717415234
6.21275392,1.0003877270507324,52.32460270416587
6.215041536,1.0005644417483188,52.164190798337906
6.217329152,1.0007050888794993,52.00146152192995
6.219616768,1.0008006432383987,51.837008167204424
6.221904384,1.0008451377568965,51.67151746848464
6.224192,1.0008357464900115,51.50574249334498
6.226479616,1.0007729519175428,51.34049232194615
6.228767744,1.000660753575736,51.17646155103692
6.23105536,1.000506228980318,51.01436986206797
6.233342976,1.0003190776684316,50.85475878744788
6.235630592,1.0001111747231826,50.69795289714687
6.237918208,0.9998957129714652,50.54422153252135
6.240205824,0.9996861457459477,50.39356446920956
6.24249344,0.9994959777553567,50.24580508359654
6.244781056,0.9993370815076398,50.10054285423794
6.247068672,0.9992195750409365,49.957290836285964
6.2493568,0.9991510633663139,49.81537853781267
6.251644416,0.9991357553166024,49.674075718570975
6.253932032,0.9991747895945979,49.53254274164048
6.256219648,0.9992654687623311,49.39009160121919
6.258507264,0.9994023635083845,49.24595087094769
6.26079488,0.9995764971046915,49.09950726817971
6.263082496,0.9997771889737187,48.95035127456047
6.265370112,0.9999913957494391,48.7981447683066
6.26765824,1.0002058125217423,48.64281193213688
6.269945856,1.000406719706189,48.4844516118031
6.272233472,1.0005814643781625,48.32334098844574
6.274521088,1.0007190380099318,48.15992671627855
6.276808704,1.0008106726998711,47.994836136498144
6.27909632,1.0008504617543774,47.82877574052875
6.281383936,1.000836118332324,47.66250997933673
6.283671552,1.0007683801693317,47.49682507561876
6.285959168,1.0006515217730085,47.332429363421994
6.288247296,1.0004928748556752,47.17002770393403
6.290534912,1.0003025116935724,47.01014372015439
6.292822528,1.0000923701661502,46.85312844840287
6.295110144,0.9998758473779313,46.69918399634852
6.29739776,0.9996665946367335,46.54832020580937
6.299685376,0.9994778442852598,46.400348002585005
6.301972992,0.9993216008560116,46.25485058069101
6.304260608,0.9992077178108669,46.11129916949865
6.306548224,0.9991435766944441,45.96903232451779
6.308836352,0.9991331081681174,45.82727922809177
6.311123968,0.9991770495114716,45.685275780390455
6.313411584,0.9992726397053613,45.54221210050661
6.3156992,0.9994139073885808,45.39742359636449
6.317986816,0.9995917607819231,45.250289698613905
6.320274432,0.9997950817335889,45.10037156652793
6.322562048,1.0000108995056856,44.947359544625726
6.324849664,1.0002256186273752,44.791216409050755
6.327137792,1.0004256466042778,44.6320219267509
6.329425408,1.0005983122548252,44.47010555850633
6.331713024,1.0007327061551066,44.305953165016724
6.33400064,1.00082028522072,44.140148435850115
6.336288256,1.0008555412153437,43.97343592179638
6.338575872,1.0008361776236727,43.80657927618497
6.340863488,1.0007635182862127,43.640379419072296
6.343151104,1.0006420189779432,43.475530044575834
6.34543872,1.0004793548417834,43.31275346242842
6.347726848,1.0002857461677188,43.152497924952506
6.350014464,1.0000735833875032,42.99518743851542
6.35230208,0.9998560959112203,42.84095451744038
6.354589696,0.9996471874374865,42.68979680265436
6.356877312,0.9994600328034524,42.541522702654575
6.359164928,0.9993062960056547,42.39567314862536
6.361452544,0.9991961022884768,42.251723045141965
6.36374016,0.9991363016568643,42.10900480215187
6.366027776,0.9991307278164252,41.96673096618499
6.368315904,0.9991795822773298,41.82413071286439
6.37060352,0.9992799796858985,41.68040587073964
6.372891136,0.9994255554880922,41.53486807593962
6.375178752,0.9996070891022466,41.3869266223902
6.377466368,0.9998129744377955,41.23613897783846
6.379753984,1.000030315113491,41.08225665489965
6.3820416,1.0002453078690308,40.92522057056954
6.384329216,1.0004442377992917,40.76513990507463
6.386617344,1.0006147678826418,40.6023385848487
6.38890496,1.0007459481579075,40.43733924978741
6.391192576,1.0008294797247272,40.270742069160356
6.393480192,1.00086017784018,40.103297206375046
6.395767808,1.0008359398400826,39.935764833497025
6.398055424,1.0007583281869445,39.76894789197592
6.40034304,1.0006322309798,39.60358720673599
6.402630656,1.000465604833861,39.44030245426838
6.404918272,1.0002690057694634,39.279640453911156
6.4072064,1.0000547605855716,39.12191441320354
6.409494016,0.9998364776179086,38.967296295780216
6.411781632,0.9996279180713696,38.81578335238387
6.414069248,0.9994423677052462,38.667083980219445
6.416356864,0.9992914467475736,38.52080069310408
6.41864448,0.9991849405955558,38.37637620782349
6.420932096,0.9991294605914992,38.23311913914377
6.423219712,0.9991287182193647,38.09022545129596
6.425507328,0.9991825581617786,37.94692065242639
6.427795456,0.9992876739924039,37.80243825661116
6.430083072,0.9994376165438634,37.65605200807998
6.432370688,0.9996226181080528,37.507240616290865
6.434658304,0.9998310146657382,37.355513616179834
6.43694592,1.0000496840940751,37.20065203577809
6.439233536,1.0002648500954843,37.042613602481836
6.441521152,1.0004628745570594,36.88153841326287
6.443808768,1.0006310568042802,36.71776767756227
6.446096896,1.0007590471492085,36.55183695840985
6.448384512,1.0008384750920496,36.384372635496156
6.450672128,1.000864478842588,36.21611718629353
6.452959744,1.0008353998710091,36.04782983453506
6.45524736,1.0007529599637726,35.880315816875736
6.457534976,1.000622334621316,35.71432535263245
6.459822592,1.0004519478475942,35.55048626220905
6.462110208,1.0002522949295842,35.38929745527216
6.464397824,1.0000360733816733,35.23108486643558
6.466685952,0.9998169795092381,35.07601971582842
6.468973568,0.9996089892426386,34.92399080203311
6.471261184,0.9994250389126821,34.774813104793154
6.4735488,0.9992770308857599,34.62801516801331
6.475836416,0.9991741538580082,34.48301845871248
6.478124032,0.9991230778186228,34.339095367922624
6.480411648,0.9991270116564125,34.19549220677518
6.482699264,0.9991858050823007,34.05141087718666
6.48498688,0.9992956157608592,33.90606946921021
6.487275008,0.9994496201752797,33.758767148047326
6.489562624,0.9996380964452615,33.60895222992542
6.49185024,0.9998488427488963,33.45619061717361
6.494137856,1.000068977875667,33.30025426650628
6.496425472,1.00028419595067,33.141146197912754
6.498713088,1.0004809756080466,32.979022636529656
6.501000704,1.0006470135766434,32.81421620534296
6.50328832,1.000771566856487,32.647258658259574
6.505576448,1.0008470387400905,32.47882620018269
6.507864064,1.0008684801008938,32.30964976879249
6.51015168,1.0008344760054417,32.140529424433026
6.512439296,1.0007472662995154,31.972260405704425
6.514726912,1.0006122663262595,31.8055533893201
6.517014528,1.0004380252648963,31.641063869858847
6.519302144,1.0002354652425556,31.479250090934762
6.52158976,1.0000173525043476,31.3204710334251
6.523877376,0.9997977231370476,31.164824825950898
6.526165504,0.9995901814329937,31.01226577274595
6.52845312,0.9994080712292022,30.862483328543554
6.530740736,0.999262734636209,30.715062038134153
6.533028352,0.9991636271811495,30.56938131188497
6.535315968,0.999116920822591,30.42472980574297
6.537603584,0.9991256291120708,30.2803273066955
6.5398912,0.9991892553911262,30.135354713828328
6.542178816,0.9993036840938043,29.989056408635395
6.544466432,0.9994617829575773,29.840751195689958
6.54675456,0.999653544641842,29.689852662659
6.549042176,0.9998667345328711,29.53598271136459
6.551329792,1.0000879312447468,29.378912829088836
6.553617408,1.000303168344244,29.218638766480236
6.555905024,1.0004988263760344,29.055343428658926
6.55819264,1.0006625021587052,28.889392891165013
6.560480256,1.000783786649038,28.721338238399678
6.562767872,1.0008552224181535,28.55186618261976
6.565056,1.0008720094393262,28.381702906641756
6.567343616,1.0008332380587914,28.21165584507401
6.569631232,1.0007413311204922,28.042523612334445
6.571918848,1.0006019254441576,27.875027714801558
6.574206464,1.0004239394715493,27.709791103236697
6.57649408,1.0002186285474899,27.54729309065816
6.578781696,0.9999988281848444,27.387827447005886
6.581069312,0.9997785569657313,27.231535610800197
6.583356928,0.9995716115237857,27.078290156586213
6.585645056,0.9993912753435692,26.927857581025
6.587932672,0.9992488504097997,26.779705187110974
6.590220288,0.9991534619484774,26.633282004505343
6.592507904,0.9991111052985727,26.48780002881386
6.59479552,0.9991245062580856,26.342479684370808
6.597083136,0.9991928928650066,26.196537006956433
6.599370752,0.9993119150151724,26.049195182110243
6.601658368,0.9994739760623012,25.89976038888777
6.603945984,0.9996689575819296,25.747699545647908
6.606234112,0.9998844444182897,25.592621654065223
6.608521728,1.0001068167472875,25.434307445208336
6.610809344,1.0003219862669945,25.272769925829824
6.61309696,1.000516367075899,25.108250198053653
6.615384576,1.0006776621690947,24.94107050325219
6.617672192,1.0007957130723548,24.771865544642896
6.619959808,1.00086302766405,24.601250870921433
6.622247424,1.0008752559094922,24.430017234348924
6.624535552,1.0008317795737212,24.25896557205863
6.626823168,1.0007352353804613,24.088883555407396
6.629110784,1.0005916111165285,23.920501715666703
6.6313984,1.0004100922406516,23.754431932835857
6.633686016,1.000201975987543,23.59112555937778
6.635973632,0.9999805158274474,23.43091714269441
6.638261248,0.9997596715797026,23.27388061505025
6.640548864,0.99955348436783,23.11990180325694
6.64283648,0.9993748779455774,22.968667264572044
6.645124608,0.9992353449421943,22.819719769354954
6.647412224,0.9991436444674716,22.672398107330633
6.64969984,0.9991056044831945,22.525997988703587
6.651987456,0.9991237045472319,22.37968401106489
6.654275072,0.9991967885031419,22.232696203840653
6.656562688,0.9993201910959064,22.084204247820733
6.658850304,0.9994863209885987,21.933577682438905
6.66113792,0.9996844203482701,21.780263167866753
6.663426048,0.999901996079665,21.62387034540578
6.665713664,1.000125463553016,21.46424097621741
6.66800128,1.0003404891763177,21.301383568224846
6.670288896,1.000533608748641,21.135528686417864
6.672576512,1.000692540678048,20.96706058254639
6.674864128,1.0008072585358547,20.796561070952777
6.677151744,1.0008705783588572,20.624715400779692
6.67943936,1.0008783430045707,20.452328463804385
6.681726976,1.0008301183101438,20.28018501709949
6.684015104,1.0007289688349355,20.10906726375731
6.68630272,1.000581165214808,19.939711802989027
6.688590336,1.0003960867416382,19.77274427161638
6.690877952,1.0001853721471765,19.60856048157773
6.693165568,0.9999622847630278,19.447481529043007
6.695453184,0.9997410811869234,19.289595959607343
6.6977408,0.9995355527643821,19.134759345875917
6.700028416,0.9993588315731456,18.98267769431453
6.702316032,0.9992220942429664,18.832820523223063
6.70460416,0.9991341137209926,18.6845369971945
6.706891776,0.9991003717133473,18.537123935904003
6.709179392,0.9991230791652576,18.389727929825224
6.711467008,0.9992007723478881,18.241562088278236
6.713754624,0.9993286434291779,18.09185408924137
6.71604224,0.9994984810184283,17.939922288725498
6.718329856,0.9996996352582976,17.78525919507044
6.720617472,0.9999193361042467,17.627503162358934
6.7229056,1.000143794917573,17.466460599528606
6.725193216,1.0003586209056843,17.30217685931257
6.727480832,1.0005504347173722,17.134898314265836
6.729768448,1.0007069953122782,16.965048033714503
6.732056064,1.0008184851920718,16.793196171766624
6.73434368,1.0008777296879303,16.620064576852926
6.736631296,1.000881111150497,16.446425889050555
6.738918912,1.0008282581534076,16.27311018028685
6.741206528,1.0007226690439388,16.100852093487934
6.743494656,1.0005708126603508,15.930444623326643
6.745782272,1.000382265222968,15.76243282742146
6.748069888,1.0001690566955677,15.597285688033535
6.750357504,0.9999445334649016,15.435285255561928
6.75264512,0.999722906760432,15.276460732302498
6.754932736,0.999518136022475,15.120691706483862
6.757220352,0.9993432230308855,14.967614392991429
6.759507968,0.999209352834498,14.816756194984961
6.761795584,0.9991250023825625,14.667441804760115
6.764083712,0.9990954792310291,14.518897499366545
6.766371328,0.9991227831109355,14.370323682051986
6.768658944,0.9992050444346547,14.220903674245813
6.77094656,0.9993371119845308,14.069864191723045
6.773234176,0.9995106908170489,13.91656349130221
6.775521792,0.9997148271662387,13.760465092302475
6.777809408,0.9999364959268684,13.601236006450923
6.780097024,1.0001618515798862,13.438688197683978
6.782385152,1.0003764920973448,13.272894297197656
6.784672768,1.000566971457584,13.104138173191291
6.786960384,1.000721210257711,12.932803064133497
6.789248,1.0008293399084631,12.759531661536494
6.791535616,1.0008847178757105,12.584990212046474
6.793823232,1.0008836720657264,12.410030120262125
6.796110848,1.0008263639614474,12.23543344896088
6.798398464,1.000716300938261,12.061993627882037
6.80068608,1.0005604793023595,11.890408973951896
6.802974208,1.0003685989074202,11.721296513144543
6.805261824,1.0001529104947062,11.555110171730018
6.80754944,0.9999269129245799,11.39205282974408
6.809837056,0.9997049379404455,11.232183251958865
6.812124672,0.9995009957719571,11.0753694921402
6.814412288,0.999327992128556,10.921258035143445
6.816699904,0.9991969593247767,10.76928135922562
6.81898752,0.999116199772166,10.61882504225262
6.821275136,0.9990907823504139,10.46906691535829
6.823563264,0.9991224903323124,10.319211275408419
6.82585088,0.9992091474712302,10.168447653456884
6.828138496,0.999345397307366,10.016022796368437
6.830426112,0.9995225729133944,9.861258769913352
6.832713728,0.9997296084074337,9.703637557320258
6.835001344,0.9999532775838659,9.542830042514412
6.83728896,1.0001794557975234,9.378727257962096
6.839576576,1.0003938326677646,9.211347097906177
6.841864704,1.0005829290165043,9.040994186117475
6.84415232,1.000734788620804,8.868099337215206
6.846439936,1.0008398251190562,8.693303428246178
6.848727552,1.0008912288761775,8.517315634453222
6.851015168,1.0008859641800338,8.340914453506784
6.853302784,1.0008243034300208,8.164966315435843
6.8555904,1.0007099129382495,7.9902282905814745
6.857878016,1.0005503313273922,7.817412578392883
6.860165632,1.0003551090821963,7.6471081354944985
6.86245376,1.000137123526538,7.479736635798686
6.864741376,0.9999097664396829,7.315538992136678
6.867028992,0.9996874602319591,7.154568895549833
6.869316608,0.9994843526211012,6.996621644075009
6.871604224,0.9993132849503922,6.841341440275816
6.87389184,0.9991849744897835,6.688184782078833
6.876179456,0.999107795495297,6.536468451251647
6.878467072,0.9990864435459961,6.385405755174412
6.880754688,0.999122418862371,6.234188795238991
6.883042816,0.9992134382086123,6.081990055823706
6.885330432,0.9993537481543597,5.928063314568378
6.887618048,0.9995344899087727,5.771719251709346
6.889905664,0.9997442589409096,5.612515095409558
6.89219328,0.999969687317972,5.4500600329081985
6.894480896,1.0001967034695962,5.284280396528275
6.896768512,1.0004108156012206,5.115228751470028
6.899056128,1.0005986086500909,4.943224791827819
6.901344256,1.000748137477048,4.768683024832183
6.903631872,1.0008499326191174,4.592297714668145
6.905919488,1.000897583190793,4.414738731931236
6.908207104,1.0008882355997335,4.236853460226149
6.91049472,1.0008221312803314,4.05943475469259
6.912782336,1.0007036897265547,3.8833192550069127
6.915069952,1.000540239570716,3.709176064956188
6.917357568,1.0003420209131282,3.537577216879262
6.919645184,1.0001216946795382,3.3689579003720587
6.921933312,0.9998929870226467,3.2035335548051873
6.924220928,0.9996704917110717,3.0413445866377344
6.926508544,0.9994681408794983,2.882161988610637
6.92879616,0.9992989103828053,2.7256271620261767
6.931083776,0.9991733636045599,2.5711822857404525
