freq,mag,phase
6.0,0.999993205206507,31.259075058145047
6.008,0.9999921896225715,31.003176836779534
6.016,0.9999911970990277,30.74715119158476
6.024,0.9999902274377328,30.49099892153542
6.032,0.999989280440838,30.23472082917618
6.04,0.9999883559107944,29.978317720604792
6.048,0.9999874536503621,29.72179040545504
6.056,0.9999865734626157,29.465139696879373
6.064,0.9999857151509517,29.20836641153132
6.072,0.9999848785190972,28.95147136954765
6.08,0.9999840633711159,28.694455394530248
6.088,0.9999832695114155,28.437319313527823
6.096,0.9999824967447548,28.18006395701726
6.104,0.9999817448762509,27.92269015888484
6.112,0.9999810137113861,27.66519875640708
6.12,0.9999803030560157,27.407590590231482
6.128,0.9999796127163739,27.1498665043569
6.136,0.9999789424990817,26.892027346113746
6.144,0.999978292211153,26.6340739661439
6.152,0.9999776616600023,26.376007218380426
6.16,0.9999770506534515,26.11782796002702
6.168,0.999976458999736,25.859537051537185
6.176,0.9999758865075113,25.601135356593243
6.184,0.9999753329858616,25.342623742085006
6.192,0.9999747982443041,25.08400307808832
6.2,0.9999742820927969,24.8252742378433
6.208,0.9999737843417458,24.56643809773232
6.216,0.9999733048020091,24.307495537257825
6.224,0.9999728432849062,24.048447439019842
6.232,0.9999723996022225,23.789294688693296
6.24,0.9999719735662161,23.53003817500516
6.248,0.9999715649896241,23.270678789711173
6.256,0.9999711736856683,23.01121742757259
6.264,0.9999707994680623,22.751654986332472
6.272,0.9999704421510155,22.491992366691903
6.28,0.9999701015492419,22.232230472285938
6.288,0.9999697774779629,21.972370209659267
6.296,0.9999694697529148,21.712412488241725
6.304,0.9999691781903544,21.4523582203236
6.312,0.9999689026070636,21.192208321030638
6.32,0.999968642820355,20.931963708298877
6.328,0.9999683986480788,20.671625302849296
6.336,0.9999681699086255,20.411194028162164
6.344,0.9999679564209324,20.15067081045126
6.352,0.9999677580044887,19.890056578637857
6.36,0.99996757447934,19.62935226432442
6.368,0.9999674056660928,19.36855880176827
6.376,0.9999672513859194,19.107677127854796
6.384,0.9999671114605623,18.846708182070735
6.392,0.9999669857123382,18.585652906476994
6.4,0.999966873964143,18.32451224568147
6.408,0.9999667760394552,18.06328714681154
6.416,0.9999666917623382,17.801978559486432
6.424,0.9999666209574471,17.540587435789348
6.432,0.9999665634500302,17.27911473023945
6.44,0.9999665190659325,17.017561399763537
6.448,0.999966487631599,16.75592840366774
6.456,0.9999664689740781,16.494216703608796
6.464,0.9999664629210232,16.23242726356528
6.472,0.9999664693006964,15.970561049808673
6.48,0.9999664879419702,15.708619030874114
6.4879999999999995,0.99996651867433,15.446602177531105
6.496,0.9999665613278748,15.184511462753871
6.504,0.999966615733321,14.922347861691964
6.5120000000000005,0.9999666817220013,14.660112351639965
6.52,0.9999667591258679,14.39780591200789
6.5280000000000005,0.9999668477774911,14.135429524290545
6.536,0.9999669475100627,13.872984172037594
6.5440000000000005,0.9999670581573927,13.610470840822583
6.552,0.9999671795539133,13.347890518212687
6.5600000000000005,0.9999673115346754,13.085244193737411
6.568,0.9999674539353487,12.82253285885804
6.5760000000000005,0.9999676065922214,12.559757506936
6.584,0.999967769342198,12.296919133202053
6.592,0.999967942022798,12.03401873472433
6.6,0.9999681244721539,11.77105731037713
6.608,0.9999683165290074,11.508035860808969
6.616,0.9999685180327084,11.24495538841073
6.624,0.9999687288232103,10.981816897283663
6.632,0.9999689487410659,10.718621393207213
6.64,0.9999691776274245,10.455369883606714
6.648,0.9999694153240254,10.192063377521002
6.656,0.9999696616731937,9.928702885569832
6.664,0.999969916517834,9.665289419921232
6.672,0.9999701797014245,9.401823994258692
6.68,0.9999704510680094,9.138307623748275
6.688,0.9999707304621913,8.87474132500558
6.696,0.9999710177291239,8.611126116062595
6.704,0.999971312714502,8.347463016334462
6.712,0.9999716152645527,8.083753046586109
6.72,0.9999719252260251,7.819997228898801
6.728,0.9999722424461789,7.556196586636552
6.736,0.9999725667727728,7.292352144412504
6.744,0.9999728980540528,7.028464928055124
6.752,0.9999732361387372,6.76453596457438
6.76,0.9999735808760041,6.500566282127787
6.768,0.9999739321154746,6.236556909986378
6.776,0.9999742897071976,5.972508878500586
6.784,0.9999746535016327,5.708423219066041
6.792,0.9999750233496318,5.444300964089295
6.8,0.9999753991024198,5.180143146953453
6.808,0.9999757806115738,4.915950801983751
6.816,0.999976167729003,4.6517249644130425
6.824,0.9999765603069243,4.38746667034722
6.832,0.9999769581978386,4.123176956730572
6.84,0.9999773612545062,3.858856861311072
6.848,0.999977769329919,3.5945074226055933
6.856,0.9999781822772724,3.330129679865093
6.864,0.9999785999499359,3.0657246730396914
6.872,0.9999790222014207,2.8012934427437313
6.88,0.9999794488853471,2.5368370302207643
6.888,0.9999798798554101,2.272356477308481
6.896,0.9999803149653427,2.0078528264036004
6.904,0.9999807540688744,1.7433271204266911
6.912,0.9999811970196956,1.4787804027869498
6.92,0.9999816436714097,1.21421371734694
6.928,0.999982093877492,0.9496281083872605
6.936,0.9999825474912399,0.6850246205711751
6.944,0.9999830043657248,0.4204042989092078
6.952,0.9999834643537386,0.1557681887236589
6.96,0.9999839273077408,-0.10888266438689673
6.968,0.9999843930797988,-0.3735472145832017
6.976,0.9999848615215293,-0.6382244158208897
6.984,0.9999853324840337,-0.9029132218862106
6.992,0.999985805817833,-1.167612586431699
7.0,0.9999862813727959,-1.432321463012021
7.008,0.9999867589980678,-1.6970388051197562
7.016,0.9999872385419932,-1.9617635662213577
7.024,0.9999877198520356,-2.2264946997930806
7.032,0.9999882027746925,-2.491231159357059
7.04,0.9999886871554079,-2.755971898517432
7.048,0.9999891728384798,-3.0207158709965443
7.056,0.9999896596669623,-3.285462030671257
7.064,0.9999901474825658,-3.550209331609342
7.072,0.9999906361255487,-3.814956728106005
7.08,0.9999911254346088,-4.079703174720512
7.088,0.9999916152467639,-4.344447626312935
7.096,0.9999921053972326,-4.609189038081072
7.104,0.9999925957193061,-4.873926365597501
7.112,0.9999930860442146,-5.138658564846808
7.12,0.9999935762009889,-5.403384592262987
7.128,0.9999940660163151,-5.668103404767108
7.136,0.9999945553143824,-5.932813959805102
7.144,0.9999950439167248,-6.197515215385903
7.152,0.9999955316420556,-6.462206130119794
7.16,0.9999960183060951,-6.726885663257083
7.168,0.9999965037213909,-6.991552774727082
7.176,0.9999969876971299,-7.256206425177451
7.184,0.9999974700389433,-7.520845576013937
7.192,0.9999979505487046,-7.785469189440552
7.2,0.9999984290243151,-8.050076228500176
7.208,0.999998905259488,-8.314665657115713
7.216,0.9999993790435175,-8.579236440131751
7.224,0.9999998501610432,-8.843787543356912
7.232,0.9999999999999999,-9.108317933606747
7.24,1.0,-9.37282657874742
7.248,0.9999999999999999,-9.637312447740182
7.256,1.0,-9.901774510686634
7.264,1.0,-10.16621173887492
7.272,0.9999999999999999,-10.430623104826942
7.28,1.0,-10.695007582346618
7.288,1.0000000000000002,-10.959364146569335
7.296,0.9999999999999999,-11.22369177401261
7.304,1.0,-11.48798944262814
7.312,1.0,-11.752256131855264
7.32,1.0,-12.016490822676108
7.328,1.0,-12.28069249767226
7.336,0.9999999999999998,-12.54486014108337
7.344,1.0,-12.808992738867667
7.352,1.0,-13.07308927876452
7.36,1.0,-13.337148750359294
7.368,0.9999999999999999,-13.601170145150522
7.376,0.9999999999999999,-13.865152456619585
7.384,0.9999999999999999,-14.129094680303176
7.392,1.0,-14.392995813868527
7.4,0.9999999999999999,-14.656854857191716
7.4079999999999995,1.0,-14.920670812439084
7.416,0.9999999999999999,-15.184442684152293
7.4239999999999995,1.0,-15.448169479336313
7.432,1.0,-15.711850207552027
7.4399999999999995,1.0,-15.97548388101165
7.448,0.9999999999999999,-16.23906951467932
7.4559999999999995,1.0,-16.50260612637469
7.464,0.9999999999999999,-16.76609273688196
7.4719999999999995,1.0,-17.029528370062305
7.48,1.0,-17.292912052971783
7.4879999999999995,1.0,-17.55624281598284
7.496,1.0,-17.81951969291148
7.504,1.0,-18.082741721147862
7.5120000000000005,1.0,-18.345907941792575
7.52,0.9999999999999999,-18.609017399796212
7.5280000000000005,0.9999999999999999,-18.872069144104163
7.536,1.0,-19.135062227804255
7.5440000000000005,1.0,-19.39799570827906
7.552,0.9999999999999999,-19.660868647360104
7.5600000000000005,0.9999999999999999,-19.92368011148572
7.568,0.9999999999999999,-20.18642917185946
7.5760000000000005,1.0,-20.449114904610564
7.584,1.0,-20.711736390953206
7.5920000000000005,1.0,-20.974292717345293
7.6,1.0,-21.23678297564374
7.6080000000000005,1.0,-21.499206263256138
7.616,1.0,-21.761561683285468
7.6240000000000006,1.0,-22.023848344667527
7.632,1.0,-22.28606536229691
7.640000000000001,1.0,-22.548211857141066
7.648,0.9999999999999999,-22.81028695633758
7.656000000000001,1.0,-23.072289793273896
7.664,1.0,-23.33421950764411
7.672,1.0,-23.59607524548159
7.68,1.0,-23.857856159161965
7.688,1.0,-24.119561407374317
7.696,1.0,-24.381190155056018
7.704,1.0,-24.6427415732877
7.712,1.0,-24.9042148391449
7.72,0.9999999999999999,-25.16560913550252
7.728,1.0,-25.4269236507893
7.736,0.9999999999999999,-25.6881575786891
7.744,0.9999999999999999,-25.949310117786972
7.752,1.0,-26.210380471158107
7.76,1.0,-26.471367845899007
7.768,0.9999999999999999,-26.73227145260068
7.776,1.0,-26.993090504765263
7.784,0.9999999999999999,-27.253824218168134
7.792,0.9999999999999999,-27.514471810169418
7.8,1.0,-27.775032498979712
7.808,1.0,-28.035505502886803
7.816,1.0,-28.29589003945126
7.824,0.9999999999999999,-28.556185324680538
7.832,0.9999999999999999,-28.816390572192468
7.84,0.9999997569007051,-29.076504992380517
7.848,0.999998960936494,-29.33652779159396
7.856,0.9999981564526506,-29.59645817134746
7.864,0.9999973457815279,-29.85629532757459
7.872,0.999996531345131,-30.116038449940525
7.88,0.9999957156402569,-30.375686721228707
7.888,0.99999490122211,-30.635239316815607
7.896,0.9999940906865846,-30.89469540424707
7.904,0.9999932866514333,-31.15405414292801
7.912,0.999992491736585,-31.41331468393514
7.92,0.999991708543898,-31.67247616996076
7.928,0.999990939636662,-31.931537735392652
7.936,0.9999901875191749,-32.190498506532265
7.944,0.9999894546167291,-32.44935760195084
7.952,0.9999887432563334,-32.70811413297985
7.96,0.9999880556484971,-32.96676720432896
7.968,0.999987393870366,-33.22531591482245
7.976,0.999986759850485,-33.48375935824207
7.984,0.9999861553554157,-33.74209662426218
7.992,0.9999855819784012,-34.000326799461284
8.0,0.9999850411302168,-34.258448968392685
8.008,0.9999845340323077,-34.516462214696084
8.016,0.9999840617122437,-34.77436562223198
8.024000000000001,0.9999836250014966,-35.032158276219974
8.032,0.9999832245354726,-35.28983926436415
8.04,0.9999828607557087,-35.547407677948726
8.048,0.9999825339140934,-35.80486261288875
8.056000000000001,0.9999822440789363,-36.06220317072253
8.064,0.9999819911426974,-36.31942845953523
8.072,0.9999817748311516,-36.576537594803646
8.08,0.9999815947137654,-36.83352970015559
8.088000000000001,0.99998145021505,-37.09040390803866
8.096,0.9999813406266544,-37.34715936029662
8.104,0.9999812651199737,-37.60379520865186
8.112,0.9999812227590545,-37.860310615095045
8.120000000000001,0.9999812125135972,-38.11670475218493
8.128,0.9999812332718659,-38.37297680326233
8.136,0.9999812838533514,-38.62912596258341
8.144,0.9999813630210357,-38.88515143537775
8.152000000000001,0.999981469493145,-39.141052437838475
8.16,0.9999816019542886,-39.396828197051164
8.168,0.9999817590659095,-39.65247795086914
8.176,0.9999819394759908,-39.90800094774173
8.184000000000001,0.9999821418279765,-40.16339644650317
8.192,0.9999823647688915,-40.418663716129075
8.2,0.9999826069566491,-40.673802035467034
8.208,0.9999828670665591,-40.92881069294702
8.216000000000001,0.9999831437970501,-41.18368898627744
8.224,0.9999834358746372,-41.4384362221324
8.232,0.9999837420581673,-41.693051715834244
8.24,0.9999840611423835,-41.9475347910353
8.248000000000001,0.9999843919608545,-42.20188477940249
8.256,0.9999847333883131,-42.45610102030784
8.264,0.9999850843424528,-42.71018286052754
8.272,0.9999854437852361,-42.964129653950764
8.280000000000001,0.9999858107237538,-43.217940761300625
8.288,0.9999861842106913,-43.47161554986835
8.296,0.9999865633444429,-43.72515339326147
8.304,0.9999869472689166,-43.97855367116627
8.312,0.9999873351730723,-44.23181576912515
8.32,0.9999877262902324,-44.48493907832961
8.328,0.9999881198971937,-44.73792299542714
8.336,0.9999885153131821,-44.99076692234375
8.344,0.9999889118986708,-45.24347026611985
8.352,0.9999893090540946,-45.49603243876083
8.36,0.99998970621848,-45.74845285710005
8.368,0.9999901028680176,-46.00073094267522
8.376,0.9999904985145854,-46.25286612161594
8.384,0.9999908927042548,-46.504857824543535
8.392,0.9999912850157765,-46.756705486480335
8.4,0.9999916750590742,-47.008408546769914
8.408,0.9999920624737428,-47.25996644900566
8.416,0.999992446927573,-47.51137864096861
8.424,0.9999928281150986,-47.762644574572406
8.432,0.9999932057561793,-48.013763705816224
8.44,0.9999935795946232,-48.2647354947436
8.448,0.9999939493968488,-48.515559405408005
8.456,0.999994314950596,-48.76623490584311
8.464,0.9999946760636808,-49.01676146803897
8.472,0.9999950325628033,-49.26713856792153
8.48,0.9999953842924025,-49.51736568533751
8.488,0.9999957311135624,-49.767442304041474
8.496,0.9999960729029684,-50.01736791168753
8.504,0.9999964095519143,-50.26714199982253
8.512,0.9999967409653583,-50.51676406388303
8.52,0.9999970670610244,-50.7662336031934
8.528,0.9999973877685565,-51.015550120966765
8.536,0.9999977030287108,-51.264713124306866
8.544,0.9999980127925989,-51.51372212421203
8.552,0.9999983170209695,-51.76257663557978
8.56,0.9999986156835327,-52.011276177213084
8.568,0.9999989087583224,-52.259820271826776
8.576,0.9999991962310979,-52.50820844605549
8.584,0.9999994780947791,-52.756440230461315
8.592,0.999999754348918,-53.004515159542706
8.6,1.0,-53.25243277174298
8.608,0.9999999999999999,-53.50019260945974
8.616,1.0000000000000002,-53.74779421905369
8.624,1.0,-53.99523715085829
8.632,1.0,-54.24252095918861
8.64,0.9999999999999999,-54.48964520235096
8.648,0.9999999999999999,-54.73660944265133
8.656,1.0,-54.98341324640487
8.664,1.0,-55.23005618394395
8.672,1.0,-55.47653782962696
8.68,1.0,-55.722857761846036
8.688,1.0,-55.96901556303513
8.696,1.0,-56.215010819677076
8.704,1.0,-56.46084312231103
8.712,0.9999999999999999,-56.70651206553876
8.72,1.0,-56.952017248031275
8.728,1.0,-57.19735827253446
8.736,1.0,-57.44253474587475
8.744,0.9999999999999999,-57.68754627896408
8.752,1.0,-57.93239248680467
8.76,1.0,-58.17707298849316
8.768,1.0000000000000002,-58.42158740722461
8.776,0.9999999999999999,-58.66593537029566
8.784,1.0,-58.9101165091079
8.792,0.9999999999999999,-59.15413045917007
8.8,1.0,-59.39797686010068
8.808,0.9999999999999999,-59.641655355629304
8.815999999999999,1.0000000000000002,-59.88516559359844
8.824,1.0,-60.12850722596433
8.832,1.0,-60.37167990879737
8.84,1.0,-60.61468330228258
8.847999999999999,0.9999999999999999,-60.857517070719474
8.856,1.0000000000000002,-61.100180882521464
8.864,1.0000000000000002,-61.34267441021484
8.872,1.0,-61.58499733043772
8.879999999999999,1.0,-61.82714932393851
8.888,1.0,-62.06913007557391
8.896,1.0,-62.310939274306506
8.904,1.0,-62.55257661320234
8.911999999999999,1.0,-62.794041789428086
8.92,1.0,-63.03533450424771
8.928,1.0,-63.276454463018844
8.936,1.0,-63.51740137518913
8.943999999999999,0.9999999999999999,-63.75817495429206
8.952,0.9999999999999999,-63.9987749179426
8.96,0.9999999999999999,-64.23920098783235
8.968,1.0,-64.47945288972463
8.975999999999999,1.0,-64.71953035344944
8.984,1.0,-64.95943311289781
8.992,1.0,-65.19916090601598
9.0,1.0,-65.43871347479946
9.008,1.0,-65.67809056528692
9.016,0.9999999999999999,-65.91729192755362
9.024000000000001,0.9999999999999999,-66.15631731570457
9.032,1.0000000000000002,-66.39516648786768
9.04,1.0,-66.63383920618674
9.048,1.0,-66.87233523681391
9.056000000000001,1.0,-67.11065434990202
9.064,1.0,-67.34879631959689
9.072,1.0,-67.5867609240294
9.08,0.9999999999999998,-67.82454794530727
9.088000000000001,1.0,-68.06215716950645
9.096,0.9999999999999999,-68.29958838666269
9.104,1.0,-68.53684139076293
9.112,0.9999999999999999,-68.77391597973622
9.120000000000001,0.9999999999999999,-69.01081195544441
9.128,1.0,-69.24752912367313
9.136,0.9999999999999999,-69.48406729412226
9.144,1.0,-69.72042628039635
9.152000000000001,0.9999999999999999,-69.95660589999463
9.16,1.0,-70.19260597430122
9.168,1.0,-70.42842632857513
9.176,1.0,-70.66406679193994
9.184000000000001,0.9999999999999999,-70.89952719737327
9.192,0.9999999999999999,-71.13480738169638
9.2,1.0,-71.36990718556356
9.208,1.0,-71.60482645345134
9.216000000000001,1.0,-71.83956503364728
9.224,1.0,-72.07412277823914
9.232,1.0,-72.30849954310378
9.24,1.0,-72.54269518789565
9.248000000000001,1.0,-72.7767095760353
9.256,1.0,-73.01054257469801
9.264,0.9999999999999999,-73.24419405480207
9.272,1.0,-73.47766389099702
9.280000000000001,1.0,-73.71095196165155
9.288,0.9999999999999999,-73.94405814884175
9.296,0.9999999999999998,-74.17698233833893
9.304,0.9999999999999999,-74.40972441959745
9.312000000000001,1.0,-74.64228428574225
9.32,0.9999999999999999,-74.87466183355659
9.328,1.0,-75.10685696346957
9.336,1.0,-75.33886957954357
9.344,1.0,-75.57069958946127
9.352,1.0,-75.80234690451337
9.36,0.9999999999999999,-76.03381143958528
9.368,1.0,-76.26509311314454
9.376,1.0,-76.4961918472275
9.384,1.0,-76.72710756742651
9.392,1.0,-76.95784020287647
9.4,0.9999999999999999,-77.18838968624188
9.408,0.9999999999999999,-77.41875595370315
9.416,0.9999999999999999,-77.64893894494367
9.424,1.0,-77.87893860313585
9.432,1.0,-78.10875487492805
9.44,0.9999999999999999,-78.33838771043055
9.448,1.0,-78.56783706320239
9.456,0.9999999999999999,-78.79710289023708
9.464,1.0,-79.02618515194943
9.472,1.0,-79.25508381216112
9.48,1.0,-79.48379883808734
9.488,1.0,-79.7123302003224
9.496,1.0,-79.94067787282609
9.504,1.0,-80.16884183290934
9.512,1.0,-80.39682206122039
9.52,0.9999999999999999,-80.62461854173034
9.528,1.0,-80.85223126171934
9.536,1.0,-81.07966021176186
9.544,0.9999999999999999,-81.306905385713
9.552,1.0,-81.53396678069356
9.56,0.9999999999999999,-81.76084439707623
9.568,1.0,-81.9875382384707
9.576,1.0,-82.21404831170967
9.584,1.0,-82.44037462683401
9.592,1.0,-82.66651719707855
9.6,0.9999999999999999,-82.89247603885723
9.608,1.0,-83.11825117174891
9.616,1.0,-83.34384261848238
9.624,1.0,-83.56925040492214
9.632,0.9999999999999998,-83.79447456005326
9.64,0.9999999999999999,-84.01951511596722
9.648,0.9999999999999999,-84.2443721078468
9.656,0.9999999999999999,-84.46904557395162
9.664,1.0,-84.69353555560315
9.672,0.9999999999999998,-84.9178420971703
9.68,1.0,-85.14196524605416
9.688,0.9999999999999999,-85.36590505267367
9.696,1.0,-85.58966157045042
9.704,1.0,-85.81323485579414
9.712,1.0,-86.03662496808748
9.72,1.0,-86.25983196967161
9.728,1.0,-86.48285592583082
9.736,0.9999999999999998,-86.70569690477818
9.744,1.0,-86.92835497764015
9.752,1.0000000000000002,-87.15083021844208
9.76,1.0,-87.37312270409299
9.768,1.0,-87.59523251437095
9.776,1.0,-87.81715973190781
9.784,1.0,-88.03890444217467
9.792,1.0,-88.2604667334666
9.8,1.0,-88.48184669688803
9.808,0.9999999999999999,-88.70304442633751
9.816,1.0,-88.92406001849308
9.824,0.9999999999999999,-89.14489357279707
9.832,1.0,-89.36554519144146
9.84,0.9999999999999998,-89.58601497935267
9.847999999999999,1.0,-89.80630304417689
9.856,1.0,-90.02640949626507
9.864,1.0,-90.246334448658
9.872,0.9999999999999999,-90.46607801707134
9.879999999999999,0.9999999999999999,-90.68564031988099
9.888,1.0,-90.90502147810801
9.896,0.9999999999999999,-91.12422161540374
9.904,1.0,-91.34324085803497
9.911999999999999,0.9999999999999999,-91.56207933486922
9.92,1.0,-91.78073717735985
9.928,1.0,-91.9992145195311
9.936,1.0,-92.21751149796333
9.943999999999999,0.9999999999999999,-92.4356282517785
9.952,0.9999999999999999,-92.65356492262512
9.96,1.0,-92.87132165466353
9.968,0.9999999999999999,-93.08889859455114
