freq,mag,phase
6.0,0.9999871779340649,65.30222733430963
6.008,0.9999881971863619,65.12525292463226
6.016,0.9999891942148034,64.94819056582216
6.024,0.9999901692912212,64.77104025805983
6.032,0.9999911226856859,64.59380200202712
6.04,0.9999920546665084,64.41647579890936
6.048,0.999992965500243,64.2390616503974
6.056,0.999993855451687,64.06155955868967
6.064,0.9999947247838855,63.883969526494155
6.072,0.9999955737581311,63.70629155703065
6.08,0.9999964026339669,63.5285256540327
6.088,0.9999972116691894,63.35067182174958
6.096,0.9999980011198487,63.172730064948446
6.104,0.9999987712402519,62.99470038891644
6.112,0.9999995222829654,62.816582799462516
6.12,0.9999999999999999,62.63837730291971
6.128,1.0,62.460083906147055
6.136,1.0,62.281702616531625
6.144,1.0,62.10323344199058
6.152,1.0,61.92467639097328
6.16,0.9999999999999999,61.746031472463024
6.168,0.9999999999999999,61.567298695979424
6.176,1.0,61.38847807158027
6.184,0.9999999999999999,61.209569609863365
6.192,1.0,61.03057332196893
6.2,1.0,60.8514892195812
6.208,1.0,60.67231731493066
6.216,1.0,60.49305762079602
6.224,1.0,60.31371015050606
6.232,1.0,60.1342749179418
6.24,0.9999999999999999,59.95475193753842
6.248,0.9999999999999999,59.775141224287175
6.256,1.0,59.59544279373743
6.264,1.0,59.41565666199855
6.272,0.9999999999999999,59.23578284574205
6.28,1.0,59.05582136220342
6.288,1.0,58.87577222918393
6.296,1.0,58.69563546505291
6.304,1.0,58.51541108874948
6.312,0.9999999999999999,58.33509911978448
6.32,1.0,58.154699578242514
6.328,0.9999999999999999,57.97421248478382
6.336,1.0,57.79363786064617
6.344,1.0,57.612975727646756
6.352,1.0,57.432226108184345
6.36,0.9999999999999999,57.25138902524077
6.368,1.0,57.07046450238317
6.376,1.0000000000000002,56.8894525637658
6.384,1.0,56.70835323413194
6.392,1.0,56.52716653881555
6.4,1.0,56.34589250374353
6.408,1.0,56.16453115543731
6.416,0.9999999999999999,55.98308252101475
6.424,0.9999999999999999,55.801546628192185
6.432,1.0,55.619923505285925
6.44,0.9999999999999999,55.43821318121459
6.448,1.0,55.25641568550047
6.456,0.9999999999999999,55.07453104827165
6.464,1.0,54.892559300263734
6.472,1.0,54.71050047282163
6.48,0.9999999999999999,54.52835459790157
6.4879999999999995,1.0,54.346121708072495
6.496,0.9999999999999998,54.16380183651842
6.504,1.0,53.98139501703986
6.5120000000000005,0.9999999999999999,53.798901284055326
6.52,1.0,53.61632067260408
6.5280000000000005,1.0,53.4336532183466
6.536,0.9999999999999999,53.250898957567614
6.5440000000000005,0.9999999999999999,53.068057927176845
6.552,0.9999999999999999,52.885130164711384
6.5600000000000005,1.0,52.702115708337345
6.568,0.9999999999999999,52.51901459685102
6.5760000000000005,1.0,52.33582686968148
6.584,1.0,52.15255256689179
6.592,1.0000000000000002,51.96919172918064
6.6,0.9999999999999999,51.78574439788428
6.608,1.0,51.60221061497809
6.616,0.9999999999999999,51.41859042307839
6.624,0.9999999999999999,51.234883865444054
6.632,1.0,51.051090985977964
6.64,1.0,50.86721182922894
6.648,0.9999999999999999,50.68324644039339
6.656,1.0,50.499194865316674
6.664,0.9999999999999999,50.31505715049512
6.672,1.0,50.13083334307725
6.68,1.0,49.9465234908657
6.688,0.9999999999999999,49.76212764231875
6.696,1.0,49.577645846551725
6.704,1.0,49.393078153338806
6.712,1.0,49.208424613114595
6.72,1.0,49.02368527697547
6.728,0.9999999999999999,48.83886019668143
6.736,1.0,48.65394942465741
6.744,0.9999999999999999,48.468953013994934
6.752,0.9999999999999999,48.283871018453624
6.76,1.0,48.098703492462775
6.768,1.0000000000000002,47.91345049112246
6.776,1.0,47.728112070205796
6.784,0.9999999999999999,47.54268828615972
6.792,1.0,47.357179196106834
6.8,1.0,47.17158485784676
6.808,1.0,46.98590532985757
6.816,0.9999999999999999,46.800140671297235
6.824,1.0000000000000002,46.61429094200509
6.832,1.0,46.42835620250347
6.84,1.0,46.24233651399866
6.848,1.0,46.05623193838259
6.856,0.9999999999999999,45.87004253823414
6.864,1.0,45.683768376820666
6.872,0.9999999999999999,45.49740951809923
6.88,1.0,45.31096602671785
6.888,1.0,45.12443796801712
6.896,0.9999999999999999,44.93782540803135
6.904,1.0,44.75112841348983
6.912,0.9999999999999999,44.564347051818324
6.92,0.9999999999999999,44.37748139114037
6.928,0.9999999999999999,44.190531500278254
6.936,0.9999999999999999,44.003497448754686
6.944,1.0,43.81637930679389
6.952,1.0,43.62917714532259
6.96,1.0,43.44189103597183
6.968,0.9999999999999999,43.25452105107759
6.976,0.9999999999999999,43.06706726368242
6.984,1.0,42.87952974753641
6.992,0.9999999999999999,42.69190857709855
7.0,1.0,42.504203827537744
7.008,0.9999999999999999,42.31641557473402
7.016,0.9999999999999999,42.1285438952796
7.024,1.0,41.94058886648038
7.032,1.0,41.75255056635649
7.04,1.0,41.56442907364398
7.048,1.0,41.37622446779545
7.056,1.0,41.187936828981265
7.064,1.0,40.999566238090864
7.072,1.0,40.81111277673353
7.08,0.9999999999999999,40.62257652723955
7.088,0.9999999999999999,40.43395757266114
7.096,1.0,40.24525599677356
7.104,1.0,40.0564718840762
7.112,0.9999999999999999,39.86760531979328
7.12,1.0,39.67865638987504
7.128,0.9999999999999999,39.48962518099864
7.136,1.0,39.300511780569096
7.144,1.0,39.111316276720274
7.152,1.0,38.922038758315665
7.16,0.9999999999999999,38.73267931494935
7.168,1.0,38.543238036946896
7.176,1.0,38.35371501536623
7.184,1.0,38.16411034199844
7.192,0.9999999999999999,37.97442410936875
7.2,0.9999999999999999,37.78465641073709
7.208,0.9999999999999999,37.594807340099145
7.216,0.9999999999999999,37.40487699218702
7.224,1.0,37.21486546247013
7.232,1.0,37.024772847155724
7.24,1.0,36.83459924318987
7.248,0.9999999999999999,36.64434474825818
7.256,1.0,36.454009460786345
7.264,1.0,36.26359347994095
7.272,1.0,36.073096905630116
7.28,1.0,35.88251983850424
7.288,0.9999999999999999,35.691862379956625
7.296,1.0,35.501124632124
7.304,1.0,35.31030669788723
7.312,0.9999999999999999,35.11940868087199
7.32,1.0,34.92843068544915
7.328,1.0,34.73737281673557
7.336,1.0,34.54623518059446
7.344,0.9999999999999999,34.355017883636094
7.352,1.0,34.16372103321809
7.36,1.0,33.97234473744619
7.368,1.0,33.780889105174545
7.376,1.0,33.58935424600622
7.384,1.0,33.39774027029374
7.392,0.9999999999999999,33.20604728913937
7.4,1.0,33.01427541439566
7.4079999999999995,1.0,32.822424758665846
7.416,0.9999999999999999,32.630495435304034
7.4239999999999995,1.0000000000000002,32.43848755841591
7.432,0.9999999999999999,32.24640124285863
7.4399999999999995,1.0,32.05423660424167
7.448,1.0,31.86199375892666
7.4559999999999995,1.0,31.669672824028098
7.464,1.0,31.477273917413118
7.4719999999999995,1.0,31.28479715770234
7.48,1.0,31.092242664269605
7.4879999999999995,1.0,30.89961055724256
7.496,0.9999999999999999,30.706900957502494
7.504,0.9999999999999999,30.514113986684944
7.5120000000000005,0.9999999999999999,30.32124976717948
7.52,1.0000000000000002,30.128308422130118
7.5280000000000005,1.0000000000000002,29.935290075435248
7.536,1.0,29.74219485174799
7.5440000000000005,0.9999999999999999,29.5490228764759
7.552,0.9999999999999998,29.35577427578156
7.5600000000000005,1.0,29.162449176582076
7.568,1.0,28.969047706549613
7.5760000000000005,1.0,28.77556999411099
7.584,1.0,28.58201616844802
7.5920000000000005,0.9999999943022401,28.388386359497204
7.6,0.9999998838652734,28.19468069794995
7.6080000000000005,0.9999997754856941,28.00089931525222
7.616,0.999999669170629,27.807042343604785
7.6240000000000006,0.9999995649265151,27.61310991596277
7.632,0.9999994627591069,27.419102166035913
7.640000000000001,0.9999993626734845,27.225019228287977
7.648,0.9999992646740611,27.03086123793709
7.656000000000001,0.9999991687645903,26.836628330955115
7.664,0.999999074948175,26.64232064406781
7.672,0.9999989832272735,26.44793831475428
7.68,0.999998893603709,26.25348148124708
7.688,0.9999988060786752,26.058950282531644
7.696,0.9999987206527461,25.864344858346225
7.704,0.9999986373258818,25.669665349181525
7.712,0.9999985560974382,25.474911896280314
7.72,0.9999984769661722,25.280084641637217
7.728,0.9999983999302523,25.085183727998217
7.736,0.9999983249872638,24.89020929886037
7.744,0.9999982521342181,24.695161498471382
7.752,0.9999981813675592,24.50004047182921
7.76,0.9999981126831726,24.30484636468154
7.768,0.9999980460763919,24.10957932352542
7.776,0.9999979815420074,23.91423949560673
7.784,0.9999979190742723,23.71882702891968
7.792,0.999997858666913,23.523342072206304
7.8,0.9999978003131336,23.3277847749559
7.808,0.9999977440056262,23.132155287404455
7.816,0.9999976897365768,22.93645376053412
7.824,0.9999976374976738,22.740680346072494
7.832,0.9999975872801155,22.544835196492095
7.84,0.9999975390746175,22.34891846500969
7.848,0.9999974928714208,22.152930305585546
7.856,0.9999974486602996,21.956870872922856
7.864,0.9999974064305668,21.76074032246695
7.872,0.9999973661710846,21.564538810404578
7.88,0.9999973278702706,21.36826649366315
7.888,0.9999972915161048,21.171923529909993
7.896,0.9999972570961385,20.975510077551494
7.904,0.9999972245975008,20.779026295732326
7.912,0.9999971940069068,20.582472344334583
7.92,0.9999971653106651,20.38584838397694
7.928,0.9999971384946845,20.189154576013724
7.936,0.9999971135444826,19.992391082534084
7.944,0.9999970904451927,19.79555806636098
7.952,0.9999970691815709,19.598655691050272
7.96,0.9999970497380053,19.401684120889758
7.968,0.9999970320985211,19.204643520898173
7.976,0.9999970162467892,19.007534056824156
7.984,0.9999970021661342,18.81035589514523
7.992,0.9999969898395408,18.61310920306674
8.0,0.9999969792496616,18.41579414852078
8.008,0.9999969703788244,18.218410900165093
8.016,0.9999969632090399,18.02095962738185
8.024000000000001,0.9999969577220084,17.8234405002767
8.032,0.9999969538991273,17.62585368967749
8.04,0.9999969517214996,17.42819936713298
8.048,0.9999969511699387,17.230477704911724
8.056000000000001,0.9999969522249783,17.032688876000922
8.064,0.9999969548668778,16.834833054105065
8.072,0.9999969590756306,16.63691041364459
8.08,0.9999969648309703,16.438921129754632
8.088000000000001,0.9999969721123795,16.240865378283832
8.096,0.9999969808990944,16.042743335792842
8.104,0.9999969911701152,15.844555179552922
8.112,0.9999970029042105,15.64630108754462
8.120000000000001,0.9999970160799254,15.447981238456435
8.128,0.9999970306755888,15.249595811683287
8.136,0.99999704666932,15.051144987325026
8.144,0.9999970640390363,14.852628946184934
8.152000000000001,0.9999970827624592,14.654047869768426
8.16,0.9999971028171221,14.455401940281346
8.168,0.9999971241803767,14.25669134062839
8.176,0.9999971468294003,14.057916254411575
8.184000000000001,0.9999971707412031,13.85907686592877
8.192,0.9999971958926329,13.660173360171989
8.2,0.9999972222603856,13.461205922825625
8.208,0.9999972498210086,13.262174740264932
8.216000000000001,0.9999972785509096,13.063079999554388
8.224,0.9999973084263621,12.863921888445914
8.232,0.999997339423514,12.664700595377067
8.24,0.9999973715183914,12.465416309469356
8.248000000000001,0.9999974046869082,12.266069220526585
8.256,0.9999974389048705,12.066659519032934
8.264,0.9999974741479852,11.86718739615107
8.272,0.9999975103918649,11.667653043720396
8.280000000000001,0.999997547612035,11.468056654255268
8.288,0.9999975857839398,11.268398420943019
8.296,0.9999976248829512,11.068678537641961
8.304,0.9999976648843717,10.86889719887955
8.312,0.9999977057634433,10.669054599850542
8.32,0.9999977474953525,10.469150936414747
8.328,0.999997790055238,10.269186405095326
8.336,0.9999978334181957,10.069161203076446
8.344,0.9999978775592858,9.869075528201627
8.352,0.999997922453539,9.668929578971222
8.36,0.9999979680759618,9.46872355454078
8.368,0.9999980144015436,9.268457654718512
8.376,0.9999980614052625,9.068132079963554
8.384,0.9999981090620921,8.867747031383422
8.392,0.999998157347006,8.667302710732198
8.4,0.999998206234985,8.466799320407985
8.408,0.9999982557010232,8.266237063451014
8.416,0.999998305720133,8.065616143541051
8.424,0.999998356267352,7.864936764995493
8.432,0.999998407317748,7.664199132766694
8.44,0.9999984588464255,7.46340345244003
8.448,0.9999985108285308,7.26254993023118
8.456,0.9999985632392587,7.061638772984157
8.464,0.9999986160538572,6.860670188168535
8.472,0.9999986692476336,6.659644383877425
8.48,0.9999987227959606,6.458561568824665
8.488,0.9999987766742808,6.257421952342761
8.496,0.9999988308581129,6.056225744380035
8.504,0.9999988853230573,5.854973155498493
8.512,0.9999989400448012,5.6536643968709495
8.52,0.9999989949991241,5.452299680278852
8.528,0.9999990501619033,5.250879218109368
8.536,0.999999105509119,5.049403223353153
8.544,0.9999991610168595,4.847871909601376
8.552,0.9999992166613267,4.646285491043483
8.56,0.9999992724188412,4.44464418246416
8.568,0.9999993282658477,4.242948199241034
8.576,0.9999993841789188,4.0411977573416245
8.584,0.9999994401347619,3.839393073320988
8.592,0.9999994961102228,3.637534364318615
8.6,0.9999995520822911,3.4356218480560385
8.608,0.999999608028105,3.2336557428336943
8.616,0.9999996639249568,3.0316362675284796
8.624,0.9999997197502968,2.8295636415905663
8.632,0.9999997754817379,2.627438085040928
8.64,0.9999998310970614,2.4252598184681013
8.648,0.9999998865742206,2.2230290630256646
8.656,0.9999999418913462,2.0207460404289743
8.664,0.9999999970267499,1.8184109729525817
8.672,1.0,1.6160240834269348
8.68,1.0,1.4135855952357594
8.688,0.9999999999999999,1.2110957323127063
8.696,1.0,1.0085547191386939
8.704,1.0,0.805962780738518
8.712,1.0,0.6033201426781503
8.72,1.0,0.40062703106129943
8.728,0.9999999999999999,0.19788367252667535
8.736,0.9999999999999999,-0.004909705755494892
8.744,1.0,-0.20775287608624135
8.752,1.0,-0.41064561024138074
8.76,1.0,-0.6135876794743333
8.768,0.9999999999999999,-0.8165788545196865
8.776,0.9999999999999999,-1.0196189055960587
8.784,1.0,-1.2227076024097026
8.792,1.0,-1.4258447141574109
8.8,1.0,-1.6290300095301586
8.808,0.9999999999999999,-1.8322632567160488
8.815999999999999,1.0,-2.035544223403953
8.824,1.0,-2.2388726767867215
8.832,1.0,-2.442248383564456
8.84,0.9999999999999998,-2.645671109947986
8.847999999999999,1.0,-2.849140621662366
8.856,1.0,-3.0526566839502087
8.864,0.9999999999999999,-3.2562190615750355
8.872,0.9999999999999999,-3.459827518824838
8.879999999999999,1.0,-3.6634818195156464
8.888,1.0,-3.867181726994943
8.896,0.9999999999999999,-4.070927004145098
8.904,0.9999999999999999,-4.274717413386994
8.911999999999999,1.0,-4.478552716683689
8.92,1.0,-4.682432675543891
8.928,1.0,-4.886357051025488
8.936,1.0,-5.090325603739233
8.943999999999999,0.9999999999999999,-5.294338093852484
8.952,1.0,-5.498394281092776
8.96,1.0,-5.702493924751384
8.968,0.9999999999999999,-5.906636783687128
8.975999999999999,0.9999999999999999,-6.1108226163301715
8.984,0.9999999999999999,-6.315051180685638
8.992,1.0,-6.519322234337309
9.0,1.0,-6.723635534451446
9.008,1.0,-6.927990837780674
9.016,1.0,-7.1323879006677116
9.024000000000001,1.0,-7.336826479049076
9.032,1.0,-7.541306328459035
9.04,1.0,-7.745827204033528
9.048,1.0,-7.950388860513968
9.056000000000001,1.0,-8.15499105225105
9.064,0.9999999999999999,-8.359633533208715
9.072,1.0,-8.564316056968206
9.08,0.9999999999999999,-8.769038376731888
9.088000000000001,1.0,-8.973800245327158
9.096,0.9999999999999999,-9.178601415210457
9.104,1.0,-9.3834416384714
9.112,1.0,-9.588320666836688
9.120000000000001,0.9999999999999999,-9.793238251674012
9.128,0.9999999999999999,-9.99819414399625
9.136,0.9999999999999999,-10.203188094465542
9.144,1.0,-10.408219853397332
9.152000000000001,1.0,-10.613289170764364
9.16,1.0,-10.81839579620085
9.168,1.0,-11.023539479006711
9.176,0.9999999999999999,-11.228719968151626
9.184000000000001,0.9999999999999999,-11.433937012279088
9.192,1.0,-11.639190359710659
9.2,1.0,-11.844479758450284
9.208,1.0,-12.049804956188364
9.216000000000001,0.9999999999999999,-12.25516570030589
9.224,1.0,-12.460561737878788
9.232,1.0,-12.665992815682232
9.24,0.9999999999999999,-12.871458680194841
9.248000000000001,1.0,-13.07695907760284
9.256,0.9999999999999999,-13.282493753804458
9.264,1.0,-13.488062454414315
9.272,1.0,-13.693664924767674
9.280000000000001,1.0,-13.89930090992466
9.288,0.9999999999999999,-14.104970154674708
9.296,0.9999999999999999,-14.31067240354103
9.304,1.0,-14.516407400784876
9.312000000000001,1.0,-14.722174890409853
9.32,0.9999999999999999,-14.927974616166429
9.328,1.0,-15.133806321556387
9.336,1.0,-15.339669749837249
9.344,1.0,-15.545564644026529
9.352,0.9999999999999999,-15.751490746906494
9.36,0.9999999999999999,-15.95744780102832
9.368,1.0,-16.163435548716908
9.376,1.0,-16.369453732075012
9.384,1.0,-16.575502092988135
9.392,0.9999999999999999,-16.781580373128644
9.4,1.0,-16.987688313960714
9.408,1.0,-17.193825656744497
9.416,1.0,-17.39999214254098
9.424,0.9999999999999999,-17.606187512216305
9.432,0.9999999999999999,-17.8124115064466
9.44,1.0,-18.018663865722285
9.448,1.0,-18.224944330352997
9.456,0.9999999999999999,-18.431252640471822
9.464,1.0000000000000002,-18.637588536040358
9.472,0.9999999999999999,-18.84395175685292
9.48,0.9999999999999999,-19.05034204254156
9.488,1.0,-19.25675913258041
9.496,1.0,-19.46320276629063
9.504,1.0,-19.669672682844794
9.512,1.0,-19.8761686212719
9.52,0.9999999999999999,-20.082690320461737
9.528,0.9999999999999999,-20.289237519169944
9.536,1.0,-20.495809956022324
9.544,1.0,-20.702407369520014
9.552,0.9999999999999999,-20.909029498043775
9.56,1.0,-21.115676079859192
9.568,1.0,-21.322346853120973
9.576,0.9999999999999999,-21.529041555878134
9.584,1.0,-21.735759926078394
9.592,1.0,-21.942501701573338
9.6,0.9999999999999999,-22.14926662012281
9.608,0.9999999999999999,-22.356054419400103
9.616,1.0,-22.562864836996376
9.624,1.0,-22.769697610425865
9.632,1.0,-22.97655247713034
9.64,1.0,-23.18342917448426
9.648,0.9999999999999999,-23.390327439799293
9.656,1.0,-23.597247010329507
9.664,1.0,-23.804187623275862
9.672,0.9999999999999999,-24.01114901579142
9.68,1.0,-24.218130924985903
9.688,0.9999999999999999,-24.425133087930835
9.696,0.9999999999999999,-24.63215524166416
9.704,0.9999999999999999,-24.839197123195444
9.712,0.9999999999999999,-25.046258469510402
9.72,0.9999999999999999,-25.253339017576174
9.728,1.0,-25.46043850434588
9.736,0.9999999999999999,-25.667556666763872
9.744,0.9999999999999999,-25.874693241770295
9.752,1.0,-26.08184796630641
9.76,1.0,-26.28902057731909
9.768,1.0,-26.49621081176619
9.776,1.0,-26.703418406621097
9.784,1.0,-26.91064309887801
9.792,1.0,-27.117884625556563
9.8,0.9999999999999999,-27.32514272370716
9.808,1.0,-27.532417130415496
9.816,1.0,-27.739707582807974
9.824,1.0,-27.94701381805624
9.832,0.9999999999999999,-28.15433557338257
9.84,0.9999999972862129,-28.361672586064458
9.847999999999999,0.9999999451880742,-28.569024593439888
9.856,0.9999998930339888,-28.776391332912247
9.864,0.9999998408475355,-28.983772541955158
9.872,0.999999788652483,-29.191167958117614
9.879999999999999,0.9999997364727881,-29.398577319029
9.888,0.9999996843325895,-29.60600036240406
9.896,0.9999996322562036,-29.81343682604779
9.904,0.9999995802681212,-30.0208864478605
9.911999999999999,0.9999995283930013,-30.22834896584295
9.92,0.9999994766556687,-30.435824118101227
9.928,0.999999425081107,-30.6433116428517
9.936,0.9999993736944562,-30.850811278426104
9.943999999999999,0.9999993225210068,-31.05832276327667
9.952,0.9999992715861951,-31.265845835980983
9.96,0.9999992209155987,-31.473380235247006
9.968,0.9999991705349326,-31.6809256999181
9.975999999999999,0.9999991204700425,-31.88848196897815
9.984,0.9999990707469015,-32.0960487815566
9.992,0.9999990213916049,-32.30362587693321
10.0,0.9999989724303647,-32.5112129945433
10.008,0.9999989238895054,-32.71880987398285
10.016,0.999998875795458,-32.92641625501336
10.024000000000001,0.9999988281747562,-33.134031877566855
10.032,0.9999987810540305,-33.341656481751
10.04,0.9999987344600029,-33.549289807854144
10.048,0.9999986884194828,-33.75693159635037
10.056000000000001,0.9999986429593605,-33.964581587904284
10.064,0.999998598106603,-34.172239523376284
10.072,0.9999985538882482,-34.37990514382754
10.08,0.9999985103314001,-34.587578190525065
10.088000000000001,0.999998467463223,-34.795258404946466
10.096,0.9999984253109357,-35.00294552878527
