freq,mag,phase
6.0,0.9999965847445195,31.23007813740185
6.008,0.999998079496799,30.964996608280813
6.016,0.9999995167055304,30.699734258458264
6.024,1.0,30.434291745541195
6.032,1.0,30.168669732133793
6.04,0.9999999999999999,29.902868885833552
6.048,1.0,29.63688987922728
6.056,1.0,29.370733389886688
6.064,0.9999999999999999,29.104400100363673
6.072,1.0,28.83789069818524
6.08,1.0,28.57120587584813
6.088,1.0,28.30434633081307
6.096,1.0,28.03731276549876
6.104,1.0,27.770105887275424
6.112,1.0,27.502726408458066
6.12,0.9999999999999999,27.235175046299453
6.128,0.9999999999999999,26.967452522982605
6.136,1.0,26.69955956561311
6.144,1.0,26.43149690621096
6.152,0.9999999999999999,26.16326528170211
6.16,1.0,25.89486543390972
6.168,0.9999999999999999,25.626298109544955
6.176,1.0,25.357564060197458
6.184,1.0,25.08866404232563
6.192,1.0,24.8195988172463
6.2,0.9999999999999999,24.550369151124244
6.208,0.9999999999999999,24.28097581496128
6.216,1.0,24.011419584585006
6.224,0.9999999999999999,23.741701240637198
6.232,0.9999999999999999,23.471821568561833
6.24,0.9999999999999999,23.20178135859278
6.248,1.0,22.931581405741163
6.256,0.9999999999999999,22.66122250978227
6.264,1.0,22.39070547524221
6.272,0.9999999999999998,22.120031111384147
6.28,1.0,21.84920023219419
6.288,1.0,21.57821365636698
6.296,1.0,21.3070722072908
6.304,1.0,21.03577671303243
6.312,1.0,20.764328006321602
6.32,1.0,20.492726924535113
6.328,1.0,20.22097430968051
6.336,1.0,19.94907100837954
6.344,0.9999999999999999,19.677017871851117
6.352,1.0,19.404815755893946
6.36,1.0,19.132465520868916
6.368,1.0,18.85996803168092
6.376,0.9999999999999999,18.587324157760502
6.384,1.0,18.314534773045015
6.392,0.9999999999999999,18.041600755959532
6.4,1.0,17.768522989397244
6.408,0.9999999999999999,17.495302360699643
6.416,1.0,17.221939761636307
6.424,1.0,16.94843608838421
6.432,0.9999999999999999,16.674792241506886
6.44,0.9999999999999998,16.401009125933008
6.448,1.0,16.12708765093479
6.456,0.9999999999999999,15.853028730105885
6.464,1.0,15.57883328133906
6.472,0.9999999999999999,15.304502226803397
6.48,1.0,15.030036492921177
6.4879999999999995,0.9999999999999999,14.755437010344508
6.496,0.9999999999999999,14.480704713931269
6.504,0.9999999999999999,14.205840542721354
6.5120000000000005,1.0,13.93084543991162
6.52,0.9999999999999999,13.655720352831509
6.5280000000000005,0.9999999999999999,13.380466232917335
6.536,0.9999999999999999,13.105084035687186
6.5440000000000005,0.9999999999999999,12.829574720714486
6.552,1.0,12.553939251602191
6.5600000000000005,1.0,12.278178595955678
6.568,1.0,12.002293725356253
6.5760000000000005,1.0,11.726285615333312
6.584,0.9999999999999999,11.450155245337182
6.592,0.9999999999999999,11.173903598710604
6.6,1.0,10.89753166266075
6.608,0.9999999999999999,10.62104042823036
6.616,1.0,10.34443089026872
6.624,1.0,10.067704047402275
6.632,1.0,9.79086090200495
6.64,0.9999999999999999,9.513902460168058
6.648,1.0,9.236829731669943
6.656,1.0,8.959643729945267
6.664,1.0,8.682345472053946
6.672,0.9999999999999999,8.404935978649798
6.68,0.9999999999999999,8.12741627394884
6.688,1.0,7.8497873856972555
6.696,1.0,7.572050345139065
6.704,1.0,7.294206186983447
6.712,0.999999591461495,7.016255949371774
6.72,0.9999990127821405,6.738200673844295
6.728,0.9999984351601933,6.460041405306534
6.736,0.9999978589083217,6.181779191995354
6.744,0.9999972843323693,5.903415085444744
6.752,0.9999967117313948,5.624950140451253
6.76,0.9999961413977132,5.346385415039164
6.768,0.9999955736169384,5.067721970425328
6.776,0.9999950086680244,4.788960870983729
6.784,0.9999944468233087,4.510103184209733
6.792,0.9999938883485557,4.231149980684035
6.8,0.999993333502999,3.9521023340363453
6.808,0.9999927825393876,3.6729613209087453
6.816,0.9999922357040276,3.3937280209187954
6.824,0.9999916932368308,3.114403516622315
6.832,0.9999911553713565,2.8349888934759226
6.84,0.9999906223348589,2.5554852397992773
6.848,0.9999900943483347,2.275893646737032
6.856,0.9999895716265673,1.9962152082205407
6.864,0.9999890543781754,1.7164510209292716
6.872,0.9999885428056594,1.4366021842519732
6.88,0.9999880371054518,1.1566698002475468
6.888,0.9999875374679613,0.876654973605696
6.896,0.9999870440776253,0.5965588116072832
6.904,0.999986557112957,0.31638242408445333
6.912,0.9999860767465947,0.036126923380492636
6.92,0.9999856031453539,-0.2442065756905509
6.928,0.9999851364702735,-0.5246169558845095
6.936,0.9999846768766703,-0.8051030975679454
6.944,0.9999842245141864,-1.0856638787592954
6.952,0.9999837795268437,-1.3662981751701824
6.96,0.9999833420530919,-1.6470048602470209
6.968,0.9999829122258638,-1.927782805212815
6.976,0.9999824901726251,-2.2086308791091898
6.984,0.9999820760154271,-2.4895479488386427
6.992,0.999981669870961,-2.770532879207023
7.0,0.9999812718506095,-3.0515845329662215
7.008,0.9999808820605006,-3.332701770857053
7.016,0.9999805006015617,-3.613883451652368
7.024,0.9999801275695724,-3.895128432200365
7.032,0.9999797630552204,-4.176435567468096
7.04,0.9999794071441541,-4.457803710585166
7.048,0.9999790599170392,-4.739231712887619
7.056,0.9999787214496116,-5.020718423962047
7.064,0.9999783918127348,-5.30226269168982
7.072,0.9999780710724537,-5.58386336229158
7.08,0.9999777592900507,-5.865519280371809
7.088,0.9999774565221021,-6.147229288963681
7.096,0.999977162820534,-6.428992229573979
7.104,0.9999768782326771,-6.710806942228261
7.112,0.9999766028013259,-6.992672265516125
7.12,0.9999763365647932,-7.274587036636659
7.128,0.9999760795569683,-7.556550091444054
7.136,0.9999758318073724,-7.838560264493316
7.144,0.9999755933412173,-8.120616389086203
7.152,0.9999753641794626,-8.402717297317183
7.16,0.9999751443388718,-8.6848618201197
7.168,0.9999749338320716,-8.967048787312352
7.176,0.9999747326676084,-9.249277027645403
7.184,0.9999745408500069,-9.531545368847302
7.192,0.9999743583798283,-9.813852637671312
7.2,0.9999741852537269,-10.096197659942312
7.208,0.9999740214645096,-10.378579260603724
7.216,0.9999738670011942,-10.66099626376443
7.224,0.9999737218490664,-10.943447492745893
7.232,0.9999735859897405,-11.225931770129376
7.24,0.9999734594012151,-11.508447917803183
7.248,0.9999733420579335,-11.790994757010063
7.256,0.9999732339308421,-12.073571108394605
7.264,0.9999731349874489,-12.35617579205083
7.272,0.9999730451918803,-12.638807627569765
7.28,0.9999729645049431,-12.92146543408711
7.288,0.9999728928841803,-13.204148030331025
7.296,0.9999728302839319,-13.48685423466981
7.304,0.9999727766553911,-13.769582865159961
7.312,0.9999727319466652,-14.052332739593874
7.32,0.999972696102834,-14.335102675547894
7.328,0.9999726690660063,-14.617891490430356
7.336,0.999972650775381,-14.900698001529516
7.344,0.9999726411673044,-15.183521026061712
7.352,0.9999726401753283,-15.466359381219394
7.36,0.9999726477302695,-15.7492118842193
7.368,0.9999726637602672,-16.032077352350555
7.376,0.9999726881908412,-16.314954603022848
7.384,0.999972720944951,-16.59784245381462
7.392,0.9999727619430532,-16.8807397225212
7.4,0.9999728111031588,-17.163645227202966
7.4079999999999995,0.9999728683408929,-17.44655778623357
7.416,0.9999729335695501,-17.729476218348164
7.4239999999999995,0.9999730067001539,-18.012399342691246
7.432,0.9999730876415132,-18.295325978865293
7.4399999999999995,0.9999731763002802,-18.5782549469783
7.448,0.9999732725810068,-18.86118506769248
7.4559999999999995,0.9999733763862024,-19.144115162271667
7.464,0.9999734876163907,-19.427044052629967
7.4719999999999995,0.999973606170165,-19.70997056137921
7.48,0.9999737319442464,-19.99289351187734
7.4879999999999995,0.9999738648335393,-20.275811728275837
7.496,0.9999740047311877,-20.55872403556807
7.504,0.9999741515286298,-20.84162925963652
7.5120000000000005,0.999974305115656,-21.124526227301054
7.52,0.9999744653804622,-21.407413766366034
7.5280000000000005,0.9999746322097062,-21.690290705668406
7.536,0.9999748054885622,-21.973155875124675
7.5440000000000005,0.9999749851007749,-22.256008105778893
7.552,0.999975170928716,-22.538846229849398
7.5600000000000005,0.9999753628534355,-22.821669080776644
7.568,0.9999755607547178,-23.1044754932698
7.5760000000000005,0.9999757645111351,-23.387264303354314
7.584,0.9999759740000994,-23.670034348418387
7.5920000000000005,0.9999761890979167,-23.9527844672603
7.6,0.9999764096798401,-24.235513500134644
7.6080000000000005,0.9999766356201214,-24.51822028879944
7.616,0.999976866792063,-24.80090367656214
7.6240000000000006,0.999977103068071,-25.0835625083265
7.632,0.999977344319706,-25.366195630638334
7.640000000000001,0.9999775904177339,-25.64880189173211
7.648,0.9999778412321775,-25.931380141576422
7.656000000000001,0.9999780966323666,-26.213929231920346
7.664,0.9999783564869874,-26.496448016338636
7.672,0.9999786206641347,-26.778935350277692
7.68,0.9999788890313581,-27.06139009110064
7.688,0.9999791614557135,-27.343811098132715
7.696,0.999979437803811,-27.62619723270626
7.704,0.9999797179418629,-27.90854735820568
7.712,0.9999800017357316,-28.19086034011216
7.72,0.9999802890509776,-28.473135046048174
7.728,0.9999805797529068,-28.755370345821937
7.736,0.999980873706616,-29.037565111471586
7.744,0.9999811707770406,-29.31971821730914
7.752,0.9999814708289998,-29.60182853996441
7.76,0.9999817737272415,-29.883894958428552
7.768,0.9999820793364889,-30.165916354097554
7.776,0.9999823875214834,-30.44789161081549
7.784,0.99998269814703,-30.72981961491744
7.792,0.9999830110780398,-31.01169925527245
7.8,0.9999833261795753,-31.29352942332603
7.808,0.9999836433168906,-31.575309013142657
7.816,0.9999839623554757,-31.857036921447836
7.824,0.9999842831610977,-32.13871204767014
7.832,0.9999846055998423,-32.42033329398292
7.84,0.9999849295381544,-32.701899565345734
7.848,0.9999852548428795,-32.98340976954574
7.856,0.9999855813813027,-33.26486281723861
7.864,0.9999859090211886,-33.546257621989376
7.872,0.9999862376308207,-33.827593100312974
7.88,0.9999865670790391,-34.10886817171456
7.888,0.9999868972352798,-34.390081758729465
7.896,0.9999872279696104,-34.67123278696315
7.904,0.9999875591527689,-34.95232018513064
7.912,0.9999878906561993,-35.23334288509578
7.92,0.9999882223520883,-35.51429982191042
7.928,0.9999885541133993,-35.795189933852974
7.936,0.9999888858139093,-36.076012162467045
7.944,0.9999892173282422,-36.3567654525996
7.952,0.9999895485319028,-36.63744875243893
7.96,0.9999898793013108,-36.918061013552254
7.968,0.9999902095138329,-37.19860119092322
7.976,0.999990539047816,-37.47906824298891
7.984,0.9999908677826178,-37.75946113167673
7.992,0.9999911955986395,-38.03977882244094
8.0,0.9999915223773559,-38.32002028429884
8.008,0.9999918480013451,-38.60018448986677
8.016,0.999992172354319,-38.88027041539586
8.024000000000001,0.9999924953211519,-39.16027704080715
8.032,0.9999928167879092,-39.440203349726794
8.04,0.9999931366418753,-39.720048329520935
8.048,0.9999934547715815,-39.99981097133007
8.056000000000001,0.999993771066832,-40.27949027010299
8.064,0.9999940854187312,-40.559085224630834
8.072,0.9999943977197093,-40.838594837580686
8.08,0.9999947078635468,-41.11801811552867
8.088000000000001,0.9999950157454003,-41.39735406899272
8.096,0.9999953212618256,-41.676601712465306
8.104,0.9999956243108018,-41.95576006444582
8.112,0.9999959247917544,-42.2348281474723
8.120000000000001,0.9999962226055775,-42.51380498815307
8.128,0.9999965176546559,-42.79268961719799
8.136,0.9999968098428856,-43.071481069449725
8.144,0.9999970990756962,-43.35017838391403
8.152000000000001,0.9999973852600691,-43.62878060379017
8.16,0.9999976683045588,-43.90728677650078
8.168,0.9999979481193108,-44.18569595372181
8.176,0.9999982246160809,-44.464007191411625
8.184000000000001,0.9999984977082529,-44.742219549839774
8.192,0.9999987673108555,-45.02033209361592
8.2,0.9999990333405794,-45.29834389171804
8.208,0.9999992957157946,-45.57625401752042
8.216000000000001,0.9999995543565637,-45.85406154882099
8.224,0.9999998091846597,-46.131765567868854
8.232,1.0,-46.40936516139116
8.24,0.9999999999999999,-46.68685942061968
8.248000000000001,1.0,-46.96424744131689
8.256,0.9999999999999999,-47.24152832380184
8.264,1.0,-47.518701172975945
8.272,1.0,-47.79576509834798
8.280000000000001,1.0,-48.072719214058786
8.288,1.0,-48.34956263890584
8.296,0.9999999999999999,-48.62629449636749
8.304,0.9999999999999999,-48.9029139146267
8.312,0.9999999999999999,-49.17942002659408
8.32,1.0,-49.45581196993154
8.328,1.0,-49.73208888707447
8.336,1.0,-50.00824992525448
8.344,1.0,-50.28429423652102
8.352,0.9999999999999999,-50.5602209777634
8.36,1.0000000000000002,-50.836029310731625
8.368,1.0,-51.111718402057825
8.376,1.0,-51.38728742327623
8.384,1.0,-51.662735550843955
8.392,0.9999999999999998,-51.938061966160284
8.4,1.0000000000000002,-52.213265855586705
8.408,1.0,-52.48834641046547
8.416,0.9999999999999999,-52.763302827138894
8.424,0.9999999999999999,-53.03813430696727
8.432,0.9999999999999999,-53.31284005634742
8.44,1.0,-53.5874192867298
8.448,1.0,-53.86187121463642
8.456,1.0,-54.136195061677334
8.464,1.0,-54.4103900545676
8.472,0.9999999999999999,-54.684455425143256
8.48,1.0,-54.9583904103775
8.488,1.0,-55.23219425239583
8.496,1.0,-55.50586619849175
8.504,1.0,-55.779405501141035
8.512,1.0,-56.05281141801674
8.52,1.0,-56.32608321200275
8.528,0.9999999999999999,-56.599220151208094
8.536,0.9999999999999999,-56.87222150897986
8.544,0.9999999999999999,-57.14508656391665
8.552,1.0000000000000002,-57.41781459988087
8.56,0.9999999999999999,-57.690404906011516
8.568,0.9999999999999999,-57.96285677673566
8.576,1.0,-58.23516951178065
8.584,0.9999999999999999,-58.50734241618476
8.592,1.0,-58.7793748003088
8.6,0.9999999999999999,-59.05126597984607
8.608,1.0,-59.323015275833136
8.616,1.0,-59.594622014659265
8.624,1.0,-59.866085528076404
8.632,0.9999999999999998,-60.13740515320795
8.64,0.9999999999999999,-60.408580232558
8.648,1.0,-60.67961011401952
8.656,1.0,-60.950494150882875
8.664,1.0,-61.22123170184327
8.672,1.0,-61.49182213100865
8.68,1.0,-61.76226480790643
8.688,1.0,-62.032559107490776
8.696,1.0,-62.302704410148614
8.704,1.0,-62.57270010170624
8.712,1.0,-62.842545573434684
8.72,1.0,-63.112240222055675
8.728,1.0,-63.38178344974629
8.736,1.0,-63.651174664144264
8.744,0.9999999999999999,-63.92041327835212
8.752,1.0,-64.18949871094162
8.76,1.0,-64.4584303859573
8.768,1.0,-64.72720773292049
8.776,1.0,-64.99583018683191
8.784,0.9999999999999999,-65.26429718817516
8.792,1.0,-65.5326081829188
8.8,1.0,-65.80076262251903
8.808,1.0,-66.06875996392122
8.815999999999999,1.0,-66.33659966956195
8.824,1.0,-66.6042812073701
8.832,1.0,-66.87180405076785
8.84,1.0,-67.13916767867146
8.847999999999999,0.9999999999999999,-67.40637157549172
8.856,1.0,-67.67341523113409
8.864,0.9999999999999999,-67.94029814099822
8.872,1.0,-68.20701980597775
8.879999999999999,1.0,-68.47357973245944
8.888,0.9999999999999999,-68.73997743232214
8.896,1.0,-69.00621242293515
8.904,1.0,-69.27228422715679
8.911999999999999,1.0,-69.53819237333249
8.92,1.0,-69.80393639529242
8.928,0.9999999999999999,-70.0695158323489
8.936,0.9999999999999999,-70.33493022929362
8.943999999999999,1.0,-70.60017913639473
8.952,1.0,-70.86526210939334
8.96,1.0,-71.13017870949976
8.968,1.0000000000000002,-71.39492850338966
8.975999999999999,0.9999999999999998,-71.65951106320004
8.984,0.9999999999999999,-71.92392596652464
8.992,1.0,-72.18817279640903
9.0,1.0,-72.45225114134587
9.008,1.0,-72.71616059526963
9.016,1.0,-72.97990075755102
9.024000000000001,0.9999999999999999,-73.24347123299113
9.032,1.0,-73.50687163181544
9.04,1.0,-73.77010156966772
9.048,0.9999999999999999,-74.03316066760333
9.056000000000001,0.9999998337166345,-74.29604855208231
9.064,0.9999996120882723,-74.55876485496258
9.072,0.9999993882939583,-74.8213092134926
9.08,0.9999991624226755,-75.08368127030387
9.088000000000001,0.9999989345640755,-75.345880673403
9.096,0.9999987048084541,-75.6079070761639
9.104,0.9999984732467242,-75.86976013731953
9.112,0.9999982399703907,-76.13143952095349
9.120000000000001,0.9999980050715257,-76.3929448964911
9.128,0.9999977686427417,-76.65427593869062
9.136,0.9999975307771657,-76.91543232763425
9.144,0.9999972915684143,-77.17641374871862
9.152000000000001,0.999997051110566,-77.4372198926451
9.16,0.9999968094981373,-77.69785045541016
9.168,0.9999965668260542,-77.95830513829534
9.176,0.9999963231896283,-78.21858364785705
9.184000000000001,0.9999960786845287,-78.4786856959159
9.192,0.9999958334067569,-78.73861099954625
9.2,0.9999955874526206,-78.9983592810654
9.208,0.9999953409187059,-79.25793026802248
9.216000000000001,0.9999950939018538,-79.51732369318702
9.224,0.9999948464991305,-79.77653929453764
9.232,0.9999945988078036,-80.03557681525051
9.24,0.999994350925315,-80.2944360036874
9.248000000000001,0.9999941029492536,-80.55311661338351
9.256,0.9999938549773306,-80.81161840303533
9.264,0.9999936071073517,-81.06994113648848
9.272,0.9999933594371915,-81.32808458272484
9.280000000000001,0.9999931120647676,-81.58604851584975
9.288,0.9999928650880132,-81.84383271507919
9.296,0.9999926186048517,-82.10143696472666
9.304,0.9999923727131695,-82.35886105418994
9.312000000000001,0.9999921275107921,-82.61610477793735
9.32,0.9999918830954548,-82.87316793549435
9.328,0.999991639564779,-83.1300503314297
9.336,0.9999913970162456,-83.3867517753416
9.344,0.9999911555471679,-83.64327208184314
9.352,0.999990915254667,-83.89961107054863
9.36,0.9999906762356461,-84.15576856605858
9.368,0.9999904385867628,-84.41174439794563
9.376,0.9999902024044065,-84.66753840073926
9.384,0.9999899677846692,-84.9231504139115
9.392,0.9999897348233232,-85.17858028186127
9.4,0.9999895036157932,-85.43382785389983
9.408,0.9999892742571328,-85.68889298423483
9.416,0.999989046841998,-85.94377553195545
9.424,0.9999888214646221,-86.19847536101626
9.432,0.9999885982187917,-86.452992340222
9.44,0.9999883771978207,-86.70732634321118
9.448,0.9999881584945267,-86.96147724844072
9.456,0.999987942201204,-87.21544493916917
9.464,0.9999877284096018,-87.4692293034411
9.472,0.9999875172108973,-87.72283023407017
9.48,0.999987308695674,-87.97624762862317
9.488,0.999987102953895,-88.22948138940295
9.496,0.9999869000748803,-88.48253142343218
9.504,0.9999867001472829,-88.73539764243608
9.512,0.9999865032590649,-88.9880799628259
9.52,0.9999863094974734,-89.24057830568147
9.528,0.9999861189490175,-89.49289259673454
9.536,0.9999859316994462,-89.74502276635098
9.544,0.999985747833722,-89.99696874951405
9.552,0.9999855674360021,-90.24873048580633
9.56,0.9999853905896129,-90.50030791939278
9.568,0.999985217377028,-90.7517009990026
9.576,0.9999850478798464,-91.00290967791192
9.584,0.9999848821787692,-91.25393391392562
9.592,0.9999847203535787,-91.50477366935986
9.6,0.9999845624831156,-91.75542891102366
9.608,0.9999844086452584,-92.00589961020124
9.616,0.9999842589169006,-92.25618574263346
9.624,0.999984113373931,-92.50628728850012
9.632,0.9999839720912107,-92.75620423240115
9.64,0.999983835142555,-93.00593656333866
9.648,0.999983702600709,-93.25548427469819
9.656,0.9999835745373311,-93.50484736423051
9.664,0.99998345102297,-93.75402583403272
9.672,0.9999833321270464,-94.00301969052998
9.68,0.9999832179178322,-94.25182894445646
9.688,0.9999831084624312,-94.50045361083697
9.696,0.99998300382676,-94.74889370896769
9.704,0.9999829040755291,-94.99714926239778
9.712,0.9999828092722237,-95.2452202989101
9.72,0.999982719479085,-95.49310685050251
9.728,0.9999826347570927,-95.74080895336856
9.736,0.9999825551659455,-95.98832664787878
9.744,0.9999824807640444,-96.23565997856119
9.752,0.9999824116084746,-96.48280899408256
9.76,0.9999823477549885,-96.72977374722876
9.768,0.9999822892579882,-96.976554294886
9.776,0.999982236170508,-97.22315069802112
9.784,0.9999821885442004,-97.46956302166271
9.792,0.9999821464293166,-97.71579133488133
9.8,0.9999821098746923,-97.96183571077063
9.808,0.9999820789277315,-98.20769622642744
9.816,0.999982053634391,-98.45337296293293
9.824,0.999982034039165,-98.69886600533248
9.832,0.9999820201850708,-98.94417544261691
9.84,0.9999820121136329,-99.18930136770241
9.847999999999999,0.9999820098648696,-99.43424387741145
9.856,0.9999820134772797,-99.67900307245307
9.864,0.9999820229878258,-99.92357905740326
9.872,0.9999820384319239,-100.16797194068549
