freq,mag,phase
6.0,0.9999979962518469,-153.30807683257612
6.008,0.9999983165135023,-153.6192961119522
6.016,0.9999986226303712,-153.9300975216569
6.024,0.9999989149346052,-154.24048588572035
6.032,0.9999991937529513,-154.55046602110673
6.04,0.9999994594068182,-154.86004273772647
6.048,0.9999997122123416,-155.16922083845088
6.056,0.9999999524804484,-155.4780051191298
6.064,1.0,-155.78640036861196
6.072,1.0,-156.0944113687684
6.08,1.0,-156.40204289451802
6.088,1.0,-156.70929971385624
6.096,0.9999999999999999,-157.01618658788598
6.104,1.0,-157.32270827085134
6.112,1.0,-157.62886951017364
6.12,0.9999999999999999,-157.93467504648996
6.128,0.9999999999999999,-158.24012961369402
6.136,1.0,-158.54523793897965
6.144,1.0,-158.85000474288597
6.152,1.0,-159.15443473934567
6.16,0.9999999999999998,-159.45853263573477
6.168,1.0,-159.76230313292484
6.176,0.9999999999999999,-160.06575092533743
6.184,1.0,-160.36888070100062
6.192,0.9999999999999999,-160.67169714160715
6.2,1.0,-160.9742049225753
6.208,1.0,-161.276408713111
6.216,0.9999999999999998,-161.57831317627256
6.224,1.0,-161.87992296903653
6.232,0.9999999999999999,-162.1812427423662
6.24,1.0,-162.4822771412814
6.248,1.0,-162.7830308049302
6.256,0.9999999999999999,-163.08350836666227
6.264,0.9999999999999999,-163.38371445410442
6.272,0.9999999999999999,-163.68365368923708
6.28,0.9999999999999999,-163.983330688473
6.288,1.0,-164.28275006273728
6.296,0.9999999999999999,-164.5819164175492
6.304,1.0,-164.88083435310526
6.312,1.0,-165.17950846436403
6.32,0.9999999999999999,-165.4779433411325
6.328,1.0,-165.77614356815351
6.336,1.0,-166.07411372519513
6.344,1.0,-166.37185838714095
6.352,1.0,-166.6693821240822
6.36,0.9999999999999999,-166.96668950141074
6.368,0.9999999999999999,-167.2637850799137
6.376,0.9999999999999999,-167.56067341586933
6.384,1.0,-167.85735906114397
6.392,0.9999999999999999,-168.15384656329041
6.4,1.0,-168.45014046564745
6.408,1.0,-168.74624530744057
6.416,1.0,-169.04216562388368
6.424,1.0,-169.3379059462822
6.432,0.9999999999999999,-169.63347080213717
6.44,1.0,-169.92886471525037
6.448,1.0,-170.22409220583057
6.456,1.0,-170.51915779060084
6.464,1.0,-170.8140659829068
6.472,0.9999999999999999,-171.10882129282595
6.48,0.9999999999999999,-171.40342822727783
6.4879999999999995,1.0,-171.6978912901354
6.496,1.0,-171.9922149823372
6.504,0.9999999999999999,-172.28640380200008
6.5120000000000005,1.0,-172.58046224453366
6.52,0.9999999999999998,-172.8743948027546
6.5280000000000005,1.0,-173.16820596700285
6.536,1.0,-173.46190022525758
6.5440000000000005,1.0,-173.75548206325502
6.552,0.9999999999999999,-174.0489559646062
6.5600000000000005,0.9999999999999999,-174.34232641091606
6.568,1.0,-174.63559788190298
6.5760000000000005,0.9999999861100598,-174.92877485551932
6.584,0.9999998747032304,-175.22186180807225
6.592,0.9999997626213748,-175.51486321434604
6.6,0.999999649943837,-175.8077835477241
6.608,0.9999995367479597,-176.10062728031244
6.616,0.9999994231091158,-176.3933988830635
6.624,0.9999993091007378,-176.6861028259005
6.632,0.9999991947943475,-176.97874357784275
6.64,0.999999080259586,-177.27132560713113
6.648,0.999998965564242,-177.56385338135465
6.656,0.999998850774281,-177.85633136757718
6.664,0.9999987359538745,-178.14876403246492
6.672,0.9999986211654245,-178.44115584241442
6.68,0.9999985064695961,-178.7335112636811
6.688,0.9999983919253413,-179.02583476250837
6.696,0.999998277589927,-179.31813080525706
6.704,0.9999981635189616,-179.61040385853548
6.712,0.999998049766421,-179.90265838933004
6.72,0.9999979363846756,179.8051011348639
6.728,0.9999978234245149,179.51287024591062
6.736,0.9999977109351729,179.2206444749021
6.744,0.9999975989643543,178.9284193520258
6.752,0.9999974875582555,178.63619040643206
6.76,0.9999973767615945,178.34395316610102
6.768,0.9999972666176317,178.05170315770908
6.776,0.9999971571681939,177.75943590649527
6.784,0.9999970484536975,177.46714693612705
6.792,0.999996940513173,177.17483176856578
6.8,0.9999968333842865,176.88248592393202
6.808,0.9999967271033637,176.59010492037038
6.816,0.999996621705411,176.29768427391414
6.824,0.9999965172241375,176.00521949834962
6.832,0.9999964136919793,175.71270610508014
6.84,0.9999963111401161,175.4201396029899
6.848,0.9999962095984964,175.12751549830753
6.856,0.999996109095859,174.83482929446947
6.864,0.9999960096597502,174.54207649198304
6.872,0.9999959113165456,174.2492525882893
6.88,0.9999958140914724,173.956353077626
6.888,0.9999957180086264,173.66337345089008
6.896,0.9999956230909935,173.37030919549989
6.904,0.9999955293604674,173.07715579525765
6.912,0.999995436837872,172.7839087302116
6.92,0.9999953455429754,172.49056347651796
6.928,0.9999952554945134,172.19711550630277
6.936,0.9999951667102053,171.90356028752396
6.944,0.9999950792067722,171.60989328383283
6.952,0.9999949929999565,171.3161099544359
6.96,0.9999949081045367,171.02220575395646
6.968,0.9999948245343493,170.72817613229645
6.976,0.999994742302302,170.43401653449777
6.984,0.999994661420393,170.13972240060394
6.992,0.9999945818997271,169.84528916552185
7.0,0.9999945037505338,169.55071225888332
7.008,0.9999944269821803,169.2559871049068
7.016,0.9999943516031913,168.96110912225907
7.024,0.9999942776212639,168.66607372391726
7.032,0.9999942050432827,168.37087631703054
7.04,0.9999941338753368,168.07551230278224
7.048,0.9999940641227326,167.77997707625212
7.056,0.9999939957900125,167.48426602627853
7.064,0.9999939288809685,167.18837453532092
7.072,0.9999938633986558,166.89229797932242
7.08,0.999993799345409,166.59603172757284
7.088,0.9999937367228572,166.2995711425715
7.096,0.9999936755319342,166.00291157989068
7.104,0.9999936157728997,165.70604838803902
7.112,0.9999935574453466,165.40897690832537
7.12,0.999993500548218,165.11169247472284
7.128,0.9999934450798207,164.81419041373331
7.136,0.9999933910378377,164.51646604425187
7.144,0.999993338419343,164.21851467743215
7.152,0.9999932872208125,163.92033161655166
7.16,0.9999932374381387,163.6219121568774
7.168,0.999993189066643,163.3232515855325
7.176,0.9999931421010881,163.0243451813624
7.184,0.9999930965356914,162.7251882148023
7.192,0.9999930523641354,162.42577594774463
7.2,0.9999930095795829,162.12610363340704
7.208,0.9999929681746842,161.8261665162011
7.216,0.9999929281415951,161.5259598316014
7.224,0.9999928894719854,161.2254788060153
7.232,0.9999928521570476,160.92471865665323
7.24,0.9999928161875145,160.62367459139952
7.248,0.999992781553667,160.3223418086841
7.256,0.9999927482453442,160.02071549735473
7.264,0.9999927162519578,159.71879083654989
7.272,0.9999926855625002,159.4165629955725
7.28,0.9999926561655559,159.11402713376424
7.288,0.9999926280493138,158.81117840038087
7.296,0.9999926012015762,158.5080119344683
7.304,0.9999925756097686,158.20452286473935
7.312,0.9999925512609524,157.90070630945138
7.32,0.9999925281418328,157.59655737628523
7.328,0.9999925062387696,157.29207116222452
7.336,0.999992485537787,156.98724275343633
7.344,0.9999924660245851,156.6820672251527
7.352,0.9999924476845463,156.37653964155325
7.36,0.9999924305027479,156.0706550556487
7.368,0.9999924144639709,155.7644085091658
7.376,0.9999923995527072,155.45779503243304
7.384,0.999992385753173,155.15080964426795
7.392,0.9999923730493137,154.84344735186505
7.4,0.9999923614248154,154.53570315068572
7.4079999999999995,0.9999923508631152,154.22757202434877
7.416,0.9999923413474054,153.91904894452261
7.4239999999999995,0.999992332860647,153.61012887081912
7.432,0.9999923253855768,153.30080675068797
7.4399999999999995,0.9999923189047143,152.99107751931368
7.448,0.9999923134003732,152.68093609951285
7.4559999999999995,0.9999923088546668,152.37037740163422
7.464,0.9999923052495197,152.0593963234591
7.4719999999999995,0.9999923025666725,151.74798775010467
7.48,0.9999923007876916,151.43614655392753
7.4879999999999995,0.999992299893979,151.12386759443052
7.496,0.9999922998667773,150.81114571816988
7.504,0.9999923006871786,150.49797575866563
7.5120000000000005,0.9999923023361333,150.18435253631228
7.52,0.9999923047944557,149.87027085829303
7.5280000000000005,0.9999923080428358,149.55572551849468
7.536,0.9999923120618417,149.2407112974256
7.5440000000000005,0.9999923168319306,148.9252229621347
7.552,0.999992322333455,148.60925526613383
7.5600000000000005,0.9999923285466703,148.29280294932104
7.568,0.9999923354517426,147.97586073790734
7.5760000000000005,0.999992343028755,147.65842334434464
7.584,0.9999923512577146,147.34048546725725
7.5920000000000005,0.9999923601185613,147.02204179137468
7.6,0.9999923695911727,146.7030869874678
7.6080000000000005,0.9999923796553732,146.38361571228702
7.616,0.9999923902909387,146.06362260850364
7.6240000000000006,0.999992401477605,145.74310230465318
7.632,0.999992413195074,145.42204941508237
7.640000000000001,0.9999924254230206,145.1004585398981
7.648,0.999992438141099,144.7783242649201
7.656000000000001,0.9999924513289498,144.45564116163564
7.664,0.9999924649662061,144.13240378715858
7.672,0.9999924790324999,143.8086066841901
7.68,0.9999924935074695,143.48424438098394
7.688,0.9999925083707653,143.15931139131393
7.696,0.9999925236020543,142.8338022144456
7.704,0.9999925391810303,142.5077113351108
7.712,0.9999925550874165,142.18103322348594
7.72,0.9999925713009732,141.8537623351741
7.728,0.9999925878015049,141.5258931111904
7.736,0.9999926045688632,141.19741997795154
7.744,0.9999926215829571,140.868337347269
7.752,0.9999926388237551,140.53863961634627
7.76,0.9999926562712933,140.2083211677802
7.768,0.9999926739056813,139.87737636956638
7.776,0.9999926917071074,139.5457995751086
7.784,0.9999927096558434,139.21358512323326
7.792,0.9999927277322532,138.88072733820755
7.8,0.9999927459167958,138.54722052976243
7.808,0.9999927641900317,138.21305899312037
7.816,0.9999927825326299,137.87823700902763
7.824,0.9999928009253716,137.54274884379143
7.832,0.999992819349157,137.20658874932224
7.84,0.9999928377850095,136.8697509631808
7.848,0.9999928562140836,136.53222970863078
7.856,0.9999928746176676,136.19401919469618
7.864,0.9999928929771909,135.8551136162245
7.872,0.9999929112742283,135.5155071539555
7.88,0.9999929294905057,135.1751939745951
7.888,0.999992947607906,134.83416823089559
7.896,0.9999929656084732,134.49242406174133
7.904,0.9999929834744185,134.14995559224067
7.912,0.9999930011881253,133.80675693382383
7.92,0.9999930187321542,133.46282218434712
7.928,0.999993036089248,133.11814542820355
7.936,0.9999930532423379,132.7727207364398
7.944,0.9999930701745463,132.4265421668801
7.952,0.9999930868691946,132.07960376425652
7.96,0.999993103309806,131.7318995603465
7.968,0.9999931194801116,131.3834235741174
7.976,0.9999931353640549,131.03416981187777
7.984,0.9999931509457971,130.68413226743675
7.992,0.9999931662097212,130.33330492227026
8.0,0.9999931811404383,129.9816817456951
8.008,0.9999931957227903,129.62925669505094
8.016,0.9999932099418571,129.27602371588966
8.024000000000001,0.9999932237829589,128.92197674217385
8.032,0.9999932372316631,128.5671096964824
8.04,0.9999932502737873,128.21141649022496
8.048,0.9999932628954057,127.85489102386501
8.056000000000001,0.9999932750828514,127.49752718715175
8.064,0.9999932868227233,127.13931885936046
8.072,0.9999932981018895,126.78025990954198
8.08,0.9999933089074917,126.42034419678171
8.088000000000001,0.99999331922695,126.0595655704677
8.096,0.9999933290479678,125.69791787056845
8.104,0.9999933383585355,125.33539492791995
8.112,0.9999933471469357,124.97199056452318
8.120000000000001,0.9999933554017457,124.60769859385164
8.128,0.9999933631118455,124.24251282116855
8.136,0.9999933702664178,123.87642704385492
8.144,0.9999933768549553,123.50943505174801
8.152000000000001,0.9999933828672635,123.14153062749106
8.16,0.999993388293466,122.77270754689316
8.168,0.999993393124007,122.40295957930076
8.176,0.9999933973496573,122.03228048798034
8.184000000000001,0.9999934009615172,121.66066403051306
8.192,0.9999934039510209,121.28810395920046
8.2,0.9999934063099396,120.91459402148224
8.208,0.9999934080303877,120.54012796036632
8.216000000000001,0.999993409104825,120.16469951487139
8.224,0.9999934095260603,119.7883024204814
8.232,0.9999934092872563,119.41093040961282
8.24,0.9999934083819328,119.03257721209522
8.248000000000001,0.9999934068039713,118.65323655566478
8.256,0.9999934045476169,118.27290216647074
8.264,0.9999934016074841,117.89156776959544
8.272,0.9999933979785589,117.50922708958835
8.280000000000001,0.9999933936562032,117.12587385101388
8.288,0.999993388636157,116.74150177901313
8.296,0.9999933829145448,116.35610459987979
8.304,0.9999933764878748,115.9696760416509
8.312,0.9999933693530462,115.58220983471242
8.32,0.99999336150735,115.19369971241893
8.328,0.9999933529484726,114.80413941172964
8.336,0.9999933436745003,114.41352267385831
8.344,0.9999933336839214,114.02184324494024
8.352,0.9999933229756287,113.62909487671344
8.36,0.9999933115489236,113.23527132721725
8.368,0.9999932994035187,112.84036636150572
8.376,0.9999932865395393,112.44437375237855
8.384,0.9999932729575295,112.04728728112755
8.392,0.9999932586584506,111.64910073830079
8.4,0.999993243643687,111.2498079244828
8.408,0.9999932279150476,110.84940265109289
8.416,0.9999932114747688,110.44787874119986
8.424,0.9999931943255148,110.04523003035523
8.432,0.9999931764703829,109.64145036744331
8.44,0.999993157912904,109.23653361555009
8.448,0.9999931386570446,108.83047365284938
8.456,0.9999931187072101,108.4232643735084
8.464,0.9999930980682448,108.01489968861056
8.472,0.9999930767454361,107.60537352709832
8.48,0.9999930547445146,107.19467983673367
8.488,0.9999930320716556,106.78281258507899
8.496,0.9999930087334815,106.36976576049567
8.504,0.9999929847370639,105.9555333731638
8.512,0.9999929600899223,105.54010945611986
8.52,0.9999929348000286,105.12348806631562
8.528,0.999992908875805,104.70566328569556
8.536,0.9999928823261282,104.28662922229587
8.544,0.9999928551603269,103.86638001136203
8.552,0.9999928273881862,103.4449098164885
8.56,0.9999927990199442,103.02221283077724
8.568,0.9999927700662962,102.59828327801849
8.576,0.9999927405383916,102.17311541389068
8.584,0.9999927104478376,101.74670352718306
8.592,0.9999926798066963,101.31904194103745
8.6,0.9999926486274865,100.89012501421298
8.608,0.9999926169231816,100.45994714237031
8.616,0.9999925847072116,100.02850275937888
8.624,0.9999925519934604,99.5957863386439
8.632,0.9999925187962669,99.1617923944565
8.64,0.9999924851304222,98.72651548336376
8.648,0.9999924510111693,98.28995020556212
8.656,0.9999924164542038,97.85209120631072
8.664,0.9999923814756688,97.41293317736817
8.672,0.9999923460921571,96.97247085844937
8.68,0.9999923103207063,96.53069903870582
8.688,0.9999922741787992,96.08761255822604
8.696,0.9999922376843597,95.64320630955946
8.704,0.9999922008557529,95.19747523926033
8.712,0.9999921637117801,94.75041434945516
8.72,0.9999921262716776,94.30201869943019
8.728,0.9999920885551128,93.85228340724214
8.736,0.9999920505821822,93.40120365134885
8.744,0.9999920123734077,92.94877467226331
8.752,0.9999919739497309,92.49499177422724
8.76,0.9999919353325138,92.03985032690778
8.768,0.9999918965435303,91.58334576711367
8.776,0.999991857604964,91.12547360053419
8.784,0.9999918185394039,90.66622940349738
8.792,0.9999917793698386,90.20560882475061
8.8,0.9999917401196531,89.74360758726004
8.808,0.9999917008126216,89.28022149003222
8.815999999999999,0.9999916614729029,88.81544640995412
8.824,0.9999916221250349,88.34927830365413
8.832,0.9999915827939282,87.88171320938272
8.84,0.9999915435048613,87.41274724891188
8.847999999999999,0.9999915042834704,86.94237662945362
8.856,0.9999914651557474,86.47059764559783
8.864,0.9999914261480297,85.99740668126829
8.872,0.9999913872869937,85.5228002116965
8.879999999999999,0.9999913485996477,85.04677480541307
8.888,0.9999913101133228,84.56932712625678
8.896,0.9999912718556667,84.09045393540059
8.904,0.9999912338546332,83.6101520933935
8.911999999999999,0.9999911961384745,83.12841856221833
8.92,0.9999911587357325,82.64525040736545
8.928,0.9999911216752293,82.16064479992126
8.936,0.9999910849860559,81.67459901867073
8.943999999999999,0.9999910486975655,81.18711045221369
8.952,0.9999910128393606,80.69817660109464
8.96,0.9999909774412832,80.20779507994527
8.968,0.9999909425334047,79.71596361963849
8.975999999999999,0.9999909081460139,79.2226800694535
8.984,0.9999908743096063,78.72794239925216
8.992,0.9999908410548715,78.2317487016649
9.0,0.9999908084126816,77.73409719428548
9.008,0.9999907764140794,77.23498622187397
9.016,0.9999907450902642,76.73441425856758
9.024000000000001,0.9999907144725808,76.23237991009835
9.032,0.999990684592504,75.72888191601591
9.04,0.999990655481627,75.22391915191542
9.048,0.9999906271716466,74.7174906316697
9.056000000000001,0.9999905996943479,74.20959550966455
9.064,0.9999905730815921,73.70023308303551
9.072,0.9999905473652991,73.18940279390581
9.08,0.9999905225774349,72.67710423162474
9.088000000000001,0.9999904987499939,72.16333713500482
9.096,0.9999904759149837,71.64810139455655
9.104,0.99999045410441,71.13139705471977
9.112,0.9999904333502598,70.61322431609109
9.120000000000001,0.9999904136844836,70.09358353764564
9.128,0.9999903951389798,69.57247523895164
9.136,0.9999903777455775,69.04990010237685
9.144,0.9999903615360176,68.52585897528614
9.152000000000001,0.9999903465419364,68.00035287222849
9.16,0.9999903327948473,67.47338297711158
9.168,0.999990320326121,66.94495064536316
9.176,0.9999903091669698,66.415057406078
9.184000000000001,0.9999902993484252,65.88370496414908
9.192,0.9999902909013226,65.35089520238066
9.2,0.9999902838562782,64.81663018358243
9.208,0.9999902782436723,64.28091215264381
9.216000000000001,0.9999902740936281,63.743743538586166
9.224,0.9999902714359924,63.205126956591336
9.232,0.9999902703003143,62.665065210005025
9.24,0.9999902707158266,62.12356129231422
9.248000000000001,0.9999902727114232,61.58061838909637
9.256,0.9999902763156397,61.03623987993859
9.264,0.9999902815566324,60.49042934032512
9.272,0.9999902884621558,59.94319054349267
9.280000000000001,0.9999902970595436,59.39452746225082
9.288,0.9999903073756853,58.8444442707657
9.296,0.999990319437006,58.292945346305615
9.304,0.9999903332694449,57.740035270947416
9.312000000000001,0.999990348898432,57.185718833241495
9.32,0.9999903663488685,56.63000102983289
9.328,0.9999903856451037,56.07288706703783
9.336,0.9999904068109132,55.51438236237373
9.344,0.9999904298694778,54.95449254604115
9.352,0.9999904548433605,54.39322346235432
9.36,0.9999904817544856,53.83058117112146
9.368,0.9999905106241163,53.26657194896968
9.376,0.9999905414728324,52.7012022906161
9.384,0.9999905743205108,52.13447891008014
9.392,0.9999906091862997,51.56640874183854
9.4,0.9999906460886009,50.99699894191793
9.408,0.9999906850450458,50.42625688892683
9.416,0.999990726072476,49.85419018502141
9.424,0.9999907691869203,49.28080665680764
9.432,0.9999908144035737,48.706114356173615
9.44,0.9999908617367779,48.13012156105457
9.448,0.9999909111999995,47.552836776125154
9.456,0.9999909628058099,46.97426873342105
9.464,0.999991016565865,46.394426392884114
9.472,0.9999910724908846,45.813318942834094
9.48,0.9999911305906344,45.23095580036064
9.488,0.9999911908739055,44.647346611638405
9.496,0.9999912533484941,44.06250125215983
9.504,0.9999913180211863,43.476429826887774
9.512,0.9999913848977359,42.88914267032285
9.52,0.9999914539828496,42.30065034648791
9.528,0.9999915252801684,41.71096364882436
9.536,0.9999915987922494,41.12009360000295
9.544,0.9999916745205509,40.5280514516438
9.552,0.9999917524654163,39.93484868394833
9.56,0.9999918326260568,39.340497005238035
9.568,0.9999919150005382,38.74500835140297
9.576,0.9999919995857661,38.14839488525463
9.584,0.9999920863774706,37.55066899578659
9.592,0.9999921753701952,36.95184329733754
9.6,0.9999922665572816,36.35193062866029
9.608,0.9999923599308601,35.75094405189124
9.616,0.9999924554818358,35.14889685142426
9.624,0.9999925531998805,34.54580253268374
9.632,0.9999926530734194,33.94167482080053
9.64,0.9999927550896257,33.33652765918585
9.648,0.9999928592344077,32.73037520800707
9.656,0.9999929654924044,32.12323184256049
9.664,0.9999930738469771,31.5151121515454
9.672,0.9999931842802028,30.906030935234387
