freq,mag,phase
6.0,0.9999837271574152,-117.53726149732383
6.008,0.9999827646921787,-117.94350189756402
6.016,0.9999818626679183,-118.34962499452216
6.024,0.9999810195758879,-118.75563082761805
6.032,0.9999802339268967,-119.16151944310508
6.04,0.9999795042512243,-119.56729089403238
6.048,0.9999788290985313,-119.97294524020738
6.056,0.9999782070377722,-120.37848254815775
6.064,0.9999776366571049,-120.78390289109377
6.072,0.9999771165637986,-121.18920634887012
6.08,0.9999766453841411,-121.59439300794809
6.088,0.9999762217633448,-121.99946296135724
6.096,0.99997584436545,-122.40441630865739
6.104,0.9999755118732311,-122.80925315590015
6.112,0.9999752229880966,-123.21397361559079
6.12,0.999974976429989,-123.6185778066498
6.128,0.9999747709372868,-124.02306585437417
6.136,0.9999746052667031,-124.42743789039928
6.144,0.9999744781931801,-124.8316940526602
6.152,0.9999743885097893,-125.23583448535285
6.16,0.9999743350276242,-125.63985933889579
6.168,0.9999743165756982,-126.04376876989096
6.176,0.999974332000833,-126.44756294108542
6.184,0.9999743801675526,-126.85124202133251
6.192,0.9999744599579808,-127.25480618555267
6.2,0.9999745702717205,-127.65825561469507
6.208,0.9999747100257534,-128.06159049569848
6.216,0.9999748781543246,-128.46481102145253
6.224,0.9999750736088286,-128.86791739075866
6.232,0.9999752953576992,-129.27090980829138
6.24,0.9999755423862984,-129.6737884845591
6.248,0.9999758136967939,-130.07655363586545
6.256,0.9999761083080516,-130.4792054842702
6.264,0.9999764252555159,-130.88174425755022
6.272,0.9999767635910932,-131.2841701891608
6.28,0.9999771223830372,-131.68648351819618
6.288,0.9999775007158271,-132.08868448935127
6.296,0.9999778976900517,-132.49077335288206
6.304,0.99997831242229,-132.8927503645672
6.312,0.9999787440449875,-133.2946157856687
6.32,0.9999791917063455,-133.6963698828931
6.328,0.9999796545701868,-134.09801292835274
6.336,0.9999801318158453,-134.49954519952678
6.344,0.9999806226380401,-134.90096697922206
6.352,0.999981126246753,-135.3022785555347
6.36,0.9999816418671037,-135.7034802218113
6.368,0.9999821687392317,-136.10457227660947
6.376,0.9999827061181674,-136.50555502365998
6.384,0.9999832532737125,-136.9064287718273
6.392,0.9999838094903135,-137.3071938350714
6.4,0.9999843740669326,-137.70785053240897
6.408,0.9999849463169337,-138.10839918787443
6.416,0.9999855255679446,-138.5088401304821
6.424,0.9999861111617404,-138.90917369418693
6.432,0.9999867024541144,-139.30940021784647
6.44,0.999987298814749,-139.7095200451822
6.448,0.9999878996270953,-140.10953352474124
6.456,0.999988504288242,-140.50944100985802
6.464,0.9999891122087899,-140.90924285861598
6.472,0.9999897228127266,-141.30893943380914
6.48,0.9999903355372962,-141.70853110290432
6.4879999999999995,0.9999909498328758,-142.10801823800244
6.496,0.9999915651628455,-142.50740121580125
6.504,0.9999921810034625,-142.90668041755632
6.5120000000000005,0.9999927968437315,-143.30585622904414
6.52,0.9999934121852813,-143.70492904052327
6.5280000000000005,0.9999940265422317,-144.10389924669744
6.536,0.9999946394410724,-144.50276724667685
6.5440000000000005,0.9999952504205283,-144.90153344394147
6.552,0.9999958590314395,-145.30019824630247
6.5600000000000005,0.9999964648366273,-145.69876206586554
6.568,0.9999970674107699,-146.09722531899268
6.5760000000000005,0.9999976663402752,-146.49558842626539
6.584,0.9999982612231518,-146.8938518124468
6.592,0.9999988516688841,-147.29201590644504
6.6,0.9999994372983024,-147.6900811412755
6.608,1.0,-148.08804795402398
6.616,0.9999999999999999,-148.48591678580982
6.624,1.0,-148.88368808174852
6.632,1.0,-149.2813622909155
6.64,1.0,-149.67893986630867
6.648,1.0,-150.0764212648123
6.656,1.0,-150.47380694716
6.664,1.0,-150.87109737789842
6.672,1.0,-151.26829302535083
6.68,0.9999999999999999,-151.66539436158055
6.688,0.9999999999999999,-152.06240186235496
6.696,1.0,-152.4593160071091
6.704,1.0,-152.85613727890973
6.712,0.9999999999999999,-153.2528661644193
6.72,1.0,-153.64950315385988
6.728,1.0,-154.0460487409777
6.736,1.0,-154.4425034230071
6.744,1.0,-154.83886770063495
6.752,0.9999999999999999,-155.2351420779653
6.76,0.9999999999999999,-155.63132706248362
6.768,0.9999999999999999,-156.02742316502184
6.776,1.0,-156.4234308997227
6.784,0.9999999999999999,-156.8193507840049
6.792,1.0000000000000002,-157.21518333852782
6.8,1.0,-157.61092908715665
6.808,1.0,-158.00658855692748
6.816,1.0,-158.4021622780125
6.824,1.0,-158.79765078368544
6.832,1.0,-159.19305461028677
6.84,1.0,-159.58837429718943
6.848,0.9999999999999999,-159.98361038676427
6.856,0.9999999999999999,-160.37876342434586
6.864,1.0,-160.77383395819822
6.872,1.0,-161.16882253948086
6.88,1.0,-161.56372972221453
6.888,1.0,-161.95855606324767
6.896,0.9999999999999999,-162.3533021222222
6.904,1.0,-162.74796846154024
6.912,0.9999999999999999,-163.14255564633018
6.92,1.0,-163.5370642444133
6.928,1.0,-163.93149482627044
6.936,1.0,-164.3258479650085
6.944,1.0,-164.72012423632748
6.952,0.9999999999999999,-165.11432421848716
6.96,0.9999999999999999,-165.50844849227417
6.968,0.9999999999999999,-165.9024976409692
6.976,1.0,-166.29647225031388
6.984,1.0000000000000002,-166.6903729084785
6.992,0.9999999999999999,-167.08420020602898
7.0,1.0,-167.47795473589468
7.008,1.0,-167.8716370933358
7.016,1.0,-168.265247875911
7.024,0.9999999999999999,-168.65878768344544
7.032,1.0,-169.05225711799847
7.04,0.9999999999999999,-169.44565678383165
7.048,1.0,-169.83898728737685
7.056,0.9999999999999998,-170.23224923720431
7.064,0.9999999999999999,-170.6254432439911
7.072,0.9999999999999999,-171.01856992048937
7.08,0.9999999999999999,-171.41162988149472
7.088,1.0,-171.80462374381503
7.096,0.9999999999999999,-172.1975521262389
7.104,1.0,-172.59041564950428
7.112,1.0,-172.9832149362678
7.12,0.9999999999999998,-173.37595061107314
7.128,0.9999999999999999,-173.76862330032048
7.136,0.9999999999999999,-174.16123363223534
7.144,1.0,-174.55378223683806
7.152,0.9999999999999999,-174.94626974591296
7.16,1.0,-175.33869679297766
7.168,1.0,-175.73106401325293
7.176,0.9999999999999998,-176.12337204363186
7.184,1.0,-176.5156215226498
7.192,1.0,-176.90781309045414
7.2,0.9999999999999999,-177.29994738877403
7.208,1.0,-177.69202506089042
7.216,1.0,-178.08404675160617
7.224,1.0,-178.4760131072161
7.232,1.0,-178.8679247754772
7.24,1.0,-179.259782405579
7.248,1.0,-179.65158664811392
7.256,0.9999999999999999,179.95666184495215
7.264,1.0,179.56496242030937
7.272,1.0,179.17331442333332
7.28,1.0,178.78171719811417
7.288,1.0,178.39017008748587
7.296,1.0,177.99867243305525
7.304,1.0,177.6072235752311
7.312,1.0,177.21582285325286
7.32,0.9999999999999999,176.82446960521975
7.328,1.0,176.43316316811934
7.336,1.0,176.0419028778563
7.344,1.0,175.65068806928093
7.352,1.0,175.2595180762178
7.36,0.9999999999999999,174.868392231494
7.368,1.0,174.47730986696763
7.376,1.0,174.08627031355607
7.384,1.0,173.69527290126422
7.392,1.0,173.30431695921246
7.4,0.9999999999999999,172.91340181566488
7.4079999999999995,0.9999999999999999,172.52252679805716
7.416,1.0,172.13169123302444
7.4239999999999995,0.9999999999999999,171.74089444642934
7.432,0.9999999999999999,171.3501357633893
7.4399999999999995,0.9999999999999999,170.9594145083049
7.448,1.0,170.56873000488676
7.4559999999999995,1.0,170.17808157618367
7.464,1.0,169.78746854460954
7.4719999999999995,1.0,169.39689023197135
7.48,1.0,169.0063459594958
7.4879999999999995,0.9999999999999999,168.61583504785736
7.496,1.0,168.22535681720473
7.504,1.0,167.83491058718846
7.5120000000000005,1.0,167.44449567698766
7.52,1.0,167.05411140533735
7.5280000000000005,1.0,166.66375709055498
7.536,1.0,166.27343205056772
7.5440000000000005,0.9999996854547482,165.88313560293872
7.552,0.9999992188987478,165.4928670648946
7.5600000000000005,0.9999987504359695,165.10262575335113
7.568,0.9999982802550956,164.71241098494093
7.5760000000000005,0.9999978085444473,164.322222076039
7.584,0.9999973354919309,163.93205834279007
7.5920000000000005,0.9999968612849868,163.54191910113423
7.6,0.9999963861105367,163.15180366683416
7.6080000000000005,0.9999959101549347,162.76171135550052
7.616,0.9999954336039153,162.3716414826191
7.6240000000000006,0.9999949566425478,161.9815933635762
7.632,0.999994479455183,161.59156631368543
7.640000000000001,0.9999940022254101,161.20155964821322
7.648,0.9999935251360068,160.81157268240557
7.656000000000001,0.9999930483688947,160.421604731513
7.664,0.9999925721050936,160.03165511081772
7.672,0.9999920965246755,159.64172313565822
7.68,0.9999916218067223,159.25180812145612
7.688,0.9999911481292812,158.8619093837413
7.696,0.9999906756693233,158.47202623817793
7.704,0.9999902046027006,158.0821580005899
7.712,0.9999897351041053,157.69230398698673
7.72,0.9999892673470293,157.30246351358878
7.728,0.999988801503725,156.91263589685295
7.736,0.9999883377451649,156.52282045349824
7.744,0.9999878762410052,156.1330165005309
7.752,0.9999874171595465,155.74322335527015
7.76,0.9999869606676979,155.3534403353731
7.768,0.9999865069309395,154.9636667588603
7.776,0.9999860561132888,154.57390194414106
7.784,0.9999856083772642,154.1841452100382
7.792,0.9999851638838518,153.7943958758137
7.8,0.9999847227924712,153.4046532611935
7.808,0.9999842852609431,153.0149166863926
7.816,0.9999838514454575,152.62518547214023
7.824,0.9999834215005419,152.23545893970459
7.832,0.9999829955790299,151.8457364109179
7.84,0.9999825738320327,151.4560172082014
7.848,0.9999821564089084,151.06630065458998
7.856,0.9999817434572338,150.67658607375716
7.864,0.9999813351227753,150.2868727900398
7.872,0.9999809315494638,149.89716012846287
7.88,0.9999805328793652,149.50744741476404
7.888,0.9999801392526564,149.11773397541853
7.896,0.9999797508075983,148.72801913766355
7.904,0.9999793676805121,148.338302229523
7.912,0.999978990005755,147.948582579832
7.92,0.9999786179156952,147.55885951826124
7.928,0.9999782515406916,147.16913237534177
7.936,0.9999778910090696,146.77940048248922
7.944,0.9999775364470997,146.3896631720283
7.952,0.9999771879789773,145.99991977721703
7.96,0.9999768457268015,145.61016963227124
7.968,0.9999765098105563,145.22041207238897
7.976,0.9999761803480901,144.8306464337744
7.984,0.9999758574550992,144.44087205366245
7.992,0.9999755412451072,144.05108827034277
8.0,0.999975231829451,143.661294423184
8.008,0.9999749293172608,143.27148985265796
8.016,0.9999746338154466,142.88167390036358
8.024000000000001,0.9999743454286817,142.4918459090513
8.032,0.999974064259387,142.10200522264697
8.04,0.9999737904077189,141.71215118627566
8.048,0.9999735239715536,141.32228314628597
8.056000000000001,0.9999732650464747,140.93240045027378
8.064,0.9999730137257604,140.5425024471066
8.072,0.9999727701003726,140.15258848694688
8.08,0.9999725342589444,139.7626579212761
8.088000000000001,0.9999723062877698,139.37271010291892
8.096,0.9999720862707928,138.98274438606686
8.104,0.9999718742895997,138.59276012630173
8.112,0.9999716704234071,138.20275668061979
8.120000000000001,0.9999714747490556,137.81273340745545
8.128,0.9999712873410014,137.42268966670503
8.136,0.9999711082713074,137.03262481975005
8.144,0.9999709376096394,136.6425382294813
8.152000000000001,0.9999707754232559,136.25242926032232
8.16,0.9999706217770057,135.86229727825318
8.168,0.9999704767333203,135.47214165083372
8.176,0.9999703403522107,135.08196174722715
8.184000000000001,0.999970212691262,134.69175693822407
8.192,0.9999700938056302,134.30152659626543
8.2,0.9999699837480404,133.91127009546608
8.208,0.9999698825687814,133.52098681163824
8.216000000000001,0.9999697903157058,133.13067612231518
8.224,0.9999697070342279,132.74033740677447
8.232,0.9999696327673218,132.349970046061
8.24,0.9999695675555216,131.95957342301068
8.248000000000001,0.9999695114369213,131.56914692227377
8.256,0.999969464447175,131.17868993033812
8.264,0.999969426619498,130.7882018355522
8.272,0.9999693979846669,130.39768202814844
8.280000000000001,0.9999693785710239,130.00712990026673
8.288,0.9999693684044768,129.61654484597736
8.296,0.9999693675085035,129.2259262613039
8.304,0.9999693759041537,128.83527354424672
8.312,0.9999693936100551,128.44458609480614
8.32,0.9999694206424146,128.05386331500497
8.328,0.9999694570150249,127.66310460891233
8.336,0.99996950273927,127.27230938266578
8.344,0.999969557824129,126.8814770444951
8.352,0.9999696222761838,126.49060700474465
8.36,0.999969696099625,126.09969867589679
8.368,0.9999697792962591,125.7087514725942
8.376,0.9999698718655147,125.31776481166351
8.384,0.9999699738044523,124.92673811213727
8.392,0.9999700851077709,124.53567079527757
8.4,0.9999702057678175,124.14456228459818
8.408,0.9999703357745963,123.75341200588784
8.416,0.9999704751157775,123.36221938723236
8.424,0.9999706237767073,122.9709838590381
8.432,0.9999707817404199,122.57970485405374
8.44,0.9999709489876452,122.1883818073938
8.448,0.9999711254968229,121.79701415656034
8.456,0.9999713112441126,121.40560134146635
8.464,0.9999715062034058,121.01414280445762
8.472,0.9999717103463381,120.62263799033575
8.48,0.9999719236423035,120.23108634638005
8.488,0.9999721460584649,119.8394873223707
8.496,0.9999723775597693,119.44784037061032
8.504,0.999972618108962,119.05614494594708
8.512,0.9999728676665988,118.66440050579632
8.52,0.9999731261910638,118.27260651016354
8.528,0.999973393638581,117.8807624216659
8.536,0.9999736699632313,117.4888677055553
8.544,0.9999739551169688,117.09692182973947
8.552,0.9999742490496355,116.70492426480524
8.56,0.9999745517089782,116.3128744840397
8.568,0.9999748630406649,115.92077196345288
8.576,0.999975182988303,115.52861618179922
8.584,0.9999755114934554,115.13640662060024
8.592,0.9999758484956586,114.74414276416557
8.6,0.9999761939324406,114.35182409961574
8.608,0.9999765477393401,113.95945011690327
8.616,0.9999769098499243,113.56702030883503
8.624,0.9999772801958082,113.17453417109341
8.632,0.9999776587066732,112.78199120225877
8.64,0.9999780453102887,112.38939090383025
8.648,0.9999784399325293,111.99673278024817
8.656,0.9999788424973975,111.60401633891482
8.664,0.9999792529270423,111.21124109021679
8.672,0.9999796711417812,110.81840654754556
8.68,0.9999800970601209,110.42551222731977
8.688,0.999980530598778,110.03255764900571
8.696,0.9999809716727018,109.63954233513947
8.704,0.9999814201950956,109.24646581134739
8.712,0.9999818760774384,108.85332760636798
8.72,0.9999823392295082,108.46012725207237
8.728,0.9999828095594042,108.06686428348601
8.736,0.9999832869735698,107.67353823880916
8.744,0.9999837713768158,107.28014865943832
8.752,0.9999842626723433,106.88669508998663
8.76,0.9999847607617692,106.49317707830531
8.768,0.9999852655451477,106.09959417550367
8.776,0.9999857769209954,105.70594593597073
8.784,0.9999862947863171,105.31223191739497
8.792,0.9999868190366275,104.9184516807857
8.8,0.9999873495659791,104.52460479049282
8.808,0.9999878862669844,104.13069081422809
8.815999999999999,0.999988429030844,103.73670932308471
8.824,0.9999889777473684,103.34265989155809
8.832,0.999989532305008,102.94854209756606
8.84,0.9999900925908755,102.55435552246904
8.847999999999999,0.9999906584907731,102.16009975108985
8.856,0.9999912298892194,101.76577437173388
8.864,0.9999918066694746,101.37137897620927
8.872,0.9999923887135679,100.9769131598466
8.879999999999999,0.9999929759023239,100.5823765215184
8.888,0.9999935681153899,100.18776866365911
8.896,0.9999941652312624,99.79308919228488
8.904,0.9999947671273147,99.39833771701282
8.911999999999999,0.999995373679824,99.00351385108044
8.92,0.9999959847640011,98.608617211365
8.928,0.9999966002540138,98.2136474184031
8.936,0.999997220023019,97.8186040964097
8.943999999999999,0.9999978439431878,97.42348687329691
8.952,0.9999984718857351,97.02829538069328
8.96,0.9999991037209486,96.63302925396286
8.968,0.9999997393182145,96.23768813222385
8.975999999999999,1.0,95.8422716583671
8.984,1.0,95.44677947907498
8.992,1.0,95.05121124484
9.0,0.9999999999999999,94.65556660998315
9.008,0.9999999999999998,94.25984523267195
9.016,0.9999999999999999,93.8640467749389
9.024000000000001,0.9999999999999999,93.46817090269977
9.032,1.0,93.07221728577139
9.04,0.9999999999999999,92.67618559788941
9.048,1.0,92.28007551672626
9.056000000000001,0.9999999999999999,91.88388672390894
9.064,0.9999999999999999,91.48761890503651
9.072,1.0,91.09127174969724
9.08,1.0,90.69484495148623
9.088000000000001,0.9999999999999999,90.29833820802271
9.096,0.9999999999999999,89.90175122096703
9.104,0.9999999999999999,89.50508369603733
9.112,0.9999999999999999,89.10833534302672
9.120000000000001,1.0,88.71150587582008
9.128,0.9999999999999999,88.31459501241046
9.136,1.0,87.91760247491544
9.144,0.9999999999999999,87.52052798959359
9.152000000000001,1.0,87.12337128686084
9.16,0.9999999999999999,86.72613210130643
9.168,0.9999999999999999,86.32881017170862
9.176,1.0,85.93140524105065
9.184000000000001,1.0,85.5339170565366
9.192,1.0,85.13634536960672
9.2,1.0,84.73868993595259
9.208,0.9999999999999999,84.34095051553263
9.216000000000001,1.0,83.94312687258716
9.224,0.9999999999999999,83.54521877565342
9.232,1.0,83.14722599757991
9.24,0.9999999999999999,82.74914831554133
9.248000000000001,1.0,82.3509855110533
9.256,0.9999999999999999,81.95273736998628
9.264,1.0,81.55440368257979
9.272,0.9999999999999999,81.15598424345643
9.280000000000001,1.0,80.75747885163597
9.288,1.0,80.3588873105488
9.296,0.9999999999999999,79.9602094280493
9.304,0.9999999999999999,79.56144501642939
9.312000000000001,1.0,79.16259389243177
9.32,1.0,78.76365587726285
9.328,1.0,78.36463079660533
9.336,0.9999999999999999,77.96551848063109
9.344,1.0000000000000002,77.56631876401387
9.352,1.0,77.16703148594104
9.36,1.0,76.76765649012626
9.368,0.9999999999999999,76.36819362482089
9.376,0.9999999999999999,75.96864274282636
9.384,0.9999999999999999,75.56900370150495
9.392,1.0,75.16927636279203
9.4,1.0,74.76946059320638
9.408,1.0,74.369556263862
9.416,1.0,73.9695632504781
9.424,0.9999999999999999,73.56948143339051
9.432,0.9999999999999999,73.16931069756126
9.44,1.0,72.76905093258958
9.448,0.9999999999999999,72.36870203272107
9.456,1.0,71.96826389685839
9.464,1.0,71.56773642856993
9.472,1.0,71.16711953609999
9.48,1.0,70.76641313237724
9.488,1.0,70.36561713502441
9.496,1.0000000000000002,69.96473146636617
9.504,1.0,69.56375605343858
9.512,1.0,69.16269082799651
9.52,1.0,68.76153572652247
9.528,0.9999999999999999,68.36029069023387
9.536,0.9999999999999999,67.95895566509118
9.544,1.0,67.55753060180481
9.552,1.0,67.15601545584288
9.56,1.0,66.7544101874375
9.568,1.0,66.35271476159221
9.576,1.0,65.95092914808775
9.584,1.0,65.54905332148905
9.592,1.0,65.14708726115049
9.6,1.0,64.74503095122236
9.608,1.0,64.34288438065576
9.616,0.9999999999999999,63.94064754320857
9.624,1.0000000000000002,63.53832043744973
9.632,1.0000000000000002,63.13590306676483
9.64,1.0,62.73339543935987
9.648,0.9999999999999999,62.33079756826637
9.656,1.0,61.928109471344584
9.664,0.9999999999999999,61.52533117128806
9.672,1.0,61.122462695626496
9.68,0.9999999999999999,60.71950407672967
9.688,1.0,60.31645535180981
9.696,1.0,59.91331656292492
9.704,1.0,59.51008775698078
9.712,0.9999999999999999,59.106768985733694
9.72,1.0,58.703360305791854
9.728,0.9999999999999999,58.29986177861765
9.736,1.0,57.896273470528456
9.744,1.0,57.492595452698495
9.752,1.0,57.08882780115892
9.76,0.9999999999999999,56.684970596799246
9.768,1.0000000000000002,56.28102392536687
9.776,1.0,55.87698787746786
9.784,1.0,55.472862548565985
9.792,1.0,55.068648038983
9.8,1.0,54.664344453897016
9.808,1.0,54.25995190334222
9.816,0.9999999999999999,53.85547050220673
9.824,1.0,53.450900370231736
9.832,1.0,53.04624163200873
9.84,1.0,52.64149441697808
9.847999999999999,0.9999999999999999,52.23665885942581
9.856,1.0,51.83173509848107
9.864,1.0,51.426723278113265
9.872,0.9999999999999999,51.0216235471283
9.879999999999999,1.0,50.61643605916486
9.888,1.0,50.2111609726905
9.896,1.0,49.80579845099751
9.904,1.0,49.40034866219815
9.911999999999999,1.0,48.99481177921952
9.92,1.0,48.589187979798595
9.928,1.0,48.18347744647677
9.936,1.0,47.77768036659395
9.943999999999999,0.9999999999999999,47.3717969322822
9.952,0.9999999999999999,46.96582734045948
9.96,0.9999999999999999,46.55977179282299
