freq,mag,phase
6.0,0.9999999999999999,30.860609111117327
6.008,1.0,30.630862716518738
6.016,0.9999996106865237,30.40104852856609
6.024,0.9999986033257768,30.171166887054817
6.032,0.9999976122912874,29.9412181328787
6.04,0.9999966374461386,29.711202608025516
6.048,0.9999956786538827,29.481120655572692
6.056,0.9999947357785437,29.250972619682894
6.064,0.9999938086846182,29.020758845599566
6.072,0.9999928972370802,28.790479679642356
6.08,0.9999920013013814,28.560135469202617
6.088,0.9999911207434552,28.329726562738728
6.096,0.9999902554297168,28.099253309771502
6.104,0.9999894052270681,27.868716060879375
6.112,0.9999885700028986,27.638115167693705
6.12,0.9999877496250874,27.407450982893952
6.128,0.9999869439620063,27.17672386020277
6.136,0.9999861528825208,26.945934154381167
6.144,0.9999853762559944,26.715082221223447
6.152,0.9999846139522884,26.48416841755229
6.16,0.9999838658417655,26.253193101213622
6.168,0.9999831317952916,26.02215663107156
6.176,0.9999824116842383,25.791059367003196
6.184,0.9999817053804833,25.55990166989346
6.192,0.9999810127564152,25.328683901629773
6.2,0.9999803336849332,25.09740642509687
6.208,0.9999796680394506,24.86606960417131
6.216,0.9999790156938956,24.634673803716172
6.224,0.9999783765227142,24.4032193895756
6.232,0.9999777504008721,24.171706728569234
6.24,0.999977137203856,23.94013618848675
6.248,0.999976536807676,23.708508138082248
6.256,0.9999759490888676,23.476822947068573
6.264,0.9999753739244926,23.2450809861117
6.272,0.9999748111921429,23.013282626824925
6.28,0.9999742607699403,22.781428241763162
6.288,0.9999737225365392,22.549518204417055
6.296,0.9999731963711276,22.31755288920714
6.304,0.9999726821534308,22.085532671477907
6.312,0.9999721797637112,21.85345792749187
6.32,0.9999716890827703,21.621329034423493
6.328,0.9999712099919508,21.38914637035321
6.336,0.9999707423731385,21.156910314261264
6.344,0.9999702861087628,20.92462124602157
6.352,0.9999698410818002,20.692279546395532
6.36,0.9999694071757733,20.459885597025814
6.368,0.9999689842747544,20.227439780430043
6.376,0.9999685722633664,19.994942479994446
6.384,0.9999681710267845,19.762394079967546
6.392,0.9999677804507363,19.529794965453696
6.4,0.9999674004215052,19.29714552240663
6.408,0.9999670308259316,19.064446137622948
6.416,0.9999666715514121,18.831697198735586
6.424,0.9999663224859032,18.598899094207212
6.432,0.9999659835179219,18.366052213323577
6.44,0.9999656545365465,18.13315694618684
6.448,0.999965335431419,17.900213683708877
6.456,0.999965026092745,17.66722281760446
6.464,0.9999647264112957,17.434184740384506
6.472,0.9999644362784093,17.201099845349177
6.48,0.999964155585992,16.967968526581032
6.4879999999999995,0.9999638842265183,16.734791178938075
6.496,0.9999636220930332,16.501568198046698
6.504,0.9999633690791531,16.268299980294895
6.5120000000000005,0.9999631250790665,16.034986922824867
6.52,0.9999628899875354,15.801629423526313
6.5280000000000005,0.9999626636998955,15.568227881028886
6.536,0.9999624461120588,15.334782694695406
6.5440000000000005,0.9999622371205129,15.10129426461426
6.552,0.9999620366223223,14.867762991592551
6.5600000000000005,0.9999618445151306,14.634189277148355
6.568,0.9999616606971594,14.400573523503846
6.5760000000000005,0.9999614850672105,14.16691613357746
6.584,0.9999613175246662,13.933217510976933
6.592,0.9999611579694905,13.69947805999143
6.6,0.9999610063022286,13.465698185584383
6.608,0.9999608624240098,13.231878293385778
6.616,0.9999607262365461,12.99801878968466
6.624,0.9999605976421339,12.764120081421504
6.632,0.999960476543655,12.53018257618059
6.64,0.999960362844576,12.296206682182328
6.648,0.9999602564489499,12.062192808275546
6.656,0.9999601572614161,11.828141363929731
6.664,0.9999600651872016,11.594052759227262
6.672,0.9999599801321205,11.359927404855588
6.68,0.9999599020025753,11.125765712099366
6.688,0.9999598307055572,10.891568092832584
6.696,0.9999597661486462,10.65733495951064
6.704,0.9999597082400115,10.423066725162382
6.712,0.999959656888412,10.188763803382122
6.72,0.9999596120031972,9.954426608321606
6.728,0.9999595734943061,9.720055554681977
6.736,0.9999595412722684,9.485651057705676
6.744,0.9999595152482054,9.251213533168317
6.752,0.9999594953338281,9.016743397370545
6.76,0.9999594814414399,8.782241067129862
6.768,0.9999594734839349,8.547706959772382
6.776,0.9999594713747986,8.313141493124629
6.784,0.9999594750281086,8.07854508550522
6.792,0.9999594843585332,7.843918155716598
6.8,0.9999594992813328,7.6092611230366725
6.808,0.9999595197123594,7.374574407210459
6.816,0.999959545568057,7.139858428441695
6.824,0.9999595767654599,6.905113607384418
6.832,0.999959613222195,6.670340365134501
6.84,0.9999596548564799,6.435539123221199
6.848,0.9999597015871233,6.2007103035986235
6.856,0.9999597533335252,5.965854328637225
6.864,0.999959810015676,5.730971621115223
6.872,0.999959871554157,5.496062604210033
6.88,0.9999599378701391,5.2611277014896505
6.888,0.999960008885384,5.026167336904005
6.896,0.999960084522242,4.791181934776324
6.904,0.9999601647036532,4.556171919794425
6.912,0.9999602493531468,4.321137717002011
6.92,0.9999603383948397,4.086079751789945
6.928,0.9999604317534369,3.8509984498874856
6.936,0.9999605293542314,3.6158942373534986
6.944,0.999960631123103,3.3807675405676765
6.952,0.9999607369865176,3.1456187862216893
6.96,0.9999608468715273,2.9104484013103504
6.968,0.9999609607057686,2.6752568131227514
6.976,0.9999610784174637,2.440044449233361
6.984,0.999961199935419,2.2048117374931224
6.992,0.9999613251890227,1.9695591060205175
7.0,0.9999614541082467,1.7342869831926255
7.008,0.9999615866236445,1.4989957976361459
7.016,0.9999617226663501,1.2636859782184162
7.024,0.999961862168078,1.0283579540383898
7.032,0.9999620050611225,0.7930121544176386
7.04,0.999962151278356,0.5576490088912882
7.048,0.9999623007532285,0.3222689471989656
7.056,0.9999624534197654,0.08687239927571784
7.064,0.9999626092125716,-0.1485402047570754
7.072,0.9999627680668217,-0.38396843460080193
7.08,0.999962929918268,-0.6194118597887589
7.088,0.9999630947032325,-0.8548700496952935
7.096,0.9999632623586113,-1.0903425735449237
7.104,0.9999634328218693,-1.3258290004215465
7.112,0.999963606031041,-1.5613288992775975
7.12,0.9999637819247292,-1.7968418389432437
7.128,0.9999639604421039,-2.0323673881356092
7.136,0.9999641415229003,-2.267905115467974
7.144,0.999964325107418,-2.5034545894590248
7.152,0.9999645111365202,-2.739015378542068
7.16,0.9999646995516319,-2.974587051074324
7.168,0.9999648902947382,-3.210169175346168
7.176,0.9999650833083837,-3.445761319590405
7.184,0.9999652785356702,-3.6813630519915566
7.192,0.9999654759202564,-3.9169739406951565
7.2,0.9999656754063551,-4.152593553817065
7.208,0.9999658769387332,-4.3882214594527404
7.216,0.9999660804627087,-4.62385722568661
7.224,0.9999662859241498,-4.859500420601367
7.232,0.9999664932694741,-5.095150612287277
7.24,0.999966702445645,-5.330807368851576
7.248,0.9999669134001725,-5.566470258427785
7.256,0.9999671260811095,-5.802138849185049
7.264,0.999967340437051,-6.037812709337498
7.272,0.9999675564171321,-6.2734914071536405
7.28,0.9999677739710272,-6.509174510965668
7.288,0.9999679930489459,-6.7448615891788855
7.296,0.9999682136016342,-6.9805522102810285
7.304,0.9999684355803702,-7.21624594285169
7.312,0.9999686589369631,-7.451942355571626
7.32,0.9999688836237515,-7.687641017232225
7.328,0.9999691095936012,-7.9233414967448175
7.336,0.9999693367999033,-8.15904336315004
7.344,0.9999695651965721,-8.394746185627321
7.352,0.9999697947380434,-8.63044953350413
7.36,0.9999700253792712,-8.866152976265466
7.368,0.9999702570757276,-9.101856083563167
7.376,0.9999704897833991,-9.3375584252253
7.384,0.9999707234587848,-9.573259571265584
7.392,0.9999709580588952,-9.808959091892685
7.4,0.9999711935412477,-10.044656557519671
7.4079999999999995,0.9999714298638672,-10.280351538773271
7.416,0.9999716669852811,-10.51604360650343
7.4239999999999995,0.9999719048645191,-10.751732331792352
7.432,0.99997214346111,-10.987417285964236
7.4399999999999995,0.9999723827350788,-11.223098040594255
7.448,0.9999726226469452,-11.458774167518259
7.4559999999999995,0.9999728631577203,-11.694445238841729
7.464,0.9999731042289051,-11.930110826949521
7.4719999999999995,0.9999733458224872,-12.165770504514752
7.48,0.9999735879009382,-12.401423844508564
7.4879999999999995,0.999973830427212,-12.637070420208984
7.496,0.9999740733647409,-12.872709805210683
7.504,0.9999743166774345,-13.108341573433776
7.5120000000000005,0.9999745603296754,-13.343965299133604
7.52,0.999974804286317,-13.579580556909542
7.5280000000000005,0.9999750485126817,-13.815186921714664
7.536,0.9999752929745573,-14.050783968864618
7.5440000000000005,0.9999755376381935,-14.286371274047255
7.552,0.9999757824703006,-14.521948413331428
7.5600000000000005,0.999976027438045,-14.75751496317667
7.568,0.9999762725090473,-14.993070500441917
7.5760000000000005,0.9999765176513792,-15.228614602395162
7.584,0.9999767628335602,-15.464146846722187
7.5920000000000005,0.999977008024554,-15.69966681153616
7.6,0.9999772531937672,-15.93517407538635
7.6080000000000005,0.9999774983110432,-16.170668217267693
7.616,0.9999777433466631,-16.406148816629436
7.6240000000000006,0.9999779882713378,-16.64161545338476
7.632,0.9999782330562081,-16.877067707919338
7.640000000000001,0.9999784776728405,-17.11250516110088
7.648,0.999978722093223,-17.347927394287765
7.656000000000001,0.999978966289763,-17.583333989338442
7.664,0.9999792102352824,-17.8187245286201
7.672,0.9999794539030151,-18.054098595017976
7.68,0.9999796972666032,-18.289455771944123
7.688,0.9999799403000931,-18.52479564334643
7.696,0.9999801829779325,-18.76011779371755
7.704,0.999980425274965,-18.995421808103874
7.712,0.9999806671664291,-19.230707272114294
7.72,0.9999809086279512,-19.465973771929256
7.728,0.9999811496355439,-19.701220894309436
7.736,0.9999813901656014,-19.93644822660466
7.744,0.9999816301948948,-20.171655356762752
7.752,0.9999818697005697,-20.406841873338177
7.76,0.9999821086601388,-20.642007365500955
7.768,0.9999823470514816,-20.87715142304527
7.776,0.9999825848528375,-21.11227363639826
7.784,0.9999828220428013,-21.347373596628692
7.792,0.9999830586003209,-21.582450895455555
7.8,0.9999832945046897,-21.81750512525679
7.808,0.9999835297355444,-22.052535879077816
7.816,0.9999837642728591,-22.287542750640146
7.824,0.9999839980969404,-22.522525334349943
7.832,0.9999842311884232,-22.757483225306515
7.84,0.9999844635282643,-22.992416019310838
7.848,0.9999846950977389,-23.227323312873995
7.856,0.9999849258784347,-23.46220470322563
7.864,0.9999851558522447,-23.697059788322363
7.872,0.9999853850013649,-23.931888166856126
7.88,0.9999856133082863,-24.166689438262523
7.888,0.9999858407557897,-24.40146320272919
7.896,0.9999860673269403,-24.63620906120399
7.904,0.9999862930050808,-24.870926615403306
7.912,0.9999865177738254,-25.10561546782026
7.92,0.9999867416170544,-25.34027522173288
7.928,0.9999869645189061,-25.574905481212248
7.936,0.9999871864637706,-25.809505851130584
7.944,0.9999874074362832,-26.04407593716937
7.952,0.9999876274213173,-26.27861534582734
7.96,0.9999878464039764,-26.5131236844285
7.968,0.9999880643695871,-26.747600561130085
7.976,0.9999882813036907,-26.982045584930503
7.984,0.999988497192036,-27.216458365677177
7.992,0.9999887120205699,-27.45083851407444
8.0,0.99998892577543,-27.6851856416913
8.008,0.9999891384429345,-27.919499360969194
8.016,0.9999893500095732,-28.153779285229863
8.024000000000001,0.9999895604619997,-28.38802502868271
8.032,0.9999897697870184,-28.622236206432685
8.04,0.9999899779715766,-28.856412434487908
8.048,0.9999901850027534,-29.090553329767094
8.056000000000001,0.999990390867748,-29.324658510106975
8.064,0.9999905955538685,-29.558727594269886
8.072,0.9999907990485198,-29.792760201951186
8.08,0.9999910013391922,-30.026755953786605
8.088000000000001,0.9999912024134457,-30.26071447135931
8.096,0.9999914022588994,-30.494635377207413
8.104,0.9999916008632157,-30.72851829483113
8.112,0.9999917982140851,-30.962362848699932
8.120000000000001,0.9999919942992119,-31.19616866425938
8.128,0.999992189106297,-31.42993536793838
8.136,0.9999923826230209,-31.663662587156193
8.144,0.9999925748370262,-31.89734995032925
8.152000000000001,0.9999927657358982,-32.13099708687784
8.16,0.9999929553071463,-32.36460362723302
8.168,0.9999931435381804,-32.598169202843415
8.176,0.9999933304162927,-32.8316934461817
8.184000000000001,0.9999935159286316,-33.06517599075113
8.192,0.9999937000621786,-33.298616471092004
8.2,0.9999938828037223,-33.532014522788266
8.208,0.9999940641398309,-33.76536978247366
8.216000000000001,0.9999942440568234,-33.998681887837854
8.224,0.9999944225407393,-34.23195047763265
8.232,0.9999945995773052,-34.46517519167815
8.24,0.9999947751519018,-34.69835567086859
8.248000000000001,0.9999949492495257,-34.93149155717798
8.256,0.9999951218547516,-35.164582493665996
8.264,0.9999952929516901,-35.39762812448364
8.272,0.9999954625239439,-35.630628094878546
8.280000000000001,0.9999956305545601,-35.86358205120028
8.288,0.9999957970259803,-36.096489640905546
8.296,0.9999959619199859,-36.329350512563316
8.304,0.9999961252176411,-36.56216431585958
8.312,0.9999962868992311,-36.794930701601935
8.32,0.9999964469441944,-37.02764932172428
8.328,0.9999966053310532,-37.2603198292908
8.336,0.9999967620373346,-37.492941878500346
8.344,0.999996917039491,-37.725515124689856
8.352,0.9999970703128076,-37.95803922433832
8.36,0.9999972218313096,-38.19051383506953
8.368,0.999997371567656,-38.42293861565557
8.376,0.9999975194930291,-38.65531322601881
8.384,0.9999976655770113,-38.88763732723469
8.392,0.9999978097874559,-39.119910581532984
8.4,0.9999979520903416,-39.35213265229958
8.408,0.9999980924496178,-39.58430320407693
8.416,0.9999982308270362,-39.81642190256461
8.424,0.9999983671819668,-40.04848841461866
8.432,0.9999985014711937,-40.28050240825088
8.44,0.9999986336486992,-40.512463552626535
8.448,0.9999987636654201,-40.74437151806209
8.456,0.9999988914689859,-40.9762259760211
8.464,0.9999990170034272,-41.20802659910987
8.472,0.9999991402088604,-41.4397730610709
8.48,0.9999992610211349,-41.67146503677591
8.488,0.9999993793714468,-41.90310220221646
8.496,0.9999994951859131,-42.134684234493406
8.504,0.9999996083850995,-42.36621081180366
8.512,0.9999997188834969,-42.597681613425294
8.52,0.9999998265889393,-42.82909631969921
8.528,0.9999999314019586,-43.06045461200848
8.536,0.9999999999999999,-43.29175617275316
8.544,1.0,-43.52300068532208
8.552,0.9999999999999999,-43.75418783405874
8.56,1.0,-43.985317304222505
8.568,1.0,-44.216388781942555
8.576,0.9999999999999999,-44.44740195416483
8.584,1.0,-44.67835650858933
8.592,1.0,-44.909252133597555
8.6,1.0,-45.140088518166515
8.608,0.9999999999999999,-45.37086535176874
8.616,1.0,-45.60158232425359
8.624,0.9999999999999999,-45.83223912570789
8.632,1.0,-46.062835446290336
8.64,0.9999999999999999,-46.29337097603521
8.648,1.0,-46.5238454046178
8.656,1.0,-46.754258421074226
8.664,1.0,-46.98460971346379
8.672,1.0,-47.21489896846219
8.68,1.0,-47.445125870866896
8.688,0.9999999999999999,-47.675290102994765
8.696,1.0,-47.90539134394229
8.704,0.9999999999999999,-48.13542926867387
8.712,0.9999999999999999,-48.36540354688891
8.72,1.0,-48.59531384160694
8.728,1.0,-48.82515980738586
8.736,1.0,-49.05494108806321
8.744,1.0,-49.28465731386779
8.752,1.0,-49.514308097696585
8.76,0.9999999999999998,-49.74389303026987
8.768,1.0,-49.97341167376779
8.776,1.0,-50.20286355338485
8.784,1.0,-50.43224814600096
8.792,0.9999999039281319,-50.6615648648088
8.8,0.9999996396437799,-50.8908130382063
8.808,0.9999993348798284,-51.119991880450804
8.815999999999999,0.9999989843549952,-51.34910045034371
8.824,0.9999985822671862,-51.57813759232791
8.832,0.9999981225466615,-51.807101851519334
8.84,0.9999975994804229,-52.03599134993336
8.847999999999999,0.9999970090903619,-52.26480360519019
8.856,0.9999963520382942,-52.49353526586494
8.864,0.9999956396320002,-52.72218173371363
8.872,0.9999949061354002,-52.95073665970577
8.879999999999999,0.9999942337539104,-53.179191397932584
8.888,0.9999938019767494,-53.407534864491566
8.896,0.9999939774951713,-53.6357553767967
8.904,0.9999954423188181,-53.86384885048298
8.911999999999999,0.9999992312437754,-54.091841337993166
8.92,1.0,-54.319823773871576
8.928,1.0,-54.5479402672959
8.936,0.9999999999999999,-54.77625446656545
8.943999999999999,1.0,-55.004655859643165
8.952,0.9999999999999999,-55.232988462479796
8.96,0.9999999999999999,-55.461176012866694
8.968,1.0,-55.689210858593555
8.975999999999999,1.0,-55.91710952516697
8.984,1.0,-56.14489026273172
8.992,1.0,-56.372567084223746
9.0,0.9999999999999999,-56.60014964442274
9.008,1.0,-56.82764435944092
9.016,1.0,-57.05505545470856
9.024000000000001,1.0,-57.28238571553811
9.032,1.0,-57.50963698323367
9.04,1.0,-57.736810475125864
9.048,1.0,-57.96390699064082
9.056000000000001,1.0,-58.19092704508468
9.064,1.0,-58.41787095762312
9.072,1.0,-58.644738910000854
9.08,1.0,-58.871530986339025
9.088000000000001,1.0,-59.098247200522515
9.096,1.0,-59.324887515326736
9.104,1.0,-59.55145185596436
9.112,0.9999999999999999,-59.7779401198079
9.120000000000001,1.0,-60.00435218345585
9.128,0.9999999999999999,-60.230687907928605
9.136,1.0,-60.45694714253164
9.144,0.9999999999999999,-60.68312972775737
9.152000000000001,1.0,-60.909235497486044
9.16,1.0,-61.1352642806706
9.168,1.0,-61.361215902637255
9.176,0.9999999999999999,-61.58709018609748
9.184000000000001,1.0,-61.8128869519414
9.192,1.0,-62.03860601986444
9.2,0.9999999999999999,-62.264247208865584
9.208,0.9999999999999999,-62.48981033764572
9.216000000000001,1.0,-62.71529522492832
9.224,1.0,-62.94070168971902
9.232,1.0,-63.166029551517035
9.24,1.0,-63.39127863048773
9.248000000000001,1.0,-63.616448747604515
9.256,0.9999999999999999,-63.84153972476618
9.264,1.0,-64.06655138489415
9.272,0.9999999999999999,-64.2914835520133
9.280000000000001,0.9999999999999999,-64.5163360513195
9.288,1.0,-64.74110870923644
9.296,0.9999999999999998,-64.96580135346353
9.304,1.0,-65.19041381301606
9.312000000000001,1.0,-65.41494591825946
9.32,0.9999999999999999,-65.63939750093822
9.328,0.9999999999999999,-65.8637683942009
9.336,0.9999999999999999,-66.08805843262115
9.344,1.0,-66.31226745221561
9.352,1.0,-66.53639529045978
9.36,1.0,-66.76044178630103
9.368,0.9999999999999998,-66.98440678017045
9.376,1.0,-67.20829011399226
9.384,1.0,-67.43209163119292
9.392,0.9999999999999998,-67.65581117670791
9.4,1.0,-67.87944859698864
9.408,1.0,-68.10300374000744
9.416,1.0,-68.3264764552627
9.424,1.0,-68.54986659378261
9.432,0.9999999999999998,-68.77317400812898
9.44,0.9999999999999999,-68.99639855239982
9.448,0.9999999999999999,-69.21954008223233
9.456,0.9999999999999999,-69.44259845480468
9.464,0.9999999999999999,-69.66557352883817
9.472,0.9999999999999999,-69.88846516459832
9.48,1.0,-70.11127322389659
9.488,1.0,-70.33399757009089
9.496,1.0,-70.55663806808673
9.504,1.0,-70.77919458433752
9.512,1.0,-71.00166698684518
9.52,0.9999999999999999,-71.22405514516014
9.528,1.0,-71.44635893038172
9.536,1.0,-71.66857821515772
9.544,1.0,-71.89071287368468
9.552,0.9999999999999999,-72.1127627817071
9.56,1.0,-72.33472781651756
9.568,1.0,-72.5566078569558
9.576,1.0,-72.77840278340847
9.584,1.0,-73.00011247780819
9.592,1.0,-73.22173682363311
9.6,1.0,-73.44327570590582
9.608,0.9999999999999999,-73.66472901119268
9.616,1.0,-73.88609662760263
9.624,1.0,-74.10737844478656
9.632,0.9999999999999999,-74.32857435393578
9.64,0.9999999999999999,-74.5496842477813
9.648,1.0,-74.77070802059227
9.656,1.0,-74.99164556817514
9.664,1.0,-75.21249678787201
9.672,1.0,-75.43326157855958
9.68,1.0,-75.6539398406475
9.688,1.0,-75.87453147607724
9.696,1.0,-76.0950363883203
9.704,0.9999999999999998,-76.315454482377
9.712,0.9999999999999998,-76.53578566477465
9.72,1.0,-76.75602984356618
9.728,1.0,-76.97618692832827
9.736,1.0,-77.19625683015995
9.744,1.0,-77.41623946168055
9.752,1.0,-77.63613473702827
9.76,1.0,-77.85594257185811
9.768,1.0,-78.07566288334031
9.776,1.0,-78.29529559015819
9.784,0.9999999999999999,-78.51484061250657
9.792,1.0,-78.73429787208946
9.8,1.0,-78.95366729211857
9.808,1.0,-79.17294879731074
