freq,mag,phase
6.0,0.9999946360219033,77.94428458642457
6.008,0.9999950412828341,77.79097825658152
6.016,0.9999954364914452,77.63760801913351
6.024,0.9999958217963877,77.48417389216497
6.032,0.9999961973450071,77.33067589398459
6.04,0.9999965632833471,77.17711404312624
6.048,0.9999969197561537,77.02348835835004
6.056,0.9999972669068791,76.86979885864332
6.064,0.9999976048776849,76.71604556322174
6.072,0.9999979338094466,76.5622284915302
6.08,0.9999982538417569,76.4083476632439
6.088,0.9999985651129307,76.25440309826942
6.096,0.9999988677600077,76.10039481674565
6.104,0.9999991619187582,75.94632283904487
6.112,0.9999994477236844,75.79218718577376
6.12,0.9999997253080282,75.63798787777442
6.128,0.9999999948037721,75.48372493612545
6.136,0.9999999999999999,75.32939838214293
6.144,1.0,75.17500823738142
6.152,1.0,75.0205545236351
6.16,1.0,74.86603726293872
6.168,1.0,74.71145647756863
6.176,0.9999999999999999,74.55681219004389
6.184,1.0,74.40210442312723
6.192,1.0,74.24733319982616
6.2,1.0,74.09249854339393
6.208,0.9999999999999999,73.93760047733065
6.216,1.0,73.7826390253843
6.224,1.0,73.62761421155173
6.232,1.0,73.4725260600798
6.24,0.9999999999999999,73.31737459546635
6.248,1.0,73.16215984246132
6.256,1.0,73.00688182606767
6.264,0.9999999999999998,72.85154057154256
6.272,1.0,72.69613610439833
6.28,1.0,72.54066845040361
6.288,1.0,72.38513763558433
6.296,1.0,72.2295436862247
6.304,1.0,72.07388662886844
6.312,0.9999999999999999,71.91816649031968
6.32,1.0,71.76238329764409
6.328,0.9999999999999999,71.60653707816992
6.336,1.0,71.45062785948906
6.344,1.0,71.2946556694581
6.352,1.0,71.13862053619931
6.36,1.0,70.98252248810189
6.368,0.9999999999999999,70.8263615538228
6.376,0.9999999999999999,70.67013776228806
6.384,0.9999999999999998,70.51385114269354
6.392,0.9999999999999999,70.35750172450624
6.4,1.0,70.20108953746531
6.408,0.9999999999999999,70.044614611583
6.416,1.0,69.88807697714587
6.424,1.0000000000000002,69.73147666471577
6.432,1.0,69.57481370513088
6.44,0.9999999999999999,69.41808812950687
6.448,0.9999999999999999,69.26129996923788
6.456,0.9999999999999999,69.10444925599764
6.464,1.0000000000000002,68.9475360217405
6.472,0.9999999999999999,68.79056029870249
6.48,1.0,68.63352211940241
6.4879999999999995,0.9999999999999999,68.47642151664294
6.496,0.9999999999999999,68.31925852351156
6.504,1.0,68.16203317338183
6.5120000000000005,1.0,68.00474549991421
6.52,0.9999999999999998,67.84739553705738
6.5280000000000005,0.9999999999999999,67.68998331904906
6.536,1.0,67.53250888041734
6.5440000000000005,0.9999999999999999,67.37497225598148
6.552,1.0,67.21737348085317
6.5600000000000005,1.0,67.05971259043748
6.568,0.9999999999999999,66.90198962043407
6.5760000000000005,1.0,66.74420460683804
6.584,1.0,66.58635758594126
6.592,1.0,66.4284485943331
6.6,1.0,66.27047766890188
6.608,1.0,66.11244484683564
6.616,1.0,65.95435016562334
6.624,1.0,65.7961936630559
6.632,1.0,65.63797537722724
6.64,1.0,65.47969534653534
6.648,1.0,65.32135360968341
6.656,1.0,65.16295020568077
6.664,0.9999999999999999,65.00448517384409
6.672,1.0,64.84595855379828
6.68,0.9999999999999999,64.68737038547773
6.688,1.0,64.52872070912724
6.696,1.0,64.37000956530312
6.704,1.0,64.21123699487428
6.712,1.0,64.05240303902322
6.72,0.9999999999999999,63.89350773924712
6.728,0.9999999999999999,63.73455113735894
6.736,0.9999999999999999,63.575533275488425
6.744,0.9999999999999999,63.41645419608315
6.752,0.9999999999999999,63.2573139419096
6.76,1.0,63.09811255605422
6.768,0.9999999999999999,62.93885008192447
6.776,1.0,62.779526563249846
6.784,1.0,62.62014204408297
6.792,1.0,62.4606965688006
6.8,1.0,62.30119018210472
6.808,1.0,62.14162292902351
6.816,1.0,61.981994854912486
6.824,0.9999999999999998,61.82230600545546
6.832,1.0,61.66255642666563
6.84,1.0,61.50274616488662
6.848,1.0,61.342875266793456
6.856,0.9999999999999998,61.182943779393696
6.864,1.0,61.022951750028405
6.872,1.0,60.86289922637316
6.88,0.9999999999999999,60.70278625643918
6.888,0.9999999999999999,60.542612888574254
6.896,1.0,60.382379171463846
6.904,0.9999999999999999,60.22208515413204
6.912,1.0,60.06173088594265
6.92,1.0000000000000002,59.90131641660019
6.928,1.0,59.74084179615093
6.936,0.9999999999999999,59.58030707498386
6.944,0.9999999999999999,59.41971230383168
6.952,1.0,59.25905753377202
6.96,1.0,59.098342816228175
6.968,1.0,58.937568202970304
6.976,1.0,58.77673374611634
6.984,0.9999999999999999,58.615839498133056
6.992,1.0,58.45488551183704
7.0,1.0,58.293871840395674
7.008,1.0,58.13279853732818
7.016,1.0,57.97166565650659
7.024,1.0,57.81047325215673
7.032,0.9999999999999999,57.649221378859224
7.04,0.9999999999999999,57.48791009155044
7.048,1.0,57.326539445523565
7.056,1.0,57.165109496429544
7.064,0.9999999999999999,57.00362030027797
7.072,0.9999999999999999,56.84207191343821
7.08,1.0,56.68046439264025
7.088,0.9999999999999999,56.518797794975804
7.096,1.0,56.35707217789912
7.104,1.0,56.19528759922807
7.112,1.0,56.033444117145024
7.12,1.0,55.8715417901979
7.128,0.9999999999999999,55.70958067730103
7.136,1.0,55.547560837736164
7.144,1.0,55.385482331153405
7.152,1.0,55.223345217572145
7.16,1.0,55.061149557382016
7.168,1.0,54.898895411343844
7.176,0.9999999999999998,54.73658284059051
7.184,0.9999999999999999,54.574211906628015
7.192,1.0,54.41178267133628
7.2,0.9999999999999999,54.2492951969701
7.208,0.9999999999999999,54.08674954616012
7.216,1.0,53.92414578191368
7.224,0.9999999999999999,53.761483967615796
7.232,1.0,53.59876416702998
7.24,1.0,53.43598644429922
7.248,1.0,53.27315086394686
7.256,1.0,53.11025749087747
7.264,1.0,52.9473063903778
7.272,0.9999999999999999,52.78429762811753
7.28,1.0,52.62123127015036
7.288,0.9999999999999999,52.4581073829147
7.296,1.0,52.29492603323462
7.304,0.9999999999999999,52.13168728832079
7.312,1.0,51.968391215771184
7.32,1.0,51.805037883572105
7.328,0.9999999999999999,51.64162736009891
7.336,1.0,51.478159714116956
7.344,1.0,51.314635014782404
7.352,1.0,51.15105333164305
7.36,1.0,50.98741473463919
7.368,0.9999999857904275,50.82371929410444
7.376,0.9999999288468343,50.659967080766606
7.384,0.9999998723900423,50.49615816574837
7.392,0.9999998164222361,50.332292620568275
7.4,0.9999997609452629,50.168370517141454
7.4079999999999995,0.9999997059606395,50.004391927780446
7.416,0.9999996514695574,49.84035692519595
7.4239999999999995,0.999999597472889,49.676265582497734
7.432,0.9999995439711931,49.512117973195295
7.4399999999999995,0.9999994909647216,49.34791417119881
7.448,0.9999994384534234,49.183654250819686
7.4559999999999995,0.9999993864369529,49.01933828677158
7.464,0.9999993349146726,48.854966354170934
7.4719999999999995,0.9999992838856614,48.69053852853801
7.48,0.9999992333487193,48.52605488579731
7.4879999999999995,0.9999991833023725,48.36151550227867
7.496,0.9999991337448799,48.196920454717706
7.504,0.9999990846742383,48.03226982025684
7.5120000000000005,0.9999990360881885,47.867563676445705
7.52,0.9999989879842196,47.70280210124225
7.5280000000000005,0.9999989403595763,47.53798517301308
7.536,0.9999988932112626,47.3731129705345
7.5440000000000005,0.9999988465360493,47.20818557299296
7.552,0.9999988003304774,47.043203059986
7.5600000000000005,0.9999987545908651,46.87816551152268
7.568,0.999998709313312,46.713073008024544
7.5760000000000005,0.9999986644937059,46.54792563032607
7.584,0.9999986201277266,46.382723459675546
7.5920000000000005,0.9999985762108524,46.21746657773551
7.6,0.9999985327383647,46.0521550665837
7.6080000000000005,0.9999984897053541,45.886789008713386
7.616,0.9999984471067245,45.721368487034376
7.6240000000000006,0.9999984049371987,45.55589358487329
7.632,0.9999983631913245,45.39036438597454
7.640000000000001,0.9999983218634785,45.22478097450063
7.648,0.9999982809478725,45.05914343503313
7.656000000000001,0.9999982404385573,44.89345185257294
7.664,0.9999982003294284,44.72770631254119
7.672,0.9999981606142321,44.56190690077962
7.68,0.9999981212865676,44.39605370355132
7.688,0.9999980823398952,44.23014680754125
7.696,0.9999980437675393,44.064186299856836
7.704,0.9999980055626945,43.89817226802853
7.712,0.9999979677184284,43.73210480001038
7.72,0.999997930227689,43.56598398418062
7.728,0.999997893083308,43.39980990934208
7.736,0.999997856278006,43.23358266472298
7.744,0.9999978198043965,43.067302339977196
7.752,0.9999977836549924,42.90096902518495
7.76,0.9999977478222083,42.734582810853254
7.768,0.999997712298367,42.56814378791646
7.776,0.9999976770757034,42.40165204773675
7.784,0.9999976421463689,42.235107682104605
7.792,0.9999976075024358,42.068510783239326
7.8,0.9999975731359031,41.90186144378946
7.808,0.9999975390386986,41.73515975683331
7.816,0.9999975052026862,41.56840581587942
7.824,0.9999974716196669,41.401599714866954
7.832,0.9999974382813868,41.23474154816615
7.84,0.9999974051795382,41.06783141057885
7.848,0.9999973723057661,40.900869397338745
7.856,0.9999973396516713,40.73385560411205
7.864,0.999997307208815,40.56679012699762
7.872,0.9999972749687224,40.39967306252755
7.88,0.9999972429228878,40.23250450766753
7.888,0.9999972110627781,40.06528455981717
7.896,0.9999971793798362,39.898013316810435
7.904,0.9999971478654864,39.73069087691594
7.912,0.9999971165111375,39.56331733883739
7.92,0.9999970853081864,39.395892801713835
7.928,0.9999970542480227,39.228417365120094
7.936,0.9999970233220323,39.06089112906699
7.944,0.9999969925216015,38.89331419400176
7.952,0.9999969618381198,38.72568666080833
7.96,0.9999969312629845,38.55800863080755
7.968,0.999996900787604,38.39028020575755
7.976,0.9999968704034023,38.222501487854046
7.984,0.9999968401018202,38.054672579730536
7.992,0.9999968098743228,37.88679358445858
8.0,0.999996779712399,37.71886460554811
8.008,0.9999967496075668,37.550885746947614
8.016,0.9999967195513776,37.38285711304429
8.024000000000001,0.9999966895354178,37.2147788086645
8.032,0.999996659551313,37.04665093907378
8.04,0.9999966295907323,36.878473609977036
8.048,0.999996599645389,36.710246927518824
8.056000000000001,0.9999965697070464,36.541970998283546
8.064,0.9999965397675193,36.37364592929558
8.072,0.9999965098186787,36.20527182801936
8.08,0.9999964798524528,36.03684880235964
8.088000000000001,0.9999964498608319,35.86837696066162
8.096,0.9999964198358706,35.699856411711075
8.104,0.9999963897696909,35.531287264734374
8.112,0.9999963596544849,35.36266962939865
8.120000000000001,0.9999963294825178,35.194003615812
8.128,0.9999962992461314,35.025289334523464
8.136,0.9999962689377455,34.856526896523064
8.144,0.9999962385498619,34.68771641324192
8.152000000000001,0.9999962080750662,34.51885799655237
8.16,0.9999961775060316,34.34995175876796
8.168,0.9999961468355197,34.18099781264339
8.176,0.9999961160563855,34.01199627137462
8.184000000000001,0.9999960851615773,33.84294724859894
8.192,0.9999960541441413,33.67385085839489
8.2,0.9999960229972225,33.50470721528224
8.208,0.9999959917140683,33.335516434221915
8.216000000000001,0.9999959602880303,33.16627863061617
8.224,0.999995928712566,32.996993920308356
8.232,0.9999958969812425,32.82766241958287
8.24,0.9999958650877373,32.65828424516516
8.248000000000001,0.9999958330258409,32.488859514221616
8.256,0.99999580078946,32.31938834435956
8.264,0.9999957683726174,32.14987085362691
8.272,0.999995735769456,31.98030716051228
8.280000000000001,0.9999957029742396,31.810697383944863
8.288,0.9999956699813557,31.64104164329415
8.296,0.9999956367853169,31.471340058369904
8.304,0.9999956033807625,31.3015927494218
8.312,0.999995569762461,31.131799837139617
8.32,0.9999955359253111,30.96196144265266
8.328,0.9999955018643438,30.792077687529844
8.336,0.9999954675747249,30.622148693779287
8.344,0.9999954330517546,30.452174583848276
8.352,0.9999953982908709,30.28215548062283
8.36,0.9999953632876504,30.112091507427692
8.368,0.9999953280378097,29.941982788025786
8.376,0.9999952925372075,29.77182944661826
8.384,0.9999952567818451,29.60163160784388
8.392,0.9999952207678681,29.43138939677908
8.4,0.9999951844915683,29.2611029389373
8.408,0.999995147949384,29.090772360269
8.416,0.9999951111379018,28.920397787161026
8.424,0.9999950740538577,28.74997934643656
8.432,0.9999950366941383,28.57951716535445
8.44,0.9999949990557809,28.40901137160918
8.448,0.9999949611359773,28.23846209333014
8.456,0.9999949229320705,28.067869459081574
8.464,0.99999488444156,27.897233597861838
8.472,0.9999948456620998,27.726554639103302
8.48,0.9999948065915005,27.555832712671606
8.488,0.9999947672277294,27.385067948865537
8.496,0.9999947275689126,27.21426047841622
8.504,0.9999946876133342,27.04341043248701
8.512,0.9999946473594379,26.87251794267267
8.52,0.9999946068058271,26.70158314099917
8.528,0.9999945659512659,26.5306061599229
8.536,0.9999945247946797,26.359587132330446
8.544,0.9999944833351556,26.18852619153771
8.552,0.9999944415719431,26.017423471289728
8.56,0.999994399504453,25.846279105759752
8.568,0.9999943571322607,25.67509322954902
8.576,0.9999943144551039,25.503865977685816
8.584,0.9999942714728839,25.332597485625225
8.592,0.9999942281856662,25.16128788924816
8.6,0.9999941845936803,24.989937324861096
8.608,0.9999941406973203,24.818545929195057
8.616,0.9999940964971435,24.647113839405346
8.624,0.999994051993873,24.475641193070487
8.632,0.9999940071883957,24.304128128191905
8.64,0.9999939620817633,24.132574783192915
8.648,0.9999939166751918,23.96098129691831
8.656,0.9999938709700614,23.789347808633334
8.664,0.9999938249679174,23.61767445802327
8.672,0.9999937786704686,23.445961385192344
8.68,0.999993732079588,23.27420873066331
8.688,0.9999936851973124,23.102416635376358
8.696,0.9999936380258413,22.930585240688632
8.704,0.9999935905675382,22.758714688373086
8.712,0.9999935428249298,22.586805120618024
8.72,0.9999934948007034,22.41485668002594
8.728,0.9999934464977103,22.24286950961297
8.736,0.9999933979189616,22.070843752807743
8.744,0.9999933490676308,21.89877955345082
8.752,0.9999932999470507,21.726677055793484
8.76,0.9999932505607143,21.554536404497153
8.768,0.9999932009122741,21.38235774463219
8.776,0.9999931510055409,21.21014122167723
8.784,0.9999931008444835,21.03788698151796
8.792,0.9999930504332275,20.865595170446507
8.8,0.9999929997760554,20.693265935160092
8.808,0.9999929488774048,20.520899422760404
8.815999999999999,0.9999928977418678,20.348495780752337
8.824,0.9999928463741911,20.176055157043066
8.832,0.9999927947792737,20.00357769994112
8.84,0.9999927429621666,19.83106355815527
8.847999999999999,0.9999926909280722,19.658512880793406
8.856,0.9999926386823419,19.48592581736152
8.864,0.9999925862304774,19.313302517762722
8.872,0.9999925335781269,19.140643132296102
8.879999999999999,0.9999924807310857,18.967947811655485
8.888,0.9999924276952951,18.79521670692843
8.896,0.9999923744768399,18.62244996959517
8.904,0.999992321081949,18.44964775152735
8.911999999999999,0.9999922675169922,18.27681020498685
8.92,0.9999922137884806,18.103937482624637
8.928,0.9999921599030642,17.93102973747966
8.936,0.9999921058675308,17.758087122977578
8.943999999999999,0.9999920516888049,17.58510979292948
8.952,0.9999919973739463,17.412097901530686
8.96,0.9999919429301483,17.23905160335961
8.968,0.999991888364736,17.065971053376433
8.975999999999999,0.9999918336851659,16.89285640692173
8.984,0.9999917788990232,16.719707819715257
8.992,0.9999917240140207,16.54652544785476
9.0,0.9999916690379977,16.37330944781452
9.008,0.9999916139789176,16.200059976444013
9.016,0.9999915588448661,16.026777190966616
9.024000000000001,0.9999915036440503,15.853461248978313
9.032,0.9999914483847974,15.680112308446263
9.04,0.999991393075551,15.506730527707358
9.048,0.9999913377248717,15.333316065466848
9.056000000000001,0.9999912823414333,15.159869080797051
9.064,0.9999912269340228,14.98638973313583
9.072,0.9999911715115367,14.81287818228509
9.08,0.9999911160829811,14.639334588409392
9.088000000000001,0.9999910606574685,14.465759112034542
9.096,0.9999910052442158,14.292151914046071
9.104,0.9999909498525436,14.118513155687639
9.112,0.9999908944918728,13.944842998559597
9.120000000000001,0.9999908391717236,13.771141604617576
9.128,0.999990783901713,13.59740913617083
9.136,0.9999907286915536,13.423645755880615
9.144,0.99999067355105,13.249851626758744
9.152000000000001,0.9999906184900986,13.076026912166041
9.16,0.999990563518684,12.902171775810684
9.168,0.9999905086468776,12.728286381746535
9.176,0.9999904538848353,12.554370894371598
9.184000000000001,0.999990399242796,12.380425478426437
9.192,0.9999903447310778,12.20645029899249
9.2,0.9999902903600786,12.032445521490303
9.208,0.9999902361402705,11.858411311677957
9.216000000000001,0.9999901820821994,11.68434783564945
9.224,0.999990128196484,11.510255259832917
9.232,0.999990074493811,11.33613375098884
9.24,0.999990020984935,11.161983476208393
9.248000000000001,0.9999899676806736,10.987804602911812
9.256,0.9999899145919084,10.813597298846515
9.264,0.9999898617295805,10.639361732085305
9.272,0.9999898091046886,10.465098071024633
9.280000000000001,0.9999897567282868,10.290806484382895
9.288,0.9999897046114818,10.116487141198569
9.296,0.9999896527654322,9.942140210828276
9.304,0.9999896012013432,9.767765862945065
9.312000000000001,0.9999895499304672,9.593364267536625
9.32,0.9999894989640989,9.418935594903353
9.328,0.9999894483135757,9.244480015656396
9.336,0.9999893979902715,9.06999770071588
9.344,0.9999893480055981,8.895488821309076
9.352,0.9999892983710001,8.72095354896826
9.36,0.9999892490979536,8.546392055529079
9.368,0.9999892001979632,8.371804513128323
9.376,0.9999891516825605,8.197191094202267
9.384,0.9999891035633004,8.022551971484406
9.392,0.9999890558517587,7.847887318003802
9.4,0.999989008559531,7.673197307082793
9.408,0.9999889616982279,7.498482112335265
9.416,0.9999889152794761,7.323741907664358
9.424,0.9999888693149105,7.148976867260779
9.432,0.9999888238161768,6.974187165600403
9.44,0.9999887787949264,6.799372977442567
9.448,0.9999887342628141,6.624534477827702
9.456,0.9999886902314961,6.449671842075526
9.464,0.999988646712627,6.274785245782727
9.472,0.9999886037178579,6.09987486482109
9.48,0.9999885612588323,5.9249408753351505
9.488,0.9999885193471857,5.749983453740329
9.496,0.9999884779945408,5.575002776720522
9.504,0.9999884372125074,5.399999021226235
9.512,0.9999883970126778,5.224972364472156
9.52,0.9999883574066245,5.049922983935255
9.528,0.9999883184058993,4.874851057352323
9.536,0.9999882800220287,4.69975676271807
9.544,0.9999882422665117,4.524640278282631
9.552,0.9999882051508192,4.349501782549632
9.56,0.9999881686863883,4.174341454273678
9.568,0.9999881328846228,3.9991594724584205
9.576,0.9999880977568883,3.8239560163539776
9.584,0.9999880633145113,3.648731265455004
9.592,0.9999880295687748,3.4734853994981028
9.6,0.9999879965309187,3.2982185984598535
9.608,0.9999879642121337,3.1229310425541907
9.616,0.9999879326235616,2.9476229122304374
9.624,0.9999879017762912,2.772294388170644
9.632,0.9999878716813566,2.5969456512876055
9.64,0.999987842349734,2.421576882722189
9.648,0.9999878137923403,2.2461882638412938
9.656,0.9999877860200288,2.0707799762351975
9.664,0.9999877590435883,1.895352201715484
9.672,0.9999877328737403,1.7199051223123518
9.68,0.999987707521136,1.5444389202725384
9.688,0.9999876829963539,1.3689537780565992
9.696,0.9999876593098982,1.193449878336817
9.704,0.9999876364721949,1.0179274039944624
9.712,0.9999876144935906,0.8423865381176702
9.72,0.9999875933843502,0.6668274639986831
9.728,0.9999875731546524,0.4912503651317243
9.736,0.9999875538145904,0.3156554252102047
9.744,0.9999875353741668,0.1400428281245741
9.752,0.9999875178432934,-0.035587242040477494
9.76,0.999987501231786,-0.21123460100819302
9.768,0.9999874855493662,-0.3868990643125764
9.776,0.9999874708056542,-0.5625804473005809
9.784,0.9999874570101709,-0.7382785651349407
9.792,0.999987444172332,-0.9139932327963926
9.8,0.9999874323014488,-1.0897242650865306
9.808,0.999987421406723,-1.265471476630038
9.816,0.9999874114972475,-1.4412346818775499
9.824,0.9999874025820001,-1.6170136951079246
9.832,0.999987394669846,-1.7928083304311153
9.84,0.9999873877695322,-1.968618401790449
9.847999999999999,0.9999873818896866,-2.1444437229654927
9.856,0.9999873770388145,-2.3202841075745386
9.864,0.9999873732252994,-2.496139369077129
