freq,mag,phase
6.0,0.9999964722799536,-142.94813361760342
6.008,0.9999955081917019,-143.33838334895637
6.016,0.9999945784429182,-143.72830407137394
6.024,0.9999936824039167,-144.11789819354553
6.032,0.9999928194517534,-144.50716813649527
6.04,0.9999919889701988,-144.8961163333879
6.048,0.9999911903497142,-145.28474522933706
6.056,0.9999904229874229,-145.67305728121516
6.064,0.9999896862870824,-146.06105495746584
6.072,0.9999889796590583,-146.44874073791786
6.08,0.9999883025202926,-146.83611711360138
6.088,0.9999876542942762,-147.22318658656607
6.096,0.9999870344110207,-147.60995166970105
6.104,0.9999864423070224,-147.99641488655735
6.112,0.9999858774252365,-148.38257877117158
6.12,0.9999853392150444,-148.7684458678923
6.128,0.9999848271322206,-149.15401873120774
6.136,0.9999843406389006,-149.5392999255758
6.144,0.9999838792035484,-149.92429202525597
6.152,0.9999834423009247,-150.30899761414295
6.16,0.9999830294120495,-150.6934192856026
6.168,0.9999826400241698,-151.07755964230932
6.176,0.9999822736307293,-151.46142129608555
6.184,0.9999819297313243,-151.84500686774308
6.192,0.9999816078316783,-152.22831898692667
6.2,0.9999813074435986,-152.61136029195865
6.208,0.9999810280849452,-152.99413342968603
6.216,0.9999807692795946,-153.3766410553295
6.224,0.9999805305573982,-153.75888583233373
6.232,0.999980311454152,-154.14087043222
6.24,0.9999801115115572,-154.5225975344401
6.248,0.9999799302771796,-154.90406982623287
6.256,0.9999797673044193,-155.2852900024813
6.264,0.9999796221524633,-155.66626076557256
6.272,0.9999794943862566,-156.046984825259
6.28,0.9999793835764581,-156.42746489852124
6.288,0.9999792892994076,-156.80770370943287
6.296,0.99997921113708,-157.18770398902672
6.304,0.9999791486770533,-157.56746847516334
6.312,0.9999791015124656,-157.9469999124002
6.32,0.9999790692419788,-158.3263010518638
6.328,0.9999790514697392,-158.70537465112193
6.336,0.9999790478053336,-159.08422347405917
6.344,0.9999790578637554,-159.46285029075264
6.352,0.9999790812653678,-159.84125787735013
6.36,0.9999791176358511,-160.21944901594972
6.368,0.9999791666061789,-160.59742649448043
6.376,0.9999792278125689,-160.97519310658524
6.384,0.9999793008964455,-161.35275165150497
6.392,0.9999793855043994,-161.7301049339641
6.4,0.9999794812881495,-162.10725576405784
6.408,0.9999795879045011,-162.48420695714074
6.416,0.9999797050153062,-162.86096133371697
6.424,0.999979832287426,-163.23752171933165
6.432,0.999979969392687,-163.61389094446406
6.44,0.9999801160078429,-163.99007184442198
6.448,0.9999802718145382,-164.36606725923752
6.456,0.9999804364992594,-164.74188003356437
6.464,0.9999806097533052,-165.1175130165764
6.472,0.9999807912727401,-165.49296906186737
6.48,0.999980980758357,-165.86825102735267
6.4879999999999995,0.9999811779156343,-166.2433617751714
6.496,0.999981382454704,-166.6183041715908
6.504,0.9999815940903014,-166.99308108691082
6.5120000000000005,0.9999818125417343,-167.36769539537121
6.52,0.9999820375328377,-167.7421499750585
6.5280000000000005,0.9999822687919376,-168.11644770781587
6.536,0.9999825060518093,-168.4905914791523
6.5440000000000005,0.9999827490496415,-168.8645841781547
6.552,0.9999829975269925,-169.23842869739985
6.5600000000000005,0.9999832512297543,-169.61212793286873
6.568,0.9999835099081122,-169.9856847838606
6.5760000000000005,0.9999837733165071,-170.35910215290974
6.584,0.9999840412135956,-170.7323829457019
6.592,0.9999843133622112,-171.10553007099284
6.6,0.9999845895293256,-171.47854644052754
6.608,0.9999848694860116,-171.85143496896032
6.616,0.9999851530074026,-172.22419857377648
6.624,0.9999854398726579,-172.5968401752143
6.632,0.9999857298649201,-172.96936269618885
6.64,0.9999860227712805,-173.34176906221592
6.648,0.9999863183827393,-173.7140622013378
6.656,0.9999866164941704,-174.0862450440492
6.664,0.9999869169042812,-174.45832052322473
6.672,0.9999872194155771,-174.8302915740468
6.68,0.9999875238343229,-175.20216113393496
6.688,0.9999878299705076,-175.57393214247568
6.696,0.9999881376378057,-175.945607541353
6.704,0.9999884466535425,-176.31719027428042
6.712,0.9999887568386548,-176.68868328693318
6.72,0.9999890680176575,-177.06008952688174
6.728,0.9999893800186055,-177.43141194352557
6.736,0.9999896926730583,-177.80265348802828
6.744,0.9999900058160442,-178.17381711325314
6.752,0.9999903192860251,-178.54490577369924
6.76,0.9999906329248597,-178.9159224254389
6.768,0.9999909465777701,-179.28687002605523
6.776,0.999991260093305,-179.65775153458063
6.784,0.9999915733233056,179.9714300885641
6.792,0.9999918861228716,179.60067188162975
6.8,0.9999921983503244,179.22997088159855
6.808,0.9999925098671764,178.859324124243
6.816,0.999992820538092,178.48872864418422
6.824,0.9999931302308589,178.11818147494972
6.832,0.9999934388163505,177.74767964903052
6.84,0.9999937461684938,177.37722019793802
6.848,0.999994052164237,177.0068001522599
6.856,0.9999943566835134,176.6364165417158
6.864,0.9999946596092124,176.2660663952125
6.872,0.9999949608271436,175.89574674089852
6.88,0.9999952602260055,175.52545460621812
6.888,0.9999955576973533,175.15518701796532
6.896,0.9999958531355665,174.78494100233704
6.904,0.9999961464378165,174.41471358498598
6.912,0.9999964375040361,174.04450179107306
6.92,0.9999967262368866,173.67430264531976
6.928,0.9999970125417275,173.30411317205971
6.936,0.9999972963265846,172.93393039529016
6.944,0.9999975775021199,172.563751338723
6.952,0.9999978559816004,172.19357302583572
6.96,0.9999981316808675,171.82339247992186
6.968,0.9999984045183069,171.4532067241411
6.976,0.9999986744148187,171.08301278156944
6.984,0.9999989412937867,170.71280767524877
6.992,0.9999992050810497,170.3425884282366
7.0,0.9999994657048727,169.9723520636552
7.008,0.9999997230959149,169.60209560474073
7.016,0.9999999771872027,169.23181607489227
7.024,0.9999999999999999,168.86151049772064
7.032,1.0,168.49117589709712
7.04,0.9999999999999999,168.1208092972018
7.048,1.0,167.7504077225722
7.056,1.0,167.37996819815163
7.064,0.9999999999999999,167.0094877493375
7.072,0.9999999999999999,166.6389634020294
7.08,0.9999999999999999,166.26839218267756
7.088,0.9999999999999999,165.89777111833092
7.096,1.0,165.52709723668525
7.104,0.9999999999999999,165.15636756613156
7.112,0.9999999999999998,164.7855791358042
7.12,1.0,164.41472897562912
7.128,0.9999999999999998,164.04381411637237
7.136,1.0,163.67283158968849
7.144,1.0,163.301778428169
7.152,0.9999999999999999,162.93065166539108
7.16,0.9999999999999999,162.5594483359665
7.168,1.0,162.1881654755903
7.176,1.0,161.8168001210901
7.184,1.0,161.44534931047545
7.192,0.9999999999999999,161.07381008298705
7.2,0.9999999999999999,160.7021794791467
7.208,0.9999999999999999,160.3304545408072
7.216,1.0,159.95863231120245
7.224,0.9999999999999999,159.58670983499795
7.232,0.9999999999999999,159.21468415834158
7.24,0.9999999999999999,158.84255232891465
7.248,1.0,158.4703113959831
7.256,1.0,158.09795841044934
7.264,1.0,157.72549042490428
7.272,1.0,157.3529044936796
7.28,1.0,156.98019767290066
7.288,1.0,156.60736702053953
7.296,0.9999999999999999,156.23440959646877
7.304,1.0,155.86132246251526
7.312,1.0,155.48810268251475
7.32,1.0,155.11474732236675
7.328,1.0000000000000002,154.74125345009006
7.336,1.0,154.36761813587836
7.344,1.0,153.99383845215698
7.352,0.9999999999999999,153.61991147363963
7.36,0.9999999999999998,153.24583427738588
7.368,1.0,152.87160394285922
7.376,0.9999999999999999,152.49721755198573
7.384,1.0,152.12267218921326
7.392,1.0,151.74796494157113
7.4,1.0,151.37309289873062
7.4079999999999995,1.0,150.99805315306622
7.416,0.9999999999999999,150.62284279971703
7.4239999999999995,1.0,150.2474589366495
7.432,0.9999999999999999,149.8718986647202
7.4399999999999995,0.9999999999999999,149.49615908773995
7.448,1.0,149.12023731253785
7.4559999999999995,1.0,148.7441304490272
7.464,0.9999999999999999,148.36783561027065
7.4719999999999995,0.9999999999999999,147.9913499125479
7.48,1.0,147.61467047542234
7.4879999999999995,1.0,147.23779442181007
7.496,1.0,146.86071887804866
7.504,1.0,146.48344097396728
7.5120000000000005,0.9999999999999999,146.1059578429575
7.52,1.0,145.72826662204508
7.5280000000000005,1.0,145.35036445196218
7.536,1.0000000000000002,144.9722484772213
7.5440000000000005,1.0,144.59391584618922
7.552,0.9999999999999999,144.21536371116267
7.5600000000000005,0.9999999999999999,143.83658922844393
7.568,1.0,143.45758955841885
7.5760000000000005,0.9999999999999998,143.0783618656341
7.584,0.9999999999999999,142.698903318877
7.5920000000000005,0.9999999999999999,142.31921109125514
7.6,0.9999999999999999,141.9392823602778
7.6080000000000005,1.0,141.55911430793785
7.616,1.0,141.17870412079526
7.6240000000000006,0.9999999999999999,140.79804899006095
7.632,1.0,140.41714611168254
7.640000000000001,0.9999999999999999,140.03599268643023
7.648,1.0,139.65458591998492
7.656000000000001,1.0,139.2729230230262
7.664,0.9999999999999999,138.8910012113227
7.672,1.0,138.5088177058223
7.68,0.9999999999999999,138.12636973274476
7.688,1.0,137.7436545236747
7.696,1.0,137.360669315656
7.704,0.9999999999999999,136.97741135128732
7.712,1.0,136.59387787881906
7.72,0.9999999999999999,136.21006615225127
7.728,0.9999999999999999,135.825973431433
7.736,1.0,135.44159698216288
7.744,0.9999999999999999,135.05693407629067
7.752,0.9999999999999999,134.67198199182064
7.76,1.0,134.28673801301568
7.768,0.9999999999999999,133.90119943050325
7.776,0.9999999999999999,133.51536354138193
7.784,1.0,133.12922764933026
7.792,0.9999999999999999,132.742789064716
7.8,1.0,132.3560451047073
7.808,1.0,131.9689930933852
7.816,1.0,131.5816303618571
7.824,1.0,131.1939542483722
7.832,0.9999999999999999,130.80596209843785
7.84,1.0,130.41765126493777
7.848,0.9999999999999999,130.0290191082511
7.856,1.0,129.64006299637362
7.864,1.0,129.25078030503968
7.872,1.0000000000000002,128.86116841784624
7.88,1.0,128.47122472637787
7.888,1.0,128.08094663033356
7.896,1.0,127.69033153765491
7.904,1.0,127.29937686465567
7.912,1.0,126.90808003615307
7.92,1.0,126.51643848560056
7.928,0.9999999999999999,126.12444965522187
7.936,1.0,125.73211099614701
7.944,1.0,125.3394199685494
7.952,1.0,124.94637404178484
7.96,1.0,124.55297069453198
7.968,0.9999999999999999,124.15920741493429
7.976,1.0,123.76508170074355
7.984,0.9999999999999999,123.37059105946531
7.992,0.9999999999999999,122.97573300850527
8.0,1.0,122.580505075318
8.008,1.0,122.18490479755671
8.016,1.0,121.78892972322483
8.024000000000001,0.9999999999999999,121.39257741082936
8.032,1.0000000000000002,120.99584542953575
8.04,0.9999999999999999,120.59873135932393
8.048,1.0,120.20123279114681
8.056000000000001,1.0,119.80334732708998
8.064,0.9999999999999999,119.40507258053307
8.072,1.0,119.00640617631254
8.08,1.0,118.60734575088645
8.088000000000001,0.9999999999999998,118.20788895250111
8.096,1.0,117.80803344135872
8.104,1.0,117.40777688978697
8.112,0.9999998943065778,117.00711698241047
8.120000000000001,0.9999997335433454,116.6060514163238
8.128,0.9999995727885571,116.20457790126615
8.136,0.9999994120984668,115.80269415979724
8.144,0.9999992515291366,115.40039792747548
8.152000000000001,0.9999990911364253,114.99768695303787
8.16,0.9999989309759773,114.594558998581
8.168,0.9999987711032117,114.19101183974378
8.176,0.9999986115733113,113.78704326589234
8.184000000000001,0.999998452441211,113.3826510803063
8.192,0.9999982937615887,112.97783310036665
8.2,0.9999981355888513,112.57258715774502
8.208,0.9999979779771269,112.1669110985951
8.216000000000001,0.999997820980253,111.7608027837456
8.224,0.9999976646517649,111.35426008889475
8.232,0.9999975090448867,110.94728090480596
8.24,0.9999973542125195,110.53986313750603
8.248000000000001,0.9999972002072307,110.13200470848443
8.256,0.9999970470812457,109.72370355489433
8.264,0.9999968948864348,109.31495762975483
8.272,0.9999967436743042,108.9057649021554
8.280000000000001,0.9999965934959865,108.49612335746185
8.288,0.9999964444022285,108.08603099752348
8.296,0.9999962964433826,107.67548584088176
8.304,0.9999961496693963,107.26448592298118
8.312,0.9999960041298032,106.85302929638124
8.32,0.9999958598737106,106.44111403096967
8.328,0.9999957169497914,106.0287382141781
8.336,0.9999955754062753,105.61589995119795
8.344,0.9999954352909357,105.20259736519924
8.352,0.9999952966510841,104.78882859754944
8.36,0.9999951595335566,104.37459180803525
8.368,0.9999950239847076,103.9598851750844
8.376,0.9999948900503987,103.54470689599009
8.384,0.9999947577759887,103.12905518713592
8.392,0.9999946272063259,102.71292828422308
8.4,0.9999944983857384,102.29632444249779
8.408,0.9999943713580232,101.87924193698163
8.416,0.9999942461664392,101.46167906270139
8.424,0.9999941228536982,101.0436341349221
8.432,0.999994001461953,100.62510548937962
8.44,0.999993882032793,100.2060914825161
8.448,0.999993764607232,99.78659049171507
8.456,0.9999936492256997,99.36660091553951
8.464,0.9999935359280352,98.94612117396922
8.472,0.9999934247534764,98.52514970864128
8.48,0.9999933157406516,98.10368498308988
8.488,0.9999932089275729,97.68172548298881
8.496,0.9999931043516259,97.25926971639365
8.504,0.9999930020495624,96.83631621398634
8.512,0.999992902057492,96.41286352931947
8.52,0.9999928044108738,95.98891023906286
8.528,0.9999927091445097,95.56445494324984
8.536,0.9999926162925342,95.1394962655257
8.544,0.9999925258884098,94.71403285339568
8.552,0.9999924379649151,94.28806337847544
8.56,0.9999923525541426,93.86158653674053
8.568,0.9999922696874857,93.43460104877843
8.576,0.999992189395635,93.00710566003973
8.584,0.9999921117085694,92.57909914109149
8.592,0.9999920366555503,92.15058028786989
8.6,0.9999919642651123,91.72154792193483
8.608,0.9999918945650591,91.2920008907238
8.616,0.9999918275824536,90.86193806780764
8.624,0.9999917633436137,90.43135835314546
8.632,0.9999917018741039,90.00026067334133
8.64,0.9999916431987299,89.56864398190007
8.648,0.9999915873415319,89.13650725948476
8.656,0.9999915343257778,88.70384951417314
8.664,0.9999914841739579,88.27066978171581
8.672,0.999991436907778,87.83696712579297
8.68,0.9999913925481535,87.40274063827312
8.688,0.9999913511152054,86.9679894394701
8.696,0.9999913126282516,86.53271267840191
8.704,0.9999912771058045,86.09690953304784
8.712,0.9999912445655628,85.66057921060724
8.72,0.9999912150244086,85.2237209477566
8.728,0.9999911884984003,84.78633401090798
8.736,0.9999911650027694,84.3484176964657
8.744,0.9999911445519138,83.90997133108435
8.752,0.9999911271593954,83.47099427192494
8.76,0.9999911128379333,83.03148590691205
8.768,0.9999911015994002,82.59144565498919
8.776,0.9999910934548191,82.150872966375
8.784,0.9999910884143575,81.70976732281756
8.792,0.9999910864873253,81.26812823784934
8.8,0.9999910876821693,80.82595525704006
8.808,0.9999910920064708,80.38324795825034
8.815999999999999,0.9999910994669409,79.94000595188294
8.824,0.9999911100694191,79.49622888113416
8.832,0.999991123818868,79.05191642224418
8.84,0.999991140719372,78.60706828474582
8.847999999999999,0.9999911607741337,78.16168421171236
8.856,0.9999911839854712,77.71576398000448
8.864,0.999991210354816,77.26930740051596
8.872,0.9999912398827108,76.82231431841754
8.879999999999999,0.9999912725688075,76.3747846133996
8.888,0.999991308411864,75.92671819991355
8.896,0.9999913474097449,75.47811502741173
8.904,0.9999913895594177,75.0289750805853
8.911999999999999,0.9999914348569523,74.57929837960036
8.92,0.9999914832975205,74.12908498033279
8.928,0.9999915348753939,73.67833497460096
8.936,0.999991589583944,73.22704849039647
8.943999999999999,0.9999916474156416,72.77522569211256
8.952,0.9999917083620551,72.32286678077081
8.96,0.9999917724138526,71.86997199424589
8.968,0.9999918395608003,71.41654160748737
8.975999999999999,0.9999919097917631,70.96257593273934
8.984,0.9999919830947054,70.50807531975778
8.992,0.9999920594566916,70.05304015602569
9.0,0.9999921388638869,69.59747086696498
9.008,0.9999922213015583,69.14136791614565
9.016,0.9999923067540764,68.6847318054928
9.024000000000001,0.9999923952049161,68.22756307549047
9.032,0.9999924866366597,67.76986230538236
9.04,0.9999925810309981,67.31163011336942
9.048,0.9999926783687316,66.85286715680452
9.056000000000001,0.9999927786297753,66.39357413238426
9.064,0.9999928817931599,65.93375177633673
9.072,0.9999929878370347,65.47340086460608
9.08,0.9999930967386708,65.01252221303376
9.088000000000001,0.999993208474465,64.55111667753648
9.096,0.9999933230199424,64.0891851542798
9.104,0.9999934403497622,63.6267285798482
9.112,0.999993560437719,63.1637479314114
9.120000000000001,0.9999936832567492,62.70024422688712
9.128,0.9999938087789348,62.23621852509902
9.136,0.9999939369755084,61.77167192593074
9.144,0.9999940678168583,61.30660557047601
9.152000000000001,0.9999942012725332,60.84102064118454
9.16,0.9999943373112484,60.37491836200298
9.168,0.9999944759008915,59.90829999851156
9.176,0.9999946170085282,59.4411668580563
9.184000000000001,0.999994760600408,58.973520289876795
9.192,0.9999949066419723,58.5053616852287
9.2,0.9999950550978597,58.0366924775013
9.208,0.9999952059319134,57.56751414233072
9.216000000000001,0.999995359107189,57.09782819770795
9.224,0.9999955145859616,56.62763620408128
9.232,0.9999956723297324,56.15693976445378
9.24,0.9999958322992396,55.68574052447561
9.248000000000001,0.999995994454464,55.21404017253109
9.256,0.9999961587546387,54.74184043981985
9.264,0.9999963251582571,54.269143100432395
9.272,0.9999964936230827,53.79594997142037
9.280000000000001,0.9999966641061592,53.32226291286132
9.288,0.9999968365638171,52.84808382791694
9.296,0.9999970109516866,52.373414662885565
9.304,0.9999971872247057,51.898257407249055
9.312000000000001,0.9999973653371307,51.42261409371365
9.32,0.9999975452425482,50.94648679824416
9.328,0.9999977268938837,50.469877640092086
9.336,0.9999979102434137,49.99278878181765
9.344,0.9999980952427772,49.51522242930575
9.352,0.999998281842987,49.03718083177419
9.36,0.9999984699944402,48.55866628177715
9.368,0.999998659646932,48.07968111520022
9.376,0.9999988507496672,47.600227711250554
9.384,0.9999990432512718,47.12030849243834
9.392,0.9999992370998068,46.63992592455351
9.4,0.9999994322427808,46.159082516633475
9.408,0.9999996286271627,45.677780820925925
9.416,0.9999998261993953,45.19602343284257
9.424,1.0,44.71381299090784
9.432,0.9999999999999999,44.23115217669846
9.44,1.0,43.748043714777566
9.448,1.0,43.26449037262
9.456,1.0,42.78049496053181
9.464,1.0,42.2960603315607
9.472,0.9999999999999998,41.81118938140078
9.48,0.9999999999999999,41.32588504828806
9.488,1.0,40.84015031289021
9.496,1.0,40.35398819818696
9.504,1.0,39.86740176934461
9.512,1.0,39.38039413358105
9.52,1.0,38.89296844002494
9.528,1.0,38.4051278795653
9.536,0.9999999999999999,37.916875684695164
9.544,0.9999999999999999,37.428215129345524
9.552,0.9999999999999999,36.939149528713216
9.56,1.0,36.44968223907931
9.568,1.0,35.959816657621076
9.576,1.0,35.46955622221459
9.584,0.9999999999999999,34.97890441123082
9.592,1.0,34.48786474332227
9.6,1.0,33.99644077720315
9.608,1.0,33.50463611141997
9.616,1.0,33.012454384115856
9.624,1.0,32.519899272784876
9.632,0.9999999999999999,32.026974494020486
9.64,0.9999999999999999,31.533683803253844
9.648,1.0,31.040030994485974
9.656,1.0,30.54601990001028
9.664,1.0,30.051654390128537
9.672,1.0,29.556938372857466
9.68,1.0,29.06187579362866
9.688,0.9999999999999999,28.566470634979144
9.696,0.9999999999999999,28.070726916235532
9.704,1.0,27.57464869318854
9.712,0.9999999999999999,27.078240057761274
9.72,1.0,26.58150513766807
9.728,0.9999999999999999,26.084448096066946
9.736,0.9999999999999998,25.58707313120274
9.744,1.0,25.089384476044053
9.752,1.0,24.59138639791074
9.76,0.9999999999999999,24.093083198095453
9.768,1.0,23.594479211475818
9.776,1.0,23.095578806120574
9.784,1.0000000000000002,22.59638638288668
9.792,1.0,22.09690637501044
9.8,0.9999999999999999,21.59714324768953
9.808,1.0,21.09710149765938
9.816,0.9999999999999999,20.59678565276048
9.824,0.9999999999999999,20.096200271500212
9.832,1.0,19.595349942605658
9.84,1.0,19.094239284571216
9.847999999999999,0.9999999999999999,18.5928729451974
9.856,1.0,18.09125560112381
9.864,1.0,17.589391957355197
9.872,0.9999999999999999,17.08728674678025
9.879999999999999,1.0,16.584944729683677
