freq,mag,phase
6.0,0.9999930828685147,32.41336151335019
6.008,0.9999916672146195,32.15483547937758
6.016,0.9999902743604963,31.896178207419553
6.024,0.9999889041417518,31.637390570378095
6.032,0.99998755639412,31.378473445435926
6.04,0.9999862309534665,31.11942771403661
6.048,0.9999849276557963,30.860254261864213
6.056,0.9999836463372569,30.600953978822726
6.064,0.999982386834145,30.341527759015186
6.072,0.9999811489829116,30.081976500722362
6.08,0.9999799326201676,29.822301106381175
6.088,0.9999787375826893,29.562502482562923
6.096,0.9999775637074241,29.302581539950953
6.104,0.9999764108314959,29.042539193318166
6.112,0.99997527879221,28.78237636150421
6.12,0.9999741674270605,28.5220939673922
6.128,0.9999730765737334,28.261692937885364
6.136,0.9999720060701144,28.001174203883146
6.144,0.9999709557542927,27.740538700257105
6.152,0.9999699254645683,27.479787365826503
6.16,0.9999689150394567,27.218921143333482
6.168,0.9999679243176933,26.9579409794181
6.176,0.9999669531382425,26.696847824592883
6.184,0.9999660013402991,26.43564263321713
6.192,0.9999650687632974,26.174326363470946
6.2,0.9999641552469147,25.9128999773289
6.208,0.9999632606310781,25.651364440533463
6.216,0.9999623847559689,25.389720722568008
6.224,0.9999615274620306,25.127969796629607
6.232,0.9999606885899717,24.866112639601546
6.24,0.9999598679807731,24.6041502320254
6.248,0.9999590654756939,24.342083558072993
6.256,0.9999582809162763,24.079913605517863
6.264,0.9999575141443506,23.817641365706567
6.272,0.9999567650020437,23.555267833529705
6.28,0.9999560333317805,23.292794007392466
6.288,0.9999553189762937,23.030220889185127
6.296,0.999954621778627,22.767549484253085
6.304,0.9999539415821413,22.50478080136664
6.312,0.9999532782305206,22.241915852690507
6.32,0.9999526315677777,21.978955653753108
6.328,0.9999520014382589,21.715901223415408
6.336,0.9999513876866511,21.45275358383958
6.344,0.9999507901579865,21.18951376045752
6.352,0.9999502086976481,20.926182781938707
6.36,0.9999496431513759,20.662761680158244
6.368,0.9999490933652722,20.39925149016427
6.376,0.9999485591858066,20.13565325014528
6.384,0.9999480404598234,19.871968001397047
6.392,0.9999475370345444,19.608196788289515
6.4,0.9999470487575771,19.34434065823309
6.408,0.9999465754769186,19.080400661645008
6.416,0.9999461170409623,18.816377851915092
6.424,0.9999456732985013,18.552273285371616
6.432,0.9999452440987369,18.28808802124658
6.44,0.9999448292912817,18.023823121640998
6.448,0.9999444287261661,17.759479651489762
6.456,0.9999440422538435,17.495058678526288
6.464,0.9999436697251957,17.230561273247016
6.472,0.9999433109915388,16.965988508875515
6.48,0.9999429659046273,16.701341461326454
6.4879999999999995,0.9999426343166614,16.436621209169356
6.496,0.9999423160802902,16.171828833591867
6.504,0.9999420110486188,15.906965418363324
6.5120000000000005,0.999941719075213,15.64203204979737
6.52,0.9999414400141041,15.377029816715085
6.5280000000000005,0.9999411737197946,15.11195981040716
6.536,0.9999409200472636,14.846823124596687
6.5440000000000005,0.9999406788519719,14.581620855400729
6.552,0.9999404499898663,14.31635410129273
6.5600000000000005,0.9999402333173867,14.05102396306373
6.568,0.9999400286914691,13.785631543784284
6.5760000000000005,0.9999398359695525,13.520177948765237
6.584,0.9999396550095818,13.254664285519302
6.592,0.9999394856700163,12.989091663721414
6.6,0.9999393278098302,12.723461195169754
6.608,0.9999391812885222,12.457773993746061
6.616,0.999939045966116,12.192031175375915
6.624,0.9999389217031698,11.926233857988848
6.632,0.9999388083607771,11.660383161478212
6.64,0.9999387058005735,11.394480207660948
6.648,0.9999386138847423,11.128526120237062
6.656,0.999938532476017,10.862522024749055
6.664,0.9999384614376884,10.59646904854108
6.672,0.9999384006336077,10.330368320717984
6.68,0.9999383499281916,10.064220972104165
6.688,0.9999383091864276,9.798028135202285
6.696,0.9999382782738777,9.531790944151803
6.704,0.9999382570566833,9.265510534687378
6.712,0.9999382454015694,8.999188044097107
6.72,0.9999382431758506,8.732824611180622
6.728,0.999938250247433,8.466421376207034
6.736,0.9999382664848208,8.19997948087276
6.744,0.9999382917571193,7.933500068259182
6.752,0.9999383259340404,7.666984282790219
6.76,0.9999383688859053,7.400433270189719
6.768,0.9999384204836502,7.133848177438759
6.776,0.9999384805988303,6.867230152732827
6.784,0.9999385491036227,6.600580345438869
6.792,0.9999386258708318,6.33389990605222
6.8,0.9999387107738932,6.06718998615346
6.808,0.9999388036868766,5.800451738365125
6.816,0.9999389044844912,5.5336863163083345
6.824,0.9999390130420887,5.2668948745593145
6.832,0.9999391292356676,5.000078568605838
6.84,0.999939252941877,4.7332385548035685
6.848,0.9999393840380196,4.466375990332316
6.856,0.9999395224020561,4.199492033152197
6.864,0.9999396679126095,3.932587841959759
6.872,0.999939820448967,3.665664576143969
6.88,0.999939979891086,3.3987233957421954
6.888,0.9999401461195939,3.131765461396076
6.896,0.9999403190157959,2.8647919343073394
6.904,0.9999404984616749,2.5978039761935787
6.912,0.9999406843398978,2.330802749243953
6.92,0.9999408765338155,2.0637894160748522
6.928,0.9999410749274685,1.796765139685503
6.936,0.9999412794055904,1.529731083413547
6.944,0.999941489853609,1.2626884108905603
6.952,0.9999417061576511,0.9956382859975688
6.96,0.9999419282045442,0.7285818728205077
6.968,0.9999421558818212,0.4615203356056418
6.976,0.9999423890777218,0.1944548387150254
6.984,0.9999426276811954,-0.07261345341812787
6.992,0.9999428715819054,-0.339683376334055
7.0,0.9999431206702297,-0.6067537655910444
7.008,0.9999433748372658,-0.8738234568100989
7.016,0.9999436339748309,-1.1408912857195412
7.024,0.9999438979754669,-1.407956088199651
7.032,0.9999441667324411,-1.6750167003272842
7.04,0.9999444401397493,-1.9420719584204889
7.048,0.999944718092119,-2.2091206990830963
7.056,0.9999450004850098,-2.4761617592493175
7.064,0.9999452872146171,-2.7431939762282656
7.072,0.9999455781778749,-3.010216187748516
7.08,0.999945873272456,-3.277227232002595
7.088,0.9999461723967754,-3.544225947691444
7.096,0.9999464754499928,-3.8112111740688333
7.104,0.9999467823320123,-4.078181750985769
7.112,0.9999470929434877,-4.345136518934804
7.12,0.999947407185821,-4.612074319094335
7.128,0.9999477249611664,-4.878993993372841
7.136,0.9999480461724308,-5.145894384453014
7.144,0.9999483707232765,-5.4127743358359295
7.152,0.999948698518122,-5.679632691885026
7.16,0.9999490294621431,-5.946468297870131
7.168,0.9999493634612767,-6.2132800000112915
7.176,0.9999497004222184,-6.4800666455226485
7.184,0.9999500402524278,-6.746827082656149
7.192,0.9999503828601265,-7.013560160745187
7.2,0.999950728154302,-7.280264730248169
7.208,0.9999510760447073,-7.54693964279197
7.216,0.9999514264418615,-7.813583751215282
7.224,0.9999517792570525,-8.080195909611945
7.232,0.9999521344023373,-8.346774973374005
7.24,0.9999524917905421,-8.613319799234809
7.248,0.9999528513352637,-8.879829245311964
7.256,0.9999532129508708,-9.146302171150104
7.264,0.999953576552504,-9.412737437763601
7.272,0.9999539420560773,-9.679133907679136
7.28,0.9999543093782765,-9.945490444978146
7.288,0.9999546784365635,-10.211805915339122
7.296,0.9999550491491721,-10.478079186079787
7.304,0.9999554214351134,-10.744309126199111
7.312,0.9999557952141719,-11.010494606419249
7.32,0.9999561704069079,-11.276634499227212
7.328,0.9999565469346569,-11.542727678916524
7.336,0.9999569247195308,-11.808773021628605
7.344,0.9999573036844166,-12.074769405394097
7.352,0.9999576837529782,-12.340715710173962
7.36,0.9999580648496538,-12.606610817900455
7.368,0.9999584468996585,-12.872453612517841
7.376,0.9999588298289814,-13.138242980023142
7.384,0.999959213564389,-13.40397780850642
7.392,0.9999595980334206,-13.669656988191182
7.4,0.9999599831643916,-13.935279411474369
7.4079999999999995,0.999960368886391,-14.200843972966256
7.416,0.9999607551292808,-14.466349569530289
7.4239999999999995,0.999961141823698,-14.731795100322326
7.432,0.9999615289010501,-14.997179466830339
7.4399999999999995,0.9999619162935182,-15.262501572913088
7.448,0.999962303934053,-15.527760324839543
7.4559999999999995,0.9999626917563769,-15.7929546313271
7.464,0.9999630796949815,-16.05808340358057
7.4719999999999995,0.9999634676851265,-16.323145555330047
7.48,0.9999638556628397,-16.58814000286938
7.4879999999999995,0.9999642435649158,-16.853065665093673
7.496,0.9999646313289144,-17.117921463537368
7.504,0.9999650188931605,-17.382706322411174
7.5120000000000005,0.9999654061967411,-17.64741916863982
7.52,0.9999657931795064,-17.912058931898486
7.5280000000000005,0.9999661797820663,-18.17662454465008
7.536,0.9999665659457907,-18.441114942181205
7.5440000000000005,0.9999669516128069,-18.70552906263904
7.552,0.9999673367259987,-18.969865847066785
7.5600000000000005,0.9999677212290049,-19.234124239440003
7.568,0.9999681050662175,-19.49830318670162
7.5760000000000005,0.9999684881827797,-19.762401638797837
7.584,0.9999688705245849,-20.02641854871262
7.5920000000000005,0.9999692520382747,-20.29035287250298
7.6,0.9999696326712368,-20.55420356933311
7.6080000000000005,0.9999700123716034,-20.81796960150909
7.616,0.999970391088249,-21.081649934512527
7.6240000000000006,0.9999707687707887,-21.345243537034726
7.632,0.9999711453695764,-21.60874938100978
7.640000000000001,0.9999715208357021,-21.872166441648282
7.648,0.9999718951209898,-22.13549369746982
7.656000000000001,0.9999722681779957,-22.39873013033618
7.664,0.9999726399600063,-22.661874725483273
7.672,0.9999730104210351,-22.92492647155379
7.68,0.9999733795158208,-23.1878843606287
7.688,0.9999737471998251,-23.450747388259092
7.696,0.99997411342923,-23.71351455349738
7.704,0.9999744781609354,-23.976184858928406
7.712,0.9999748413525565,-24.238757310700173
7.72,0.9999752029624209,-24.50123091855435
7.728,0.9999755629495675,-24.76360469585639
7.736,0.9999759212737406,-25.025877659625532
7.744,0.9999762778953913,-25.288048830564314
7.752,0.9999766327756708,-25.550117233087903
7.76,0.9999769858764315,-25.812081895353142
7.768,0.9999773371602197,-26.073941849287273
7.776,0.9999776865902774,-26.33569613061628
7.784,0.9999780341305349,-26.597343778893134
7.792,0.9999783797456114,-26.858883837525497
7.8,0.9999787234008095,-27.120315353803345
7.808,0.9999790650621144,-27.381637378926104
7.816,0.9999794046961877,-27.6428489680296
7.824,0.9999797422703679,-27.90394918021264
7.832,0.9999800777526638,-28.164937078563344
7.84,0.9999804111117536,-28.425811730185117
7.848,0.999980742316981,-28.68657220622229
7.856,0.999981071338351,-28.947217581885557
7.864,0.999981398146528,-29.207746936476976
7.872,0.9999817227128309,-29.468159353414723
7.88,0.9999820450092312,-29.72845392025753
7.888,0.9999823650083483,-29.98862972872882
7.896,0.9999826826834469,-30.248685874740403
7.904,0.9999829980084325,-30.508621458416137
7.912,0.9999833109578488,-30.768435584114886
7.92,0.9999836215068738,-31.0281273604535
7.928,0.9999839296313153,-31.287695900329314
7.936,0.9999842353076094,-31.547140320942315
7.944,0.9999845385128135,-31.80645974381706
7.952,0.9999848392246066,-32.065653294824244
7.96,0.9999851374212813,-32.3247201042019
7.968,0.9999854330817435,-32.58365930657639
7.976,0.9999857261855067,-32.842470040982896
7.984,0.999986016712689,-33.101151450885816
7.992,0.9999863046440086,-33.35970268419865
8.0,0.9999865899607802,-33.61812289330358
8.008,0.9999868726449107,-33.87641123507086
8.016,0.9999871526788967,-34.134566870877826
8.024000000000001,0.9999874300458179,-34.3925889666274
8.032,0.9999877047293358,-34.65047669276643
8.04,0.9999879767136878,-34.90822922430393
8.048,0.9999882459836844,-35.1658457408286
8.056000000000001,0.9999885125247036,-35.42332542652601
8.064,0.9999887763226887,-35.68066747019587
8.072,0.9999890373641428,-35.93787106526871
8.08,0.9999892956361252,-36.194935409822236
8.088000000000001,0.999989551126247,-36.451859706597254
8.096,0.9999898038226669,-36.70864316301345
8.104,0.9999900537140872,-36.965284991185044
8.112,0.9999903007897499,-37.22178440793559
8.120000000000001,0.9999905450394314,-37.47814063481274
8.128,0.9999907864534395,-37.734352898102735
8.136,0.9999910250226086,-37.990420428844665
8.144,0.9999912607382946,-38.24634246284409
8.152000000000001,0.9999914935923715,-38.50211824068643
8.16,0.9999917235772277,-38.7577470077502
8.168,0.9999919506857602,-39.01322801421993
8.176,0.9999921749113712,-39.268560515098635
8.184000000000001,0.9999923962479633,-39.5237437702197
8.192,0.9999926146899352,-39.77877704425904
8.2,0.9999928302321777,-40.03365960674664
8.208,0.9999930428700688,-40.28839073207765
8.216000000000001,0.9999932525994701,-40.54296969952327
8.224,0.9999934594167208,-40.79739579324133
8.232,0.9999936633186349,-41.05166830228672
8.24,0.9999938643024957,-41.30578652062125
8.248000000000001,0.9999940623660525,-41.55974974712309
8.256,0.9999942575075148,-41.813557285596325
8.264,0.9999944497255486,-42.067208444779915
8.272,0.9999946390192718,-42.320702538356436
8.280000000000001,0.99999482538825,-42.57403888496021
8.288,0.999995008832491,-42.82721680818559
8.296,0.9999951893524419,-43.08023563659475
8.304,0.9999953669489838,-43.333094703725095
8.312,0.9999955416234265,-43.58579334809622
8.32,0.9999957133775051,-43.83833091321708
8.328,0.9999958822133759,-44.09070674759212
8.336,0.9999960481336099,-44.34292020472802
8.344,0.999996211141191,-44.59497064313901
8.352,0.999996371239509,-44.846857426353075
8.36,0.9999965284323571,-45.098579922916805
8.368,0.9999966827239255,-45.35013750640079
8.376,0.9999968341187991,-45.60152955540401
8.384,0.9999969826219504,-45.85275545355861
8.392,0.9999971282387377,-46.10381458953366
8.4,0.9999972709748984,-46.354706357039376
8.408,0.9999974108365458,-46.60543015483028
8.416,0.9999975478301645,-46.855985386708845
8.424,0.999997681962605,-47.10637146152809
8.432,0.9999978132410806,-47.356587793194606
8.44,0.9999979416731615,-47.606633800670565
8.448,0.9999980672667712,-47.856508907976206
8.456,0.9999981900301824,-48.10621254419137
8.464,0.9999983099720118,-48.35574414345726
8.472,0.9999984271012149,-48.6051031449774
8.48,0.9999985414270839,-48.854288993019026
8.488,0.9999986529592406,-49.10330113691338
8.496,0.9999987617076345,-49.35213903105646
8.504,0.9999988676825364,-49.60080213490887
8.512,0.9999989708945346,-49.849289912996014
8.52,0.999999071354531,-50.097601834907415
8.528,0.9999991690737361,-50.34573737529634
8.536,0.9999992640636655,-50.59369601387851
8.544,0.9999993563361336,-50.84147723543135
8.552,0.9999994459032516,-51.089080529792106
8.56,0.9999995327774218,-51.336505391856484
8.568,0.9999996169713335,-51.58375132157631
8.576,0.9999996984979588,-51.830817823957695
8.584,0.9999997773705481,-52.07770440905816
8.592,0.9999998536026262,-52.32441059198423
8.6,0.9999999272079875,-52.57093589288809
8.608,0.9999999982006925,-52.81727983696465
8.616,1.0,-53.063441954447796
8.624,0.9999999999999999,-53.30942178060687
8.632,0.9999999999999999,-53.55521885574239
8.64,1.0,-53.800832725182204
8.648,1.0,-54.04626293927653
8.656,0.9999999999999999,-54.29150905339377
8.664,0.9999999999999999,-54.536570627915005
8.672,1.0,-54.781447228229375
8.68,1.0,-55.0261384247281
8.688,0.9999999999999999,-55.27064379279935
8.696,1.0,-55.51496291282186
8.704,1.0,-55.7590953701593
8.712,1.0,-56.00304075515353
8.72,1.0,-56.246798663118376
8.728,0.9999999999999999,-56.49036869433252
8.736,1.0,-56.7337504540329
8.744,1.0,-56.976943552407064
8.752,1.0,-57.21994760458614
8.76,0.9999999999999999,-57.462762230636834
8.768,1.0,-57.70538705555392
8.776,1.0,-57.947821709251855
8.784,1.0,-58.19006582655685
8.792,1.0,-58.43211904719801
8.8,0.9999999999999999,-58.67398101579906
8.808,0.9999999999999999,-58.91565138186909
8.815999999999999,0.9999999999999999,-59.157129799793864
8.824,1.0,-59.39841592882632
8.832,0.9999999999999999,-59.63950943307703
8.84,0.9999999999999999,-59.88040998150473
8.847999999999999,1.0,-60.12111724790648
8.856,0.9999999999999999,-60.3616309109076
8.864,1.0,-60.60195065395131
8.872,1.0,-60.84207616528846
8.879999999999999,0.9999999999999999,-61.08200713796707
8.888,1.0,-61.321743269821425
8.896,1.0,-61.56128426346111
8.904,1.0,-61.80062982625991
8.911999999999999,1.0,-62.039779670344736
8.92,1.0,-62.27873351258404
8.928,0.9999999999999999,-62.51749107457602
8.936,1.0,-62.7560520826371
8.943999999999999,0.9999999999999999,-62.99441626778992
8.952,0.9999999999999999,-63.23258336575125
8.96,0.9999999999999999,-63.47055311691954
8.968,1.0,-63.708325266362685
8.975999999999999,1.0,-63.94589956380545
8.984,1.0,-64.18327576361675
8.992,1.0,-64.42045362479654
9.0,1.0,-64.65743291096304
9.008,1.0,-64.89421339033952
9.016,1.0,-65.13079483574096
9.024000000000001,1.0,-65.3671770245605
9.032,0.9999999999999999,-65.60335973875586
9.04,1.0,-65.8393427648358
9.048,1.0,-66.07512589384609
9.056000000000001,1.0,-66.3107089213554
9.064,1.0,-66.54609164744127
9.072,0.9999999999999999,-66.78127387667601
9.08,1.0,-67.01625541811207
9.088000000000001,1.0,-67.25103608526756
9.096,1.0,-67.4856156961116
9.104,1.0,-67.71999407304969
9.112,0.9999999699651053,-67.95417104290884
9.120000000000001,0.9999999120691796,-68.18814643692225
9.128,0.9999998528553756,-68.42192009071448
9.136,0.9999997923468505,-68.65549184428626
9.144,0.9999997305667887,-68.88886154199908
9.152000000000001,0.9999996675384005,-69.12202903255955
9.16,0.9999996032849197,-69.3549941690041
9.168,0.9999995378295994,-69.58775680868331
9.176,0.9999994711957114,-69.82031681324611
9.184000000000001,0.999999403406542,-70.05267404862377
9.192,0.9999993344853906,-70.28482838501411
9.2,0.9999992644555665,-70.51677969686547
9.208,0.9999991933403872,-70.74852786286058
9.216000000000001,0.9999991211631749,-70.98007276590006
9.224,0.9999990479472546,-71.21141429308634
9.232,0.9999989737159521,-71.44255233570723
9.24,0.9999988984925914,-71.67348678921941
9.248000000000001,0.9999988223004922,-71.90421755323165
9.256,0.9999987451629674,-72.13474453148831
9.264,0.9999986671033214,-72.36506763185263
9.272,0.999998588144848,-72.59518676628987
9.280000000000001,0.9999985083108268,-72.8251018508502
9.288,0.9999984276245228,-73.05481280565192
9.296,0.9999983461091834,-73.28431955486442
9.304,0.9999982637880355,-73.51362202669102
9.312000000000001,0.9999981806842855,-73.74272015335164
9.32,0.9999980968211148,-73.97161387106559
9.328,0.9999980122216796,-74.2003031200344
9.336,0.9999979269091082,-74.42878784442436
9.344,0.9999978409064982,-74.65706799234879
9.352,0.9999977542369165,-74.88514351585097
9.36,0.9999976669233949,-75.11301437088615
9.368,0.999997578988931,-75.3406805173043
9.376,0.9999974904564838,-75.56814191883198
9.384,0.999997401348973,-75.7953985430551
9.392,0.9999973116892773,-76.02245036140064
9.4,0.999997221500232,-76.24929734911926
9.408,0.9999971308046285,-76.47593948526695
9.416,0.9999970396252105,-76.70237675268754
9.424,0.9999969479846742,-76.92860913799436
9.432,0.9999968559056654,-77.15463663155249
9.44,0.9999967634107788,-77.38045922746042
9.448,0.9999966705225557,-77.60607692353227
9.456,0.9999965772634823,-77.83148972127923
9.464,0.9999964836559884,-78.05669762589184
9.472,0.9999963897224463,-78.28170064622142
9.48,0.9999962954851683,-78.50649879476204
9.488,0.9999962009664061,-78.731092087632
9.496,0.9999961061883488,-78.95548054455591
9.504,0.999996011173121,-79.17966418884583
9.512,0.9999959159427836,-79.40364304738345
9.52,0.9999958205193289,-79.62741715060123
9.528,0.9999957249246817,-79.85098653246435
9.536,0.9999956291806982,-80.07435123045194
9.544,0.9999955333091626,-80.29751128553899
9.552,0.9999954373317879,-80.5204667421775
9.56,0.9999953412702135,-80.74321764827833
9.568,0.9999952451460044,-80.96576405519231
9.576,0.9999951489806493,-81.18810601769216
9.584,0.9999950527955607,-81.4102435939535
9.592,0.9999949566120718,-81.63217684553666
9.6,0.9999948604514379,-81.85390583736785
9.608,0.999994764334833,-82.07543063772083
9.616,0.9999946682833497,-82.296751318198
9.624,0.9999945723179979,-82.5178679537123
9.632,0.9999944764597045,-82.738780622468
9.64,0.9999943807293112,-82.95948940594272
9.648,0.9999942851475739,-83.17999438886834
9.656,0.9999941897351616,-83.40029565921276
