freq,mag,phase
6.0,0.9990174154696717,50.83415709034482
6.002286592,0.9992198526814194,50.68236475335068
6.004572672,0.9994717313907504,50.52725110083546
6.006859264,0.9997570386091083,50.36820888809815
6.009145344,1.0000578350465357,50.204923805922895
6.011431936,1.0003550862651436,50.03724128185692
6.013718016,1.0006299122415923,49.86540527406616
6.016004608,1.0008650287203584,49.68986820029178
6.018290688,1.0010456352233652,49.51127511193399
6.02057728,1.0011603044157076,49.33051216449555
6.022863872,1.0012018129906397,49.148623711325065
6.025149952,1.0011673802406482,48.966636614004834
6.027436544,1.0010592969868668,48.7856691089628
6.029722624,1.00088422634983,48.60670668911249
6.032009216,1.0006532163873028,48.430659961531354
6.034295296,1.0003808160829195,48.25825820906401
6.036581888,1.0000841464763628,48.0899464587762
6.03886848,0.9997819350127496,47.92594315270032
6.04115456,0.9994932988821507,47.76622465294183
6.043441152,0.9992364421109933,47.61045297961706
6.045727232,0.9990276742994011,47.45802979539701
6.048013824,0.9988803120071675,47.30819125148725
6.050299904,0.998803594039001,47.159974049896746
6.052586496,0.9988025192943351,47.012295275901614
6.054872576,0.9988771592034351,46.864033428269096
6.057159168,0.9990228777253475,46.71418718929183
6.05944576,0.9992303251808629,46.56173222575194
6.06173184,0.9994865318921184,46.40587997148798
6.064018432,0.9997752779081662,46.246064403829635
6.066304512,1.0000782623542788,46.081920575372926
6.068591104,1.0003764348865374,45.913382084237575
6.070877184,1.0006508861265824,45.74066154850511
6.073163776,1.0008844174134484,45.56426066404487
6.075450368,1.0010620300170305,45.384825828431914
6.077736448,1.0011728254227856,45.20329408148168
6.08002304,1.0012095781457027,45.02064602824049
6.08230912,1.00117001949776,44.83799924660069
6.084595712,1.0010565625079768,44.65643508713799
6.086881792,1.0008763210787424,44.476955574261886
6.089168384,1.0006406343700032,44.30047347626404
6.091454464,1.0003643427263376,44.127649127902394
6.093741056,1.000064859801188,43.959000773648484
6.096027648,0.9997609974869284,43.79467032082795
6.098313728,0.9994720076322506,43.63463689921231
6.10060032,0.9992162356780452,43.47852789518409
6.1028864,0.9990098557117186,43.32577925603357
6.105172992,0.9988658747833572,43.17552484392097
6.107459072,0.9987934589391803,43.026839066243824
6.109745664,0.9987974052008893,42.87865089847784
6.112032256,0.9988772961323156,42.72978763796384
6.114318336,0.9990282577307121,42.5792348994376
6.116604928,0.9992406773737222,42.426021896016636
6.118891008,0.9995011502904603,42.2693441338561
6.1211776,0.9997932429585359,42.108615784816536
6.12346368,1.000098531608528,41.94352551429458
6.125750272,1.0003976113656339,41.774015440503156
6.128036352,1.0006716598926122,41.60033778873683
6.130322944,1.0009034277078268,41.42295888920682
6.132609536,1.0010782399337113,41.24258792549516
6.134895616,1.0011851278543669,41.06015940744538
6.137182208,1.0012171020084755,40.87669783552704
6.139468288,1.0011724386788272,40.693284112486786
6.14175488,1.0010537379943052,40.51102563815327
6.14404096,1.0008684079164687,40.330925486918986
6.146327552,1.0006281632482028,40.15387753748029
6.148614144,1.0003480119625487,39.98055623572244
6.150900224,1.0000456892926013,39.81144494861858
6.153186816,0.9997402796139238,39.64670613388307
6.155472896,0.9994511069163124,39.4862377564496
6.157759488,0.9991963466714558,39.32970528722412
6.160045568,0.9989922174153297,39.176500721179444
6.16233216,0.9988516553210054,39.025756341011835
6.16461824,0.9987836629573655,38.87651517921304
6.166904832,0.9987925227963002,38.72766008450513
6.169191424,0.9988777613002631,38.57809772412423
6.171477504,0.9990339108626671,38.426766397119955
6.173764096,0.9992512082101205,38.2726838754565
6.176050176,0.9995159664373322,38.11504442111297
6.178336768,0.9998113173057571,37.953328074892596
6.180622848,1.0001187293936722,37.78719678071539
6.18290944,1.0004187353354117,37.61662185415909
6.18519552,1.0006923869727302,37.441861859424776
6.187482112,1.0009224224179307,37.26342041445279
6.189768704,1.0010943595550972,37.082022036058696
6.192054784,1.0011973444129025,36.898587655775785
6.194341376,1.0012247813448722,36.71420001004246
6.196627456,1.001174932461331,36.52992354613322
6.198914048,1.0010509574834183,36.346875995267524
6.201200128,1.000860450650007,36.166053991029365
6.20348672,1.0006156115243745,35.98833647063164
6.205773312,1.000331777207208,35.814433477205036
6.208059392,1.0000267446530853,35.644742216931526
6.210345984,0.9997197699730437,35.47947247647749
6.212632064,0.9994302875136177,35.318491600631894
6.214918656,0.999176604962622,35.161429678615626
6.217204736,0.9989747521400916,35.00763844882532
6.219491328,0.9988376920765941,34.856310290472024
6.221777408,0.9987739195139378,34.706387097532854
6.224064,0.9987877627406014,34.556813078979566
6.226350592,0.9988781371962011,34.40644025187419
6.228636672,0.9990395554760256,34.25419338596891
6.230923264,0.9992616770138617,34.09913380782026
6.233209344,0.9995305733354253,33.940467869739884
6.235495936,0.9998292658134295,33.77764143136083
6.237782016,1.000138779944089,33.61038878368178
6.240068608,1.0004396369015593,33.43864213720824
6.2423552,1.0007128734159152,33.26268569162586
6.24464128,1.0009412298940463,33.083086474321064
6.246927872,1.0011103495433018,32.900582469970324
6.249213952,1.0012093562166227,32.716065731174616
6.251500544,1.0012322117633567,32.530623372637265
6.253786624,1.0011772857851948,32.34539457916359
6.256073216,1.0010480838289206,32.16143195983593
6.258359296,1.0008526855933009,31.97978851285178
6.260645888,1.0006033284358604,31.80130861006388
6.26293248,1.0003157315899829,31.626706113076157
6.26521856,1.0000079324882456,31.45634929951548
6.267505152,0.9996994819376194,31.290433224800008
6.269791232,0.9994097582585049,31.128828459256358
6.272077824,0.9991571294403088,30.971131237028818
6.274363904,0.9989576054181151,30.81668601861417
6.276650496,0.9988238768785844,30.66462550891196
6.278937088,0.9987643565407333,30.513945526760807
6.281223168,0.9987829877355642,30.363521342894867
6.28350976,0.9988784829505177,30.21223811065526
6.28579584,0.9990450341629249,30.05900356853723
6.288082432,0.9992719192216469,29.902870555717726
6.290368512,0.9995449312173639,29.743062419443426
6.292655104,0.9998468594365765,29.579035718347356
6.294941184,1.0001584457673216,29.41053066766385
6.297227776,1.0004602239021079,29.23751878766421
6.299514368,1.0007330785216413,29.060314497521937
6.301800448,1.0009597132068082,28.879446825782725
6.30408704,1.0011259265192636,28.69569405096356
6.30637312,1.0012212455499168,28.509982559112135
6.308659712,1.0012395663960179,28.32343512481026
6.310945792,1.0011796764865823,28.137119915766913
6.313232384,1.0010454357409633,27.952168674741454
6.315518464,1.0008450248596064,27.769592470378043
6.317805056,1.0005912082328903,27.590273830094212
6.320091648,1.000299953185459,27.414821093376435
6.322377728,0.9999895161027363,27.24371346650489
6.32466432,0.999679488923671,27.077070565882533
6.3269504,0.9993895573251929,26.914719932706735
6.329236992,0.9991379002403294,26.756286350731195
6.331523072,0.9989406489220019,26.601053631081918
6.333809664,0.9988102356460951,26.448185347549426
6.336096256,0.9987549042686019,26.296623930962454
6.338382336,0.998778348554099,26.14525741301758
6.340668928,0.9988789177558411,25.992946807987536
6.342955008,0.9990504428136749,25.838619753432077
6.3452416,0.9992820564021676,25.681302638282812
6.34752768,0.9995591174161711,25.520261791466428
6.349814272,0.9998642150106539,25.354960075205952
6.352100352,1.0001778556025223,25.1850945431353
6.354386944,1.0004804824520044,25.010743342011807
6.356673536,1.0007528373535908,24.83216953056842
6.358959616,1.0009779751409567,24.649931104111467
6.361246208,1.0011413891954317,24.464859776946696
6.363532288,1.0012328912598627,24.27786437552491
6.36581888,1.0012467258837656,24.090079069329978
6.36810496,1.001182013575714,23.902597783563362
6.370391552,1.0010426769325902,23.716545170283805
6.372678144,1.0008373976786142,23.532948972502474
6.374964224,1.0005792702175678,23.35264291281867
6.377250816,1.0002842830728664,23.17630211044623
6.379536896,0.9999712510783284,23.004297955614796
6.381823488,0.9996597552859613,22.83680330116812
6.384109568,0.9993695773644217,22.67361801819539
6.38639616,0.9991189685457803,22.514325868558185
6.38868224,0.9989238572544911,22.358219766802243
6.390968832,0.9987967016751366,22.204436630719243
6.393255424,0.998745485668457,22.051880928457656
6.395541504,0.9987735547405137,21.899484543251816
6.397828096,0.99887917875602,21.746049957167603
6.400114176,0.9990555888783923,21.59051732065668
6.402400768,0.9992918251991824,21.431957913021023
6.404686848,0.9995729333903329,21.26957523713924
6.40697344,0.9998811014500476,21.102864386777537
6.409260032,1.000196841490447,20.931575871292853
6.411546112,1.000500360414871,20.755765810324046
6.413832704,1.000772338921777,20.575711982663684
6.416118784,1.0009958340038976,20.392049611556256
6.418405376,1.0011565980999593,20.20553282877116
6.420691456,1.0012443869901457,20.017159512501735
6.422978048,1.0012539829274087,19.82803837701698
6.425264128,1.0011844357697508,19.639278843974747
6.42755072,1.0010400797139325,19.45202791538571
6.429837312,1.0008300163994,19.267289289659495
6.432123392,1.0005675753619148,19.085914699970917
6.434409984,1.0002690851552956,18.908551790099775
6.436696064,0.9999534695630209,18.73556710107505
6.438982656,0.9996404387134372,18.567121589561953
6.441268736,0.9993499742517903,18.402984809861756
6.443555328,0.9991002971184432,18.242719768935633
6.44584192,0.9989074562516752,18.08565498988057
6.448128,0.9987833683498395,17.93084766991486
6.450414592,0.9987361703985975,17.777211419884267
6.452700672,0.998768876645028,17.623650033246747
6.454987264,0.9988792936144967,17.468993100166678
6.457273344,0.9990606523773032,17.312185956761436
6.459559936,0.9993014236932409,17.152244819480234
6.461846016,0.9995864290002009,16.988428300711004
6.464132608,0.9998976909542439,16.82023974601596
6.4664192,1.0002155395977481,16.64742010105091
6.46870528,1.0005199052314726,16.47005049210773
6.470991872,1.0007915914450034,16.288452911207543
6.473277952,1.0010134908308723,16.10322363401669
6.475564544,1.00117158112683,15.915177680292825
6.477850624,1.001255959628434,15.72533720162887
6.480137216,1.0012612034507449,15.534781990399589
6.482423296,1.0011868498225294,15.344682022361102
6.484709888,1.0010376981723275,15.156124891902556
6.48699648,1.0008230269416831,14.970119948733842
6.48928256,1.000556297971112,14.787572691109535
6.491569152,1.000254303555613,14.609065686613304
6.493855232,0.9999359336559914,14.435003095303726
6.496141824,0.9996216376728679,14.265491626769931
6.498427904,0.9993307665087524,14.100304276391299
6.500714496,0.9990820699493513,13.938987545730285
6.503001088,0.9988911251671184,13.780820342253776
6.505287168,0.9987702171202845,13.62488459938945
6.50757376,0.9987268492302593,13.4700924937617
6.50985984,0.998763978739226,13.315261301919014
6.512146432,0.9988792342652791,13.159304023447927
6.514432512,0.9990652535952079,13.001087032938603
6.516719104,0.9993105114241679,12.839692254052954
6.519005184,0.9995994136459228,12.674340268424855
6.521291776,0.9999136242550891,12.504578452478516
6.523578368,1.0002336386491135,12.330134576165944
6.525864448,1.0005389032584535,12.15112036440398
6.52815104,1.0008103619862894,11.967873003687684
6.53043712,1.0010308441757911,11.780996990121341
6.532723712,1.0011864628098472,11.591337257894851
6.535009792,1.001267319837969,11.399911263058714
6.537296384,1.0012683913489238,11.207817287975748
6.539582976,1.0011896325121328,11.0162436570963
6.541869056,1.0010356994949159,10.82627236781018
6.544155648,1.0008163997178254,10.638937265998901
6.546441728,1.0005455608788785,10.455097649190526
6.54872832,1.000240032576865,10.275356715963905
6.5510144,0.9999192036282484,10.100116297208954
6.553300992,0.9996032995446255,9.929416383261279
6.555587072,0.9993120858218049,9.763073904206156
6.557873664,0.9990643042767143,9.600593564402553
6.560160256,0.9988752459629354,9.44124091851265
6.562446336,0.9987571929818864,9.284048410994009
6.564732928,0.9987176268811927,9.12797456532979
6.567019008,0.9987590986365444,8.971826726288885
6.5693056,0.9988789429312983,8.81442952748711
6.57159168,0.9990697174390514,8.654742238900559
6.573878272,0.9993192772199913,8.491778574630107
6.576164864,0.9996119707340966,8.324813986942624
6.578450944,0.9999292776071821,8.153371312715095
6.580737536,1.0002512514607411,7.977215628449088
6.583023616,1.0005574947119318,7.796483121053828
6.585310208,1.0008286279037484,7.611476908607952
6.587596288,1.0010477904012471,7.422873812545604
6.58988288,1.0012010179812518,7.231487589610639
6.59216896,1.0012786075766802,7.038398212987612
6.594455552,1.0012756075735652,6.8446591057014325
6.596742144,1.0011923554179452,6.651506355751411
6.599028224,1.0010338384320516,6.460039098401718
6.601314816,1.000810166504539,6.271260789767291
6.603600896,1.000535168367644,6.086020034154978
6.605887488,1.0002263167573207,5.904942768254214
6.608173568,0.9999028162137186,5.728396651125037
6.61046016,0.9995853472291685,5.556435931323914
6.612746752,0.9992938013143166,5.388827383262261
6.615032832,0.9990465874923146,5.225054941245967
6.617319424,0.9988594663984376,5.064409970903333
6.619605504,0.9987442239901559,4.905913863339967
6.621892096,0.9987082410350682,4.748430853872236
6.624178176,0.9987538702104084,4.590837050105962
6.626464768,0.9988782547165195,4.4319301640528375
6.628750848,0.9990734769599889,4.2706613654934085
6.63103744,0.999327333089383,4.106059415361179
6.633324032,0.9996238026111852,3.937378658092821
6.635610112,0.999944110017233,3.7641779526315697
6.637896704,1.0002680690825705,3.586248372073925
6.640182784,1.0005753825672887,3.403654759518083
6.642469376,1.0008464367720196,3.2168313803728616
6.644755456,1.0010642829741951,3.0263906402522096
6.647042048,1.0012153036659484,2.833206156455516
6.649328128,1.0012896561976408,2.638333082166432
6.65161472,1.0012829675908945,2.4428886640405025
6.653901312,1.001195425758032,2.248072823529471
6.656187392,1.0010324096719687,2.0549822329002763
6.658473984,1.000804357950434,1.8646391612088122
6.660760064,1.0005254435006943,1.6779126152819595
6.663046656,1.0002130892505972,1.4953868101238217
6.665332736,0.9998871875068602,1.3174231304684623
6.667619328,0.9995681092831812,1.1440679945713157
6.66990592,0.9992760945231548,0.9751106800457386
6.672192,0.9990295002314176,0.8099583651235505
6.674478592,0.9988439963628043,0.6479218831316418
6.676764672,0.9987314753552032,0.4879720736436398
6.679051264,0.9986989643850694,0.3290089948520904
6.681337344,0.9987485799146546,0.1698832806750547
6.683623936,0.9988772407175069,0.009388893999575631
6.685910016,0.9990769743729973,-0.15355905708654805
6.688196608,0.9993348319719865,-0.3199037226750246
6.6904832,0.9996350535808187,-0.4903639251726416
6.69276928,0.99995836065833,-0.6654244337522723
6.695055872,1.0002844391311483,-0.8452433349152724
6.697341952,1.0005926554205122,-1.0297416557862868
6.699628544,1.0008637416653965,-1.2185097507241425
6.701914624,1.0010806116904767,-1.410859106334073
6.704201216,1.0012293977541729,-1.6059315647469925
6.706487808,1.001300933085929,-1.8026824021488466
6.708773888,1.0012904915181517,-1.999945187775818
6.71106048,1.0011987834079066,-2.196550836806464
6.71334656,1.0010316029972202,-2.39133035634523
6.715633152,1.0007991668267164,-2.5833235753924106
6.717919232,1.0005163216721478,-2.7716559492078785
6.720205824,1.000200670680549,-2.955733766918076
6.722491904,0.9998722174385417,-3.135213333147206
6.724778496,0.9995515242832865,-3.3100511630629343
6.727065088,0.9992588443089497,-3.4805073352011386
6.729351168,0.9990127196808818,-3.647104337585411
6.73163776,0.998828823008622,-3.8106575085032284
6.73392384,0.9987187780616616,-3.972136573971507
6.736210432,0.9986895115418671,-4.132650645866087
6.738496512,0.9987429371154183,-4.2934154287282675
6.740783104,0.9988758077209118,-4.45562899548036
6.743069696,0.9990796515976997,-4.620303093224421
6.745355776,0.9993418376812151,-4.788491486963579
6.747642368,0.9996455626221906,-4.9608368086570955
6.749928448,0.99997177539138,-5.137796478381876
6.75221504,1.0002999251867268,-5.31961702269002
6.75450112,1.0006093648302266,-5.506100238990205
6.756787712,1.0008805354400632,-5.69687695948485
6.759073792,1.0010963255447576,-5.8912280879489
6.761360384,1.0012432986803164,-6.088287536144752
6.763646976,1.0013119820302374,-6.286998735216496
6.765933056,1.0012981361898374,-6.486178771385253
6.768219648,1.0012024869133147,-6.6846369521873
6.770505728,1.00103120042059,-6.8812531006648205
6.77279232,1.0007946600874038,-7.075004649038911
6.7750784,1.0005079493586782,-7.26502712241739
6.777364992,1.000189070743247,-7.45075256297785
6.779651584,0.9998580247544832,-7.6318589274814075
6.781937664,0.9995356081324068,-7.808288468011186
6.784224256,0.9992423027764522,-7.980329085649763
6.786510336,0.9989966107338755,-8.148515605987473
6.788796928,0.9988139753450648,-8.313658382073449
6.791083008,0.9987061989865736,-8.476736905374985
6.7933696,0.9986798918101469,-8.638940725067298
6.79565568,0.9987370797892177,-8.801433669539339
6.797942272,0.9988739225438922,-8.965397695512305
6.800228864,0.9990818620547479,-9.131948438569053
6.802514944,0.9993479035312138,-9.302007730487933
6.804801536,0.9996553020039377,-9.476308241191342
6.807087616,0.9999844128115734,-9.655310661252104
6.809374208,1.0003146472548654,-9.839136245899217
6.811660288,1.0006253780963716,-10.027715950590455
6.81394688,1.0008967521734031,-10.22058692281763
6.81623296,1.001111841976741,-10.41703483357634
6.818519552,1.0012570164167984,-10.616175288427383
6.820806144,1.0013231082871754,-10.81691891441885
6.823092224,1.0013060054036802,-11.018107539701344
6.825378816,1.0012067316456792,-11.21853909935708
6.827664896,1.001031342949294,-11.417056384816384
6.829951488,1.0007909360566158,-11.61265701838888
6.832237568,1.000500512282201,-11.804495305850013
6.83452416,1.00017831673773,-11.991997197595753
6.836810752,0.9998446171857441,-12.174801653309151
6.839096832,0.9995205545226757,-12.352920294954755
6.841383424,0.9992264449455958,-12.52665085026259
6.843669504,0.9989809171031798,-12.696495835690095
6.845956096,0.9987994436947024,-12.86333649629525
6.848242176,0.9986937020325491,-13.028164044807019
6.850528768,0.9986702469479104,-13.192112176174655
6.852814848,0.9987307826927669,-13.356400294543448
6.85510144,0.9988714377515274,-13.52223174638222
6.857388032,0.9990833434855411,-13.690688357655903
6.859674112,0.9993531303068991,-13.862740879452073
6.861960704,0.9996640210329285,-14.03907134484118
6.864246784,0.9999960774080083,-14.220147979688202
6.866533376,1.000328607649758,-14.406118936125008
6.868819456,1.0006405510902228,-14.596850686204322
6.871106048,1.0009123853490767,-14.791880345953773
6.87339264,1.0011267990108437,-14.990502424218814
6.87567872,1.0012705236855388,-15.191806455587809
6.877965312,1.0013342765521216,-15.39467627131107
6.880251392,1.00131409286894,-15.597971891369859
6.882537984,1.0012112437274858,-15.800433877787455
6.884824064,1.0010321305713576,-16.000972553667232
6.887110656,1.0007878643865056,-16.19851890482791
6.889396736,1.0004938255277525,-16.392281359938693
6.891683328,1.0001683995034654,-16.581624273293944
6.89396992,0.9998321321785223,-16.766261351519805
6.896256,0.999506154095612,-16.946161118546556
6.898542592,0.9992111118467929,-17.12167166043889
6.900828672,0.9989655864786279,-17.29329298721063
6.903115264,0.9987851021735848,-17.461902529873544
6.905401344,0.9986811603621104,-17.62853357864184
6.907687936,0.998660420423944,-17.794304382018158
6.909974528,0.9987241393377166,-17.960507780336894
6.912260608,0.9988683139074944,-18.128269341469046
6.9145472,0.9990840393246105,-18.298739718930324
6.91683328,0.999357604910804,-18.47283180919506
6.919119872,0.9996718575920183,-18.651273375479647
6.921405952,1.000006835622475,-18.8345019120754
6.923692544,1.0003416162585717,-19.022663005812912
