freq,mag,phase
6.0,0.999999720388861,77.47640059380691
6.008,0.9999981102240099,77.29587537828395
6.016,0.9999965241532762,77.11518181511431
6.024,0.9999949620115816,76.93431985168101
6.032,0.9999934236341176,76.7532894371966
6.04,0.9999919088563476,76.57209052271332
6.048,0.9999904175140103,76.39072306113307
6.056,0.9999889494431214,76.20918700721762
6.064,0.9999875044799772,76.0274823175987
6.072,0.9999860824611558,75.84560895078803
6.08,0.9999846832235215,75.66356686718754
6.088,0.9999833066042259,75.4813560290994
6.096,0.9999819524407114,75.29897640073622
6.104,0.9999806205707135,75.11642794823108
6.112,0.9999793108322641,74.9337106396477
6.12,0.9999780230636927,74.75082444499057
6.128,0.9999767571036304,74.56776933621506
6.136,0.999975512791012,74.38454528723751
6.144,0.9999742899650792,74.2011522739454
6.152,0.9999730884653817,74.01759027420742
6.16,0.9999719081317822,73.83385926788361
6.168,0.9999707488044568,73.64995923683549
6.176,0.9999696103238994,73.46589016493614
6.184,0.999968492530923,73.28165203808028
6.192,0.9999673952666638,73.09724484419446
6.2,0.9999663183725827,72.91266857324706
6.208,0.9999652616904677,72.72792321725845
6.216,0.9999642250624381,72.54300877031098
6.224,0.9999632083309463,72.35792522855922
6.232,0.9999622113387798,72.17267259023981
6.24,0.9999612339290658,71.98725085568174
6.248,0.9999602759452707,71.80166002731622
6.256,0.9999593372312068,71.61590010968686
6.264,0.9999584176310315,71.42997110945961
6.272,0.9999575169892525,71.24387303543284
6.28,0.9999566351507287,71.05760589854727
6.288,0.9999557719606733,70.87116971189606
6.296,0.9999549272646578,70.68456449073477
6.304,0.9999541009086124,70.49779025249131
6.312,0.9999532927388314,70.31084701677591
6.32,0.9999525026019731,70.123734805391
6.328,0.9999517303450651,69.93645364234126
6.336,0.9999509758155044,69.74900355384348
6.344,0.9999502388610628,69.5613845683364
6.352,0.9999495193298872,69.37359671649064
6.36,0.9999488170705038,69.18564003121854
6.368,0.99994813193182,68.99751454768406
6.376,0.9999474637631277,68.80922030331249
6.384,0.9999468124141059,68.62075733780036
6.392,0.9999461777348226,68.43212569312513
6.4,0.9999455595757386,68.24332541355503
6.408,0.9999449577877091,68.0543565456587
6.416,0.9999443722219876,67.86521913831504
6.424,0.9999438027302273,67.67591324272274
6.432,0.999943249164485,67.48643891241007
6.44,0.9999427113772229,67.29679620324444
6.448,0.9999421892213114,67.10698517344204
6.456,0.9999416825500326,66.91700588357747
6.464,0.9999411912170812,66.72685839659322
6.472,0.99994071507657,66.53654277780925
6.48,0.9999402539830291,66.34605909493246
6.4879999999999995,0.9999398077914115,66.15540741806622
6.496,0.9999393763570943,65.96458781971968
6.504,0.9999389595358814,65.7736003748174
6.5120000000000005,0.9999385571840071,65.58244516070849
6.52,0.9999381691581373,65.39112225717612
6.5280000000000005,0.9999377953153735,65.19963174644666
6.536,0.9999374355132546,65.00797371319928
6.5440000000000005,0.9999370896097605,64.8161482445747
6.552,0.9999367574633128,64.62415543018493
6.5600000000000005,0.9999364389327797,64.43199536212192
6.568,0.9999361338774776,64.23966813496723
6.5760000000000005,0.9999358421571737,64.04717384580051
6.584,0.999935563632088,63.854512594209204
6.592,0.9999352981628975,63.661684482296934
6.6,0.9999350456107376,63.468689614692984
6.608,0.9999348058372052,63.2755280985609
6.616,0.9999345787043608,63.08220004360751
6.624,0.9999343640747315,62.888705562091744
6.632,0.9999341618113137,62.69504476883346
6.64,0.9999339717775754,62.501217781222095
6.648,0.999933793837459,62.30722471922549
6.656,0.9999336278553833,62.113065705398505
6.664,0.9999334736962469,61.918740864891575
6.672,0.9999333312254304,61.724250325459366
6.68,0.9999332003087988,61.52959421746922
6.688,0.9999330808127042,61.33477267390962
6.696,0.9999329726039878,61.13978583039867
6.704,0.9999328755499834,60.94463382519234
6.712,0.9999327895185197,60.749316799192904
6.72,0.999932714377922,60.55383489595707
6.728,0.9999326499970148,60.35818826170424
6.736,0.9999325962451261,60.16237704532467
6.744,0.9999325529920873,59.966401398387475
6.752,0.9999325201082372,59.77026147514875
6.76,0.9999324974644245,59.5739574325595
6.768,0.999932484932009,59.377489430273506
6.776,0.999932482382866,59.18085763065527
6.784,0.9999324896893874,58.9840621987877
6.792,0.9999325067244835,58.78710330247991
6.8,0.9999325333615876,58.589981112274884
6.808,0.999932569474656,58.392695801456995
6.816,0.9999326149381722,58.195247546059655
6.824,0.9999326696271484,57.99763652487271
6.832,0.9999327334171281,57.79986291944986
6.84,0.999932806184188,57.60192691411601
6.848,0.9999328878049413,57.40382869597454
6.856,0.9999329781565388,57.205568454914456
6.864,0.9999330771166729,57.00714638361759
6.872,0.9999331845635778,56.808562677565625
6.88,0.9999333003760338,56.60981753504707
6.888,0.999933424433368,56.41091115716419
6.896,0.9999335566154576,56.21184374783984
6.904,0.9999336968027319,56.01261551382423
6.912,0.9999338448761736,55.81322666470163
6.92,0.9999340007173239,55.61367741289697
6.928,0.9999341642082802,55.41396797368235
6.936,0.9999343352317022,55.214098565183555
6.944,0.9999345136708122,55.014069408386405
6.952,0.9999346994093982,54.81388072714304
6.96,0.9999348923318151,54.613532748178116
6.968,0.9999350923229876,54.413025701095066
6.976,0.9999352992684115,54.21235981838194
6.984,0.9999355130541571,54.0115353354176
6.992,0.9999357335668702,53.810552490477406
7.0,0.9999359606937742,53.60941152473919
7.008,0.9999361943226733,53.40811268228882
7.016,0.9999364343419523,53.206656210125885
7.024,0.9999366806405814,53.00504235816927
7.032,0.9999369331081162,52.803271379262554
7.04,0.9999371916347003,52.60134352917933
7.048,0.9999374561110674,52.39925906662858
7.056,0.9999377264285427,52.19701825325974
7.064,0.9999380024790463,51.99462135366781
7.072,0.9999382841550924,51.79206863539835
7.08,0.9999385713497946,51.58936036895245
7.088,0.9999388639568649,51.38649682779132
7.096,0.9999391618706169,51.18347828834118
7.104,0.9999394649859681,50.98030502999779
7.112,0.9999397731984395,50.776977335130944
7.12,0.9999400864041609,50.57349548908888
7.128,0.9999404044998692,50.36985978020259
7.136,0.999940727382912,50.16607049978998
7.144,0.9999410549512495,49.96212794216005
7.152,0.9999413871034547,49.75803240461682
7.16,0.9999417237387171,49.55378418746322
7.168,0.9999420647568429,49.349383594004934
7.176,0.9999424100582571,49.144830930554036
7.184,0.9999427595440051,48.940126506432534
7.192,0.9999431131157541,48.73527063397595
7.2,0.9999434706757956,48.53026362853654
7.208,0.9999438321270453,48.32510580848663
7.216,0.9999441973730461,48.11979749522173
7.224,0.9999445663179692,47.91433901316358
7.232,0.9999449388666152,47.70873068976301
7.24,0.999945314924416,47.50297285550283
7.248,0.9999456943974357,47.29706584390047
7.256,0.9999460771923726,47.0910099915105
7.264,0.9999464632165607,46.884805637927215
7.272,0.9999468523779701,46.67845312578689
7.28,0.9999472445852094,46.47195280077
7.288,0.9999476397475267,46.265305011603424
7.296,0.9999480377748096,46.0585101100623
7.304,0.9999484385775894,45.851568450972024
7.312,0.9999488420670387,45.64448039220993
7.32,0.9999492481549763,45.437246294706874
7.328,0.9999496567538648,45.229866522448894
7.336,0.9999500677768144,45.02234144247844
7.344,0.9999504811375829,44.814671424895714
7.352,0.9999508967505774,44.60685684285981
7.36,0.9999513145308542,44.39889807258969
7.368,0.999951734394121,44.190795493365094
7.376,0.9999521562567376,43.982549487527265
7.384,0.9999525800357171,43.774160440479676
7.392,0.9999530056487255,43.56562874068839
7.4,0.9999534330140848,43.35695477968261
7.4079999999999995,0.9999538620507723,43.148138952054765
7.416,0.9999542926784223,42.93918165546066
7.4239999999999995,0.9999547248173264,42.73008329061959
7.432,0.9999551583884339,42.52084426131398
7.4399999999999995,0.9999555933133546,42.31146497438935
7.448,0.9999560295143568,42.101945839753604
7.4559999999999995,0.9999564669143702,41.89228727037683
7.464,0.9999569054369858,41.68248968229028
7.4719999999999995,0.9999573450064555,41.472553494585824
7.48,0.9999577855476949,41.26247912941475
7.4879999999999995,0.9999582269862828,41.052267011987
7.496,0.9999586692484609,40.84191757056953
7.504,0.9999591122611354,40.63143123648535
7.5120000000000005,0.9999595559518779,40.42080844411167
7.52,0.9999600002489246,40.210049630878586
7.5280000000000005,0.9999604450811777,39.99915523726691
7.536,0.9999608903782053,39.78812570680674
7.5440000000000005,0.9999613360702421,39.57696148607484
7.552,0.9999617820881895,39.365663024692935
7.5600000000000005,0.9999622283636166,39.15423077532498
7.568,0.9999626748287586,38.94266519367496
7.5760000000000005,0.9999631214165201,38.730966738483936
7.584,0.9999635680604719,38.51913587152769
7.5920000000000005,0.9999640146948542,38.3071730576133
7.6,0.9999644612545747,38.0950787645766
7.6080000000000005,0.9999649076752095,37.88285346327841
7.616,0.999965353893003,37.67049762760171
7.6240000000000006,0.9999657998448682,37.45801173444766
7.632,0.9999662454683867,37.245396263732395
7.640000000000001,0.9999666907018079,37.03265169838271
7.648,0.9999671354840506,36.81977852433266
7.656000000000001,0.9999675797547006,36.60677723051897
7.664,0.9999680234540131,36.39364830887719
7.672,0.9999684665229102,36.18039225433692
7.68,0.9999689089029822,35.96700956481755
7.688,0.9999693505364874,35.753500741223476
7.696,0.9999697913663508,35.53986628743916
7.704,0.9999702313361644,35.32610671032426
7.712,0.999970670390187,35.112222519708375
7.72,0.9999711084733439,34.8982142283858
7.728,0.9999715455312258,34.68408235211002
7.736,0.999971981510089,34.469827409588156
7.744,0.9999724163568551,34.25544992247517
7.752,0.999972850019109,34.04095041536792
7.76,0.9999732824451005,33.82632941579914
7.768,0.9999737135837428,33.61158745423118
7.776,0.9999741433846107,33.39672506404966
7.784,0.9999745717979418,33.1817427815569
7.792,0.9999749987746346,32.96664114596523
7.8,0.9999754242662485,32.7514206993902
7.808,0.9999758482250025,32.53608198684349
7.816,0.9999762706037739,32.32062555622588
7.824,0.9999766913560993,32.10505195831981
7.832,0.9999771104361717,31.889361746782008
7.84,0.9999775277988404,31.673555478135775
7.848,0.9999779433996108,31.457633711763343
7.856,0.9999783571946416,31.241597009897784
7.864,0.9999787691407453,31.025445937615068
7.872,0.9999791791953875,30.80918106282564
7.88,0.9999795873166832,30.592802956266222
7.888,0.9999799934633989,30.37631219149106
7.896,0.9999803975949495,30.15970934486334
7.904,0.9999807996713969,29.942994995546236
7.912,0.9999811996534501,29.726169725493904
7.92,0.9999815975024632,29.509234119442286
7.928,0.9999819931804335,29.29218876489976
7.936,0.9999823866500009,29.07503425213766
7.944,0.9999827778744467,28.85777117418056
7.952,0.9999831668176911,28.640400126796525
7.96,0.9999835534442925,28.422921708487063
7.968,0.9999839377194462,28.20533652047705
7.976,0.999984319608982,27.987645166704404
7.984,0.9999846990793637,27.769848253809652
7.992,0.9999850760976865,27.55194639112533
8.0,0.9999854506316753,27.33394019066522
8.008,0.9999858226496844,27.11583026711343
8.016,0.999986192120694,26.897617237813247
8.024000000000001,0.9999865590143094,26.679301722756094
8.032,0.9999869233007591,26.460884344570022
8.04,0.9999872849508933,26.242365728508084
8.048,0.99998764393618,26.023746502436744
8.056000000000001,0.9999880002287067,25.80502729682408
8.064,0.9999883538011749,25.586208744727738
8.072,0.9999887046269001,25.367291481782605
8.08,0.9999890526798094,25.14827614618865
8.088000000000001,0.9999893979344393,24.929163378698505
8.096,0.9999897403659331,24.70995382260477
8.104,0.9999900799500399,24.49064812372713
8.112,0.9999904166631112,24.2712469303995
8.120000000000001,0.9999907504820994,24.051750893457058
8.128,0.9999910813845561,23.832160666222915
8.136,0.9999914093486281,23.612476904494578
8.144,0.999991734353057,23.392700266530564
8.152000000000001,0.9999920563771753,23.17283141303677
8.16,0.9999923754009049,22.952871007152556
8.168,0.9999926914047548,22.732819714436594
8.176,0.9999930043698179,22.512678202852893
8.184000000000001,0.9999933142777688,22.29244714275654
8.192,0.9999936211108617,22.072127206879212
8.2,0.9999939248519274,21.851719070314417
8.208,0.9999942254843704,21.631223410502926
8.216000000000001,0.9999945229921676,21.41064090721792
8.224,0.999994817359864,21.189972242549874
8.232,0.9999951085725706,20.9692181008913
8.24,0.999995396615962,20.748379168921485
8.248000000000001,0.9999956814762736,20.527456135591144
8.256,0.9999959631402985,20.306449692106664
8.264,0.9999962415953845,20.08536053191429
8.272,0.9999965168294317,19.864189350684264
8.280000000000001,0.9999967888308894,19.642936846294944
8.288,0.999997057588753,19.42160371881646
8.296,0.9999973230925615,19.200190670494298
8.304,0.9999975853323942,18.978698405732928
8.312,0.9999978442988672,18.75712763107938
8.32,0.9999980999831312,18.535479055206064
8.328,0.9999983523768681,18.313753388894355
8.336,0.9999986014722875,18.091951345017147
8.344,0.9999988472621238,17.87007363852206
8.352,0.9999990897396335,17.64812098641381
8.36,0.9999993288985913,17.426094107737086
8.368,0.9999995647332868,17.20399372355865
8.376,0.9999997972385221,16.98182055695004
8.384,1.0,16.75957533296929
8.392,1.0,16.537258778643412
8.4,1.0,16.31487162294987
8.408,1.0,16.092414596798786
8.416,0.9999999999999999,15.869888433014154
8.424,0.9999999999999999,15.647293866315803
8.432,0.9999999999999999,15.424631633300356
8.44,0.9999999999999999,15.201902472422917
8.448,1.0,14.97910712397782
8.456,0.9999999999999999,14.756246330080002
8.464,0.9999999999999999,14.533320834645577
8.472,1.0,14.310331383372954
8.48,0.9999999999999999,14.087278723723124
8.488,0.9999999999999999,13.864163604900583
8.496,0.9999999999999999,13.640986777833353
8.504,1.0,13.417748995153676
8.512,0.9999999999999999,13.194451011177831
8.52,1.0,12.971093581886553
8.528,1.0000000000000002,12.74767746490464
8.536,1.0,12.52420341948118
8.544,0.9999999999999999,12.30067220646887
8.552,0.9999999999999999,12.077084588304052
8.56,1.0,11.85344132898585
8.568,0.9999999999999999,11.62974319405591
8.576,0.9999999999999999,11.405990950577396
8.584,1.0,11.182185367114505
8.592,1.0,10.95832721371119
8.6,1.0,10.73441726187056
8.608,1.0,10.510456284533348
8.616,0.9999999999999999,10.286445056057095
8.624,1.0,10.062384352194481
8.632,0.9999999999999999,9.838274950072249
8.64,1.0,9.614117628169371
8.648,1.0,9.389913166295788
8.656,0.9999999999999999,9.165662345570373
8.664,1.0,8.941365948399492
8.672,0.9999999999999998,8.717024758454784
8.68,1.0,8.492639560651556
8.688,1.0,8.268211141126338
8.696,1.0,8.043740287215178
8.704,0.9999999999999999,7.8192277874309815
8.712,1.0,7.5946744314416215
8.72,0.9999999999999999,7.370081010047145
8.728,0.9999999999999999,7.1454483151577195
8.736,1.0,6.920777139770668
8.744,0.9999999999999999,6.696068277948255
8.752,0.9999999999999999,6.471322524794586
8.76,1.0,6.246540676433225
8.768,1.0,6.021723529983955
8.776,1.0,5.796871883540256
8.784,1.0,5.571986536145911
8.792,0.9999999999999999,5.3470682877723545
8.8,0.9999999999999998,5.122117939295149
8.808,1.0,4.897136292471187
8.815999999999999,0.9999999999999999,4.672124149915099
8.824,0.9999999999999999,4.447082315076082
8.832,0.9999999999999998,4.222011592214623
8.84,1.0,3.996912786378966
8.847999999999999,1.0,3.77178670338152
8.856,1.0,3.5466341497754175
8.864,1.0,3.321455932831
8.872,1.0,3.096252860512075
8.879999999999999,0.9999999999999999,2.871025741452109
8.888,1.0,2.645775384930568
8.896,1.0,2.420502600849224
8.904,0.9999999999999999,2.1952081997082065
8.911999999999999,1.0,1.9698929925820052
8.92,0.9999999999999999,1.7445577910956394
8.928,1.0,1.5192034074007912
8.936,0.9999999999999999,1.2938306541516755
8.943999999999999,1.0,1.068440344480903
8.952,0.9999999999999999,0.8430332919754883
8.96,1.0,0.6176103106528247
8.968,1.0,0.3921722149364373
8.975999999999999,1.0,0.16671981963169388
8.984,1.0000000000000002,-0.0587460600983092
8.992,1.0,-0.28422460875688105
9.0,1.0,-0.5097150105381085
9.008,1.0000000000000002,-0.7352164493512479
9.016,0.9999999999999999,-0.9607281088449318
9.024000000000001,0.9999999999999999,-1.186249172431399
9.032,1.0,-1.4117788233109616
9.04,1.0,-1.6373162444964564
9.048,1.0,-1.8628606188375347
9.056000000000001,0.9999999999999999,-2.0884111290449643
9.064,1.0,-2.3139669577151327
9.072,0.9999999999999999,-2.5395272873545616
9.08,1.0,-2.765091300404255
9.088000000000001,1.0,-2.9906581792640043
9.096,0.9999999999999999,-3.2162271063169516
9.104,0.9999999999999999,-3.441797263954121
9.112,1.0,-3.6673678345987595
9.120000000000001,0.9999999999999999,-3.8929380007306813
9.128,1.0,-4.118506944910826
9.136,0.9999999999999998,-4.344073849805767
9.144,0.9999999999999999,-4.569637898212062
9.152000000000001,1.0,-4.795198273080579
9.16,0.9999999999999998,-5.020754157540999
9.168,1.0,-5.24630473492633
9.176,1.0,-5.471849188797199
9.184000000000001,1.0,-5.697386702966121
9.192,1.0,-5.92291646152197
9.2,1.0,-6.148437648854436
9.208,1.0,-6.373949449678219
9.216000000000001,1.0,-6.599451049057248
9.224,1.0,-6.82494163242907
9.232,0.9999999999999999,-7.0504203856292085
9.24,0.9999999999999999,-7.27588649491527
9.248000000000001,1.0,-7.501339146991066
9.256,1.0,-7.726777529030884
9.264,1.0,-7.952200828703724
9.272,1.0,-8.177608234197313
9.280000000000001,0.9999999999999999,-8.402998934242069
9.288,0.9999999999999999,-8.628372118135243
9.296,1.0,-8.853726975765026
9.304,1.0,-9.079062697634397
9.312000000000001,1.0000000000000002,-9.304378474884938
9.32,1.0,-9.529673499320829
9.328,0.9999999999999999,-9.754946963432754
9.336,1.0,-9.980198060421593
9.344,1.0,-10.205425984222012
9.352,0.9999999999999999,-10.430629929526503
9.36,1.0,-10.6558090918086
9.368,1.0,-10.880962667346878
9.376,1.0,-11.106089853248072
9.384,1.0,-11.33118984747092
9.392,0.9999999999999999,-11.556261848849273
9.4,0.9999999999999999,-11.7813050571157
9.408,0.9999999999999999,-12.006318672924523
9.416,0.9999999999999999,-12.23130189787534
9.424,1.0,-12.456253934535855
9.432,1.0,-12.681173986465343
9.44,0.9999999999999999,-12.906061258237317
9.448,1.0,-13.13091495546284
9.456,1.0,-13.355734284813089
9.464,1.0,-13.580518454042487
9.472,0.9999999999999999,-13.805266672011156
9.48,1.0,-14.029978148707878
9.488,1.0,-14.254652095272386
9.496,1.0,-14.479287724018244
9.504,1.0,-14.703884248454843
9.512,0.9999999999999999,-14.92844088331028
9.52,1.0,-15.15295684455308
9.528,1.0,-15.377431349414909
9.536,1.0,-15.601863616412235
9.544,1.0,-15.82625286536875
9.552,1.0,-16.050598317436886
9.56,1.0,-16.2748991951201
9.568,0.9999999999999998,-16.499154722294193
9.576,1.0,-16.723364124229363
9.584,1.0,-16.94752662761142
9.592,1.0,-17.171641460563595
9.6,1.0,-17.39570785266758
9.608,0.9999999999999999,-17.61972503498513
9.616,1.0,-17.8436922400789
9.624,1.0,-18.06760870203392
9.632,1.0,-18.291473656478132
9.64,1.0,-18.5152863406037
9.648,0.9999999999999999,-18.739045993187382
9.656,1.0,-18.962751854611565
9.664,0.9999999999999999,-19.186403166884446
9.672,1.0,-19.409999173660875
9.68,1.0,-19.633539120262284
9.688,1.0,-19.857022253697362
9.696,0.9999999999999999,-20.080447822681702
9.704,1.0,-20.303815077658285
9.712,1.0,-20.52712327081692
9.72,1.0,-20.750371656114428
9.728,1.0,-20.973559489293955
9.736,1.0,-21.19668602790482
9.744,1.0,-21.41975053132164
9.752,0.9999999223602535,-21.642752260763995
9.76,0.9999997974119192,-21.86569047931519
9.768,0.9999996724416536,-22.088564451941775
9.776,0.9999995474717818,-22.31137344551203
9.784,0.9999994225244643,-22.534116728815253
9.792,0.9999992976216951,-22.756793572579983
9.8,0.9999991727852986,-22.97940324949301
9.808,0.9999990480369281,-23.20194503421743
9.816,0.9999989233980633,-23.42441820341131
9.824,0.9999987988900086,-23.64682203574554
9.832,0.9999986745338905,-23.869155811922212
9.84,0.9999985503506559,-24.091418814692247
9.847999999999999,0.9999984263610702,-24.313610328873445
9.856,0.9999983025857149,-24.53572964136805
9.864,0.9999981790449866,-24.757776041180183
9.872,0.9999980557590937,-24.979748819433308
