freq,mag,phase
6.0,0.9999948574095244,-135.05069145656623
6.008,0.999993566352683,-135.46771982967334
6.016,0.9999923233653282,-135.88447058115838
6.024,0.999991127494944,-136.30094480412808
6.032,0.999989977799735,-136.71714360749473
6.04,0.9999888733485938,-137.1330681158085
6.048,0.9999878132210676,-137.54871946909006
6.056,0.9999867965073244,-137.96409882266408
6.064,0.9999858223081156,-138.3792073469934
6.072,0.9999848897347412,-138.79404622751355
6.08,0.9999839979090089,-139.20861666446808
6.088,0.9999831459631976,-139.62291987274475
6.096,0.9999823330400129,-140.0369570817121
6.104,0.9999815582925512,-140.4507295350568
6.112,0.9999808208842513,-140.86423849062183
6.12,0.9999801199888548,-141.27748522024527
6.128,0.9999794547903595,-141.69047100959978
6.136,0.9999788244829751,-142.10319715803286
6.144,0.999978228271071,-142.51566497840813
6.152,0.9999776653691405,-142.92787579694675
6.16,0.9999771350017405,-143.33983095307022
6.168,0.9999766364034461,-143.7515317992438
6.176,0.9999761688188052,-144.16297970082027
6.184,0.999975731502279,-144.57417603588536
6.192,0.9999753237181973,-144.98512219510303
6.2,0.9999749447407009,-145.39581958156236
6.208,0.999974593853694,-145.80626961062478
6.216,0.9999742703507822,-146.21647370977234
6.224,0.9999739735352235,-146.6264333184566
6.232,0.9999737027198733,-147.03614988794882
6.24,0.9999734572271223,-147.44562488119033
6.248,0.9999732363888466,-147.85485977264446
6.256,0.9999730395463453,-148.26385604814874
6.264,0.9999728660502856,-148.67261520476842
6.272,0.9999727152606427,-149.0811387506505
6.28,0.999972586546639,-149.48942820487903
6.288,0.99997247928669,-149.8974850973307
6.296,0.999972392868336,-150.30531096853198
6.304,0.9999723266881887,-150.7129073695168
6.312,0.9999722801518657,-151.12027586168514
6.32,0.999972252673931,-151.52741801666232
6.328,0.9999722436778308,-151.9343354161598
6.336,0.9999722525958339,-152.34102965183615
6.344,0.9999722788689667,-152.7475023251595
6.352,0.9999723219469496,-153.15375504727047
6.36,0.9999723812881375,-153.5597894388463
6.368,0.999972456359447,-153.96560712996575
6.376,0.9999725466363054,-154.37120975997485
6.384,0.9999726516025708,-154.77659897735376
6.392,0.9999727707504813,-155.1817764395844
6.4,0.999972903580581,-155.5867438130189
6.408,0.9999730496016577,-155.99150277274921
6.416,0.9999732083306747,-156.39605500247742
6.424,0.9999733792927121,-156.80040219438698
6.432,0.9999735620208917,-157.20454604901494
6.44,0.9999737560563167,-157.6084882751253
6.448,0.9999739609480045,-158.01223058958251
6.456,0.9999741762528161,-158.4157747172269
6.464,0.9999744015353965,-158.81912239075012
6.472,0.9999746363681022,-159.22227535057218
6.48,0.9999748803309362,-159.62523534471873
6.4879999999999995,0.9999751330114803,-160.02800412869988
6.496,0.9999753940048299,-160.43058346538967
6.504,0.9999756629135256,-160.83297512490574
6.5120000000000005,0.999975939347484,-161.23518088449165
6.52,0.9999762229239373,-161.63720252839772
6.5280000000000005,0.9999765132673542,-162.0390418477651
6.536,0.9999768100093857,-162.44070064050877
6.5440000000000005,0.9999771127887854,-162.842180711203
6.552,0.9999774212513567,-163.24348387096623
6.5600000000000005,0.9999777350498693,-163.64461193734834
6.568,0.9999780538440038,-164.04556673421712
6.5760000000000005,0.9999783773002792,-164.44635009164745
6.584,0.999978705091988,-164.8469638458094
6.592,0.9999790368991269,-165.24740983885889
6.6,0.9999793724083316,-165.64768991882812
6.608,0.9999797113128086,-166.0478059395172
6.616,0.999980053312269,-166.44775976038673
6.624,0.9999803981128618,-166.84755324645093
6.632,0.9999807454271062,-167.24718826817193
6.64,0.9999810949738259,-167.64666670135458
6.648,0.9999814464780838,-168.04599042704228
6.656,0.9999817996711137,-168.44516133141357
6.664,0.9999821542902533,-168.84418130567946
6.672,0.9999825100788817,-169.24305224598163
6.68,0.9999828667863514,-169.6417760532915
6.688,0.999983224167923,-170.04035463330993
6.696,0.9999835819846973,-170.43878989636775
6.704,0.9999839400035552,-170.83708375732715
6.712,0.9999842979970892,-171.23523813548383
6.72,0.9999846557435373,-171.63325495446978
6.728,0.9999850130267208,-172.03113614215704
6.736,0.9999853696359793,-172.42888363056187
6.744,0.9999857253661063,-172.82649935575023
6.752,0.999986080017284,-173.2239852577433
6.76,0.9999864333950198,-173.62134328042424
6.768,0.9999867853100863,-174.01857537144565
6.776,0.9999871355784514,-174.4156834821374
6.784,0.9999874840212206,-174.81266956741547
6.792,0.9999878304645727,-175.20953558569144
6.8,0.9999881747396955,-175.60628349878272
6.808,0.9999885166827261,-176.0029152718232
6.816,0.9999888561346874,-176.39943287317507
6.824,0.9999891929414255,-176.79583827434067
6.832,0.999989526953551,-177.19213344987574
6.84,0.999989858026375,-177.5883203773027
6.848,0.9999901860198495,-177.9844010370249
6.856,0.9999905107985068,-178.38037741224161
6.864,0.9999908322313988,-178.7762514888632
6.872,0.999991150192037,-179.1720252554275
6.88,0.9999914645583332,-179.56770070301638
6.888,0.9999917752125399,-179.96327982517315
6.896,0.9999920820411909,179.6412353821796
6.904,0.999992384935043,179.24584292082125
6.912,0.9999926837890173,178.85054079031428
6.92,0.9999929785021405,178.4553269880844
6.928,0.9999932689774889,178.06019950950034
6.936,0.9999935551221282,177.66515634795292
6.944,0.9999938368470593,177.2701954949337
6.952,0.9999941140671583,176.8753149401131
6.96,0.9999943867011242,176.48051267141778
6.968,0.9999946546714173,176.08578667510767
6.976,0.9999949179042084,175.69113493585235
6.984,0.9999951763293208,175.29655543680724
6.992,0.9999954298801756,174.90204615968858
7.0,0.9999956784937367,174.50760508484882
7.008,0.9999959221104576,174.11323019135074
7.016,0.9999961606742249,173.71891945704152
7.024,0.999996394132307,173.32467085862623
7.032,0.9999966224352995,172.9304823717408
7.04,0.9999968455370729,172.53635197102466
7.048,0.9999970633947186,172.1422776301926
7.056,0.9999972759684974,171.74825732210692
7.064,0.9999974832217886,171.35428901884802
7.072,0.9999976851210365,170.96037069178584
7.08,0.9999978816357,170.56650031164978
7.088,0.999998072738202,170.17267584859894
7.096,0.9999982584038783,169.77889527229166
7.104,0.9999984386109279,169.3851565519547
7.112,0.9999986133403633,168.99145765645204
7.12,0.9999987825759599,168.59779655435332
7.128,0.9999989463042094,168.20417121400206
7.136,0.9999991045142661,167.81057960358314
7.144,0.9999992571979067,167.41701969119043
7.152,0.9999994043494731,167.02348944489356
7.16,0.9999995459658323,166.629986832805
7.168,0.999999682046324,166.23650982314606
7.176,0.9999998125927169,165.8430563843131
7.184,0.9999999376091603,165.4496244849435
7.192,1.0,165.05621209398075
7.2,1.0,164.66281718074
7.208,0.9999999999999999,164.26943771497272
7.216,1.0,163.87607166693135
7.224,1.0,163.4827170074338
7.232,1.0,163.08937170792746
7.24,1.0,162.6960337405531
7.248,1.0,162.3027010782084
7.256,0.9999999999999999,161.9093716946115
7.264,1.0,161.51604356436405
7.272,1.0,161.12271466301422
7.28,0.9999999999999999,160.72938296711942
7.288,1.0,160.33604645430893
7.296,1.0,159.9427031033461
7.304,1.0,159.54935089419075
7.312,1.0,159.15598780806107
7.32,0.9999999999999999,158.7626118274954
7.328,1.0,158.36922093641402
7.336,1.0,157.97581312018065
7.344,0.9999999999999999,157.5823863656639
7.352,0.9999999999999999,157.18893866129832
7.36,1.0,156.79546799714598
7.368,1.0,156.40197236495695
7.376,0.9999999999999999,156.00844975823063
7.384,1.0,155.6148981722764
7.392,1.0,155.22131560427428
7.4,1.0000000000000002,154.82770005333566
7.4079999999999995,0.9999999999999999,154.43404952056383
7.416,0.9999999999999999,154.04036200911438
7.4239999999999995,1.0,153.64663552425574
7.432,0.9999999999999999,153.25286807342945
7.4399999999999995,0.9999999999999999,152.8590576663106
7.448,0.9999999999999999,152.46520231486775
7.4559999999999995,1.0,152.07130003342374
7.464,1.0,151.67734883871532
7.4719999999999995,0.9999999999999999,151.28334674995384
7.48,1.0,150.8892917888849
7.4879999999999995,1.0,150.49518197984915
7.496,1.0,150.10101534984184
7.504,1.0,149.7067899285736
7.5120000000000005,1.0,149.31250374853013
7.52,1.0,148.91815484503286
7.5280000000000005,1.0,148.52374125629873
7.536,1.0000000000000002,148.12926102350116
7.5440000000000005,1.0,147.7347121908296
7.552,0.9999999999999999,147.34009280555085
7.5600000000000005,0.9999999999999999,146.9454009180685
7.568,0.9999999989240516,146.55063458198427
7.5760000000000005,0.9999998960803969,146.15579185415822
7.584,0.9999997900269524,145.7608707947696
7.5920000000000005,0.9999996808359568,145.36586946737722
7.6,0.999999568580096,144.9707859389811
7.6080000000000005,0.9999994533324735,144.5756182800824
7.616,0.9999993351665848,144.1803645647454
7.6240000000000006,0.9999992141562882,143.78502287065794
7.632,0.9999990903757768,143.38959127919333
7.640000000000001,0.9999989638995532,142.9940678754711
7.648,0.9999988348024014,142.5984507484193
7.656000000000001,0.99999870315936,142.20273799083535
7.664,0.9999985690456975,141.80692769944864
7.672,0.9999984325368855,141.41101797498175
7.68,0.9999982937085723,141.01500692221322
7.688,0.9999981526365594,140.61889265003938
7.696,0.9999980093967752,140.222673271537
7.704,0.999997864065251,139.82634690402583
7.712,0.999997716718096,139.4299116691314
7.72,0.9999975674314735,139.03336569284792
7.728,0.9999974162815781,138.63670710560166
7.736,0.9999972633446093,138.23993404231388
7.744,0.9999971086967524,137.84304464246492
7.752,0.9999969524141513,137.4460370501574
7.76,0.9999967945728896,137.04890941418054
7.768,0.9999966352489655,136.6516598880743
7.776,0.9999964745182713,136.25428663019346
7.784,0.999996312456571,135.8567878037727
7.792,0.9999961491394787,135.45916157699094
7.8,0.999995984642438,135.0614061230369
7.808,0.9999958190407002,134.6635196201739
7.816,0.9999956524093044,134.2655002518059
7.824,0.999995484823057,133.86734620654283
7.832,0.9999953163565104,133.46905567826704
7.84,0.9999951470839458,133.07062686619935
7.848,0.9999949770793499,132.67205797496555
7.856,0.9999948064164,132.27334721466346
7.864,0.9999946351684414,131.8744928009299
7.872,0.9999944634084701,131.47549295500787
7.88,0.999994291209115,131.07634590381448
7.888,0.9999941186426176,130.67704988000867
7.896,0.999993945780817,130.2776031220594
7.904,0.9999937726951295,129.87800387431412
7.912,0.9999935994565333,129.4782503870677
7.92,0.9999934261355496,129.07834091663125
7.928,0.9999932528022276,128.6782737254015
7.936,0.9999930795261256,128.27804708193068
7.944,0.9999929063762975,127.8776592609961
7.952,0.9999927334212741,127.47710854367074
7.96,0.9999925607290491,127.0763932173935
7.968,0.9999923883670625,126.67551157604038
7.976,0.9999922164021859,126.27446191999535
7.984,0.9999920449007069,125.87324255622205
7.992,0.9999918739283153,125.4718517983355
8.0,0.9999917035500876,125.07028796667424
8.008,0.9999915338304731,124.66854938837284
8.016,0.9999913648332799,124.26663439743439
8.024000000000001,0.9999911966216615,123.86454133480402
8.032,0.9999910292581027,123.46226854844214
8.04,0.9999908628044065,123.05981439339796
8.048,0.9999906973216816,122.65717723188367
8.056000000000001,0.9999905328703288,122.25435543334918
8.064,0.9999903695100296,121.85134737455651
8.072,0.9999902072997328,121.44815143965481
8.08,0.999990046297644,121.04476602025588
8.088000000000001,0.9999898865612115,120.64118951551005
8.096,0.9999897281471177,120.23742033218207
8.104,0.9999895711112654,119.8334568847275
8.112,0.9999894155087682,119.42929759536929
8.120000000000001,0.9999892613939391,119.02494089417546
8.128,0.9999891088202811,118.62038521913597
8.136,0.9999889578404743,118.21562901624047
8.144,0.9999888085063696,117.81067073955653
8.152000000000001,0.9999886608689756,117.40550885130821
8.16,0.9999885149784509,117.00014182195468
8.168,0.9999883708840944,116.59456813026912
8.176,0.9999882286343362,116.18878626341831
8.184000000000001,0.9999880882767286,115.78279471704249
8.192,0.9999879498579372,115.3765919953355
8.2,0.999987813423734,114.97017661112473
8.208,0.9999876790189878,114.56354708595225
8.216000000000001,0.9999875466876573,114.156701950156
8.224,0.9999874164727827,113.74963974295103
8.232,0.9999872884164785,113.342359012511
8.24,0.9999871625599273,112.93485831605047
8.248000000000001,0.9999870389433719,112.52713621990743
8.256,0.9999869176061079,112.11919129962581
8.264,0.9999867985864803,111.71102214003831
8.272,0.9999866819218737,111.30262733534988
8.280000000000001,0.9999865676487077,110.89400548922156
8.288,0.9999864558024331,110.48515521485417
8.296,0.9999863464175227,110.07607513507251
8.304,0.9999862395274697,109.6667638824099
8.312,0.9999861351647799,109.25722009919343
8.32,0.9999860333609685,108.8474424376284
8.328,0.9999859341465556,108.43742955988449
8.336,0.9999858375510597,108.02718013818068
8.344,0.9999857436029972,107.61669285487208
8.352,0.9999856523298756,107.20596640253541
8.36,0.9999855637581903,106.79499948405619
8.368,0.9999854779134228,106.38379081271499
8.376,0.9999853948200369,105.97233911227514
8.384,0.9999853145014738,105.5606431170692
8.392,0.9999852369801518,105.14870157208759
8.4,0.9999851622774638,104.7365132330654
8.408,0.9999850904137723,104.32407686657129
8.416,0.9999850214084108,103.91139125009518
8.424,0.9999849552796809,103.49845517213728
8.432,0.9999848920448482,103.0852674322964
8.44,0.9999848317201452,102.67182684135943
8.448,0.9999847743207674,102.25813222138997
8.456,0.9999847198608733,101.84418240581833
8.464,0.9999846683535831,101.42997623953043
8.472,0.9999846198109789,101.01551257895838
8.48,0.9999845742441049,100.60079029216965
8.488,0.9999845316629663,100.18580825895792
8.496,0.9999844920765297,99.77056537093272
8.504,0.999984455492726,99.35506053161058
8.512,0.9999844219184459,98.93929265650493
8.52,0.9999843913595469,98.52326067321759
8.528,0.9999843638208498,98.10696352152897
8.536,0.9999843393061426,97.6904001534897
8.544,0.9999843178181811,97.27356953351119
8.552,0.9999842993586913,96.85647063845751
8.56,0.9999842839283699,96.43910245773598
8.568,0.9999842715268888,96.0214639933894
8.576,0.9999842621528969,95.60355426018677
8.584,0.9999842558040208,95.18537228571557
8.592,0.9999842524768706,94.76691711047278
8.6,0.9999842521670412,94.3481877879571
8.608,0.9999842548691162,93.92918338476012
8.616,0.9999842605766721,93.50990298065867
8.624,0.9999842692822805,93.09034566870587
8.632,0.9999842809775137,92.67051055532362
8.64,0.9999842956529487,92.25039676039368
8.648,0.9999843132981702,91.83000341735
8.656,0.9999843339017764,91.40932967326978
8.664,0.9999843574513854,90.98837468896586
8.672,0.9999843839336369,90.56713763907752
8.68,0.9999844133341994,90.14561771216276
8.688,0.999984445637777,89.72381411078908
8.696,0.9999844808281123,89.3017260516255
8.704,0.9999845188879946,88.879352765533
8.712,0.9999845597992644,88.45669349765657
8.72,0.999984603542821,88.03374750751529
8.728,0.9999846500986294,87.61051406909394
8.736,0.9999846994457247,87.186992470933
8.744,0.9999847515622223,86.7631820162198
8.752,0.9999848064253228,86.33908202287817
8.76,0.9999848640113194,85.91469182365921
8.768,0.9999849242956074,85.4900107662305
8.776,0.9999849872526902,85.06503821326638
8.784,0.999985052856188,84.63977354253672
8.792,0.9999851210788457,84.21421614699673
8.8,0.9999851918925421,83.78836543487502
8.808,0.9999852652682971,83.36222082976298
8.815999999999999,0.9999853411762819,82.93578177070226
8.824,0.9999854195858274,82.50904771227306
8.832,0.9999855004654337,82.08201812468178
8.84,0.9999855837827787,81.65469249384803
8.847999999999999,0.9999856695047286,81.22707032149133
8.856,0.999985757597347,80.7991511252176
8.864,0.9999858480259058,80.37093443860546
8.872,0.9999859407548946,79.94241981129151
8.879999999999999,0.9999860357480305,79.51360680905532
8.888,0.9999861329682702,79.0844950139042
8.896,0.9999862323778197,78.65508402415769
8.904,0.9999863339381453,78.22537345453087
8.911999999999999,0.9999864376099848,77.79536293621737
8.92,0.9999865433533588,77.36505211697227
8.928,0.999986651127582,76.93444066119409
8.936,0.9999867608912753,76.50352825000634
8.943999999999999,0.999986872602377,76.07231458133798
8.952,0.9999869862181546,75.64079937000399
8.96,0.9999871016952186,75.20898234778512
8.968,0.9999872189895321,74.77686326350668
8.975999999999999,0.9999873380564265,74.34444188311666
8.984,0.9999874588506107,73.91171798976342
8.992,0.9999875813261869,73.47869138387296
9.0,0.9999877054366623,73.04536188322467
9.008,0.9999878311349613,72.61172932302667
9.016,0.999987958373441,72.17779355599058
9.024000000000001,0.999988087103903,71.74355445240556
9.032,0.9999882172776073,71.30901190021109
9.04,0.9999883488452869,70.87416580506905
9.048,0.99998848175716,70.43901609043512
9.056000000000001,0.9999886159629465,70.00356269762952
9.064,0.9999887514118797,69.56780558590633
9.072,0.9999888880527223,69.13174473252192
9.08,0.9999890258337808,68.69538013280291
9.088000000000001,0.9999891647029188,68.25871180021296
9.096,0.9999893046075727,67.82173976641843
9.104,0.9999894454947676,67.38446408135297
9.112,0.9999895873111311,66.94688481328133
9.120000000000001,0.999989730002907,66.50900204886226
9.128,0.9999898735159745,66.07081589320998
9.136,0.9999900177958598,65.63232646995448
9.144,0.9999901627877534,65.19353392130103
9.152000000000001,0.9999903084365258,64.75443840808877
9.16,0.9999904546867433,64.31504010984762
9.168,0.9999906014826818,63.875339224853946
9.176,0.999990748768346,63.43533597018555
9.184000000000001,0.9999908964874831,62.995030581775346
9.192,0.9999910445836,62.55442331446353
9.2,0.9999911929999791,62.11351444204826
9.208,0.9999913416796948,61.672304257335725
9.216000000000001,0.9999914905656296,61.23079307218859
9.224,0.9999916396004921,60.78898121757307
9.232,0.9999917887268309,60.346869043604286
9.24,0.9999919378870542,59.90445691959093
9.248000000000001,0.9999920870234437,59.461745234078386
9.256,0.9999922360781746,59.018734394890075
9.264,0.9999923849933299,58.57542482916734
9.272,0.9999925337109182,58.13181698340835
9.280000000000001,0.9999926821728912,57.687911323505304
9.288,0.9999928303211602,57.24370833478001
9.296,0.9999929780976133,56.799208522017786
9.304,0.9999931254441333,56.35441240950017
9.312000000000001,0.9999932723026134,55.90932054103614
9.32,0.9999934186149761,55.46393347999136
9.328,0.9999935643231901,55.01825180931572
9.336,0.999993709369286,54.57227613156973
9.344,0.9999938536953766,54.12600706894925
9.352,0.9999939972436719,53.679445263307755
9.36,0.9999941399564972,53.23259137617806
9.368,0.9999942817763114,52.78544608879117
9.376,0.9999944226457227,52.33801010209452
9.384,0.9999945625075082,51.890284136767214
9.392,0.9999947013046293,51.44226893323494
9.4,0.9999948389802502,50.99396525168151
9.408,0.999994975477756,50.54537387206009
9.416,0.9999951107407684,50.09649559410116
9.424,0.9999952447131649,49.647331237320074
9.432,0.9999953773390949,49.197881641021276
9.44,0.9999955085629972,48.74814766430202
9.448,0.9999956383296186,48.298130186052745
9.456,0.99999576658403,47.847830104957154
9.464,0.9999958932716435,47.397248339488456
9.472,0.9999960183382317,46.94638582790556
9.48,0.9999961417299412,46.495243528245574
9.488,0.9999962633933138,46.04382241831578
9.496,0.9999963832753002,45.59212349568211
9.504,0.9999965013232802,45.14014777765712
9.512,0.9999966174850765,44.68789630128444
9.52,0.9999967317089737,44.23537012332249
9.528,0.9999968439437344,43.782570320224714
9.536,0.999996954138616,43.32949798811935
9.544,0.999997062243387,42.87615424278524
9.552,0.999997168208345,42.422540219627244
9.56,0.9999972719843311,41.968657073647975
9.568,0.9999973735227471,41.51450597941886
9.576,0.9999974727755724,41.060088131047365
9.584,0.9999975696953796,40.60540474214388
9.592,0.9999976642353499,40.15045704578443
9.6,0.9999977563492907,39.69524629447305
9.608,0.9999978459916491,39.239773760100256
9.616,0.9999979331175297,38.78404073390074
9.624,0.9999980176827091,38.32804852640743
9.632,0.9999980996436508,37.87179846740463
9.64,0.9999981789575216,37.41529190587753
9.648,0.9999982555822056,36.9585302099608
