freq,mag,phase
6.0,0.9999914022068476,88.74446609852812
6.008,0.9999919492225595,88.59813076900427
6.016,0.9999924817108271,88.45169882191108
6.024,0.9999929998793065,88.30517016055104
6.032,0.9999935039339778,88.15854468865571
6.04,0.9999939940791501,88.01182231038847
6.048,0.9999944705174661,87.86500293034734
6.056,0.9999949334499078,87.71808645356779
6.064,0.9999953830758023,87.5710727855255
6.072,0.9999958195928271,87.42396183213918
6.08,0.9999962431970164,87.27675349977348
6.088,0.9999966540827644,87.12944769524157
6.096,0.9999970524428327,86.98204432580823
6.104,0.9999974384683561,86.83454329919256
6.112,0.9999978123488462,86.68694452357076
6.12,0.9999981742721987,86.53924790757901
6.128,0.9999985244246988,86.39145336031636
6.136,0.9999988629910259,86.24356079134755
6.144,0.9999991901542603,86.09557011070578
6.152,0.9999995060958876,85.94748122889567
6.16,0.999999810995806,85.79929405689604
6.168,1.0,85.6510085061629
6.176,0.9999999999999999,85.50262448863208
6.184,0.9999999999999999,85.3541419167224
6.192,1.0,85.20556070333832
6.2,0.9999999999999998,85.05688076187289
6.208,1.0,84.90810200621063
6.216,0.9999999999999999,84.7592243507305
6.224,1.0,84.61024771030867
6.232,1.0000000000000002,84.46117200032144
6.24,1.0,84.31199713664824
6.248,0.9999999999999999,84.16272303567443
6.256,1.0,84.01334961429423
6.264,1.0,83.86387678991366
6.272,1.0,83.71430448045344
6.28,1.0,83.56463260435193
6.288,0.9999999999999999,83.41486108056799
6.296,1.0,83.26498982858402
6.304,0.9999999999999999,83.11501876840876
6.312,0.9999999999999999,82.96494782058032
6.32,1.0,82.81477690616909
6.328,1.0,82.66450594678066
6.336,0.9999999999999999,82.5141348645588
6.344,1.0,82.36366358218837
6.352,1.0,82.21309202289832
6.36,1.0,82.0624201104646
6.368,1.0,81.91164776921313
6.376,1.0,81.76077492402275
6.384,0.9999999999999999,81.60980150032825
6.392,1.0,81.45872742412323
6.4,0.9999999999999999,81.30755262196314
6.408,1.0,81.15627702096825
6.416,0.9999999999999999,81.0049005488266
6.424,0.9999999999999999,80.85342313379698
6.432,1.0,80.70184470471195
6.44,0.9999999999999999,80.55016519098075
6.448,1.0,80.39838452259235
6.456,1.0,80.24650263011841
6.464,1.0,80.09451944471628
6.472,0.9999999999999999,79.942434898132
6.48,0.9999999999999999,79.79024892270326
6.4879999999999995,1.0,79.63796145136243
6.496,0.9999999999999999,79.48557241763949
6.504,1.0,79.33308175566525
6.5120000000000005,0.9999999999999999,79.18048940017398
6.52,1.0,79.02779528650682
6.5280000000000005,0.9999999999999998,78.87499935061443
6.536,0.9999999999999999,78.72210152906031
6.5440000000000005,1.0,78.56910175902354
6.552,0.9999999999999999,78.41599997830201
6.5600000000000005,1.0,78.26279612531525
6.568,0.9999999999999999,78.1094901391076
6.5760000000000005,0.9999999999999999,77.95608195935112
6.584,1.0,77.8025715263487
6.592,1.0,77.64895878103694
6.6,0.9999999999999999,77.49524366498929
6.608,1.0,77.34142612041904
6.616,1.0,77.18750609018237
6.624,1.0,77.03348351778129
6.632,1.0,76.8793583473667
6.64,1.0,76.72513052374148
6.648,0.9999999999999999,76.57079999236345
6.656,0.9999999999999999,76.41636669934833
6.664,1.0,76.26183059147297
6.672,1.0,76.10719161617813
6.68,0.9999999999999999,75.95244972157172
6.688,1.0000000000000002,75.79760485643168
6.696,0.9999999999999999,75.64265697020905
6.704,0.9999999999999999,75.48760601303103
6.712,1.0,75.332451935704
6.72,0.9999999999999999,75.1771946897165
6.728,0.9999999999999999,75.02183422724232
6.736,1.0,74.86637050114346
6.744,1.0,74.71080346497321
6.752,0.9999999999999999,74.55513307297916
6.76,0.9999999999999999,74.39935928010621
6.768,1.0,74.24348204199963
6.776,1.0,74.087501315008
6.784,0.9999999999999999,73.93141705618636
6.792,1.0,73.77522922329918
6.8,1.0,73.6189377748233
6.808,1.0,73.46254266995103
6.816,1.0,73.3060438685932
6.824,0.9999999999999999,73.1494413313821
6.832,1.0,72.99273501967454
6.84,0.9999999999999999,72.83592489555485
6.848,1.0,72.6790109218379
6.856,0.9999999999999999,72.5219930620721
6.864,1.0,72.36487128054245
6.872,0.9999999999999999,72.20764554227343
6.88,0.9999999999999999,72.05031581303223
6.888,0.9999999999999999,71.89288205933148
6.896,1.0,71.73534424843248
6.904,0.9999999101285119,71.57770234834805
6.912,0.999999774148121,71.41995632784564
6.92,0.9999996378663775,71.26210615645019
6.928,0.9999995013394117,71.10415180444726
6.936,0.9999993646223837,70.94609324288594
6.944,0.9999992277694895,70.78793044358183
6.952,0.9999990908339679,70.62966337912007
6.96,0.9999989538681077,70.47129202285832
6.968,0.9999988169232551,70.31281634892969
6.976,0.9999986800498184,70.1542363322457
6.984,0.9999985432972777,69.99555194849933
6.992,0.9999984067141896,69.83676317416797
7.0,0.9999982703481954,69.67786998651628
7.008,0.9999981342460272,69.51887236359933
7.016,0.9999979984535153,69.35977028426534
7.024,0.9999978630155943,69.20056372815883
7.032,0.9999977279763111,69.04125267572347
7.04,0.9999975933788305,68.88183710820499
7.048,0.9999974592654436,68.72231700765421
7.056,0.9999973256775734,68.56269235692993
7.064,0.9999971926557824,68.40296313970188
7.072,0.9999970602397789,68.24312934045355
7.08,0.9999969284684245,68.08319094448525
7.088,0.9999967973797406,67.92314793791698
7.096,0.9999966670109157,67.76300030769129
7.104,0.999996537398312,67.60274804157625
7.112,0.9999964085774716,67.4423911281683
7.12,0.9999962805831251,67.28192955689516
7.128,0.999996153449197,67.1213633180188
7.136,0.9999960272088133,66.96069240263819
7.144,0.9999959018943075,66.79991680269225
7.152,0.9999957775372295,66.63903651096274
7.16,0.9999956541683495,66.47805152107713
7.168,0.9999955318176679,66.31696182751138
7.176,0.9999954105144203,66.15576742559287
7.184,0.9999952902870847,65.99446831150325
7.192,0.9999951711633891,65.83306448228126
7.2,0.9999950531703172,65.67155593582558
7.208,0.9999949363341162,65.50994267089756
7.216,0.9999948206803041,65.3482246871243
7.224,0.9999947062336749,65.18640198500115
7.232,0.9999945930183063,65.02447456589474
7.24,0.9999944810575676,64.86244243204564
7.248,0.9999943703741249,64.7003055865713
7.256,0.9999942609899493,64.5380640334687
7.264,0.9999941529263223,64.37571777761723
7.272,0.9999940462038441,64.21326682478137
7.28,0.9999939408424396,64.05071118161352
7.288,0.9999938368613652,63.88805085565676
7.296,0.9999937342792163,63.725285855347536
7.304,0.9999936331139335,63.56241619001844
7.312,0.9999935333828089,63.399441869900954
7.32,0.9999934351024946,63.23636290612815
7.328,0.999993338289008,63.0731793107374
7.336,0.9999932429577386,62.90989109667308
7.344,0.9999931491234559,62.7464982777893
7.352,0.9999930568003151,62.58300086885254
7.36,0.9999929660018647,62.419398885544354
7.368,0.9999928767410522,62.255692344464045
7.376,0.9999927890302319,62.09188126313132
7.384,0.9999927028811708,61.92796565998892
7.392,0.999992618305056,61.76394555440529
7.4,0.9999925353125014,61.59982096667714
7.4079999999999995,0.9999924539135538,61.4355919180322
7.416,0.9999923741177001,61.271258430631654
7.4239999999999995,0.9999922959338732,61.106820527572914
7.432,0.9999922193704606,60.94227823289202
7.4399999999999995,0.9999921444353087,60.777631571566474
7.448,0.9999920711357309,60.61288056951747
7.4559999999999995,0.9999919994785138,60.44802525361282
7.464,0.9999919294699242,60.28306565166914
7.4719999999999995,0.9999918611157153,60.1180017924547
7.48,0.9999917944211333,59.952833705691695
7.4879999999999995,0.9999917293909241,59.78756142205899
7.496,0.9999916660293401,59.62218497319433
7.504,0.9999916043401467,59.45670439169719
7.5120000000000005,0.9999915443266285,59.29111971113083
7.52,0.9999914859915959,59.12543096602521
7.5280000000000005,0.9999914293373926,58.95963819187904
7.536,0.9999913743659004,58.79374142516251
7.5440000000000005,0.999991321078547,58.6277407033195
7.552,0.9999912694763127,58.46163606477021
7.5600000000000005,0.9999912195597351,58.29542754891333
7.568,0.9999911713289179,58.12911519612869
7.5760000000000005,0.999991124783535,57.96269904777929
7.584,0.9999910799228393,57.79617914621408
7.5920000000000005,0.999991036745667,57.62955553476994
7.6,0.999990995250445,57.46282825777428
7.6080000000000005,0.9999909554351979,57.295997360547105
7.616,0.999990917297552,57.12906288940368
7.6240000000000006,0.9999908808347451,56.96202489165637
7.632,0.9999908460436301,56.794883415617385
7.640000000000001,0.9999908129206817,56.627638510600654
7.648,0.9999907814620033,56.46029022692439
7.656000000000001,0.9999907516633337,56.29283861591303
7.664,0.9999907235200526,56.12528372989976
7.672,0.9999906970271862,55.95762562222848
7.68,0.9999906721794145,55.78986434725609
7.688,0.9999906489710776,55.62199996035473
7.696,0.9999906273961806,55.45403251791382
7.704,0.9999906074484012,55.28596207734228
7.712,0.9999905891210945,55.117788697070644
7.72,0.9999905724073006,54.949512436553185
7.728,0.999990557299749,54.78113335627
7.736,0.9999905437908656,54.612651517729084
7.744,0.9999905318727788,54.444066983468424
7.752,0.9999905215373248,54.27537981705804
7.76,0.9999905127760551,54.106590083102006
7.768,0.9999905055802403,53.93769784724046
7.776,0.9999904999408781,53.76870317615165
7.784,0.9999904958486975,53.59960613755386
7.792,0.9999904932941658,53.430406800207436
7.8,0.9999904922674943,53.26110523391664
7.808,0.9999904927586434,53.091701509531724
7.816,0.9999904947573299,52.92219569895066
7.824,0.999990498253031,52.75258787512125
7.832,0.9999905032349912,52.58287811204282
7.84,0.999990509692228,52.41306648476816
7.848,0.9999905176135374,52.24315306940538
7.856,0.9999905269874989,52.07313794311968
7.864,0.9999905378024824,51.90302118413523
7.872,0.9999905500466533,51.732802871736844
7.88,0.9999905637079777,51.56248308627188
7.888,0.9999905787742283,51.392061909151884
7.896,0.9999905952329899,51.221539422854384
7.904,0.9999906130716653,51.050915710924535
7.912,0.9999906322774804,50.88019085797687
7.92,0.9999906528374893,50.70936494969696
7.928,0.9999906747385805,50.53843807284305
7.936,0.9999906979674815,50.36741031524767
7.944,0.9999907225107652,50.19628176581927
7.952,0.9999907483548541,50.02505251454384
7.96,0.9999907754860262,49.853722652486404
7.968,0.99999080389042,49.682292271792676
7.976,0.999990833554041,49.51076146569045
7.984,0.9999908644627642,49.33913032849125
7.992,0.9999908966023421,49.16739895559174
8.0,0.9999909299584082,48.99556744347517
8.008,0.9999909645164828,48.823635889712904
8.016,0.9999910002619774,48.65160439296571
8.024000000000001,0.9999910371802007,48.47947305298534
8.032,0.999991075256363,48.307241970615806
8.04,0.9999911144755808,48.134911247794676
8.048,0.9999911548228828,47.9624809875545
8.056000000000001,0.9999911962832138,47.78995129402413
8.064,0.9999912388414403,47.61732227243001
8.072,0.9999912824823549,47.444594029097374
8.08,0.9999913271906815,47.27176667145152
8.088000000000001,0.9999913729510794,47.098840308019085
8.096,0.9999914197481484,46.92581504842927
8.104,0.9999914675664341,46.75269100341487
8.112,0.9999915163904314,46.57946828481347
8.120000000000001,0.9999915662045898,46.40614700556877
8.128,0.9999916169933182,46.232727279731485
8.136,0.9999916687409891,46.059209222460446
8.144,0.9999917214319427,45.88559295002369
8.152000000000001,0.9999917750504922,45.71187857979958
8.16,0.999991829580928,45.53806623027776
8.168,0.999991885007521,45.36415602106002
8.176,0.9999919413145296,45.1901480728614
8.184000000000001,0.9999919984862004,45.016042507511116
8.192,0.9999920565067756,44.84183944795351
8.2,0.9999921153604958,44.66753901824876
8.208,0.999992175031604,44.49314134357389
8.216000000000001,0.9999922355043509,44.318646550223605
8.224,0.9999922967629976,44.14405476561115
8.232,0.9999923587918202,43.969366118268894
8.24,0.999992421575115,43.794580737849245
8.248000000000001,0.9999924850972007,43.61969875512545
8.256,0.9999925493424234,43.444720301992206
8.264,0.9999926142951601,43.269645511466265
8.272,0.9999926799398225,43.09447451768724
8.280000000000001,0.9999927462608615,42.91920745591821
8.288,0.9999928132427702,42.74384446254631
8.296,0.9999928808700886,42.56838567508327
8.304,0.999992949127405,42.392831232165925
8.312,0.9999930179993634,42.217181273556974
8.32,0.9999930874706636,42.041435940145135
8.328,0.9999931575260665,41.86559537394597
8.336,0.9999932281503977,41.689659718102014
8.344,0.9999932993285499,41.51362911688344
8.352,0.9999933710454874,41.33750371568829
8.36,0.999993443286249,41.16128366104292
8.368,0.9999935160359515,40.98496910060225
8.376,0.9999935892797932,40.80856018315021
8.384,0.999993663003056,40.63205705859985
8.392,0.9999937371911102,40.45545987799375
8.4,0.9999938118294173,40.27876879350408
8.408,0.9999938869035317,40.10198395843298
8.416,0.9999939623991057,39.925105527212516
8.424,0.999994038301891,39.748133655405056
8.432,0.9999941145977431,39.571068499703074
8.44,0.999994191272623,39.393910217929594
8.448,0.9999942683126003,39.21665896903785
8.456,0.9999943457038567,39.03931491311172
8.464,0.9999944234326884,38.861878211365244
8.472,0.9999945014855082,38.68434902614311
8.48,0.9999945798488494,38.50672752092008
8.488,0.999994658509368,38.32901386030132
8.496,0.9999947374538442,38.15120821002196
8.504,0.9999948166691869,37.97331073694715
8.512,0.999994896142435,37.795321609071664
8.52,0.9999949758607592,37.61724099551999
8.528,0.999995055811466,37.43906906654569
8.536,0.9999951359819994,37.26080599353152
8.544,0.9999952163599425,37.08245194898877
8.552,0.999995296933021,36.90400710655724
8.56,0.9999953776891041,36.72547164100455
8.568,0.9999954586162078,36.546845728226124
8.576,0.9999955397024967,36.36812954524432
8.584,0.9999956209362851,36.1893232702084
8.592,0.9999957023060404,36.01042708239367
8.6,0.9999957838003846,35.83144116220126
8.608,0.9999958654080953,35.652365691157264
8.616,0.9999959471181089,35.47320085191254
8.624,0.999996028919522,35.29394682824166
8.632,0.9999961108015922,35.11460380504264
8.64,0.9999961927537415,34.93517196833595
8.648,0.9999962747655566,34.755651505264105
8.656,0.9999963568267908,34.576042604090595
8.664,0.9999964389273657,34.396345454199434
8.672,0.9999965210573732,34.216560246094076
8.68,0.9999966032070761,34.03668717139678
8.688,0.9999966853669101,33.85672642284756
8.696,0.9999967675274842,33.676678194303484
8.704,0.9999968496795837,33.49654268073751
8.712,0.99999693181417,33.31632007823779
8.72,0.9999970139223823,33.136010584006314
8.728,0.9999970959955385,32.955614396358264
8.736,0.9999971780251371,32.7751317147206
8.744,0.999997260002857,32.594562739631264
8.752,0.9999973419205598,32.413907672737764
8.76,0.9999974237702894,32.23316671679627
8.768,0.9999975055442741,32.05234007567017
8.776,0.9999975872349268,31.87142795432911
8.784,0.9999976688348456,31.690430558847417
8.792,0.9999977503368157,31.50934809640312
8.8,0.9999978317338081,31.328180775276326
8.808,0.9999979130189823,31.146928804848102
8.815999999999999,0.9999979941856855,30.96559239559895
8.824,0.9999980752274535,30.784171759107302
8.832,0.9999981561380119,30.60266710804827
8.84,0.9999982369112751,30.421078656192016
8.847999999999999,0.9999983175413479,30.239406618402167
8.856,0.9999983980225252,30.057651210634308
8.864,0.9999984783492931,29.875812649934456
8.872,0.9999985585163274,29.693891154437395
8.879999999999999,0.9999986385184959,29.511886943364857
8.888,0.9999987183508566,29.32980023702396
8.896,0.9999987980086598,29.147631256805525
8.904,0.9999988774873458,28.965380225182248
8.911999999999999,0.9999989567825469,28.783047365706782
8.92,0.9999990358900861,28.600632903010027
8.928,0.9999991148059774,28.41813706279929
8.936,0.9999991935264255,28.235560071856348
8.943999999999999,0.9999992720478257,28.05290215803539
8.952,0.9999993503667637,27.87016355026114
8.96,0.9999994284800151,27.68734447852692
8.968,0.9999995063845443,27.504445173892563
8.975999999999999,0.9999995840775059,27.321465868482186
8.984,0.9999996615562428,27.138406795482236
8.992,0.9999997388182853,26.955268189139368
9.0,0.999999815861352,26.77205028475822
9.008,0.9999998926833479,26.588753318699094
9.016,0.9999999692823645,26.405377528375805
9.024000000000001,1.0,26.22192315225346
9.032,1.0,26.038390429846086
9.04,1.0,25.854779601714164
9.048,1.0,25.671090909462354
9.056000000000001,1.0,25.487324595737114
9.064,1.0,25.30348090422422
9.072,0.9999999999999999,25.11956007964613
9.08,1.0,24.935562367759594
9.088000000000001,1.0,24.751488015353143
9.096,1.0000000000000002,24.567337270244405
9.104,1.0,24.38311038127743
9.112,1.0,24.19880759832007
9.120000000000001,0.9999999999999999,24.014429172261387
9.128,1.0,23.829975355008823
9.136,1.0,23.645446399485344
9.144,1.0,23.46084255962675
9.152000000000001,1.0,23.276164090378884
9.16,1.0,23.09141124769468
9.168,1.0,22.906584288531196
9.176,1.0,22.721683470846756
9.184000000000001,1.0,22.536709053598013
9.192,1.0,22.35166129673691
9.2,0.9999999999999999,22.166540461207497
9.208,1.0,21.981346808942984
9.216000000000001,1.0,21.79608060286268
9.224,1.0,21.61074210686877
9.232,1.0,21.425331585843036
9.24,1.0,21.23984930564375
9.248000000000001,1.0,21.05429553310246
9.256,0.9999999999999999,20.868670536020662
9.264,1.0,20.682974583166367
9.272,1.0,20.49720794427084
9.280000000000001,0.9999999999999999,20.3113708900253
9.288,1.0,20.12546369207739
9.296,0.9999999999999999,19.93948662302764
9.304,0.9999999999999999,19.753439956426103
9.312000000000001,1.0,19.567323966768832
9.32,1.0,19.381138929494266
9.328,0.9999999999999999,19.194885120979613
9.336,1.0,19.0085628185372
9.344,1.0,18.82217230041102
9.352,0.9999999999999999,18.63571384577268
9.36,1.0,18.44918773471805
9.368,0.9999999999999999,18.262594248263127
9.376,1.0,18.07593366834061
9.384,1.0,17.889206277795687
9.392,0.9999999999999999,17.702412360382546
9.4,0.9999999999999999,17.515552200760098
9.408,1.0,17.328626084488423
9.416,1.0,17.141634298024442
9.424,1.0,16.954577128718256
9.432,1.0,16.767454864808766
9.44,0.9999999999999999,16.58026779541995
9.448,0.9999999999999999,16.393016210556475
9.456,1.0,16.205700401099794
9.464,1.0,16.018320658803738
9.472,1.0,15.830877276290622
9.48,1.0,15.643370547046683
9.488,0.9999999999999999,15.455800765418111
9.496,0.9999999999999999,15.268168226606473
9.504,1.0,15.080473226664713
9.512,1.0000000000000002,14.892716062492404
9.52,0.9999999999999999,14.704897031831727
9.528,1.0,14.517016433262736
9.536,1.0000000000000002,14.329074566199175
9.544,0.9999999999999999,14.141071730883676
9.552,0.9999999999999999,13.953008228383588
9.56,1.0,13.764884360586073
9.568,0.9999999999999999,13.576700430193847
9.576,1.0,13.388456740720244
9.584,0.9999999999999999,13.20015359648489
9.592,1.0,13.011791302608678
9.6,0.9999999999999999,12.823370165009425
9.608,1.0,12.634890490396748
9.616,1.0,12.446352586267649
9.624,0.9999999999999998,12.257756760901398
9.632,1.0,12.069103323354948
9.64,0.9999999999999999,11.880392583457843
9.648,0.9999999999999999,11.691624851807575
9.656,1.0,11.502800439764354
9.664,1.0,11.313919659446473
9.672,1.0,11.124982823724967
9.68,1.0,10.935990246218989
9.688,1.0,10.746942241290354
9.696,0.9999999999999999,10.557839124038825
9.704,0.9999999999999999,10.368681210296687
9.712,0.9999999999999998,10.179468816623915
9.72,0.9999999999999999,9.990202260302684
9.728,1.0,9.800881859332504
9.736,1.0,9.611507932424649
9.744,1.0,9.422080798997262
9.752,0.9999999999999999,9.232600779169722
9.76,1.0,9.043068193757646
9.768,1.0,8.853483364267246
9.776,1.0,8.663846612890268
9.784,1.0,8.47415826249827
9.792,0.9999999999999999,8.284418636637538
9.8,0.9999999999999999,8.094628059523279
9.808,0.9999999999999998,7.904786856034486
9.816,1.0,7.7148953517080745
9.824,1.0,7.524953872733726
9.832,1.0,7.334962745947925
9.84,0.9999999999999999,7.14492229882875
9.847999999999999,0.9999999999999999,6.954832859489942
9.856,1.0,6.764694756675387
9.864,1.0,6.574508319753522
9.872,0.9999999999999999,6.384273878711565
9.879999999999999,1.0,6.193991764149691
9.888,1.0,6.003662307275376
9.896,1.0,5.813285839897693
9.904,1.0,5.622862694421438
9.911999999999999,1.0,5.432393203841203
9.92,0.9999999999999999,5.241877701735605
9.928,1.0,5.051316522261512
9.936,1.0,4.86071000014802
9.943999999999999,0.9999999999999999,4.67005847069047
9.952,1.0,4.479362269744554
