freq,mag,phase
6.0,0.9999938698710463,119.32668195836905
6.008,0.999994781611429,119.2333374230342
6.016,0.9999956744873894,119.13994102931653
6.024,0.9999965486924155,119.04649269607492
6.032,0.9999974044190633,118.9529923421465
6.04,0.9999982418589555,118.8594398863469
6.048,0.999999061202784,118.76583524747103
6.056,0.9999998626403099,118.67217834429317
6.064,1.0,118.57846909556774
6.072,1.0,118.48470742002962
6.08,1.0,118.39089323639463
6.088,0.9999999999999999,118.29702646336007
6.096,1.0,118.20310701960511
6.104,1.0,118.10913482379134
6.112,0.9999999999999999,118.01510979456317
6.12,1.0,117.92103185054843
6.128,1.0,117.82690091035867
6.136,1.0,117.7327168925898
6.144,0.9999999999999999,117.63847971582253
6.152,1.0,117.5441892986228
6.16,1.0,117.44984555954235
6.168,1.0,117.35544841711918
6.176,1.0,117.26099778987799
6.184,1.0,117.16649359633074
6.192,1.0,117.0719357549771
6.2,1.0,116.97732418430503
6.208,1.0,116.88265880279114
6.216,0.9999999999999999,116.78793952890129
6.224,0.9999999999999999,116.69316628109105
6.232,1.0,116.59833897780626
6.24,1.0,116.50345753748344
6.248,1.0,116.40852187855046
6.256,1.0,116.31353191942677
6.264,1.0,116.21848757852425
6.272,1.0,116.1233887742474
6.28,1.0,116.02823542499416
6.288,1.0,115.93302744915617
6.296,0.9999999999999999,115.83776476511943
6.304,0.9999999999999999,115.74244729126477
6.312,1.0,115.64707494596837
6.32,1.0,115.55164764760234
6.328,1.0,115.45616531453517
6.336,1.0,115.36062786513232
6.344,1.0,115.26503521775662
6.352,1.0,115.16938729076904
6.36,0.9999999999999999,115.07368400252903
6.368,0.9999999999999999,114.97792527139504
6.376,1.0,114.8821110157252
6.384,1.0,114.78624115387778
6.392,1.0,114.69031560421169
6.4,1.0,114.59433428508707
6.408,0.9999999999999999,114.49829711486588
6.416,1.0,114.40220401191233
6.424,1.0,114.30605489459354
6.432,0.9999999999999999,114.20984968128
6.44,1.0,114.11358829034623
6.448,1.0,114.01727064017116
6.456,0.9999999999999999,113.9208966491389
6.464,1.0,113.82446623563915
6.472,1.0,113.72797931806778
6.48,0.9999999999999999,113.63143581482743
6.4879999999999995,1.0,113.53483564432808
6.496,0.9999999999999999,113.43817872498754
6.504,1.0,113.34146497523211
6.5120000000000005,1.0,113.24469431349709
6.52,1.0,113.14786665822736
6.5280000000000005,0.9999999999999998,113.05098192787797
6.536,0.9999999999999999,112.95404004091472
6.5440000000000005,1.0,112.85704091581472
6.552,1.0,112.75998447106696
6.5600000000000005,1.0,112.66287062517286
6.568,1.0,112.56569929664703
6.5760000000000005,0.9999999999999998,112.46847040401758
6.584,0.9999999999999999,112.37118386582695
6.592,1.0,112.27383960063233
6.6,1.0,112.17643752700637
6.608,0.9999999999999999,112.07897756353769
6.616,1.0,111.98145962883153
6.624,0.9999999999999999,111.88388364151034
6.632,0.9999999999999999,111.7862495202143
6.64,1.0,111.68855718360207
6.648,1.0,111.59080655035126
6.656,0.9999999999999999,111.49299753915909
6.664,1.0,111.39513006874304
6.672,1.0,111.29720405784136
6.68,0.9999999999999999,111.19921942521371
6.688,1.0,111.10117608964191
6.696,1.0,111.00307396993033
6.704,1.0,110.9049129849067
6.712,0.9999999999999999,110.80669305342259
6.72,0.9999999999999999,110.70841409435415
6.728,1.0,110.61007602660264
6.736,0.9999999999999999,110.51167876909513
6.744,1.0,110.41322224078506
6.752,0.9999999999999999,110.3147063606529
6.76,1.0,110.21613104770687
6.768,1.0,110.11749622098336
6.776,1.0,110.01880179954779
6.784,0.9999999999999999,109.92004770249513
6.792,1.0000000000000002,109.82123384895061
6.8,0.9999999999999999,109.72236015807022
6.808,0.9999999999999999,109.62342654904154
6.816,0.9999999999999999,109.52443294108431
6.824,1.0,109.42537925345104
6.832,1.0,109.32626540542769
6.84,0.9999999999999999,109.22709131633437
6.848,1.0,109.12785690552589
6.856,1.0,109.02856209239256
6.864,0.9999999999999999,108.92920679636073
6.872,0.9999999999999999,108.82979093689352
6.88,0.9999999999999999,108.73031443349143
6.888,0.9999999999999999,108.63077720569306
6.896,1.0,108.53117917307576
6.904,1.0,108.4315202552563
6.912,0.9999999999999999,108.33180037189153
6.92,0.9999999999999999,108.23201944267909
6.928,1.0,108.13217738735803
6.936,1.0,108.03227412570956
6.944,0.9999999999999999,107.93230957755769
6.952,1.0,107.83228366276991
6.96,1.0,107.73219630125791
6.968,1.0,107.63204741297824
6.976,0.9999999999999998,107.53183691793302
6.984,1.0,107.43156473617056
6.992,0.9999999999999999,107.33123078778621
7.0,0.9999999999999999,107.23083499292291
7.008,1.0,107.13037727177196
7.016,0.9999999999999999,107.02985754457373
7.024,1.0,106.92927573161828
7.032,1.0,106.82863175324616
7.04,1.0,106.72792552984916
7.048,1.0,106.62715698187081
7.056,0.9999999999999999,106.52632602980738
7.064,1.0,106.42543259420832
7.072,1.0,106.32447659567714
7.08,0.9999999999999999,106.22345795487219
7.088,1.0,106.12237659250715
7.096,1.0,106.02123242935198
7.104,0.9999999999999999,105.92002538623353
7.112,0.9999999999999999,105.8187553840363
7.12,1.0,105.71742234370318
7.128,1.0,105.61602618623614
7.136,1.0,105.51456683269704
7.144,0.9999999999999999,105.4130442042083
7.152,1.0,105.31145822195369
7.16,0.9999999999999999,105.20980880717903
7.168,1.0,105.10809588119295
7.176,1.0,105.00631936536766
7.184,1.0,104.90447918113968
7.192,1.0,104.80257525001056
7.2,1.0,104.70060749354774
7.208,1.0,104.59857583338514
7.216,0.9999999999999998,104.4964801912241
7.224,0.9999999999999999,104.39432048883397
7.232,0.9999999999999999,104.292096648053
7.24,0.9999999999999999,104.1898085907891
7.248,0.9999999999999999,104.08745623902048
7.256,1.0,103.98503951479658
7.264,1.0,103.88255834023873
7.272,1.0,103.78001263754098
7.28,1.0,103.67740232897087
7.288,1.0,103.57472733687018
7.296,1.0,103.47198758365576
7.304,1.0,103.36918299182025
7.312,1.0,103.26631348393295
7.32,1.0000000000000002,103.16337898264052
7.328,0.9999999999999999,103.0603794106678
7.336,0.9999999999999999,102.95731469081866
7.344,0.9999999999999999,102.85418474597672
7.352,1.0,102.75098949910618
7.36,0.9999999999999999,102.6477288732526
7.368,1.0,102.54440279154375
7.376,0.9999999999999999,102.44101117719035
7.384,1.0,102.33755395348693
7.392,1.0,102.23403104381259
7.4,0.9999999999999999,102.13044237163187
7.4079999999999995,1.0,102.02678786049552
7.416,1.0,101.92306743404127
7.4239999999999995,1.0,101.81928101599482
7.432,1.0,101.71542853017043
7.4399999999999995,1.0,101.61150990047192
7.448,0.9999999999999998,101.50752505089338
7.4559999999999995,0.9999999999999999,101.40347390552016
7.464,1.0,101.29935638852942
7.4719999999999995,0.9999998589853017,101.19517242419127
7.48,0.9999996431229184,101.09092193686939
7.4879999999999995,0.9999994292149067,100.98660485102198
7.496,0.9999992173001321,100.88222109120247
7.504,0.9999990074167497,100.77777058206057
7.5120000000000005,0.9999987996022082,100.67325324834287
7.52,0.9999985938932493,100.56866901489393
7.5280000000000005,0.999998390325911,100.46401780665686
7.536,0.9999981889355293,100.35929954867439
7.5440000000000005,0.9999979897567381,100.25451416608966
7.552,0.9999977928234739,100.14966158414703
7.5600000000000005,0.999997598168975,100.0447417281929
7.568,0.9999974058257842,99.93975452367677
7.5760000000000005,0.9999972158257509,99.83469989615179
7.584,0.999997028200032,99.72957777127594
7.5920000000000005,0.9999968429790941,99.62438807481264
7.6,0.9999966601927162,99.51913073263182
7.6080000000000005,0.9999964798699889,99.41380567071059
7.616,0.9999963020393189,99.30841281513432
7.6240000000000006,0.9999961267284285,99.20295209209729
7.632,0.9999959539643596,99.09742342790382
7.640000000000001,0.9999957837734731,98.99182674896886
7.648,0.9999956161814522,98.88616198181919
7.656000000000001,0.9999954512133036,98.78042905309395
7.664,0.9999952888933595,98.67462788954592
7.672,0.9999951292452787,98.56875841804195
7.68,0.9999949722920493,98.46282056556431
7.688,0.999994818055989,98.35681425921123
7.696,0.9999946665587489,98.250739426198
7.704,0.9999945178213133,98.14459599385772
7.712,0.9999943718640024,98.03838388964235
7.72,0.9999942287064733,97.93210304112347
7.728,0.9999940883677233,97.82575337599323
7.736,0.9999939508660892,97.7193348220653
7.744,0.9999938162192515,97.61284730727574
7.752,0.9999936844442342,97.50629075968385
7.76,0.9999935555574074,97.39966510747318
7.768,0.9999934295744891,97.29297027895237
7.776,0.9999933065105467,97.18620620255611
7.784,0.9999931863799982,97.079372806846
7.792,0.999993069196615,96.9724700205115
7.8,0.999992954973522,96.86549777237089
7.808,0.9999928437232016,96.75845599137212
7.816,0.9999927354574926,96.65134460659374
7.824,0.9999926301875944,96.54416354724589
7.832,0.9999925279240663,96.43691274267114
7.84,0.9999924286768319,96.3295921223455
7.848,0.9999923324551782,96.22220161587931
7.856,0.9999922392677583,96.11474115301813
7.864,0.9999921491225938,96.00721066364378
7.872,0.9999920620270754,95.89961007777515
7.88,0.9999919779879644,95.79193932556925
7.888,0.9999918970113953,95.68419833732212
7.896,0.9999918191028764,95.57638704346965
7.904,0.9999917442672924,95.46850537458877
7.912,0.9999916725089049,95.36055326139814
7.92,0.9999916038313549,95.25253063475925
7.928,0.9999915382376641,95.14443742567734
7.936,0.9999914757302366,95.0362735653023
7.944,0.9999914163108597,94.92803898492966
7.952,0.9999913599807069,94.81973361600157
7.96,0.9999913067403372,94.71135739010771
7.968,0.9999912565897,94.60291023898624
7.976,0.9999912095281333,94.49439209452481
7.984,0.9999911655543664,94.38580288876148
7.992,0.999991124666523,94.27714255388562
8.0,0.9999910868621195,94.16841102223908
8.008,0.9999910521380697,94.05960822631688
8.016,0.9999910204906842,93.95073409876836
8.024000000000001,0.9999909919156726,93.8417885723981
8.032,0.9999909664081447,93.7327715801669
8.04,0.9999909439626125,93.62368305519267
8.048,0.9999909245729905,93.5145229307515
8.056000000000001,0.9999909082325984,93.40529114027859
8.064,0.9999908949341622,93.29598761736924
8.072,0.9999908846698138,93.18661229577977
8.08,0.9999908774310953,93.07716510942855
8.088000000000001,0.9999908732089585,92.96764599239694
8.096,0.9999908719937662,92.85805487893037
8.104,0.9999908737752943,92.74839170343914
8.112,0.9999908785427326,92.63865640049949
8.120000000000001,0.9999908862846862,92.52884890485463
8.128,0.9999908969891772,92.4189691514157
8.136,0.9999909106436448,92.30901707526264
8.144,0.9999909272349473,92.1989926116453
8.152000000000001,0.9999909467493636,92.08889569598438
8.16,0.9999909691725948,91.97872626387242
8.168,0.999990994489763,91.86848425107479
8.176,0.9999910226854152,91.7581695935306
8.184000000000001,0.999991053743523,91.64778222735379
8.192,0.9999910876474839,91.53732208883415
8.2,0.9999911243801234,91.42678911443808
8.208,0.9999911639236937,91.3161832408098
8.216000000000001,0.9999912062598775,91.20550440477231
8.224,0.9999912513697872,91.09475254332828
8.232,0.9999912992339667,90.98392759366112
8.24,0.9999913498323921,90.87302949313586
8.248000000000001,0.999991403144473,90.7620581793003
8.256,0.9999914591490529,90.65101358988592
8.264,0.9999915178244103,90.53989566280879
8.272,0.9999915791482596,90.42870433617065
8.280000000000001,0.999991643097753,90.3174395482599
8.288,0.999991709649479,90.20610123755257
8.296,0.999991778779466,90.0946893427133
8.304,0.9999918504631802,89.98320380259624
8.312,0.9999919246755292,89.87164455624624
8.32,0.9999920013908604,89.7600115428996
8.328,0.9999920805829635,89.64830470198534
8.336,0.99999216222507,89.53652397312578
8.344,0.999992246289854,89.42466929613798
8.352,0.9999923327494332,89.31274061103434
8.36,0.9999924215753698,89.20073785802387
8.368,0.99999251273867,89.08866097751289
8.376,0.9999926062097853,88.9765099101063
8.384,0.9999927019586133,88.8642845966083
8.392,0.9999927999544973,88.75198497802359
8.4,0.9999929001662271,88.63961099555812
8.408,0.9999930025620397,88.52716259062025
8.416,0.9999931071096197,88.41463970482164
8.424,0.9999932137760986,88.3020422799782
8.432,0.9999933225280575,88.18937025811108
8.44,0.999993433331524,88.07662358144769
8.448,0.9999935461519757,87.9638021924225
8.456,0.9999936609543383,87.85090603367826
8.464,0.9999937777029867,87.73793504806665
8.472,0.9999938963617453,87.6248891786495
8.48,0.9999940168938869,87.51176836869953
8.488,0.9999941392621349,87.39857256170154
8.496,0.9999942634286613,87.28530170135306
8.504,0.9999943893550878,87.17195573156559
8.512,0.9999945170024859,87.05853459646525
8.52,0.9999946463313756,86.94503824039401
8.528,0.9999947773017277,86.83146660791034
8.536,0.9999949098729608,86.7178196437904
8.544,0.9999950440039438,86.60409729302869
8.552,0.9999951796529936,86.49029950083924
8.56,0.9999953167778763,86.37642621265633
8.568,0.9999954553358066,86.2624773741355
8.576,0.9999955952834474,86.14845293115438
8.584,0.9999957365769091,86.0343528298137
8.592,0.9999958791717499,85.92017701643803
8.6,0.9999960230229754,85.80592543757689
8.608,0.9999961680850382,85.69159804000533
8.616,0.9999963143118366,85.57719477072516
8.624,0.9999964616567153,85.4627155769655
8.632,0.9999966100724644,85.34816040618388
8.64,0.9999967595113189,85.23352920606693
8.648,0.9999969099249586,85.11882192453142
8.656,0.9999970612645059,85.00403850972486
8.664,0.9999972134805281,84.88917891002662
8.672,0.9999973665230335,84.77424307404846
8.68,0.9999975203414736,84.65923095063566
8.688,0.9999976748847406,84.54414248886752
8.696,0.9999978301011672,84.42897763805851
8.704,0.9999979859385262,84.31373634775873
8.712,0.9999981423440301,84.19841856775494
8.72,0.9999982992643286,84.08302424807123
8.728,0.9999984566455105,83.96755333896982
8.736,0.9999986144331003,83.85200579095176
8.744,0.9999987725720594,83.73638155475788
8.752,0.9999989310067844,83.62068058136919
8.76,0.999999089681106,83.50490282200796
8.768,0.9999992485382897,83.38904822813821
8.776,0.999999407521033,83.27311675146647
8.784,0.9999995665714658,83.15710834394255
8.792,0.9999997256311501,83.04102295776013
8.8,0.9999998846410778,82.92486054535745
8.808,1.0,82.808621059418
8.815999999999999,1.0,82.69230445287114
8.824,1.0,82.57591067889267
8.832,0.9999999999999999,82.4594396909056
8.84,0.9999999999999999,82.34289144258067
8.847999999999999,0.9999999999999999,82.22626588783679
8.856,1.0,82.10956298084183
8.864,0.9999999999999999,81.99278267601312
8.872,1.0,81.87592492801791
8.879999999999999,1.0,81.75898969177392
8.888,1.0,81.64197692244989
8.896,1.0,81.52488657546601
8.904,0.9999999999999999,81.40771860649451
8.911999999999999,0.9999999999999999,81.29047297145989
8.92,1.0,81.17314962653954
8.928,0.9999999999999999,81.05574852816409
8.936,1.0,80.93826963301781
8.943999999999999,1.0,80.82071289803895
8.952,1.0,80.70307828042009
8.96,1.0,80.58536573760853
8.968,0.9999999999999998,80.46757522730658
8.975999999999999,1.0,80.34970670747177
8.984,0.9999999999999999,80.23176013631713
8.992,0.9999999999999999,80.11373547231155
9.0,1.0,79.99563267417986
9.008,1.0,79.87745170090302
9.016,1.0,79.75919251171834
9.024000000000001,0.9999999999999999,79.6408550661196
9.032,0.9999999999999999,79.52243932385724
9.04,1.0,79.40394524493819
9.048,1.0,79.28537278962621
9.056000000000001,1.0,79.1667219184418
9.064,0.9999999999999999,79.04799259216219
9.072,0.9999999999999999,78.92918477182131
9.08,1.0,78.81029841870973
9.088000000000001,1.0,78.69133349437463
9.096,1.0,78.57228996061963
9.104,0.9999999999999999,78.45316777950461
9.112,1.0,78.33396691334555
9.120000000000001,1.0,78.21468732471438
9.128,1.0,78.09532897643865
9.136,1.0,77.97589183160127
9.144,0.9999999999999999,77.8563758535402
9.152000000000001,1.0,77.73678100584812
9.16,1.0,77.61710725237205
9.168,0.9999999999999999,77.49735455721289
9.176,1.0,77.37752288472495
9.184000000000001,1.0,77.25761219951559
9.192,0.9999999999999999,77.1376224664446
9.2,1.0,77.0175536506236
9.208,1.0,76.89740571741552
9.216000000000001,1.0000000000000002,76.77717863243399
9.224,1.0,76.65687236154264
9.232,1.0,76.53648687085435
9.24,1.0,76.41602212673048
9.248000000000001,1.0,76.29547809578035
9.256,1.0,76.17485474486016
9.264,1.0,76.05415204107217
9.272,1.0,75.93336995176392
9.280000000000001,1.0,75.81250844452731
9.288,1.0,75.69156748719759
9.296,1.0,75.57054704785237
9.304,0.9999999999999999,75.44944709481058
9.312000000000001,1.0,75.32826759663159
9.32,0.9999999999999999,75.20700852211392
9.328,1.0,75.08566984029417
9.336,1.0,74.96425152044594
9.344,0.9999999999999999,74.8427535320787
9.352,0.9999999999999999,74.72117584493637
9.36,0.9999999999999999,74.59951842899639
9.368,1.0,74.47778125446821
9.376,0.9999999999999999,74.35596429179223
9.384,1.0,74.23406751163832
9.392,0.9999999999999999,74.11209088490467
9.4,1.0,73.99003438271639
9.408,1.0,73.8678979764242
9.416,1.0,73.74568163760303
9.424,1.0,73.62338533805078
9.432,1.0,73.50100904978684
9.44,1.0,73.37855274505085
9.448,1.0,73.25601639630125
9.456,0.9999999999999999,73.13339997621406
9.464,1.0,73.01070345768142
9.472,1.0,72.88792681381041
9.48,1.0,72.76507001792163
9.488,1.0,72.64213304354816
9.496,1.0,72.51911586443399
9.504,1.0,72.39601845453323
9.512,1.0,72.27284078800871
9.52,1.0,72.14958283923104
9.528,1.0,72.02624458277747
9.536,0.9999999999999999,71.90282599343112
9.544,0.9999999999999999,71.77932704617983
9.552,1.0,71.65574771621573
9.56,1.0,71.53208797893423
9.568,1.0,71.4083478099336
9.576,0.9999999999999999,71.28452718501448
9.584,0.9999999999999999,71.16062608017957
9.592,1.0,71.0366444716332
9.6,1.0,70.9125823357816
9.608,1.0,70.78843964923267
9.616,0.9999999999999999,70.66421638879655
9.624,1.0,70.53991253148575
9.632,1.0,70.41552805451613
9.64,1.0,70.29106293530738
9.648,1.0,70.16651715148448
9.656,1.0,70.04189068087875
9.664,1.0,69.91718350152962
9.672,1.0,69.79239559168626
9.68,1.0,69.66752692980997
9.688,0.9999999587979528,69.54257749457643
9.696,0.9999996299290328,69.4175472648786
9.704,0.9999992925840222,69.29243621982971
9.712,0.9999989467484196,69.16724433876689
9.72,0.9999985924122827,69.04197160125477
9.728,0.9999982295704098,68.91661798708998
9.736,0.9999978582225216,68.7911834763056
9.744,0.9999974783734457,68.66566804917642
9.752,0.999997090033307,68.54007168622427
9.76,0.9999966932177157,68.41439436822428
9.768,0.9999962879479614,68.28863607621116
9.776,0.9999958742512053,68.1627967914864
9.784,0.999995452160677,68.03687649562563
9.792,0.9999950217158698,67.91087517048699
9.8,0.9999945829627386,67.78479279821943
9.808,0.9999941359538964,67.65862936127238
9.816,0.9999936807488121,67.53238484240524
9.824,0.9999932174140074,67.40605922469818
9.832,0.9999927460232511,67.27965249156308
9.84,0.9999922666577545,67.15316462675543
9.847999999999999,0.9999917794063625,67.02659561438671
9.856,0.9999912843657418,66.89994543893756
9.864,0.9999907816405684,66.77321408527179
9.872,0.9999902713437085,66.64640153865078
9.879999999999999,0.9999897535963952,66.51950778474875
9.888,0.9999892285284001,66.39253280966899
9.896,0.9999886962782006,66.26547659996044
9.904,0.999988156993137,66.13833914263532
9.911999999999999,0.999987610829564,66.0111204251873
9.92,0.9999870579529931,65.88382043561055
9.928,0.999986498538227,65.75643916241953
9.936,0.999985932769481,65.62897659466944
9.943999999999999,0.9999853608404969,65.50143272197745
9.952,0.9999847829546407,65.37380753454461
9.96,0.999984199324991,65.2461010231786
9.968,0.999983610174412,65.11831317931706
9.975999999999999,0.999983015735611,64.99044399505144
9.984,0.9999824162511809,64.86249346315185
9.992,0.9999818119736259,64.73446157709226
10.0,0.9999812031653692,64.6063483310764
10.008,0.9999805900987412,64.47815372006403
10.016,0.9999799730559495,64.3498777397979
10.024000000000001,0.9999793523290273,64.22152038683124
10.032,0.9999787282197596,64.09308165855533
10.04,0.9999781010395888,63.96456155322775
10.048,0.9999774711094952,63.83596007000064
10.056000000000001,0.9999768387598535,63.707277208949584
10.064,0.9999762043302662,63.57851297110216
10.072,0.9999755681693692,63.449667358466954
10.08,0.9999749306346114,63.32074037406242
10.088000000000001,0.9999742920920097,63.19173202194574
10.096,0.9999736529158729,63.06264230724152
10.104,0.9999730134885012,62.93347123617003
10.112,0.9999723741998554,62.80421881607551
