freq,mag,phase
6.0,0.9999843726248056,-146.14469220165302
6.008,0.9999859590250544,-146.61155432865957
6.016,0.9999874855976574,-147.07827059616503
6.024,0.9999889534897967,-147.54484050719438
6.032,0.9999903638382943,-148.01126358271995
6.04,0.9999917177695745,-148.47753936157076
6.048,0.9999930163996255,-148.94366740034135
6.056,0.9999942608339665,-149.4096472732992
6.064,0.9999954521676128,-149.8754785722915
6.072,0.9999965914850488,-150.3411609066503
6.08,0.9999976798601968,-150.80669390309725
6.088,0.9999987183563932,-151.2720772056472
6.096,0.9999997080263652,-151.7373104755107
6.104,0.9999999999999999,-152.20239339099558
6.112,0.9999999999999998,-152.667325647408
6.12,0.9999999999999999,-153.1321069569523
6.128,1.0,-153.59673704862988
6.136,1.0,-154.06121566813775
6.144,1.0,-154.5255425777658
6.152,1.0,-154.98971755629367
6.16,1.0,-155.45374039888645
6.168,1.0,-155.91761091699004
6.176,0.9999999999999999,-156.38132893822586
6.184,1.0,-156.84489430628415
6.192,1.0,-157.30830688081764
6.2,1.0,-157.7715665373338
6.208,1.0,-158.234673167087
6.216,1.0,-158.6976266769695
6.224,1.0000000000000002,-159.16042698940254
6.232,1.0,-159.62307404222628
6.24,1.0,-160.08556778858966
6.248,0.9999999999999999,-160.5479081968395
6.256,1.0,-161.01009525040914
6.264,1.0,-161.47212894770672
6.272,0.9999999999999999,-161.934009302003
6.28,1.0,-162.39573634131858
6.288,0.9999999999999999,-162.85731010831103
6.296,1.0,-163.31873066016124
6.304,0.9999999999999999,-163.77999806845986
6.312,1.0,-164.24111241909296
6.32,0.9999999999999998,-164.7020738121277
6.328,0.9999999999999999,-165.16288236169743
6.336,1.0,-165.62353819588688
6.344,0.9999999999999999,-166.08404145661643
6.352,1.0,-166.5443922995271
6.36,1.0,-167.0045908938641
6.368,0.9999999999999999,-167.46463742236133
6.376,1.0000000000000002,-167.92453208112497
6.384,1.0,-168.38427507951693
6.392,0.9999999999999998,-168.84386664003873
6.4,1.0,-169.3033069982143
6.408,1.0,-169.76259640247352
6.416,0.9999999999999999,-170.22173511403514
6.424,1.0,-170.68072340678975
6.432,1.0,-171.1395615671827
6.44,0.9999999999999999,-171.598249894097
6.448,0.9999999999999999,-172.056788698736
6.456,0.9999999999999999,-172.51517830450618
6.464,1.0,-172.9734190468999
6.472,0.9999999999999999,-173.43151127337822
6.48,0.9999999999999999,-173.88945534325347
6.4879999999999995,0.9999999999999999,-174.34725162757223
6.496,0.9999999999999999,-174.80490050899812
6.504,1.0,-175.26240238169433
6.5120000000000005,1.0,-175.71975765120737
6.52,0.9999999999999999,-176.1769667343491
6.5280000000000005,0.9999999999999999,-176.63403005908083
6.536,1.0,-177.0909480643957
6.5440000000000005,1.0,-177.5477212002028
6.552,1.0,-178.00434992721006
6.5600000000000005,1.0,-178.46083471680845
6.568,1.0,-178.91717605095522
6.5760000000000005,0.9999999999999999,-179.37337442205856
6.584,1.0,-179.8294303328609
6.592,0.9999999999999999,179.71465570367573
6.6,0.9999999999999998,179.25888316448592
6.608,1.0,178.8032515165158
6.616,1.0,178.34776021683788
6.624,1.0,177.89240871276604
6.632,0.9999999999999999,177.43719644196992
6.64,0.9999997715088152,176.98212283258906
6.648,0.9999993318804005,176.52718730334703
6.656,0.999998891313174,176.0723892636651
6.664,0.999998450153267,175.61772811377537
6.672,0.9999980087386351,175.16320324483428
6.68,0.9999975673991273,174.70881403903508
6.688,0.9999971264565579,174.25455986972042
6.696,0.9999966862247767,173.80044010149453
6.704,0.9999962470097402,173.346454090335
6.712,0.9999958091095823,172.89260118370413
6.72,0.9999953728146883,172.4388807206603
6.728,0.9999949384077657,171.98529203196864
6.736,0.9999945061639168,171.53183444021124
6.744,0.9999940763507135,171.07850725989746
6.752,0.9999936492282676,170.6253097975734
6.76,0.999993225049308,170.1722413519313
6.768,0.999992804059251,169.71930121391813
6.776,0.9999923864962769,169.2664886668445
6.784,0.9999919725914034,168.8138029864923
6.792,0.9999915625685611,168.3612434412225
6.8,0.9999911566446668,167.9088092920825
6.808,0.9999907550296993,167.4564997929128
6.816,0.999990357926775,167.0043141904533
6.824,0.9999899655322222,166.5522517244494
6.832,0.9999895780356577,166.10031162775738
6.84,0.9999891956200618,165.6484931264495
6.848,0.9999888184618534,165.1967954399185
6.856,0.9999884467309673,164.7452177809819
6.864,0.9999880805909293,164.2937593559855
6.872,0.9999877201989309,163.84241936490656
6.88,0.9999873657059082,163.39119700145687
6.888,0.9999870172566148,162.94009145318446
6.896,0.9999866749897018,162.48910190157588
6.904,0.9999863390377891,162.0382275221572
6.912,0.9999860095275451,161.58746748459484
6.92,0.9999856865797618,161.13682095279609
6.928,0.9999853703094319,160.68628708500864
6.936,0.9999850608258217,160.2358650339201
6.944,0.9999847582325518,159.78555394675678
6.952,0.9999844626276678,159.33535296538196
6.96,0.9999841741037213,158.88526122639368
6.968,0.9999838927478428,158.43527786122223
6.976,0.9999836186418172,157.98540199622659
6.984,0.999983351862162,157.53563275279106
6.992,0.9999830924801989,157.0859692474208
7.0,0.9999828405621327,156.63641059183718
7.008,0.9999825961691272,156.18695589307234
7.016,0.9999823593573743,155.73760425356357
7.024,0.999982130178176,155.28835477124687
7.032,0.9999819086780152,154.83920653965006
7.04,0.999981694898632,154.3901586479855
7.048,0.9999814888770969,153.941210181242
7.056,0.9999812906458864,153.4923602202766
7.064,0.9999811002329551,153.04360784190544
7.072,0.9999809176618123,152.59495211899414
7.08,0.9999807429515931,152.146392120548
7.088,0.9999805761171323,151.6979269118012
7.096,0.9999804171690391,151.24955555430586
7.104,0.999980266113768,150.80127710602017
7.112,0.9999801229536924,150.35309062139632
7.12,0.9999799876871773,149.90499515146774
7.128,0.9999798603086506,149.45698974393594
7.136,0.9999797408086748,149.00907344325634
7.144,0.9999796291740201,148.56124529072443
7.152,0.9999795253877323,148.11350432456038
7.16,0.999979429429209,147.66584957999396
7.168,0.9999793412742652,147.2182800893484
7.176,0.9999792608952056,146.77079488212394
7.184,0.9999791882608958,146.32339298508077
7.192,0.9999791233368285,145.87607342232135
7.2,0.9999790660851966,145.42883521537254
7.208,0.9999790164649606,144.98167738326663
7.216,0.999978974431917,144.53459894262232
7.224,0.9999789399387657,144.087598907725
7.232,0.9999789129351813,143.64067629060648
7.24,0.9999788933678753,143.19383010112404
7.248,0.9999788811806695,142.74705934703925
7.256,0.9999788763145568,142.300363034096
7.264,0.9999788787077721,141.8537401660982
7.272,0.9999788882958561,141.4071897449868
7.28,0.9999789050117216,140.96071077091634
7.288,0.9999789287857171,140.51430224233093
7.296,0.9999789595456957,140.06796315603972
7.304,0.9999789972170751,139.62169250729198
7.312,0.9999790417229034,139.17548928985138
7.32,0.999979092983924,138.72935249607013
7.328,0.9999791509186352,138.28328111696203
7.336,0.9999792154433575,137.8372741422756
7.344,0.9999792864722925,137.39133056056647
7.352,0.9999793639175855,136.94544935926902
7.36,0.9999794476893875,136.49962952476787
7.368,0.9999795376959169,136.05387004246867
7.376,0.9999796338435186,135.60816989686825
7.384,0.9999797360367234,135.16252807162468
7.392,0.9999798441783104,134.7169435496263
7.4,0.9999799581693647,134.27141531306077
7.4079999999999995,0.9999800779093346,133.82594234348304
7.416,0.9999802032960935,133.3805236218832
7.4239999999999995,0.9999803342259926,132.93515812875432
7.432,0.999980470593925,132.48984484415817
7.4399999999999995,0.9999806122933758,132.04458274779262
7.448,0.999980759216482,131.59937081905636
7.4559999999999995,0.9999809112540885,131.15420803711547
7.464,0.9999810682958025,130.7090933809669
7.4719999999999995,0.9999812302300494,130.26402582950385
7.48,0.9999813969441259,129.81900436157898
7.4879999999999995,0.999981568324255,129.37402795606826
7.496,0.9999817442556393,128.9290955919333
7.504,0.999981924622515,128.48420624828444
7.5120000000000005,0.9999821093082016,128.039358904442
7.52,0.9999822981951566,127.5945525399984
7.5280000000000005,0.999982491165027,127.14978613487854
7.536,0.9999826880986972,126.70505866940097
7.5440000000000005,0.9999828888763443,126.26036912433734
7.552,0.9999830933774837,125.81571648097261
7.5600000000000005,0.9999833014810213,125.3710997211635
7.568,0.9999835130653016,124.9265178273981
7.5760000000000005,0.9999837280081566,124.4819697828531
7.584,0.9999839461869524,124.0374545714525
7.5920000000000005,0.9999841674786397,123.59297117792414
7.6,0.9999843917597966,123.14851858785747
7.6080000000000005,0.9999846189066788,122.70409578775897
7.616,0.999984848795264,122.25970176510931
7.6240000000000006,0.9999850813012962,121.81533550841776
7.632,0.9999853163003336,121.3709960072784
7.640000000000001,0.9999855536677899,120.92668225242393
7.648,0.9999857932789803,120.48239323578073
7.656000000000001,0.9999860350091634,120.03812795052198
7.664,0.9999862787335858,119.59388539112174
7.672,0.9999865243275219,119.14966455340745
7.68,0.9999867716663189,118.70546443461275
7.688,0.9999870206254348,118.26128403342967
7.696,0.9999872710804821,117.81712235006034
7.704,0.9999875229072663,117.37297838626829
7.712,0.9999877759818263,116.92885114542938
7.72,0.999988030180473,116.48473963258242
7.728,0.999988285379828,116.0406428544792
7.736,0.9999885414568644,115.59655981963432
7.744,0.999988798288939,115.15248953837441
7.752,0.9999890557538357,114.70843102288708
7.76,0.9999893137297975,114.26438328726955
7.768,0.999989572095564,113.82034534757666
7.776,0.9999898307304084,113.37631622186879
7.784,0.9999900895141701,112.93229493025905
7.792,0.9999903483272913,112.48828049496049
7.8,0.9999906070508496,112.04427194033258
7.808,0.9999908655665921,111.6002682929274
7.816,0.9999911237569687,111.15626858153567
7.824,0.999991381505164,110.71227183723215
7.832,0.9999916386951285,110.26827709342075
7.84,0.9999918952116127,109.82428338587931
7.848,0.9999921509401942,109.38028975280403
7.856,0.9999924057673109,108.93629523485349
7.864,0.9999926595802899,108.49229887519226
7.872,0.9999929122673774,108.0482997195343
7.88,0.9999931637177658,107.60429681618592
7.888,0.9999934138216242,107.16028921608833
7.896,0.9999936624701248,106.71627597286003
7.904,0.9999939095554706,106.27225614283857
7.912,0.9999941549709218,105.82822878512226
7.92,0.9999943986108228,105.38419296161136
7.928,0.9999946403706272,104.94014773704899
7.936,0.9999948801469234,104.49609217906159
7.944,0.9999951178374586,104.05202535819939
7.952,0.9999953533411647,103.60794634797597
7.96,0.9999955865581793,103.16385422490818
7.968,0.9999958173898718,102.71974806855506
7.976,0.9999960457388636,102.27562696155704
7.984,0.9999962715090521,101.83148998967427
7.992,0.9999964946056311,101.38733624182511
8.0,0.9999967149351126,100.94316481012393
8.008,0.9999969324053471,100.49897478991888
8.016,0.9999971469255445,100.05476527982897
8.024000000000001,0.9999973584062923,99.6105353817815
8.032,0.9999975667595762,99.16628420104848
8.04,0.9999977718987983,98.72201084628296
8.048,0.9999979737387942,98.27771442955515
8.056000000000001,0.9999981721958529,97.83339406638852
8.064,0.9999983671877315,97.38904887579514
8.072,0.9999985586336734,96.94467798031052
8.08,0.9999987464544244,96.50028050602882
8.088000000000001,0.9999989305722474,96.05585558263756
8.096,0.9999991109109387,95.61140234345189
8.104,0.9999992873958429,95.16691992544818
8.112,0.999999459953865,94.72240746929819
8.120000000000001,0.9999996285134868,94.27786411940245
8.128,0.9999997930047788,93.83328902392347
8.136,0.999999953359413,93.38868133481822
8.144,1.0,92.94404020787107
8.152000000000001,1.0,92.49936480272616
8.16,1.0,92.05465428291934
8.168,1.0,91.60990781590971
8.176,0.9999999999999999,91.16512457311123
8.184000000000001,1.0,90.72030372992424
8.192,1.0,90.27544446576613
8.2,0.9999999999999999,89.83054596410177
8.208,0.9999999999999999,89.38560741247427
8.216000000000001,1.0,88.94062800253515
8.224,1.0,88.49560693007408
8.232,1.0,88.0505433950483
8.24,1.0,87.6054366016121
8.248000000000001,0.9999999999999999,87.16028575814623
8.256,1.0,86.71509007728642
8.264,1.0,86.26984877595174
8.272,1.0,85.82456107537324
8.280000000000001,1.0,85.37922620112204
8.288,0.9999999999999999,84.93384338313705
8.296,1.0,84.48841185575229
8.304,0.9999999999999999,84.0429308577244
8.312,1.0,83.59739963226
8.32,1.0,83.1518174270417
8.328,1.0,82.70618349425564
8.336,0.9999999999999998,82.26049709061682
8.344,1.0,81.81475747739607
8.352,0.9999999999999998,81.368963920445
8.36,0.9999999999999999,80.92311569022247
8.368,1.0,80.47721206181905
8.376,1.0,80.0312523149829
8.384,0.9999999999999998,79.5852357341439
8.392,1.0,79.13916160843904
8.4,1.0,78.6930292317359
8.408,1.0,78.24683790265779
8.416,0.9999999999999999,77.80058692460663
8.424,1.0,77.35427560578755
8.432,1.0,76.90790325923152
8.44,0.9999999999999999,76.46146920281927
8.448,1.0,76.0149727593036
8.456,1.0,75.56841325633268
8.464,0.9999999999999999,75.12179002647194
8.472,1.0,74.67510240722713
8.48,1.0,74.22834974106543
8.488,1.0,73.78153137543819
8.496,1.0,73.33464666280162
8.504,0.9999999999999999,72.88769496063895
8.512,1.0,72.44067563148079
8.52,1.0,71.99358804292675
8.528,1.0,71.54643156766538
8.536,1.0,71.09920558349538
8.544,1.0000000000000002,70.65190947334489
8.552,1.0,70.2045426252925
8.56,1.0,69.75710443258596
8.568,0.9999999999999999,69.3095942936627
8.576,1.0,68.86201161216816
8.584,1.0,68.41435579697581
8.592,1.0,67.96662626220514
8.6,1.0,67.51882242724099
8.608,1.0,67.07094371675134
8.616,1.0,66.62298956070612
8.624,1.0,66.1749593943944
8.632,1.0000000000000002,65.72685265844297
8.64,0.9999999589381269,65.27866879883291
8.648,0.9999997907396263,64.83040726691779
8.656,0.9999996176420405,64.38206751943983
8.664,0.9999994396886919,63.93364901854758
8.672,0.9999992569243789,63.48515123181162
8.68,0.9999990693953594,63.03657363224184
8.688,0.9999988771493379,62.58791569830272
8.696,0.9999986802354477,62.13917691393006
8.704,0.9999984787042384,61.69035676854581
8.712,0.9999982726076578,61.24145475707447
8.72,0.9999980619990375,60.79247037995737
8.728,0.9999978469330759,60.34340314316864
8.736,0.9999976274658215,59.894252558229006
8.744,0.9999974036546564,59.44501814222133
8.752,0.9999971755582795,58.99569941780402
8.76,0.9999969432366879,58.546295913225975
8.768,0.9999967067511609,58.096807162339616
8.776,0.9999964661642408,57.64723270461539
8.784,0.9999962215397155,57.19757208515431
8.792,0.9999959729425999,56.74782485470206
8.8,0.9999957204391168,56.29799056966093
8.808,0.9999954640966786,55.84806879210358
8.815999999999999,0.9999952039838681,55.39805908978463
8.824,0.9999949401704187,54.947961036153366
8.832,0.9999946727271953,54.49777421036589
8.84,0.9999944017261744,54.04749819729668
8.847999999999999,0.9999941272404237,53.597132587550036
8.856,0.9999938493440821,53.14667697747152
8.864,0.9999935681123391,52.696130969159306
8.872,0.9999932836214144,52.24549417047475
8.879999999999999,0.9999929959485369,51.794766195052915
8.888,0.9999927051719225,51.34394666231307
8.896,0.9999924113707559,50.89303519746901
8.904,0.9999921146251645,50.44203143153885
8.911999999999999,0.9999918150162009,49.99093500135439
8.92,0.9999915126258193,49.53974554957077
8.928,0.9999912075368531,49.08846272467586
8.936,0.9999908998329925,48.637086180998985
8.943999999999999,0.9999905895987645,48.18561557871941
8.952,0.9999902769195074,47.734050583874996
8.96,0.9999899618813491,47.28239086837061
8.968,0.9999896445711854,46.83063610998585
8.975999999999999,0.9999893250766556,46.37878599238262
8.984,0.9999890034861192,45.92684020511273
8.992,0.9999886798886343,45.47479844362534
9.0,0.9999883543739319,45.02266040927368
9.008,0.9999880270323938,44.57042580932169
9.016,0.9999876979550296,44.118094356950486
9.024000000000001,0.9999873672334494,43.66566577126498
9.032,0.9999870349598449,43.21313977729946
9.04,0.9999867012269609,42.760516106023175
9.048,0.9999863661280736,42.30779449434603
9.056000000000001,0.9999860297569655,41.85497468512381
9.064,0.9999856922079015,41.40205642716309
9.072,0.9999853535756034,40.94903947522561
9.08,0.9999850139552268,40.49592359003288
9.088000000000001,0.9999846734423348,40.042708538270574
9.096,0.9999843321328749,39.589394092592165
9.104,0.9999839901231531,39.13598003162239
9.112,0.9999836475098094,38.68246613996082
9.120000000000001,0.999983304389793,38.22885220818508
9.128,0.9999829608603369,37.775138032853526
9.136,0.9999826170189331,37.321323416507575
9.144,0.9999822729633078,36.867408167674256
9.152000000000001,0.9999819287913952,36.41339210086829
9.16,0.9999815846013139,35.95927503659379
9.168,0.9999812404913402,35.50505680134542
9.176,0.9999808965598835,35.050737227609815
9.184000000000001,0.9999805529054613,34.59631615386672
9.192,0.9999802096266734,34.14179342458943
9.2,0.9999798668221767,33.68716889024496
9.208,0.9999795245906595,33.23244240729424
9.216000000000001,0.9999791830308175,32.77761383819226
9.224,0.9999788422413268,32.32268305138728
9.232,0.99997850232082,31.867649921319945
9.24,0.9999781633678595,31.41251432842235
9.248000000000001,0.9999778254809136,30.957276159117026
9.256,0.9999774887583298,30.501935305815
9.264,0.9999771532983113,30.046491666913738
9.272,0.9999768191988899,29.590945146795136
9.280000000000001,0.9999764865579023,29.13529565582335
9.288,0.9999761554729639,28.679543110341537
9.296,0.9999758260414445,28.223687432668903
9.304,0.9999754983604433,27.767728551097285
9.312000000000001,0.9999751725267626,27.311666399887812
9.32,0.999974848636885,26.85550091926674
9.328,0.9999745267869466,26.399232055420928
9.336,0.9999742070727129,25.942859760493512
9.344,0.9999738895895556,25.486383992579395
9.352,0.9999735744324243,25.029804715719287
9.36,0.9999732616958267,24.573121899895096
9.368,0.9999729514738006,24.116335521023327
9.376,0.9999726438598904,23.659445560949873
9.384,0.9999723389471243,23.20245200744271
9.392,0.9999720368279884,22.745354854186143
9.4,0.9999717375944032,22.288154100772882
9.408,0.9999714413377002,21.830849752697613
9.416,0.9999711481485984,21.37344182134849
9.424,0.9999708581171798,20.915930324000108
9.432,0.9999705713328656,20.458315283804342
9.44,0.999970287884394,20.000596729782664
9.448,0.9999700078597972,19.54277469681635
9.456,0.9999697313463767,19.08484922563823
9.464,0.9999694584306814,18.62682036282222
9.472,0.9999691891984857,18.168688160774384
9.48,0.9999689237347653,17.71045267772191
9.488,0.9999686621236759,17.252113977703434
9.496,0.99996840444853,16.79367213055746
9.504,0.9999681507917764,16.33512721191203
9.512,0.9999679012349773,15.87647930317241
9.52,0.9999676558587862,15.417728491510204
9.528,0.9999674147429274,14.958874869850309
9.536,0.999967177966175,14.499918536859413
9.544,0.9999669456063296,14.040859596932338
9.552,0.9999667177402004,13.581698160179775
9.56,0.9999664944435829,13.122434342414044
9.568,0.9999662757912385,12.663068265136147
9.576,0.9999660618568753,12.203600055520855
9.584,0.9999658527131263,11.744029846403079
9.592,0.9999656484315318,11.284357776262329
9.6,0.9999654490825186,10.824583989208387
9.608,0.9999652547353808,10.364708634965096
9.616,0.9999650654582617,9.90473186885536
9.624,0.9999648813181337,9.444653851784267
9.632,0.9999647023807816,8.984474750223395
9.64,0.9999645287107822,8.5241947361933
9.648,0.9999643603714881,8.063813987247094
9.656,0.9999641974250087,7.603332686452241
9.664,0.9999640399321954,7.1427510223735124
9.672,0.9999638879526197,6.682069189054062
9.68,0.9999637415445618,6.221287385997696
9.688,0.9999636007649895,5.760405818149289
9.696,0.9999634656695451,5.299424695876324
9.704,0.9999633363125273,4.838344234948653
9.712,0.999963212746877,4.377164656519349
9.72,0.9999630950241609,3.915886187103735
9.728,0.9999629831945577,3.454509058559623
9.736,0.9999628773068411,2.9930335080655794
9.744,0.999962777408368,2.5314597781004795
9.752,0.9999626835450627,2.0697881164211314
9.76,0.9999625957614034,1.6080187760411033
9.768,0.999962514100409,1.1461520152076246
9.776,0.9999624386036263,0.6841880973797648
9.784,0.999962369311116,0.22212729120463176
9.792,0.9999623062614416,-0.24003012950517105
9.8,0.9999622494916562,-0.7022838857960151
