freq,mag,phase
6.0,0.9999901851928342,68.53968754236121
6.008,0.999989692093664,68.35159465682167
6.016,0.9999892196343396,68.16335677643262
6.024,0.9999887673794634,67.97497387898693
6.032,0.9999883348989913,67.7864459437964
6.04,0.9999879217682044,67.59777295170029
6.048,0.999987527567682,67.40895488507374
6.056,0.999987151883274,67.21999172783617
6.064,0.9999867943060713,67.03088346545971
6.072,0.9999864544323799,66.8416300849776
6.08,0.9999861318636902,66.65223157499246
6.088,0.9999858262066507,66.46268792568475
6.096,0.9999855370730378,66.27299912882093
6.104,0.9999852640797265,66.08316517776177
6.112,0.9999850068486631,65.89318606747065
6.12,0.9999847650068341,65.7030617945217
6.128,0.999984538186238,65.512792357108
6.136,0.9999843260238549,65.32237775504977
6.144,0.9999841281616179,65.1318179898025
6.152,0.999983944246382,64.94111306446494
6.16,0.9999837739298949,64.75026298378727
6.168,0.999983616868766,64.55926775417912
6.176,0.9999834727244379,64.36812738371756
6.184,0.9999833411631528,64.17684188215505
6.192,0.9999832218559257,63.98541126092737
6.2,0.9999831144785107,63.79383553316163
6.208,0.9999830187113706,63.60211471368392
6.216,0.999982934239649,63.41024881902745
6.224,0.9999828607531341,63.21823786744011
6.232,0.9999827979462325,63.026081878892356
6.24,0.9999827455179329,62.833780875084834
6.248,0.9999827031717798,62.64133487945631
6.256,0.9999826706158377,62.44874391719103
6.264,0.9999826475626618,62.2560080152266
6.272,0.9999826337292661,62.06312720226146
6.28,0.9999826288370899,61.87010150876244
6.288,0.9999826326119676,61.676930966972364
6.296,0.9999826447840966,61.48361561091738
6.304,0.9999826650880028,61.29015547641449
6.312,0.9999826932625118,61.096550601078995
6.32,0.9999827290507141,60.9028010243318
6.328,0.9999827721999329,60.70890678740673
6.336,0.9999828224616941,60.51486793335783
6.344,0.9999828795916895,60.3206845070666
6.352,0.9999829433497475,60.126356555249195
6.36,0.9999830134998,59.93188412646363
6.368,0.9999830898098475,59.737267271116835
6.376,0.9999831720519292,59.54250604147176
6.384,0.9999832600020878,59.347600491654354
6.392,0.9999833534403377,59.15255067766071
6.4,0.9999834521506313,58.95735665736381
6.408,0.9999835559208274,58.76201849052053
6.416,0.9999836645426559,58.56653623877857
6.424,0.9999837778116865,58.37090996568307
6.432,0.9999838955272942,58.17513973668355
6.44,0.9999840174926278,57.979225619140585
6.448,0.9999841435145742,57.78316768233242
6.456,0.9999842734037274,57.58696599746168
6.464,0.9999844069743544,57.39062063766189
6.472,0.9999845440443604,57.19413167800399
6.48,0.9999846844352581,56.99749919550295
6.4879999999999995,0.9999848279721322,56.80072326912404
6.496,0.9999849744836071,56.603803979789255
6.504,0.9999851238018128,56.406741410383795
6.5120000000000005,0.9999852757623519,56.20953564576213
6.52,0.9999854302042666,56.012186772754454
6.5280000000000005,0.9999855869700034,55.81469488017264
6.536,0.9999857459053825,55.617060058816605
6.5440000000000005,0.9999859068595618,55.4192824014802
6.552,0.9999860696850055,55.2213620029574
6.5600000000000005,0.9999862342374481,55.02329896004809
6.568,0.9999864003758646,54.82509337156428
6.5760000000000005,0.9999865679624332,54.626745338335596
6.584,0.9999867368625053,54.42825496321546
6.592,0.9999869069445694,54.22962235108658
6.6,0.9999870780802199,54.03084760886684
6.608,0.9999872501441226,53.83193084551482
6.616,0.9999874230139815,53.63287217203547
6.624,0.9999875965705054,53.43367170148568
6.632,0.9999877706973763,53.23432954897961
6.64,0.9999879452812134,53.034845831694305
6.648,0.9999881202115423,52.83522066887492
6.656,0.999988295380761,52.63545418184011
6.664,0.9999884706841065,52.435546493987225
6.672,0.9999886460196227,52.23549773079755
6.68,0.9999888212881265,52.03530801984145
6.688,0.9999889963931762,51.834977490783324
6.696,0.9999891712410359,51.63450627538681
6.704,0.9999893457406469,51.43389450751954
6.712,0.9999895198035909,51.23314232315818
6.72,0.9999896933440597,51.03224986039315
6.728,0.9999898662788226,50.8312172594335
6.736,0.9999900385271916,50.630044662611525
6.744,0.9999902100109925,50.42873221438744
6.752,0.9999903806545292,50.22728006135391
6.76,0.9999905503845536,50.02568835224071
6.768,0.999990719130232,49.82395723791895
6.776,0.9999908868231143,49.6220868714057
6.784,0.9999910533971003,49.420077407868135
6.792,0.9999912187884092,49.21792900462782
6.8,0.9999913829355472,49.015641821164984
6.808,0.9999915457792751,48.81321601912257
6.816,0.9999917072625777,48.61065176231029
6.824,0.9999918673306316,48.40794921670862
6.832,0.9999920259307734,48.20510855047277
6.84,0.9999921830124688,48.00212993393644
6.848,0.9999923385272819,47.79901353961568
6.856,0.9999924924288425,47.59575954221265
6.864,0.9999926446728163,47.39236811861906
6.872,0.9999927952168732,47.18883944791998
6.88,0.9999929440206576,46.9851737113973
6.888,0.9999930910457558,46.78137109253293
6.896,0.9999932362556668,46.577431777012514
6.904,0.9999933796157717,46.37335595272849
6.912,0.9999935210933037,46.16914380978338
6.92,0.9999936606573158,45.96479554049292
6.928,0.9999937982786539,45.76031133938921
6.936,0.9999939339299238,45.555691403223506
6.944,0.9999940675854632,45.35093593096946
6.952,0.9999941992213123,45.14604512382576
6.96,0.9999943288151817,44.94101918521885
6.968,0.9999944563464269,44.73585832080594
6.976,0.9999945817960147,44.53056273847728
6.984,0.9999947051464975,44.32513264835891
6.992,0.999994826381983,44.11956826281519
7.0,0.9999949454881045,43.913869796450975
7.008,0.9999950624519944,43.708037466114234
7.016,0.9999951772622536,43.502071490898075
7.024,0.9999952899089228,43.29597209214291
7.032,0.9999954003834577,43.089739493438806
7.04,0.9999955086786964,42.883373920627164
7.048,0.9999956147888346,42.676875601802884
7.056,0.9999957187093967,42.470244767316125
7.064,0.999995820437209,42.26348164977417
7.072,0.9999959199703699,42.056586484042924
7.08,0.9999960173082266,41.849559507248884
7.088,0.9999961124513439,41.64240095878026
7.096,0.9999962054014806,41.43511108028877
7.104,0.999996296161561,41.227690115690876
7.112,0.9999963847356477,41.020138311168935
7.12,0.9999964711289175,40.81245591517276
7.128,0.9999965553476331,40.60464317842049
7.136,0.9999966373991178,40.39670035389962
7.144,0.9999967172917301,40.188627696868146
7.152,0.9999967950348375,39.98042546485532
7.16,0.9999968706387903,39.77209391766245
7.168,0.9999969441148984,39.563633317363646
7.176,0.9999970154754032,39.355043928306465
7.184,0.9999970847334563,39.146326017112436
7.192,0.9999971519030908,38.93747985267744
7.2,0.9999972169992,38.728505706172314
7.208,0.9999972800375114,38.51940385104288
7.216,0.9999973410345634,38.31017456301027
7.224,0.9999974000076789,38.100818120071004
7.232,0.9999974569749464,37.891334802497234
7.24,0.9999975119551909,37.68172489283615
7.248,0.9999975649679546,37.47198867591055
7.256,0.9999976160334715,37.26212643881806
7.264,0.9999976651726455,37.052138470931034
7.272,0.9999977124070276,36.84202506389615
7.28,0.9999977577587926,36.631786511633834
7.288,0.9999978012507165,36.42142311033785
7.296,0.999997842906156,36.210935158474285
7.304,0.9999978827490258,36.00032295678124
7.312,0.9999979208037757,35.78958680826766
7.32,0.9999979570953698,35.57872701821241
7.328,0.9999979916492673,35.367743894163475
7.336,0.9999980244913967,35.15663774593653
7.344,0.9999980556481405,34.94540888561401
7.352,0.9999980851463092,34.7340576275436
7.36,0.9999981130131255,34.522584288336965
7.368,0.9999981392762001,34.31098918686825
7.376,0.9999981639635149,34.099272644272475
7.384,0.9999981871034009,33.887434983943805
7.392,0.9999982087245195,33.67547653153397
7.4,0.999998228855844,33.46339761495032
7.4079999999999995,0.9999982475266387,33.2511985643538
7.416,0.9999982647664404,33.03887971215701
7.4239999999999995,0.9999982806050411,32.82644139302213
7.432,0.9999982950724685,32.61388394385853
7.4399999999999995,0.9999983081989666,32.40120770382069
7.448,0.9999983200149797,32.188413014305475
7.4559999999999995,0.9999983305511334,31.975500218950092
7.464,0.9999983398382175,31.76246966362893
7.4719999999999995,0.999998347907168,31.54932169645143
7.48,0.9999983547890515,31.3360566677589
7.4879999999999995,0.9999983605150445,31.122674930121804
7.496,0.9999983651164223,30.909176838336823
7.504,0.9999983686245377,30.695562749423765
7.5120000000000005,0.9999983710708071,30.481833022622226
7.52,0.9999983724866948,30.267988019388785
7.5280000000000005,0.999998372903695,30.054028103393026
7.536,0.9999983723533181,29.839953640514757
7.5440000000000005,0.9999983708670762,29.625764998839912
7.552,0.9999983684764647,29.411462548657383
7.5600000000000005,0.999998365212951,29.197046662454817
7.568,0.9999983611079573,28.982517714915275
7.5760000000000005,0.9999983561928476,28.767876082912917
7.584,0.9999983504989137,28.553122145509306
7.5920000000000005,0.9999983440573597,28.338256283948965
7.6,0.9999983368992893,28.123278881655526
7.6080000000000005,0.9999983290556931,27.908190324227082
7.616,0.9999983205574334,27.692990999432155
7.6240000000000006,0.9999983114352327,27.477681297204747
7.632,0.9999983017196608,27.262261609640294
7.640000000000001,0.9999982914411213,27.046732330990416
7.648,0.9999982806298394,26.831093857658644
7.656000000000001,0.9999982693158513,26.615346588195102
7.664,0.9999982575289905,26.399490923291914
7.672,0.9999982452988765,26.183527265777812
7.68,0.9999982326549043,25.967456020613152
7.688,0.9999982196262324,25.75127759488463
7.696,0.9999982062417717,25.53499239779987
7.704,0.9999981925301756,25.31860084068198
7.712,0.9999981785198286,25.102103336964035
7.72,0.9999981642388364,24.88550030218337
7.728,0.9999981497150157,24.668792153975875
7.736,0.9999981349758845,24.45197931207013
7.744,0.999998120048653,24.235062198281465
7.752,0.9999981049602126,24.018041236505958
7.76,0.9999980897371283,23.80091685271426
7.768,0.9999980744056299,23.583689474945338
7.776,0.9999980589916017,23.366359533300265
7.784,0.9999980435205755,23.14892745993567
7.792,0.9999980280177215,22.931393689057302
7.8,0.9999980125078409,22.71375865691338
7.808,0.9999979970153576,22.4960228017879
7.816,0.9999979815643113,22.2781865639938
7.824,0.999997966178348,22.060250385866127
7.832,0.9999979508807166,21.84221471175495
7.84,0.9999979356942582,21.624079988018334
7.848,0.9999979206414017,21.40584666301512
7.856,0.9999979057441565,21.187515187097656
7.864,0.999997891024106,20.96908601260442
7.872,0.9999978765024023,20.750559593852532
7.88,0.9999978621997601,20.53193638713019
7.888,0.9999978481364499,20.313216850689056
7.896,0.9999978343322947,20.094401444736366
7.904,0.9999978208066629,19.875490631427255
7.912,0.9999978075784645,19.656484874856638
7.92,0.9999977946661455,19.437384641051313
7.928,0.9999977820876841,19.21819039796176
7.936,0.9999977698605854,18.99890261545386
7.944,0.9999977580018788,18.77952176530068
7.952,0.9999977465281119,18.560048321174015
7.96,0.9999977354553489,18.340482758635822
7.968,0.9999977247991648,18.120825555129695
7.976,0.9999977145746448,17.901077189972156
7.984,0.9999977047963788,17.681238144343823
7.992,0.9999976954784596,17.461308901280592
8.0,0.99999768663448,17.24128994566462
8.008,0.99999767827753,17.0211817642153
8.016,0.9999976704201947,16.80098484548
8.024000000000001,0.9999976630745526,16.58069967982502
8.032,0.9999976562521727,16.360326759426144
8.04,0.9999976499641133,16.13986657825909
8.048,0.9999976442209205,15.919319632090144
8.056000000000001,0.9999976390326268,15.698686418466574
8.064,0.9999976344087498,15.477967436706907
8.072,0.9999976303582913,15.257163187891011
8.08,0.9999976268897361,15.036274174850313
8.088000000000001,0.999997624011052,14.815300902157947
8.096,0.9999976217296893,14.594243876118593
8.104,0.9999976200525801,14.373103604758242
8.112,0.9999976189861389,14.15188059781406
8.120000000000001,0.9999976185362616,13.930575366724177
8.128,0.999997618708327,13.709188424617185
8.136,0.9999976195071969,13.487720286301538
8.144,0.9999976209372161,13.266171468255095
8.152000000000001,0.9999976230022138,13.044542488614537
8.16,0.9999976257055054,12.822833867164515
8.168,0.9999976290498911,12.601046125326766
8.176,0.9999976330376603,12.379179786149217
8.184000000000001,0.999997637670591,12.15723537429515
8.192,0.9999976429499523,11.935213416031992
8.2,0.9999976488765059,11.713114439220023
8.208,0.9999976554505087,11.49093897330127
8.216000000000001,0.9999976626717134,11.26868754928823
8.224,0.9999976705393733,11.04636069975238
8.232,0.999997679052242,10.82395895881256
8.24,0.9999976882085776,10.60148286212351
8.248000000000001,0.9999976980061462,10.378932946864293
8.256,0.9999977084422226,10.156309751726461
8.264,0.9999977195135945,9.933613816902152
8.272,0.9999977312165665,9.710845684072247
8.280000000000001,0.9999977435469626,9.488005896394522
8.288,0.9999977565001292,9.265094998491508
8.296,0.9999977700709398,9.042113536438201
8.304,0.9999977842537983,8.819062057750003
8.312,0.9999977990426425,8.595941111370554
8.32,0.9999978144309493,8.372751247659032
8.328,0.9999978304117375,8.149493018378097
8.336,0.9999978469775728,7.926166976680987
8.344,0.9999978641205728,7.702773677099315
8.352,0.9999978818324106,7.479313675530033
8.36,0.99999790010432,7.255787529223053
8.368,0.9999979189270995,7.03219579676806
8.376,0.9999979382911193,6.808539038082032
8.384,0.9999979581863239,6.584817814395882
8.392,0.9999979786022392,6.361032688241819
8.4,0.9999979995279764,6.137184223439861
8.408,0.9999980209522383,5.913272985085076
8.416,0.9999980428633244,5.689299539533933
8.424,0.999998065249137,5.465264454391404
8.432,0.9999980880971866,5.24116829849719
8.44,0.999998111394597,5.017011641912687
8.448,0.9999981351281138,4.792795055907057
8.456,0.9999981592841062,4.568519112944094
8.464,0.9999981838485775,4.344184386668148
8.472,0.9999982088071694,4.119791451890835
8.48,0.9999982341451676,3.895340884576881
8.488,0.9999982598475096,3.6708332618306714
8.496,0.9999982858987903,3.44626916188197
8.504,0.9999983122832695,3.2216491640723577
8.512,0.999998338984878,2.996973848840816
8.52,0.9999983659872241,2.7722437977100474
8.528,0.9999983932736015,2.5474595932719355
8.536,0.9999984208269951,2.322621819173753
8.544,0.9999984486300891,2.097731060103494
8.552,0.9999984766652731,1.8727879017759679
8.56,0.9999985049146499,1.647792930918026
8.568,0.9999985333600424,1.4227467352545262
8.576,0.9999985619830019,1.1976499034934553
8.584,0.9999985907648136,0.9725030253117856
8.592,0.9999986196865056,0.747306691340481
8.6,0.9999986487288565,0.5220614931502485
8.608,0.9999986778724016,0.29676802323643897
8.616,0.999998707097442,0.07142687500469037
8.624,0.9999987363840511,-0.15396135724427262
8.632,0.9999987657120835,-0.3793960783290963
8.64,0.9999987950611819,-0.6048766922031033
8.648,0.9999988244107849,-0.8304026019688466
8.656,0.9999988537401361,-1.0559732098935106
8.664,0.9999988830282904,-1.2815879174235651
8.672,0.9999989122541232,-1.5072461252002571
8.68,0.9999989413963378,-1.7329472330743598
8.688,0.9999989704334734,-1.9586906401217563
8.696,0.9999989993439133,-2.184475744658276
8.704,0.9999990281058947,-2.4103019442553664
8.712,0.9999990566975133,-2.6361686357550167
8.72,0.9999990850967345,-2.862075215285519
8.728,0.9999991132814006,-3.0880210782764665
8.736,0.9999991412292392,-3.3140056194745986
8.744,0.9999991689178711,-3.540028232958889
8.752,0.9999991963248188,-3.7660883121564566
8.76,0.999999223427515,-3.992185249857732
8.768,0.9999992502033109,-4.218318438232453
8.776,0.9999992766294845,-4.444487268844896
8.784,0.9999993026832487,-4.670691132669941
8.792,0.9999993283417594,-4.896929420108383
8.8,0.9999993535821257,-5.1232015210030575
8.808,0.9999993783814154,-5.3495068246542195
8.815999999999999,0.9999994027166657,-5.575844719835686
8.824,0.9999994265648913,-5.802214594810529
8.832,0.9999994499030908,-6.028615837346832
8.84,0.999999472708258,-6.25504783473368
8.847999999999999,0.9999994949573884,-6.48150997379719
8.856,0.9999995166274879,-6.7080016409163505
8.864,0.9999995376955811,-6.934522222038903
8.872,0.9999995581387209,-7.161071102697444
8.879999999999999,0.9999995779339944,-7.387647668025552
8.888,0.9999995970585341,-7.614251302773736
8.896,0.9999996154895235,-7.840881391325421
8.904,0.9999996332042075,-8.067537317713128
8.911999999999999,0.9999996501798999,-8.294218465634705
8.92,0.9999996663939911,-8.520924218469384
8.928,0.9999996818239573,-8.7476539592938
8.936,0.9999996964473682,-8.974407070898307
8.943999999999999,0.9999997102418947,-9.201182935803262
8.952,0.999999723185319,-9.427980936275148
8.96,0.9999997352555398,-9.654800454342686
8.968,0.9999997464305828,-9.881640871813204
8.975999999999999,0.9999997566886077,-10.108501570288988
8.984,0.9999997660079164,-10.335381931183461
8.992,0.9999997743669607,-10.56228133573738
9.0,0.999999781744351,-10.789199165035209
9.008,0.9999997881188631,-11.016134800021565
9.016,0.9999997934694473,-11.243087621517418
9.024000000000001,0.9999997977752351,-11.470057010236332
9.032,0.9999998010155474,-11.697042346800897
9.04,0.9999998031699022,-11.924043011759194
9.048,0.9999998042180226,-12.151058385601022
9.056000000000001,0.9999998041398437,-12.37808784877419
9.064,0.9999998029155209,-12.605130781700936
9.072,0.9999998005254359,-12.83218656479447
9.08,0.9999997969502069,-13.059254578475162
9.088000000000001,0.9999997921706923,-13.28633420318688
9.096,0.999999786168002,-13.513424819413428
9.104,0.9999997789235011,-13.74052580769505
9.112,0.9999997704188195,-13.967636548644679
9.120000000000001,0.9999997606358572,-14.19475642296423
9.128,0.9999997495567929,-14.421884811461076
9.136,0.9999997371640906,-14.6490210950645
9.144,0.9999997234405053,-14.876164654841961
9.152000000000001,0.9999997083690914,-15.103314872015394
9.16,0.9999996919332086,-15.330471127977587
9.168,0.9999996741165286,-15.557632804308728
9.176,0.9999996549030425,-15.784799282792555
9.184000000000001,0.9999996342770655,-16.011969945432657
9.192,0.9999996122232455,-16.239144174468827
9.2,0.9999995887265686,-16.466321352393564
9.208,0.9999995637723642,-16.693500861968193
9.216000000000001,0.9999995373463132,-16.92068208623912
9.224,0.9999995094344526,-17.147864408554128
9.232,0.9999994800231824,-17.37504721257887
9.24,0.9999994490992712,-17.60222988231285
9.248000000000001,0.9999994166498613,-17.829411802105728
9.256,0.9999993826624765,-18.05659235667351
9.264,0.9999993471250246,-18.283770931114905
9.272,0.9999993100258067,-18.510946910927412
9.280000000000001,0.9999992713535191,-18.73811968202337
9.288,0.9999992310972615,-18.965288630746187
9.296,0.9999991892465406,-19.192453143886606
9.304,0.999999145791275,-19.41961260869868
9.312000000000001,0.9999991007218024,-19.64676641291574
9.32,0.9999990540288826,-19.873913944766592
9.328,0.9999990057037025,-20.10105459299162
9.336,0.9999989557378817,-20.32818774685868
9.344,0.999998904123477,-20.555312796179024
9.352,0.9999988508529868,-20.782429131323465
9.36,0.9999987959193546,-21.009536143238037
9.368,0.9999987393159752,-21.236633223460235
9.376,0.9999986810366979,-21.463719764134478
9.384,0.99999862107583,-21.690795158028397
9.392,0.9999985594281423,-21.91785879854823
9.4,0.9999984960888723,-22.14491007975498
9.408,0.9999984310537267,-22.37194839637979
9.416,0.9999983643188878,-22.598973143840084
9.424,0.9999982958810149,-22.82598371825479
9.432,0.9999982257372488,-23.052979516460443
9.44,0.9999981538852144,-23.279959936026405
9.448,0.9999980803230244,-23.506924375270764
9.456,0.9999980050492822,-23.73387223327558
9.464,0.999997928063086,-23.96080290990274
9.472,0.9999978493640294,-24.187715805809
9.48,0.9999977689522063,-24.41461032246187
9.488,0.9999976868282127,-24.641485862154553
9.496,0.9999976029931484,-24.868341828021705
9.504,0.9999975174486219,-25.09517762405438
9.512,0.999997430196749,-25.321992655115604
9.52,0.9999973412401587,-25.54878632695533
9.528,0.9999972505819927,-25.775558046225882
9.536,0.9999971582259084,-26.002307220496775
9.544,0.9999970641760804,-26.229033258270128
9.552,0.9999969684372019,-26.455735568995436
9.56,0.9999968710144873,-26.682413563084808
9.568,0.9999967719136725,-26.909066651927642
9.576,0.9999966711410166,-27.135694247905853
