freq,mag,phase
6.0,1.0,-12.373944099028357
6.008,1.0,-12.679335924072788
6.016,1.0,-12.984804993620001
6.024,1.0,-13.290350638782314
6.032,1.0,-13.595972189178571
6.04,0.9999999999999999,-13.901668972953445
6.048,1.0,-14.207440316796818
6.056,1.0,-14.51328554596333
6.064,1.0,-14.819203984292066
6.072,1.0,-15.125194954226359
6.08,0.9999999999999999,-15.4312577768337
6.088,0.9999999999999999,-15.737391771825852
6.096,1.0,-16.043596257579022
6.104,0.9999999999999999,-16.349870551154183
6.112,1.0,-16.656213968317534
6.12,0.9999999999999999,-16.96262582356106
6.128,1.0,-17.26910543012323
6.136,0.9999999999999999,-17.575652100009854
6.144,1.0,-17.88226514401495
6.152,0.9999999999999999,-18.188943871741888
6.16,0.9999999999999999,-18.495687591624463
6.168,0.999999907204443,-18.80249561094829
6.176,0.9999993299496748,-19.10936723587214
6.184,0.9999987427636798,-19.41630177144946
6.192,0.9999981462187847,-19.723298521650054
6.2,0.9999975408774932,-20.030356789381766
6.208,0.9999969272925497,-20.337475876512343
6.216,0.9999963060070041,-20.644655083891447
6.224,0.9999956775542768,-20.951893711372566
6.232,0.9999950424582239,-21.259191057835377
6.24,0.9999944012332032,-21.56654642120785
6.248,0.9999937543841388,-21.873959098488648
6.256,0.9999931024065888,-22.181428385769667
6.264,0.9999924457868112,-22.488953578258524
6.272,0.9999917850018308,-22.79653397030123
6.28,0.9999911205195063,-23.104168855404943
6.288,0.9999904527985984,-23.411857526260796
6.296,0.9999897822888377,-23.719599274766875
6.304,0.9999891094309911,-24.027393392051213
6.312,0.9999884346569323,-24.335239168494873
6.32,0.9999877583897094,-24.64313589375519
6.328,0.9999870810436143,-24.95108285678903
6.336,0.9999864030242512,-25.259079345876135
6.344,0.9999857247286068,-25.567124648642583
6.352,0.9999850465451198,-25.87521805208432
6.36,0.9999843688537499,-26.18335884259072
6.368,0.9999836920260499,-26.49154630596827
6.376,0.9999830164252344,-26.79977972746433
6.384,0.9999823424062503,-27.10805839179098
6.392,0.9999816703158493,-27.416381583148777
6.4,0.9999810004926573,-27.724748585250875
6.408,0.9999803332672462,-28.033158681346933
6.416,0.9999796689622051,-28.341611154247207
6.424,0.999979007892212,-28.65010528634677
6.432,0.9999783503641052,-28.95864035964963
6.44,0.9999776966769559,-29.267215655793027
6.448,0.9999770471221394,-29.57583045607178
6.456,0.9999764019834075,-29.88448404146266
6.464,0.9999757615369615,-30.19317569264875
6.472,0.9999751260515234,-30.501904690044018
6.48,0.9999744957884096,-30.81067031381778
6.4879999999999995,0.9999738710016023,-31.119471843919314
6.496,0.9999732519378237,-31.42830856010255
6.504,0.9999726388366086,-31.737179741950452
6.5120000000000005,0.9999720319303762,-32.046084668900214
6.52,0.9999714314445042,-32.35502262026743
6.5280000000000005,0.9999708375974017,-32.66399287527144
6.536,0.9999702506005822,-32.97299471305965
6.5440000000000005,0.9999696706587369,-33.28202741273289
6.552,0.9999690979698084,-33.59109025336973
6.5600000000000005,0.9999685327250633,-33.900182514052005
6.568,0.9999679751091662,-34.20930347388918
6.5760000000000005,0.9999674253002524,-34.51845241204386
6.584,0.9999668834700026,-34.82762860775627
6.592,0.9999663497837141,-35.13683134036976
6.6,0.9999658244003775,-35.446059889355496
6.608,0.9999653074727466,-35.75531353433763
6.616,0.9999647991474139,-36.0645915551184
6.624,0.9999642995648838,-36.37389323170323
6.632,0.9999638088596455,-36.68321784432573
6.64,0.9999633271602469,-36.99256467347292
6.648,0.9999628545893672,-37.301932999910306
6.656,0.99996239126389,-37.611322104706986
6.664,0.9999619372949775,-37.920731269260806
6.672,0.9999614927881437,-38.2301597753235
6.68,0.9999610578433252,-38.539606905025806
6.688,0.9999606325549575,-38.84907194090262
6.696,0.9999602170120444,-39.15855416591809
6.704,0.9999598112982345,-39.46805286349078
6.712,0.9999594154918903,-39.77756731751878
6.72,0.999959029666163,-40.08709681240478
6.728,0.9999586538890645,-40.39664063308124
6.736,0.9999582882235394,-40.70619806503543
6.744,0.999957932727537,-41.01576839433446
6.752,0.9999575874540846,-41.32535090765041
6.76,0.9999572524513579,-41.63494489228533
6.768,0.9999569277627536,-41.94454963619627
6.776,0.9999566134269603,-42.254164428020225
6.784,0.9999563094780317,-42.56378855709918
6.792,0.9999560159454552,-42.87342131350496
6.8,0.9999557328542252,-43.18306198806422
6.808,0.9999554602249131,-43.49270987238329
6.816,0.999955198073738,-43.80236425887301
6.824,0.9999549464126367,-44.112024440773595
6.832,0.9999547052493354,-44.42168971217937
6.84,0.9999544745874186,-44.731359368063536
6.848,0.9999542544263987,-45.04103270430283
6.856,0.9999540447617872,-45.350709017702236
6.864,0.9999538455851623,-45.660387606019604
6.872,0.9999536568842388,-45.97006776799015
6.88,0.9999534786429374,-46.27974880335106
6.888,0.9999533108414524,-46.58943001286592
6.896,0.9999531534563214,-46.89911069834911
6.904,0.9999530064604915,-47.20879016269028
6.912,0.9999528698233892,-47.518467709878536
6.92,0.9999527435109865,-47.82814264502679
6.928,0.9999526274858682,-48.13781427439589
6.936,0.9999525217073004,-48.44748190541885
6.944,0.9999524261312956,-48.757144846724806
6.952,0.9999523407106788,-49.066802408163156
6.96,0.999952265395156,-49.376453900827386
6.968,0.9999522001313765,-49.68609863707908
6.976,0.999952144863001,-49.99573593057158
6.984,0.9999520995307658,-50.30536509627385
6.992,0.999952064072547,-50.61498545049411
7.0,0.9999520384234262,-50.924596310903404
7.008,0.999952022515753,-51.234196996559106
7.016,0.9999520162792106,-51.54378682792839
7.024,0.9999520196408768,-51.853365126911605
7.032,0.9999520325252895,-52.16293121686548
7.04,0.9999520548545076,-52.472484422626394
7.048,0.9999520865481737,-52.782024070533446
7.056,0.9999521275235771,-53.09154948845147
7.064,0.9999521776957127,-53.401060005794
7.072,0.9999522369773451,-53.710554953546115
7.08,0.9999523052790682,-54.02003366428713
7.088,0.9999523825093639,-54.329495472213345
7.096,0.9999524685746649,-54.63893971316054
7.104,0.9999525633794121,-54.94836572462648
7.112,0.9999526668261147,-55.257772845793305
7.12,0.9999527788154084,-55.56716041754975
7.128,0.999952899246115,-55.87652778251336
7.136,0.9999530280152973,-56.18587428505253
7.144,0.9999531650183201,-56.49519927130849
7.152,0.9999533101489049,-56.804502089217195
7.16,0.9999534632991869,-57.11378208853098
7.168,0.9999536243597719,-57.42303862084036
7.176,0.9999537932197914,-57.73227103959537
7.184,0.9999539697669572,-58.041478700127165
7.192,0.9999541538876175,-58.35066095966925
7.2,0.9999543454668107,-58.65981717737867
7.208,0.9999545443883184,-58.96894671435715
7.216,0.9999547505347207,-59.27804893367196
7.224,0.9999549637874467,-59.58712320037686
7.232,0.9999551840268294,-59.896168881532795
7.24,0.999955411132156,-60.20518534622848
7.248,0.9999556449817202,-60.51417196560089
7.256,0.9999558854528733,-60.82312811285564
7.264,0.9999561324220736,-61.13205316328721
7.272,0.9999563857649385,-61.440946494299055
7.28,0.9999566453562929,-61.74980748542356
7.288,0.9999569110702171,-62.058635518341944
7.296,0.9999571827800983,-62.36742997690396
7.304,0.9999574603586762,-62.676190247147474
7.312,0.9999577436780915,-62.98491571731788
7.32,0.9999580326099337,-63.293605777887606
7.328,0.9999583270252856,-63.60225982157503
7.336,0.9999586267947724,-63.91087724336379
7.344,0.9999589317886051,-64.21945744052154
7.352,0.9999592418766251,-64.52799981261883
7.36,0.9999595569283519,-64.83650376154766
7.368,0.9999598768130235,-65.14496869154007
7.376,0.999960201399642,-65.45339400918643
7.384,0.9999605305570156,-65.76177912345366
7.392,0.9999608641538031,-66.07012344570339
7.4,0.9999612020585524,-66.37842638970979
7.4079999999999995,0.9999615441397458,-66.68668737167735
7.416,0.9999618902658377,-66.99490581025871
7.4239999999999995,0.9999622403052971,-67.30308112657177
7.432,0.9999625941266463,-67.61121274421754
7.4399999999999995,0.9999629515985012,-67.91930008929677
7.448,0.9999633125896089,-68.2273425904276
7.4559999999999995,0.9999636769688872,-68.53533967876177
7.464,0.9999640446054621,-68.84329078800212
7.4719999999999995,0.9999644153687036,-69.15119535441848
7.48,0.9999647891282644,-69.45905281686461
7.4879999999999995,0.9999651657541154,-69.76686261679413
7.496,0.9999655451165803,-70.07462419827698
7.504,0.9999659270863717,-70.38233700801503
7.5120000000000005,0.9999663115346259,-70.69000049535825
7.52,0.9999666983329357,-70.99761411232005
7.5280000000000005,0.999967087353385,-71.30517731359309
7.536,0.9999674784685814,-71.61268955656425
7.5440000000000005,0.9999678715516881,-71.92015030133025
7.552,0.9999682664764562,-72.22755901071221
7.5600000000000005,0.9999686631172567,-72.534915150271
7.568,0.9999690613491098,-72.84221818832144
7.5760000000000005,0.9999694610477156,-73.1494675959473
7.584,0.9999698620894851,-73.45666284701521
7.5920000000000005,0.9999702643515679,-73.76380341818945
7.6,0.9999706677118814,-74.07088878894535
7.6080000000000005,0.9999710720491388,-74.37791844158379
7.616,0.9999714772428765,-74.68489186124435
7.6240000000000006,0.999971883173482,-74.99180853591945
7.632,0.9999722897222189,-75.29866795646714
7.640000000000001,0.9999726967712539,-75.60546961662496
7.648,0.9999731042036827,-75.91221301302231
7.656000000000001,0.9999735119035539,-76.21889764519405
7.664,0.9999739197558929,-76.52552301559257
7.672,0.9999743276467279,-76.83208862960093
7.68,0.9999747354631107,-77.1385939955448
7.688,0.9999751430931414,-77.44503862470492
7.696,0.9999755504259898,-77.75142203132913
7.704,0.999975957351917,-78.05774373264414
7.712,0.9999763637622976,-78.36400324886742
7.72,0.9999767695496385,-78.67020010321862
7.728,0.9999771746076013,-78.97633382193098
7.736,0.9999775788310202,-79.28240393426255
7.744,0.9999779821159228,-79.58840997250722
7.752,0.999978384359547,-79.89435147200561
7.76,0.9999787854603602,-80.20022797115574
7.768,0.9999791853180765,-80.50603901142357
7.776,0.9999795838336739,-80.81178413735334
7.784,0.9999799809094113,-81.1174628965778
7.792,0.999980376448844,-81.42307483982817
7.8,0.9999807703568387,-81.72861952094406
7.808,0.9999811625395908,-82.03409649688304
7.816,0.9999815529046364,-82.33950532773021
7.824,0.9999819413608683,-82.64484557670757
7.832,0.9999823278185482,-82.95011681018306
7.84,0.9999827121893209,-83.25531859767968
7.848,0.9999830943862261,-83.56045051188423
7.856,0.9999834743237113,-83.86551212865595
7.864,0.9999838519176425,-84.17050302703511
7.872,0.9999842270853169,-84.47542278925114
7.88,0.9999845997454715,-84.78027100073088
7.888,0.9999849698182947,-85.08504725010656
7.896,0.9999853372254358,-85.38975112922348
7.904,0.9999857018900149,-85.6943822331478
7.912,0.9999860637366302,-85.99894016017386
7.92,0.9999864226913672,-86.30342451183147
7.928,0.9999867786818071,-86.60783489289308
7.936,0.9999871316370332,-86.91217091138076
7.944,0.999987481487639,-87.21643217857282
7.952,0.9999878281657331,-87.52061830901054
7.96,0.999988171604947,-87.82472892050465
7.968,0.9999885117404398,-88.12876363414141
7.976,0.9999888485089037,-88.43272207428888
7.984,0.9999891818485682,-88.73660386860277
7.992,0.9999895116992057,-89.04040864803225
8.0,0.9999898380021333,-89.34413604682553
8.008,0.9999901607002186,-89.64778570253515
8.016,0.9999904797378809,-89.9513572560236
8.024000000000001,0.9999907950610949,-90.25485035146795
8.032,0.9999911066173924,-90.55826463636504
8.04,0.9999914143558645,-90.86159976153633
8.048,0.9999917182271618,-91.16485538113236
8.056000000000001,0.9999920181834979,-91.4680311526371
8.064,0.9999923141786463,-91.77112673687228
8.072,0.9999926061679442,-92.07414179800166
8.08,0.9999928941082901,-92.37707600353488
8.088000000000001,0.9999931779581431,-92.679929024331
8.096,0.999993457677524,-92.98270053460234
8.104,0.999993733228011,-93.28539021191806
8.112,0.9999940045727403,-93.5879977372072
8.120000000000001,0.9999942716764028,-93.89052279476188
8.128,0.9999945345052418,-94.19296507224017
8.136,0.9999947930270503,-94.49532426066924
8.144,0.9999950472111675,-94.79760005444771
8.152000000000001,0.9999952970284752,-95.09979215134815
8.16,0.9999955424513942,-95.40190025251943
8.168,0.9999957834538802,-95.70392406248905
8.176,0.9999960200114181,-96.00586328916512
8.184000000000001,0.9999962521010176,-96.30771764383795
8.192,0.9999964797012079,-96.60948684118198
8.2,0.9999967027920328,-96.9111705992574
8.208,0.9999969213550431,-97.2127686395115
8.216000000000001,0.9999971353732919,-97.51428068677967
8.224,0.9999973448313261,-97.81570646928672
8.232,0.9999975497151822,-98.11704571864789
8.24,0.9999977500123756,-98.41829816986946
8.248000000000001,0.9999979457118958,-98.71946356134939
8.256,0.9999981368041975,-99.0205416348778
8.264,0.9999983232811923,-99.32153213563748
8.272,0.9999985051362403,-99.62243481220396
8.280000000000001,0.9999986823641416,-99.92324941654543
8.288,0.9999988549611266,-100.22397570402266
8.296,0.999999022924848,-100.524613433389
8.304,0.9999991862543692,-100.82516236678978
8.312,0.9999993449501566,-101.1256222697615
8.32,0.9999994990140675,-101.42599291123177
8.328,0.9999996484493416,-101.72627406351778
8.336,0.9999997932605884,-102.02646550232592
8.344,0.9999999334537771,-102.32656700675014
8.352,1.0,-102.62657835927118
8.36,1.0,-102.92649934575465
8.368,1.0,-103.22632975545002
8.376,1.0,-103.52606938098845
8.384,0.9999999999999999,-103.8257180183814
8.392,1.0,-104.12527546701827
8.4,1.0,-104.42474152966473
8.408,1.0,-104.72411601246003
8.416,1.0,-105.02339872491515
8.424,1.0,-105.32258947990978
8.432,1.0,-105.62168809369022
8.44,0.9999999999999998,-105.92069438586606
8.448,1.0,-106.21960817940791
8.456,1.0000000000000002,-106.51842930064377
8.464,1.0,-106.81715757925643
8.472,1.0,-107.1157928482797
8.48,0.9999999999999999,-107.4143349440955
8.488,0.9999999999999998,-107.71278370642982
8.496,1.0,-108.01113897834959
8.504,1.0,-108.30940060625844
8.512,0.9999999999999999,-108.60756843989317
8.52,0.9999999999999999,-108.90564233231936
8.528,1.0,-109.20362213992775
8.536,1.0,-109.50150772242928
8.544,0.9999999999999999,-109.79929894285144
8.552,1.0,-110.09699566753314
8.56,0.9999999999999999,-110.39459776612058
8.568,0.9999999999999999,-110.69210511156216
8.576,1.0,-110.98951758010391
8.584,1.0000000000000002,-111.28683505128421
8.592,1.0,-111.5840574079292
8.6,1.0,-111.8811845361469
8.608,0.9999999999999999,-112.17821632532271
8.616,1.0,-112.47515266811321
8.624,1.0,-112.77199346044137
8.632,1.0,-113.06873860149025
8.64,1.0,-113.36538799369788
8.648,1.0,-113.66194154275085
8.656,1.0,-113.95839915757892
8.664,1.0,-114.2547607503484
8.672,1.0,-114.55102623645656
8.68,0.9999999999999999,-114.84719553452484
8.688,1.0,-115.14326856639299
8.696,0.9999999999999999,-115.4392452571121
8.704,1.0,-115.73512553493865
8.712,0.9999999999999999,-116.03090933132715
8.72,1.0000000000000002,-116.32659658092408
8.728,0.9999999999999998,-116.62218722156044
8.736,0.9999999999999999,-116.91768119424538
8.744,0.9999999999999999,-117.21307844315851
8.752,0.9999999999999999,-117.50837891564349
8.76,1.0,-117.80358256220013
8.768,1.0,-118.09868933647766
8.776,1.0,-118.3936991952668
8.784,1.0,-118.68861209849275
8.792,1.0,-118.98342800920719
8.8,1.0,-119.27814689358104
8.808,1.0,-119.57276872089615
8.815999999999999,1.0,-119.86729346353809
8.824,1.0,-120.16172109698783
8.832,1.0,-120.45605159981378
8.84,1.0,-120.7502849536637
8.847999999999999,1.0,-121.0444211432568
8.856,1.0000000000000002,-121.33846015637515
8.864,1.0,-121.6324019838555
8.872,0.9999999999999999,-121.92624661958082
8.879999999999999,1.0,-122.21999406047199
8.888,1.0,-122.51364430647914
8.896,0.9999999916572937,-122.80719736057287
8.904,0.9999998894032948,-123.10065322873571
8.911999999999999,0.9999997855335457,-123.39401191995347
8.92,0.9999996801120015,-123.68727344620619
8.928,0.9999995732027843,-123.98043782245922
8.936,0.9999994648701652,-124.27350506665427
8.943999999999999,0.9999993551785468,-124.56647519970053
8.952,0.9999992441924441,-124.8593482454654
8.96,0.9999991319764687,-125.15212423076515
8.968,0.9999990185953097,-125.44480318535585
8.975999999999999,0.9999989041137163,-125.7373851419242
8.984,0.99999878859648,-126.02987013607793
8.992,0.9999986721084179,-126.32225820633627
9.0,0.9999985547143542,-126.6145493941206
9.008,0.999998436479103,-126.90674374374504
9.016,0.9999983174674522,-127.19884130240658
9.024000000000001,0.9999981977441446,-127.49084212017536
9.032,0.9999980773738615,-127.78274624998507
9.04,0.999997956421206,-128.07455374762327
9.048,0.9999978349506853,-128.3662646717213
9.056000000000001,0.9999977130266944,-128.6578790837445
9.064,0.9999975907134986,-128.94939704798202
9.072,0.999997468075218,-129.24081863153734
9.08,0.9999973451758095,-129.53214390431765
9.088000000000001,0.9999972220790516,-129.82337293902407
9.096,0.9999970988485273,-130.1145058111412
9.104,0.999996975547607,-130.4055425989273
9.112,0.9999968522394351,-130.69648338340372
9.120000000000001,0.9999967289869102,-130.9873282483446
9.128,0.9999966058526726,-131.27807728026661
9.136,0.999996482899086,-131.5687305684187
9.144,0.9999963601882232,-131.8592882047714
9.152000000000001,0.9999962377818506,-132.1497502840064
9.16,0.999996115741411,-132.44011690350598
9.168,0.9999959941280105,-132.73038816334264
9.176,0.9999958730024021,-133.02056416626846
9.184000000000001,0.9999957524249705,-133.3106450177041
9.192,0.9999956324557187,-133.60063082572844
9.2,0.9999955131542504,-133.89052170106788
9.208,0.9999953945797584,-134.18031775708548
9.216000000000001,0.9999952767910079,-134.47001910977002
9.224,0.9999951598463227,-134.7596258777253
9.232,0.9999950438035727,-135.0491381821595
9.24,0.9999949287201567,-135.33855614687386
9.248000000000001,0.9999948146529906,-135.62787989825202
9.256,0.9999947016584934,-135.9171095652488
9.264,0.9999945897925733,-136.20624527937966
9.272,0.9999944791106135,-136.49528717470932
9.280000000000001,0.9999943696674612,-136.7842353878406
9.288,0.9999942615174108,-137.07309005790367
9.296,0.9999941547141945,-137.36185132654475
9.304,0.999994049310967,-137.65051933791517
9.312000000000001,0.9999939453602948,-137.93909423865975
9.32,0.9999938429141423,-138.22757617790606
9.328,0.9999937420238589,-138.51596530725317
9.336,0.9999936427401688,-138.80426178076019
9.344,0.9999935451131581,-139.09246575493512
9.352,0.9999934491922624,-139.3805773887237
9.36,0.9999933550262552,-139.66859684349782
9.368,0.9999932626632376,-139.9565242830446
9.376,0.9999931721506261,-140.24435987355454
9.384,0.9999930835351414,-140.5321037836108
9.392,0.999992996862798,-140.81975618417718
9.4,0.9999929121788924,-141.10731724858732
9.408,0.9999928295279944,-141.39478715253261
9.416,0.9999927489539344,-141.68216607405162
9.424,0.999992670499795,-141.96945419351783
9.432,0.9999925942079008,-142.25665169362878
9.44,0.9999925201198064,-142.5437587593943
9.448,0.9999924482762905,-142.83077557812518
9.456,0.9999923787173431,-143.11770233942144
9.464,0.9999923114821578,-143.4045392351613
9.472,0.9999922466091228,-143.69128645948908
9.48,0.9999921841358108,-143.97794420880427
9.488,0.9999921240989728,-144.26451268174944
9.496,0.9999920665345261,-144.5509920791993
9.504,0.9999920114775491,-144.8373826042485
9.512,0.999991958962272,-145.1236844622007
9.52,0.9999919090220684,-145.4098978605566
9.528,0.9999918616894482,-145.69602300900263
9.536,0.9999918169960503,-145.98206011939914
9.544,0.9999917749726351,-146.26800940576905
9.552,0.9999917356490763,-146.55387108428616
9.56,0.9999916990543564,-146.83964537326375
9.568,0.9999916652165579,-147.12533249314262
9.576,0.9999916341628571,-147.41093266648005
9.584,0.9999916059195194,-147.69644611793765
9.592,0.9999915805118904,-147.98187307427028
9.6,0.9999915579643938,-148.26721376431414
9.608,0.9999915383005209,-148.55246841897545
9.616,0.9999915215428308,-148.83763727121843
9.624,0.9999915077129398,-149.1227205560545
9.632,0.9999914968315197,-149.4077185105298
9.64,0.9999914889182923,-149.69263137371442
9.648,0.9999914839920234,-149.97745938669019
9.656,0.9999914820705204,-150.26220279253968
9.664,0.9999914831706266,-150.5468618363342
9.672,0.9999914873082177,-150.83143676512265
