freq,mag,phase
6.0,0.9999989616727625,110.47133280191429
6.008,0.9999990427921991,110.3739602572988
6.016,0.9999991212702459,110.27657032982985
6.024,0.9999991971519891,110.17916300037685
6.032,0.9999992704821495,110.08173824984317
6.04,0.9999993413050838,109.98429605916616
6.048,0.999999409664787,109.88683640931735
6.056,0.9999994756048917,109.78935928130251
6.064,0.9999995391686716,109.69186465616174
6.072,0.9999996003990416,109.59435251496966
6.08,0.9999996593385582,109.49682283883547
6.088,0.9999997160294224,109.3992756089031
6.096,0.9999997705134799,109.30171080635125
6.104,0.9999998228322226,109.20412841239363
6.112,0.9999998730267895,109.10652840827898
6.12,0.9999999211379689,109.00891077529117
6.128,0.9999999672061987,108.9112754947494
6.136,1.0,108.81362254800824
6.144,0.9999999999999999,108.71595191645777
6.152,1.0,108.61826358152372
6.16,1.0,108.5205575246675
6.168,1.0,108.42283372738645
6.176,0.9999999999999999,108.32509217121378
6.184,1.0,108.22733283771888
6.192,0.9999999999999998,108.12955570850724
6.2,0.9999999999999999,108.03176076522071
6.208,1.0,107.93394798953753
6.216,1.0,107.83611736317248
6.224,1.0,107.73826886787698
6.232,1.0,107.6404024854392
6.24,0.9999999999999999,107.54251819768417
6.248,0.9999999999999999,107.44461598647393
6.256,0.9999999999999998,107.34669583370759
6.264,1.0,107.24875772132147
6.272,0.9999999999999999,107.15080163128918
6.28,1.0,107.05282754562182
6.288,1.0000000000000002,106.95483544636797
6.296,1.0,106.85682531561386
6.304,1.0,106.75879713548356
6.312,1.0,106.66075088813894
6.32,1.0,106.56268655577985
6.328,1.0,106.46460412064434
6.336,0.9999999999999999,106.36650356500853
6.344,1.0,106.26838487118695
6.352,1.0,106.17024802153256
6.36,0.9999999999999999,106.07209299843682
6.368,0.9999999999999999,105.97391978432987
6.376,0.9999999999999999,105.87572836168061
6.384,0.9999999999999999,105.77751871299682
6.392,1.0,105.67929082082524
6.4,1.0,105.58104466775175
6.408,0.9999999999999999,105.4827802364014
6.416,0.9999999999999999,105.38449750943855
6.424,1.0,105.286196469567
6.432,1.0,105.1878770995301
6.44,0.9999999999999999,105.08953938211081
6.448,1.0,104.99118330013191
6.456,1.0,104.89280883645591
6.464,1.0,104.79441597398548
6.472,0.9999999999999999,104.6960046956632
6.48,1.0,104.59757498447196
6.4879999999999995,1.0,104.4991268234349
6.496,1.0,104.40066019561553
6.504,0.9999999999999999,104.30217508411799
6.5120000000000005,1.0,104.20367147208692
6.52,1.0,104.10514934270782
6.5280000000000005,0.9999999999999999,104.0066086792069
6.536,1.0,103.90804946485147
6.5440000000000005,1.0,103.80947168294976
6.552,1.0,103.7108753168513
6.5600000000000005,1.0,103.61226034994675
6.568,1.0,103.51362676566829
6.5760000000000005,1.0,103.4149745474895
6.584,1.0,103.31630367892565
6.592,1.0,103.21761414353361
6.6,1.0,103.11890592491214
6.608,1.0,103.02017900670188
6.616,1.0,102.92143337258555
6.624,1.0,102.82266900628795
6.632,0.9999999999999999,102.72388589157616
6.64,0.9999999999999999,102.62508401225956
6.648,0.9999999999999999,102.52626335219007
6.656,0.9999999999999998,102.42742389526211
6.664,1.0,102.32856562541274
6.672,1.0,102.2296885266219
6.68,1.0,102.13079258291229
6.688,1.0,102.03187777834968
6.696,0.9999999999999999,101.93294409704293
6.704,1.0,101.83399152314404
6.712,0.9999999999999999,101.73502004084834
6.72,0.9999999999999999,101.63602963439462
6.728,0.9999999999999999,101.53702028806511
6.736,1.0,101.4379919861857
6.744,0.9999999999999998,101.33894471312598
6.752,0.9999999999999999,101.23987845329943
6.76,0.9999999999999998,101.14079319116337
6.768,1.0,101.04168891121924
6.776,0.9999999951275333,100.94256559801258
6.784,0.9999999804615098,100.84342323613319
6.792,0.9999999660122317,100.74426181021525
6.8,0.9999999517952072,100.64508130493732
6.808,0.9999999378257005,100.54588170502262
6.816,0.999999924118735,100.44666299523894
6.824,0.9999999106890914,100.34742516039891
6.832,0.9999998975513128,100.24816818535999
6.84,0.999999884719702,100.14889205502462
6.848,0.9999998722083264,100.04959675434034
6.856,0.9999998600310164,99.95028226829984
6.864,0.9999998482013683,99.85094858194113
6.872,0.9999998367327452,99.75159568034756
6.88,0.9999998256382775,99.65222354864804
6.888,0.9999998149308659,99.55283217201698
6.896,0.9999998046231798,99.45342153567456
6.904,0.9999997947276622,99.35399162488673
6.912,0.9999997852565274,99.25454242496535
6.92,0.9999997762217648,99.15507392126824
6.928,0.9999997676351391,99.0555860991994
6.936,0.9999997595081913,98.95607894420897
6.944,0.9999997518522405,98.8565524417934
6.952,0.9999997446783853,98.75700657749559
6.96,0.9999997379975041,98.65744133690491
6.968,0.9999997318202571,98.55785670565737
6.976,0.9999997261570878,98.45825266943567
6.984,0.9999997210182231,98.35862921396934
6.992,0.9999997164136762,98.25898632503481
7.0,0.9999997123532466,98.1593239884555
7.008,0.9999997088465209,98.05964219010202
7.016,0.9999997059028762,97.95994091589212
7.024,0.9999997035314782,97.86022015179091
7.032,0.999999701741286,97.76047988381089
7.04,0.9999997005410504,97.66072009801208
7.048,0.9999996999393168,97.56094078050212
7.056,0.9999996999444252,97.46114191743636
7.064,0.9999997005645133,97.361323495018
7.072,0.9999997018075152,97.26148549949808
7.08,0.9999997036811654,97.16162791717568
7.088,0.9999997061929977,97.06175073439806
7.096,0.9999997093503478,96.96185393756059
7.104,0.999999713160354,96.86193751310701
7.112,0.9999997176299588,96.76200144752944
7.12,0.9999997227659095,96.66204572736855
7.128,0.99999972857476,96.56207033921353
7.136,0.9999997350628722,96.46207526970237
7.144,0.9999997422364169,96.36206050552178
7.152,0.999999750101374,96.2620260334074
7.16,0.9999997586635357,96.1619718401439
7.168,0.9999997679285069,96.06189791256499
7.176,0.9999997779017057,95.9618042375536
7.184,0.999999788588366,95.8616908020419
7.192,0.9999997999935369,95.76155759301153
7.2,0.9999998121220862,95.66140459749356
7.208,0.9999998249786993,95.5612318025686
7.216,0.9999998385678824,95.46103919536702
7.224,0.9999998528939623,95.36082676306891
7.232,0.9999998679610888,95.26059449290423
7.24,0.9999998837732348,95.16034237215291
7.248,0.9999999003341976,95.06007038814495
7.256,0.9999999176476019,94.95977852826046
7.264,0.9999999357168984,94.85946677992987
7.272,0.9999999545453666,94.75913513063391
7.28,0.9999999741361164,94.65878356790375
7.288,0.9999999944920875,94.55841207932113
7.296,0.9999999999999999,94.45802065251839
7.304,0.9999999999999999,94.35760927517859
7.312,1.0,94.25717793503566
7.32,1.0,94.15672661987439
7.328,0.9999999999999999,94.05625531753061
7.336,1.0,93.95576401589123
7.344,1.0,93.8552527028944
7.352,0.9999999999999999,93.75472136652952
7.36,1.0,93.6541699948374
7.368,0.9999999999999999,93.55359857591031
7.376,0.9999999999999999,93.4530070978921
7.384,1.0,93.35239554897828
7.392,1.0,93.25176391741614
7.4,0.9999999999999999,93.1511121915048
7.4079999999999995,1.0,93.05044035959533
7.416,0.9999999999999999,92.9497484100908
7.4239999999999995,0.9999999999999999,92.8490363314465
7.432,0.9999999999999999,92.74830411216983
7.4399999999999995,1.0,92.6475517408206
7.448,0.9999999999999998,92.54677920601094
7.4559999999999995,1.0,92.44598649640555
7.464,1.0,92.34517360072164
7.4719999999999995,1.0,92.24434050772916
7.48,1.0,92.14348720625081
7.4879999999999995,0.9999999999999999,92.04261368516215
7.496,0.9999999999999998,91.94171993339167
7.504,1.0,91.84080593992094
7.5120000000000005,1.0,91.73987169378464
7.52,0.9999999999999999,91.63891718407068
7.5280000000000005,0.9999999999999999,91.53794239992024
7.536,1.0,91.436947330528
7.5440000000000005,0.9999999999999999,91.335931965142
7.552,1.0,91.23489629306398
7.5600000000000005,1.0,91.13384030364928
7.568,0.9999999999999999,91.03276398630705
7.5760000000000005,0.9999999999999999,90.93166733050019
7.584,1.0,90.83055032574569
7.5920000000000005,0.9999999999999999,90.7294129616144
7.6,1.0,90.62825522773144
7.6080000000000005,1.0,90.52707711377597
7.616,1.0,90.42587860948163
7.6240000000000006,1.0,90.32465970463623
7.632,1.0,90.22342038908224
7.640000000000001,0.9999999999999999,90.12216065271653
7.648,1.0000000000000002,90.02088048549072
7.656000000000001,0.9999999999999999,89.91957987741108
7.664,1.0,89.81825881853874
7.672,1.0,89.71691729898973
7.68,1.0,89.61555530893501
7.688,1.0,89.5141728386007
7.696,1.0,89.41276987826804
7.704,1.0,89.31134641827349
7.712,0.9999999999999999,89.20990244900887
7.72,0.9999999999999999,89.10843796092144
7.728,1.0,89.00695294451391
7.736,0.9999999999999999,88.90544739034463
7.744,1.0,88.80392128902758
7.752,1.0,88.70237463123253
7.76,1.0,88.60080740768505
7.768,0.9999999999999999,88.49921960916672
7.776,0.9999999999999999,88.39761122651502
7.784,1.0000000000000002,88.29598225062362
7.792,1.0,88.19433267244231
7.8,0.9999999999999999,88.09266248297719
7.808,0.9999999999999999,87.99097167329064
7.816,1.0,87.88926023450156
7.824,1.0,87.78752815778527
7.832,1.0,87.68577543437377
7.84,1.0,87.58400205555564
7.848,1.0,87.48220801267632
7.856,1.0,87.38039329713803
7.864,0.9999999999999998,87.27855790039995
7.872,0.9999999999999999,87.17670181397823
7.88,1.0,87.07482502944613
7.888,1.0,86.97292753843409
7.896,1.0,86.87100933262978
7.904,0.9999999999999999,86.76907040377822
7.912,0.9999999999999998,86.66711074368183
7.92,1.0,86.56513034420054
7.928,1.0,86.4631291972518
7.936,1.0,86.36110729481081
7.944,0.9999999999999999,86.2590646289104
7.952,1.0,86.15700119164129
7.96,0.9999999999999999,86.05491697515207
7.968,1.0,85.95281197164927
7.976,1.0,85.85068617339755
7.984,1.0,85.74853957271961
7.992,1.0,85.64637216199642
8.0,0.9999999999999999,85.54418393366723
8.008,0.9999999999999999,85.44197488022965
8.016,1.0,85.3397449942397
8.024000000000001,1.0,85.23749426831195
8.032,0.9999999999999999,85.13522269511965
8.04,1.0,85.03293026739462
8.048,1.0,84.9306169779274
8.056000000000001,1.0,84.8282828195675
8.064,0.9999999999999999,84.7259277852233
8.072,1.0,84.62355186786208
8.08,0.9999999999999999,84.52115506051024
8.088000000000001,0.9999999999999999,84.41873735625333
8.096,0.9999999999999999,84.31629874823612
8.104,0.9999999999999999,84.21383922966265
8.112,1.0,84.1113587937963
8.120000000000001,0.9999999999999999,84.00885743395992
8.128,1.0,83.90633514353593
8.136,0.9999999999999999,83.80379191596622
8.144,0.9999999999999999,83.70122774475244
8.152000000000001,0.9999999999999999,83.59864262345594
8.16,1.0,83.49603654569795
8.168,1.0,83.39340950515948
8.176,1.0,83.29076149558156
8.184000000000001,0.9999999999999998,83.18809251076527
8.192,1.0,83.0854025445718
8.2,1.0000000000000002,82.98269159092251
8.208,1.0,82.87995964379895
8.216000000000001,1.0,82.7772066972431
8.224,1.0,82.67443274535734
8.232,1.0,82.57163778230442
8.24,1.0,82.4688218023077
8.248000000000001,0.9999999999999999,82.36598479965117
8.256,1.0,82.26312676867953
8.264,1.0,82.16024770379815
8.272,1.0,82.05734759947327
8.280000000000001,0.9999999999999998,81.95442645023206
8.288,1.0,81.8514842506627
8.296,1.0,81.74852099541428
8.304,0.9999999999999999,81.6455366791971
8.312,1.0,81.54253129678263
8.32,0.9999999999999999,81.43950484300356
8.328,0.9999999999999999,81.33645731275396
8.336,1.0,81.23338870098924
8.344,1.0,81.13029900272628
8.352,1.0,81.02718821304347
8.36,1.0,80.92405632708089
8.368,1.0,80.82090334004013
8.376,1.0,80.71772924718468
8.384,1.0,80.61453404383967
8.392,0.9999999999999999,80.51131772539226
8.4,0.9999999999999999,80.40808028729138
8.408,0.9999999999999999,80.30482172504813
8.416,1.0,80.20154203423556
8.424,1.0,80.09824121048891
8.432,0.9999999999999999,79.99491924950557
8.44,0.9999999999999999,79.89157614704528
8.448,1.0,79.78821189893007
8.456,0.9999999999999999,79.68482650104437
8.464,1.0,79.58141994933507
8.472,1.0,79.47799223981163
8.48,1.0,79.37454336854604
8.488,1.0,79.27107333167305
8.496,0.9999999999999999,79.16758212539001
8.504,1.0,79.0640697459572
8.512,1.0,78.9605361896976
8.52,0.9999999999999999,78.8569814529973
8.528,1.0,78.75340553230514
8.536,0.9999999999999999,78.64980842413323
8.544,0.9999999999999999,78.5461901250566
8.552,1.0,78.4425506317136
8.56,0.9999999999999999,78.33888994080571
8.568,1.0,78.23520804909778
8.576,1.0,78.13150495341795
8.584,1.0,78.02778065065782
8.592,1.0,77.92403513777245
8.6,0.9999999999999999,77.82026841178049
8.608,0.9999999999999998,77.7164804697641
8.616,0.9999999999999999,77.61267130886922
8.624,1.0,77.50884092630541
8.632,1.0,77.4049893193461
8.64,1.0,77.30111648532848
8.648,1.0000000000000002,77.19722242165375
8.656,1.0,77.09330712578694
8.664,0.9999999999999999,76.98937059525724
8.672,1.0,76.88541282765783
8.68,1.0,76.7814338206461
8.688,1.0,76.67743357194352
8.696,1.0,76.57341207933601
8.704,0.9999999999999999,76.4693693406736
8.712,0.9999999999999999,76.36530535387087
8.72,1.0,76.26122011690669
8.728,0.9999999999999999,76.15711362782453
8.736,1.0,76.05298588473231
8.744,0.9999999999999998,75.94883688580266
8.752,0.9999999999999999,75.84466662927278
8.76,1.0,75.74047511344462
8.768,1.0,75.63626233668488
8.776,0.9999999999999999,75.53202829742514
8.784,1.0,75.42777299416181
8.792,0.9999999999999999,75.32349642545627
8.8,1.0,75.21919858993486
8.808,0.9999999999999998,75.11487948628903
8.815999999999999,1.0,75.01053911327527
8.824,1.0,74.90617746971523
8.832,1.0,74.80179455449579
8.84,1.0,74.69739036656914
8.847999999999999,0.9999999999999999,74.59296490495272
8.856,1.0,74.48851816872934
8.864,1.0,74.38405015704727
8.872,1.0,74.27956086912029
8.879999999999999,1.0,74.17505030422763
8.888,1.0,74.07051846171409
8.896,1.0,73.96596534099021
8.904,1.0,73.86139094153216
8.911999999999999,1.0,73.75679526288184
8.92,0.9999999999999999,73.65217830464688
8.928,1.0,73.54754006650089
8.936,1.0,73.44288054818323
8.943999999999999,1.0,73.3381997494993
8.952,0.9999999999999999,73.2334976703204
8.96,1.0,73.12877431058395
8.968,1.0,73.02402967029344
8.975999999999999,1.0,72.91926374951846
8.984,0.9999999999999999,72.81447654839481
8.992,0.9999999999999999,72.70966806712453
9.0,0.9999999999999999,72.60483830597597
9.008,1.0,72.49998726528379
9.016,1.0,72.39511494544898
9.024000000000001,0.9999999999999999,72.29022134693903
9.032,1.0,72.18530647028793
9.04,1.0,72.08037031609611
9.048,0.9999999999999999,71.97541288503061
9.056000000000001,0.9999999999999999,71.87043417782508
9.064,1.0,71.76543419527988
9.072,1.0,71.66041293826203
9.08,1.0,71.5553704077053
9.088000000000001,1.0,71.45030660461026
9.096,1.0,71.34522153004444
9.104,0.9999999999999999,71.24011518514212
9.112,0.9999999999999999,71.13498757110453
9.120000000000001,0.9999999999999999,71.02983868919998
9.128,1.0,70.92466854076376
9.136,0.9999999999999999,70.8194771271982
9.144,0.9999999999999999,70.71426444997272
9.152000000000001,1.0,70.60903051062401
9.16,0.9999999999999999,70.5037753107559
9.168,0.9999999999999999,70.39849885203942
9.176,1.0,70.29320113621297
9.184000000000001,1.0,70.1878821650822
9.192,0.9999999999999999,70.08254194052023
9.2,0.9999999999999999,69.97718046446752
9.208,0.9999999999999999,69.87179773893199
9.216000000000001,0.9999999999999999,69.76639376598906
9.224,1.0,69.66096854778178
9.232,1.0,69.55552208652064
9.24,1.0,69.45005438448382
9.248000000000001,0.9999999999999999,69.34456544401719
9.256,1.0,69.23905526753433
9.264,1.0,69.13352385751648
9.272,1.0,69.0279712165127
9.280000000000001,0.9999999999999999,68.92239734713989
9.288,1.0,68.81680225208285
9.296,0.9999999999999999,68.71118593409423
9.304,1.0,68.60554839599457
9.312000000000001,1.0,68.49988964067249
9.32,1.0,68.39420967108458
9.328,0.9999999999999998,68.28850849025548
9.336,0.9999999999999999,68.18278610127793
9.344,1.0,68.0770425073128
9.352,1.0,67.97127771158911
9.36,0.9999999999999999,67.86549171740413
9.368,1.0,67.75968452812332
9.376,1.0,67.65385614718046
9.384,1.0,67.54800657807758
9.392,1.0,67.44213582438519
9.4,0.9999999999999999,67.33624388974202
9.408,1.0,67.23033077785536
9.416,1.0,67.12439649250085
9.424,1.0,67.01844103752273
9.432,1.0,66.91246441683366
9.44,0.9999999999999999,66.80646663441497
9.448,0.9999999999999999,66.70044769431648
9.456,0.9999999999999999,66.59440760065674
9.464,0.9999999999999999,66.48834635762285
9.472,1.0000000000000002,66.38226396947076
9.48,1.0,66.276160440525
9.488,1.0,66.17003577517896
9.496,1.0,66.06388997789479
9.504,0.9999999999999998,65.95772305320352
9.512,0.9999999999999999,65.85153500570496
9.52,1.0,65.74532584006792
9.528,1.0,65.63909556103002
9.536,1.0,65.53284417339795
9.544,1.0,65.42657168204731
9.552,1.0,65.32027809192279
9.56,0.9999999999999999,65.2139634080381
9.568,1.0,65.10762763547602
9.576,1.0,65.00127077938846
9.584,0.9999999999999999,64.89489284499655
9.592,1.0,64.78849383759048
9.6,0.9999999999999999,64.6820737625297
9.608,1.0,64.57563262524293
9.616,0.9999999999999999,64.46917043122811
9.624,1.0,64.36268718605248
9.632,1.0,64.25618289535265
9.64,1.0,64.14965756483457
9.648,1.0,64.04311120027353
9.656,0.9999999999999999,63.93654380751428
9.664,1.0,63.829955392471035
9.672,1.0,63.72334596112741
9.68,0.9999999999999998,63.61671551953657
9.688,1.0,63.5100640738212
9.696,1.0,63.40339163017355
9.704,1.0,63.2966981948554
9.712,0.9999999999999999,63.189983774198254
9.72,1.0,63.08324837460309
9.728,0.9999999999999999,62.9764920025407
9.736,1.0,62.86971466455149
9.744,1.0,62.762916367245616
9.752,1.0,62.65609711730298
9.76,0.9999999999999999,62.54925692147323
9.768,0.9999999999999999,62.442395786575794
9.776,1.0,62.33551371950003
9.784,0.9999999999999999,62.22861072720502
9.792,1.0,62.121686816719816
9.8,0.9999999999999999,62.01474199514329
9.808,0.9999999999999999,61.90777626964435
9.816,1.0,61.80078964746173
9.824,0.9999999999999999,61.69378213590426
9.832,1.0,61.58675374235066
9.84,0.9999999999999999,61.479704474249814
9.847999999999999,1.0,61.372634339120545
9.856,1.0,61.265543344551794
9.864,1.0,61.15843149820259
9.872,0.9999999999999999,61.051298807802176
9.879999999999999,1.0,60.94414528114983
9.888,1.0,60.836970926115015
9.896,1.0,60.729775750637494
9.904,1.0,60.62255976272723
9.911999999999999,1.0,60.51532297046435
9.92,1.0,60.40806538199928
9.928,1.0,60.3007870055528
9.936,1.0,60.19348784941602
9.943999999999999,0.9999999999999998,60.086167921950334
9.952,1.0,59.97882723158749
9.96,0.9999999999999999,59.87146578682967
9.968,0.9999999999999999,59.76408359624953
9.975999999999999,0.9999999999999999,59.656680668490054
9.984,1.0,59.54925701226471
9.992,1.0,59.44181263635751
10.0,1.0,59.334347549622976
10.008,1.0,59.226861760986104
10.016,0.9999999999999999,59.11935527944243
10.024000000000001,1.0,59.01182811405815
10.032,1.0,58.90428027397003
10.04,1.0,58.796711768385464
10.048,1.0,58.68912260658245
10.056000000000001,0.9999999999999999,58.58151279790973
10.064,1.0,58.473882351786706
10.072,1.0,58.36623127770349
10.08,1.0,58.258559585220944
10.088000000000001,1.0,58.1508672839707
10.096,1.0,58.043154383655214
10.104,0.9999999999999999,57.9354208940477
10.112,1.0,57.82766682499219
10.120000000000001,1.0,57.71989218640366
10.128,1.0,57.61209698826795
10.136,0.9999999999999999,57.50428124064174
10.144,1.0,57.39644495365266
10.152000000000001,1.0,57.288588137499374
10.16,1.0,57.18071080245147
10.168,1.0,57.07281295884953
10.176,1.0,56.96489461710515
10.184000000000001,1.0,56.856955787701025
10.192,0.9999999999999999,56.74899648119095
10.2,0.9999999999999999,56.64101670819973
10.208,1.0,56.53301647942334
10.216000000000001,1.0,56.424995805628946
10.224,0.9999999999999999,56.316954697654865
10.232,1.0,56.2088931664106
10.24,1.0,56.100811222876885
10.248000000000001,0.9999999999999999,55.99270887810572
10.256,1.0,55.8845861432204
10.264,0.9999999999999999,55.77644302941555
10.272,1.0,55.66827954795702
10.280000000000001,1.0,55.560095710182125
10.288,1.0,55.451891527499576
10.296,1.0,55.34366701138943
10.304,1.0,55.23542217340319
10.312000000000001,1.0,55.12715702516392
10.32,1.0,55.01887157836613
10.328,0.9999999999999999,54.910565844775824
10.336,1.0,54.802239836230605
10.344000000000001,1.0,54.69389356463966
10.352,0.9999999999999998,54.58552704198382
10.36,1.0,54.47714028031554
10.368,0.9999999999999999,54.36873329175889
10.376000000000001,1.0,54.260306088509786
