freq,mag,phase
6.0,0.999543008104408,-66.54560177926572
6.002285056,0.9995324249902692,-66.65435214686113
6.004570112,0.9995521857527153,-66.76311935781109
6.006855168,0.9996008087329697,-66.87244084961554
6.009140224,0.9996753729814565,-66.98269152882509
6.01142528,0.9997708794869185,-67.09419393498926
6.013710336,0.9998816652209703,-67.20716657570452
6.015995392,1.0000002691803342,-67.32188641626465
6.018280448,1.0001189777660344,-67.43832712952121
6.020565504,1.0002308898783188,-67.55649632997844
6.02285056,1.0003284562687427,-67.67619035160556
6.025135616,1.0004052929196228,-67.79714139241133
6.027420672,1.000456847578561,-67.91909345636829
6.029705728,1.000479647141971,-68.04158876265079
6.031990784,1.0004721750512344,-68.16421237195394
6.03427584,1.0004351750905005,-68.28650207866488
6.036560896,1.000370360656111,-68.40815095210976
6.038845952,1.0002826075324929,-68.52861699746221
6.041131008,1.0001769773844575,-68.64775740792773
6.043416064,1.0000603489087765,-68.76523131383163
6.04570112,0.9999402487288371,-68.88105566705572
6.047986176,0.999824087402672,-68.99515702960221
6.050271232,0.9997193081311685,-69.1076440544565
6.052556288,0.9996328714744953,-69.21879396047595
6.054841344,0.999570178289713,-69.32883369182542
6.0571264,0.9995350706470105,-69.43817273460783
6.059411456,0.9995300557633766,-69.54725678747492
6.061696512,0.999555165208962,-69.65648026777984
6.063981568,0.9996092632477359,-69.76634828679259
6.066266624,0.999688446276075,-69.87712478698528
6.06855168,0.9997878630492444,-69.98928008038769
6.070836736,0.9999013718523674,-70.10300938084329
6.073121792,1.000021439058175,-70.21841405905647
6.075406848,1.0001405322030044,-70.33559128239925
6.077691904,1.0002513427804234,-70.45447565510172
6.07997696,1.0003461848339636,-70.57489111078597
6.082262016,1.0004195814150922,-70.69652764974724
6.084547072,1.0004665396312902,-70.81903273803334
6.086832128,1.0004842350744567,-70.9420751887156
6.089117184,1.000471338822113,-71.06514100477628
6.09140224,1.0004287666514253,-71.1878451286409
6.093687296,1.0003592031807171,-71.30969499960747
6.095972352,1.0002671332806612,-71.430466660808
6.098257408,1.0001580370391703,-71.54976801201332
6.100542464,1.0000395123992794,-71.66740355335945
6.10282752,0.9999184245493562,-71.78331884714088
6.105112576,0.999803014914313,-71.8975107843668
6.107397632,0.9997003615227184,-72.0101339610235
6.1096832,0.9996170263494697,-72.12143582086661
6.111968256,0.9995584259983807,-72.23169319329358
6.114253312,0.99952821212826,-72.34132527935029
6.116538368,0.9995285019720109,-72.45075501733218
6.118823424,0.9995593352055716,-72.560451971644
6.12110848,0.9996182629317788,-72.67078091065997
6.123393536,0.9997023793789225,-72.78218970933642
6.125678592,0.9998056026785703,-72.89497543729512
6.127963648,0.9999214869886758,-73.00932695723965
6.130248704,1.0000428890058248,-73.12551426646645
6.13253376,1.0001620374124343,-73.24340492061192
6.134818816,1.000271227055832,-73.3629856761371
6.137103872,1.0003635542708869,-73.4840684149258
6.139388928,1.0004331914627655,-73.60637508852605
6.141673984,1.0004754837403969,-73.72945370173122
6.14395904,1.0004879097989539,-73.85300856962805
6.146244096,1.0004696699709674,-73.97647967371616
6.148529152,1.0004217164422635,-74.09952370227447
6.150814208,1.0003472776769449,-74.22170140509554
6.153099264,1.0002509603304224,-74.34260551921186
6.15538432,1.0001388722720572,-74.46206550130182
6.157669376,1.0000182785187133,-74.5798164749285
6.159954432,0.9998968384785467,-74.69582324855928
6.162239488,0.9997820282048486,-74.81015035042616
6.164524544,0.9996816297142068,-74.92288822681913
6.1668096,0.9996017177161582,-75.03433447328518
6.169094656,0.9995473730295558,-75.14479493679485
6.171379712,0.9995223144457729,-75.25471826861472
6.173664768,0.9995281479855208,-75.36450141936712
6.175949824,0.9995642012304499,-75.47462072719469
6.17823488,0.9996285578835998,-75.58546024848805
6.180519936,0.9997168160008512,-75.69742224437557
6.182804992,0.9998235809584263,-75.81085583372828
6.185090048,0.9999421336170399,-75.92594906167032
6.187375104,1.0000645604604095,-76.04280683863917
6.18966016,1.0001835799526568,-76.16140921268807
6.191945216,1.0002910209484868,-76.28173257965932
6.194230272,1.0003805924684583,-76.40347175731527
6.196515328,1.0004461805688933,-76.52634549926086
6.198800384,1.000483704744239,-76.6499891358762
6.20108544,1.0004907257915532,-76.77401486059175
6.203370496,1.0004669963954307,-76.8979190073748
6.205655552,1.0004137629331082,-77.02124851763209
6.207940608,1.0003343553334012,-77.14368448641487
6.210225664,1.000233915140282,-77.2647910681859
6.21251072,1.0001191047133628,-77.38434934308034
6.214795776,0.9999968215424831,-77.50219451783236
6.217080832,0.9998750455843751,-77.61826838333468
6.219365888,0.9997614325972344,-77.73268936055679
6.221650944,0.9996632666391282,-77.84554663796658
6.223936,0.9995868306752451,-77.95711729987836
6.226221056,0.9995372731762996,-78.06779605427846
6.228506112,0.9995172808390418,-78.17801427597615
6.230791168,0.9995284210857751,-78.28815773639339
6.233076224,0.9995699300803589,-78.39869944152163
6.23536128,0.9996393461812866,-78.5100607003074
6.237646336,0.99973211540788,-78.62265282740447
6.239931392,0.9998423739015888,-78.73665299618393
6.242216448,0.9999629249234279,-78.85245958413671
6.244501504,1.0000864352666374,-78.96996040759335
6.24678656,1.0002048021990135,-79.0892896492024
6.249071616,1.0003106598737703,-79.21029774455722
6.251356672,1.0003968522251119,-79.33269548145499
6.253641728,1.0004583023628424,-79.45617925418017
6.255926784,1.0004909430201412,-79.5803274609737
6.25821184,1.0004925625843992,-79.70480315261997
6.260496896,1.0004633813590929,-79.8290576754566
6.262781952,1.0004047344909848,-79.95270258399934
6.265067008,1.000320724549364,-80.0753344648585
6.267352064,1.0002166662914143,-80.19660697836308
6.26963712,1.0000990784242778,-80.31627753815411
6.271922176,0.9999751318626983,-80.43417517250508
6.274207232,0.9998532770278311,-80.55036366274595
6.276492288,0.9997410341043433,-80.66481001645016
6.278777344,0.999645383049979,-80.77775314834335
6.2810624,0.9995727290676969,-80.88949605510172
6.283347456,0.9995276221492557,-81.00039276059594
6.285632512,0.9995129231463457,-81.1108576780019
6.287917568,0.999529537011094,-81.22135711393362
6.290202624,0.9995766571754944,-81.33232157043042
6.29248768,0.9996510954846476,-81.44421599544951
6.294772736,0.9997481373418885,-81.55732979601163
6.297057792,0.9998615282603882,-81.67200744133783
6.299342848,0.9999842463769034,-81.78844257055776
6.301627904,1.000108381909937,-81.90666836355432
6.30391296,1.0002260774509655,-82.02667898388408
6.306198016,1.000329707842708,-82.14832694367448
6.308483072,1.0004127190936951,-82.27133850380834
6.310768128,1.0004697606724118,-82.39540042982368
6.313053184,1.0004973753052293,-82.52009048551967
6.31533824,1.000493694777159,-82.6449214289757
6.317623296,1.0004587614140956,-82.76956854447951
6.319908352,1.0003951204368704,-82.89349994128108
6.322193408,1.0003065433258542,-83.01630104627095
6.324478976,1.0001986567647592,-83.13769987796503
6.326764032,1.000078418827101,-83.25745519661643
6.329049088,0.999953327807152,-83.37542394885322
6.331334144,0.9998315454917585,-83.49162925504778
6.3336192,0.9997207797462003,-83.60614159770559
6.335904256,0.9996281151722549,-83.7191717799499
6.338189312,0.9995593714159564,-83.83104283271491
6.340474368,0.9995189782675337,-83.94217102936115
6.342759424,0.9995095746808754,-84.05293275987223
6.34504448,0.99953176493873,-84.16376451451656
6.347329536,0.9995843280580583,-84.27518693107554
6.349614592,0.9996636108144903,-84.38753955737077
6.351899648,0.9997647755741066,-84.50121961005446
6.354184704,0.9998812336562269,-84.61656068620992
6.35646976,1.0000057989820936,-84.73363164341191
6.358754816,1.000130396503719,-84.8525453751984
6.361039872,1.000246972979441,-84.97322236315357
6.363324928,1.0003482605841758,-85.09549636363522
6.365609984,1.0004278655037684,-85.2191235827472
6.36789504,1.0004806470603378,-85.3437147153736
6.370180096,1.0005029644591057,-85.46888053135638
6.372465152,1.0004937586500695,-85.59413676778352
6.374750208,1.0004533244679688,-85.71909572274932
6.377035264,1.0003844215828779,-85.84321653024392
6.37932032,1.000291284348644,-85.9661965686515
6.381605376,1.0001799235193019,-86.08770632053178
6.383890432,1.0000573133103832,-86.20751994938821
6.386175488,0.9999313491348251,-86.32551759497372
6.388460544,0.999809880299886,-86.44176960885791
6.3907456,0.9997008368662381,-86.55633480447658
6.393030656,0.9996112506140032,-86.66945833479369
6.395315712,0.9995466022118698,-86.78147905801683
6.397600768,0.9995111771890527,-86.89272266662
6.399885824,0.9995071145863349,-87.00375651222717
6.40217088,0.9995349805139656,-87.11498791373492
6.404455936,0.9995927494607499,-87.22677911017011
6.406740992,0.9996769226704357,-87.33967947213462
6.409026048,0.9997821063031292,-87.45393627175847
6.411311104,0.9999014957269502,-87.56990059287689
6.41359616,1.0000275038643305,-87.68758758654789
6.415881216,1.000152399059231,-87.80715098785474
6.418166272,1.0002676821982202,-87.92849308137035
6.420451328,1.0003665086280962,-88.05142697852968
6.422736384,1.0004425268547144,-88.17558721769518
6.42502144,1.0004905305872662,-88.30071427060714
6.427306496,1.0005077667412192,-88.42632788440388
6.429591552,1.0004929562509712,-88.55195459699232
6.431876608,1.000447111779836,-88.67717062096504
6.434161664,1.0003729830803691,-88.80151293707029
6.43644672,1.0002755948010196,-88.92463626057209
6.438731776,1.0001607478515735,-89.04621592761187
6.441016832,1.0000360124573802,-89.16604910918194
6.443301888,0.9999091342478013,-89.28409195298369
6.445586944,0.9997882585458473,-89.40037286539268
6.447872,0.9996812977328848,-89.51492569040144
6.450157056,0.9995947608955402,-89.6281338471227
6.452442112,0.99953438782904,-89.74025205971765
6.454727168,0.9995039196469123,-89.85172391263556
6.457012224,0.9995055491354315,-89.96302886949908
6.45929728,0.9995389099057538,-90.07454148323848
6.461582336,0.999602087769399,-90.18681079642298
6.463867392,0.9996909626385027,-90.30019995834527
6.466152448,0.9997999690217737,-90.4150177820891
6.468437504,0.9999220372844536,-90.53157625740128
6.47072256,1.000049553861746,-90.64991355838097
6.473007616,1.000174271700947,-90.77012850738542
6.475292672,1.000288258726543,-90.89210106579843
6.477577728,1.000384371111968,-91.01561334379538
6.479862784,1.0004564688931787,-91.14034002660853
6.48214784,1.0004997931100008,-91.26595496358293
6.484432896,1.000511625505994,-91.39200252784758
6.486717952,1.000491184948107,-91.51798609148842
6.489003008,1.0004398815339683,-91.64341433294523
6.491288064,1.00036073857885,-91.76794170811318
6.49357312,1.0002590850946518,-91.89117406918812
6.495858176,1.0001409799446452,-92.01283314464867
6.498143232,1.0000143345336137,-92.13270415449209
6.500428288,0.9998868899044447,-92.25071021861304
6.502713344,0.9997669368825847,-92.36696529860573
6.5049984,0.9996621061230596,-92.48154918471671
6.507283456,0.9995790557726192,-92.5947999152551
6.509568512,0.9995231945015897,-92.70707016216699
6.511853568,0.9994978360065865,-92.81871450596374
6.514138624,0.9995049430343845,-92.9302557988717
6.51642368,0.9995439144519811,-93.04214152179489
6.518708736,0.9996123271558492,-93.15484686192067
6.520993792,0.9997057700351072,-93.26870338457184
6.523278848,0.9998185865209627,-93.38406417282572
6.525563904,0.9999431458187404,-93.50123247702928
6.52784896,1.0000717532612282,-93.62019854468645
6.530134016,1.0001963366081938,-93.7410423724003
6.532419072,1.0003086585385959,-93.86364433683974
6.534704128,1.0004018335614158,-93.98773560054363
6.536989184,1.0004696543683282,-94.11300318108383
6.53927424,1.000508256093701,-94.23904394092081
6.541559808,1.0005145141429674,-94.36547568487138
6.543844864,1.0004885630283595,-94.49176561311216
6.54612992,1.000431814120525,-94.61745458996879
6.548414976,1.0003476926070203,-94.74211806707993
6.550700032,1.0002417292709553,-94.86542127115345
6.552985088,1.0001207558112288,-94.98708815986082
6.555270144,0.9999922291909342,-95.10695821332357
6.5575552,0.999864459071342,-95.22496456482847
6.559840256,0.999745579890497,-95.34118989791014
6.562125312,0.9996432395610861,-95.45577168190503
6.564410368,0.9995637853143323,-95.56908742740823
6.566695424,0.9995123851090273,-95.68142247866679
6.56898048,0.9994923663912034,-95.7932834932707
6.571265536,0.9995051203754789,-95.90506013846272
6.573550592,0.9995496839589139,-96.01729859206124
6.575835648,0.9996233247688698,-96.13039259426382
6.578120704,0.9997212442408219,-96.24475620373273
6.58040576,0.999837498089318,-96.36067902029019
6.582690816,0.9999644003583495,-96.47839985630426
6.584975872,1.0000939353694223,-96.59797901997854
6.587260928,1.0002179116136074,-96.71944749882577
6.589545984,1.0003284160881427,-96.84259691329002
6.59183104,1.0004184625839525,-96.967248592462
6.594116096,1.0004822132729296,-97.09304899650384
6.596401152,1.0005154708429576,-97.21954437727044
6.598686208,1.0005164603218912,-97.34629592612083
6.600971264,1.0004847866330602,-97.47286829607786
6.60325632,1.0004224846287995,-97.59871120532226
6.605541376,1.000333630508129,-97.72351067655086
6.607826432,1.0002239019386958,-97.84688569299294
6.610111488,1.000100008832498,-97.96855281259823
6.612396544,0.9999699697081942,-98.08838044962313
6.6146816,0.99984213470276,-98.20634742188494
6.616966656,0.9997245380528326,-98.32254080201757
6.619251712,0.9996247229916676,-98.4371277420919
6.621536768,0.9995491016698541,-98.55045137703264
6.623821824,0.9995024914838959,-98.66291405964876
6.62610688,0.9994878543232983,-98.77494519796996
6.628391936,0.9995062581404631,-98.8869645518122
6.630676992,0.9995564891466273,-98.99954926621142
6.632962048,0.999635276627946,-99.11303093295341
6.635247104,0.9997377288695891,-99.22787819041253
6.63753216,0.9998571736825818,-99.34431765196807
6.639817216,0.9999861654010256,-99.46263324903136
6.642102272,1.0001164784126055,-99.5828119656825
6.644387328,1.0002399154489294,-99.7048739302194
6.646672384,1.00034829621601,-99.82858686100165
6.64895744,1.0004349114192965,-99.95379866974783
6.651242496,1.0004942067946143,-100.08003777532223
6.653527552,1.0005224083535604,-100.20694322995402
6.655812608,1.0005177933714415,-100.33401884486398
6.658097664,1.0004803902729527,-100.46082901786566
6.66038272,1.0004127809794852,-100.58683098150415
6.662667776,1.0003191502730473,-100.71173401057929
6.664952832,1.0002054879338536,-100.83510826329048
6.667237888,1.000078916196133,-100.95678466244962
6.669522944,0.9999475866382455,-101.07654291116296
6.671808,0.9998198513222513,-101.19443625725766
6.674093056,0.9997037662566054,-101.31058283149103
6.676378112,0.9996068454484187,-101.42516201069989
6.678663168,0.9995351905066879,-101.53852630258461
6.680948224,0.9994935618054902,-101.65104476056081
6.68323328,0.9994844052262575,-101.76323751041097
6.685518336,0.999508437072386,-101.87553103895678
6.687803392,0.9995641970070479,-101.98842233917175
6.690088448,0.9996480416577055,-102.10232823740616
6.692373504,0.9997547365979746,-102.21761751747056
6.69465856,0.999877399647483,-102.33463081187269
6.696943616,1.0000083258313688,-102.45350064685216
6.699228672,1.0001391717847197,-102.5742403212382
6.701513728,1.000261461245672,-102.69687858399543
6.703798784,1.0003675358376365,-102.82114466122766
6.70608384,1.0004505387752651,-102.94684401982805
6.708368896,1.0005054451184612,-103.07352022188104
6.710653952,1.0005283365885902,-103.20079767682297
6.712939008,1.000517891624823,-103.3281748827515
6.715224064,1.000474979073464,-103.45519543501882
6.71750912,1.0004020382804606,-103.58134102577195
6.719794176,1.0003037396963255,-103.70628884112075
6.722079232,1.0001862496676315,-103.82968722872536
6.724364288,1.0000571946747072,-103.95127483592204
6.726649344,0.9999248531431868,-104.07095772495309
6.7289344,0.9997974955948209,-104.18877783715445
6.731219456,0.9996831189261376,-104.30480642852052
6.733504512,0.999589310501414,-104.41935989238348
6.735789568,0.9995218683139206,-104.53272660578577
6.738074624,0.9994851490883943,-104.64538074350473
6.74035968,0.9994816384338939,-104.75769499219057
6.742644736,0.9995114204840054,-104.87024360613242
6.744929792,0.9995727595242067,-104.98343179009777
6.747214848,0.9996615190739598,-105.09773341872335
6.749499904,0.9997724110601032,-105.21351019281798
6.75178496,0.9998979743761965,-105.33103518827244
6.754070016,1.0000307136687667,-105.45044066482224
6.756355072,1.0001617445711626,-105.5717501719201
6.75864064,1.000282917321886,-105.69490008976152
6.760925696,1.0003863162712656,-105.81975433536945
6.763210752,1.0004657024735915,-105.94592432976378
6.765495808,1.0005157286565296,-106.07302886803876
6.767780864,1.0005333337358735,-106.20062586039379
6.77006592,1.0005171314876735,-106.32827593424578
6.772350976,1.0004684850174068,-106.45544828528091
6.774636032,1.0003903318753633,-106.58171478184174
6.776921088,1.0002875700547975,-106.70666415210803
6.779206144,1.0001665933777786,-106.830012265564
6.7814912,1.00003523731228,-106.95152769699932
6.783776256,0.9999020665115855,-107.07111693895156
6.786061312,0.9997752224590981,-107.18882542027305
6.788346368,0.9996629153182472,-107.30479746411923
6.790631424,0.9995722915300042,-107.41930607067579
6.79291648,0.9995092848414198,-107.53265464459986
6.795201536,0.9994777244929975,-107.64537692495215
6.797486592,0.9994797833420658,-107.75785210741688
6.799771648,0.9995153608892672,-107.87061274314507
6.802056704,0.9995821747651898,-107.98414708650888
6.80434176,0.9996759119995815,-108.09882896581054
6.806626816,0.99979068887264,-108.21508970327909
6.808911872,0.9999191862123631,-108.33308202689274
6.811196928,1.0000532431279534,-108.45298568986365
6.813481984,1.0001843940648796,-108.57487358724478
6.81576704,1.0003041872835,-108.69857767759974
6.818052096,1.0004049279564797,-108.8239064990725
6.820337152,1.0004802817571967,-108.95050470712972
6.822622208,1.0005253741828748,-109.07799956897526
6.824907264,1.0005374312844642,-109.20594011367434
6.82719232,1.0005155846834402,-109.3337974538109
6.829477376,1.0004612437873337,-109.4611184475524
6.831762432,1.0003776974286651,-109.58744735615399
6.834047488,1.0002704864385643,-109.7123839742928
6.836332544,1.0001462137983599,-109.8357032079555
6.8386176,1.0000129276307932,-109.95708932579409
6.840902656,0.9998789053260099,-110.07652390959834
6.843187712,0.9997528472656226,-110.1941393638743
6.845472768,0.9996429235490706,-110.30998835993813
6.847757824,0.9995557545341691,-110.42440841218489
6.85004288,0.9994972984338863,-110.53777144047721
6.852327936,0.9994710374265569,-110.6505563143713
6.854612992,0.9994789469439824,-110.7631760280249
6.856898048,0.999520246551232,-110.87616638664065
6.859183104,0.9995924959873956,-110.99000458412016
6.86146816,0.9996910903489927,-111.10504593596265
6.863753216,0.9998097334330226,-111.22173949192333
6.866038272,0.9999408759370809,-111.34024006562785
6.868323328,1.0000762215734278,-111.46068656369586
6.870608384,1.000207053643379,-111.58308314633531
6.87289344,1.0003251068072263,-111.70729032027754
6.875178496,1.000422926956534,-111.83307116080671
6.877463552,1.0004942176026925,-111.96011560894036
6.879748608,1.0005342067228513,-112.08798485046277
6.882033664,1.000540702705751,-112.21618084609244
6.88431872,1.000513038078906,-112.34425951056724
6.886603776,1.0004530942952001,-112.47164853178982
6.888888832,1.0003643854062425,-112.59802917108566
6.891173888,1.0002528346658481,-112.7229661235251
6.893458944,1.000125419069029,-112.84612894388265
6.895744,0.9999901689948555,-112.96738474086105
6.898029056,0.9998557280970909,-113.0867073389286
6.900314112,0.9997309234524357,-113.20413430040155
6.902599168,0.9996231725547143,-113.31986433837022
6.904884224,0.9995398840764355,-113.4341907306648
6.90716928,0.9994860313881377,-113.54757362521828
6.909454336,0.9994652564577464,-113.66039058948758
6.911739392,0.9994788908991811,-113.77317630389354
6.914024448,0.9995259823452224,-113.88637897547628
6.916309504,0.9996036747138072,-114.00048793413525
