freq,mag,phase
6.0,0.9994325089600125,-40.35926629177631
6.010854912,0.9995533685326684,-40.794672690738906
6.021709824,0.9996970358854285,-41.23194234326703
6.032564224,0.9998555665253023,-41.6714178450828
6.043419136,1.0000217712478756,-42.113201275776916
6.054274048,1.0001867797123134,-42.55731431803171
6.06512896,1.0003428697225343,-43.003739491816845
6.075983872,1.0004822142447658,-43.45223486873135
6.086838784,1.0005981026777253,-43.902618581761644
6.097693184,1.0006845559561077,-44.35454152094471
6.108548096,1.0007373834586422,-44.80751971805865
6.119403008,1.0007540653148583,-45.26122688281899
6.13025792,1.0007337011676654,-45.71516206978975
6.141112832,1.0006773235417505,-46.16880686774522
6.151967232,1.0005872990000233,-46.62180012087808
6.162822144,1.0004685873098194,-47.07361810121888
6.173677056,1.0003262062626717,-47.5240890593791
6.184531968,1.0001678465555517,-47.972793540514395
6.19538688,1.0000009703125485,-48.419713441626975
6.20624128,0.9998336595015055,-48.86467608181441
6.217096192,0.999674509661004,-49.307830103819406
6.227951104,0.9995310230887345,-49.74922905002483
6.238806016,0.9994104420768992,-50.189183528447096
6.249660928,0.9993185673883178,-50.62803900964241
6.26051584,0.9992602074630191,-51.06613287091432
6.27137024,0.9992379077995185,-51.50394851790349
6.282225152,0.9992532738202113,-51.94193659661057
6.293080064,0.9993053180900991,-52.380565854746074
6.303934976,0.9993915600054532,-52.820320377535836
6.314789888,0.9995077471365056,-53.261605313592725
6.325644288,0.9996483862723757,-53.704745923678736
6.3364992,0.9998064689518639,-54.15004893646328
6.347354112,0.9999741373138765,-54.59764532854767
6.358209024,1.0001432420471899,-55.04761579028697
6.369063936,1.0003055188162173,-55.4999918818217
6.379918336,1.0004530048220999,-55.95452291278881
6.390773248,1.0005782290857432,-56.41105527083621
6.40162816,1.0006751822214228,-56.869239144690304
6.412483072,1.0007391967046755,-57.32865588092238
6.423337984,1.0007667814845116,-57.788972001485774
6.434192896,1.000756730518878,-58.24959220246355
6.445047296,1.0007096480240318,-58.71007505227127
6.455902208,1.0006273855879813,-59.17000600807886
6.46675712,1.000514313247511,-59.62890555443656
6.477612032,1.0003756978465337,-60.086434874756016
6.488466944,1.0002183850349033,-60.54234166345838
6.499321344,1.000050058407937,-60.99639174351939
6.510176256,0.9998789560503039,-61.4485132254299
6.521031168,0.9997136102136275,-61.89871988860269
6.53188608,0.9995619497238643,-62.347157020362964
6.542740992,0.9994315973019723,-62.79395336494494
6.553595904,0.9993290562643569,-63.23955654478418
6.564450304,0.9992592274881047,-63.68425450408295
6.575305216,0.9992257473747749,-64.12851066422851
6.586160128,0.9992301235953588,-64.57285481115578
6.59701504,0.999272370462786,-65.01766987901158
6.607869952,0.9993503860551164,-65.46353297577005
6.618724352,0.9994604539500832,-65.91077100761781
6.629579264,0.9995969715795133,-66.3599040840321
6.640434176,0.9997536218735842,-66.81105095752588
6.651289088,0.9999224158342093,-67.2645723419986
6.662144,1.000095112965826,-67.72051185103683
6.6729984,1.0002634059303117,-68.17881446374909
6.683853312,1.0004188648438848,-68.63946488657587
6.694708224,1.0005540689717063,-69.10221629671196
6.705563136,1.0006619733966722,-69.56669865919994
6.716418048,1.000737536942616,-70.03264611333606
6.72727296,1.0007770812795678,-70.49954642660765
6.73812736,1.0007783775896795,-70.96698044093118
6.748982272,1.0007414992683958,-71.4344083830215
6.759837184,1.0006680780146338,-71.90138872103883
6.770692096,1.000561716389882,-72.36743339200444
6.781547008,1.00042754503455,-72.83220626050135
6.792401408,1.0002721543901423,-73.2953753431767
6.80325632,1.000103052366327,-73.75671739079718
6.814111232,0.9999286232884437,-74.21610304589535
6.824966144,0.9997573601849878,-74.6735153418832
6.835821056,0.9995976305230128,-75.12905183201897
6.846675968,0.9994574253377374,-75.5828901625315
6.857530368,0.9993436292674859,-76.03535801012642
6.86838528,0.999261777400814,-76.48680006026329
6.879240192,0.999215960652697,-76.93763855976742
6.890095104,0.9992086530295544,-77.38834138189763
6.900950016,0.9992400516776733,-77.83949675216996
6.911804416,0.9993088369595297,-78.29148007792044
6.922659328,0.9994114745349402,-78.74477452275652
6.93351424,0.9995431698782258,-79.19982134063088
6.944369152,0.9996973582954969,-79.65692682292551
6.955224064,0.9998665626643533,-80.11633175163203
6.966078464,1.0000426168646084,-80.57816193223975
6.976933376,1.000216518416877,-81.04249707090712
6.987788288,1.0003801305997935,-81.50921449673065
6.9986432,1.000525168263058,-81.97811852422952
7.009498112,1.000644718510174,-82.44895983717963
7.020353024,1.0007326165859038,-82.92133876926954
7.031207424,1.000784711819223,-83.39491059618061
7.042062336,1.0007983367790039,-83.86910582562126
7.052917248,1.0007728751497815,-84.34346315322695
7.06377216,1.0007092400743174,-84.81750953875876
7.074627072,1.000610765196948,-85.29075389799057
7.085481472,1.0004820682598687,-85.7628108741275
7.096336384,1.0003294050871006,-86.23331461661245
7.107191296,1.0001603378502868,-86.7019662822335
7.118046208,0.9999830324954466,-87.16871587808994
7.12890112,0.9998062419786852,-87.63337651462656
7.13975552,0.9996385710227398,-88.0961177016119
7.150610432,0.9994882080859372,-88.55703306584314
7.161465344,0.9993627406177209,-89.01639825559124
7.172320256,0.9992682832852157,-89.47461153283982
7.183175168,0.9992094501649261,-89.93209158471421
7.19403008,0.9991891894016914,-90.38925035553882
7.20488448,0.9992086477194766,-90.84667373662096
7.215739392,0.9992668585397194,-91.3047806763689
7.226594304,0.9993611845971719,-91.76408838060955
7.237449216,0.9994867474907404,-92.22506351036135
7.248304128,0.9996377370865097,-92.68801982876779
7.259158528,0.9998064475676038,-93.15322431345042
7.27001344,0.9999850734692823,-93.62093709076754
7.280868352,1.000164402301798,-94.09108913890877
7.291723264,1.0003359206235976,-94.56376835485348
7.302578176,1.0004912447145233,-95.03874011789823
7.313433088,1.0006224292787071,-95.51580840374899
7.324287488,1.0007234449951339,-95.99456359061993
7.3351424,1.0007890762950398,-96.47463087771999
7.345997312,1.0008159073801077,-96.95553017225166
7.356852224,1.0008027488033366,-97.43676310660797
7.367707136,1.000750385919568,-97.91780988767614
7.378561536,1.0006609333196577,-98.39818406141038
7.389416448,1.0005388682345817,-98.87742233902287
7.40027136,1.0003901224364202,-99.35523900692391
7.411126272,1.000221899985449,-99.83123769424895
7.421981184,1.0000425203759264,-100.30524476560106
7.432835584,0.9998605938609681,-100.77719057593798
7.443690496,0.999685003468322,-101.24711525919211
7.454545408,0.9995245401678798,-101.71507768024665
7.46540032,0.9993870390337725,-102.18137479759967
7.476255232,0.9992792547103932,-102.64632735988968
7.487110144,0.9992065112032511,-103.11034200927068
7.497964544,0.9991723797954063,-103.5739104674323
7.508819456,0.99917879964603,-104.03750017559857
7.519674368,0.9992253100789847,-104.50167795332892
7.53052928,0.9993097810965983,-104.9668994968277
7.541384192,0.9994282552958555,-105.43363798798595
7.552238592,0.9995747376747305,-105.90226873645527
7.563093504,0.9997421305360917,-106.37314909106469
7.573948416,0.9999223702498512,-106.84648493264535
7.584803328,1.0001066460999495,-107.32235979985614
7.59565824,1.0002858511912944,-107.80080066454606
7.60651264,1.0004512113654869,-108.28163500043382
7.617367552,1.0005947242297986,-108.76466454647426
7.628222464,1.0007092259093266,-109.24958573312152
7.639077376,1.0007890087259819,-109.73597867726592
7.649932288,1.0008303335110003,-110.22337797560695
7.6607872,1.0008309658089596,-110.7112420266764
7.6716416,1.0007907427223226,-111.19914536381161
7.682496512,1.0007116882593903,-111.68650051418675
7.693351424,1.000597639955639,-112.17286023909992
7.704206336,1.0004539021940568,-112.6577883873195
7.715061248,1.000287608819378,-113.14098101596001
7.725915648,1.0001069183984006,-113.62220248212918
7.73677056,0.9999204361304489,-114.10129355762457
7.747625472,0.9997374988049318,-114.5782885395054
7.758480384,0.9995668468977706,-115.05320056094433
7.769335296,0.9994170643444532,-115.52629114745812
7.780190208,0.9992954238536923,-115.99787448928276
7.791044608,0.9992080092335169,-116.46832234234608
7.80189952,0.9991590080786756,-116.93813305576711
7.812754432,0.9991511033705364,-117.40779834953825
7.823609344,0.9991846808719516,-117.87783098639746
7.834464256,0.999258092285391,-118.3487316335918
7.845318656,0.9993678742858118,-118.82103154299915
7.856173568,0.9995085864418295,-119.29513841420093
7.86702848,0.9996736399874885,-119.77141963438672
7.877883392,0.9998547552161049,-120.25009398591159
7.888738304,1.000043159502364,-120.731382370288
7.899592704,1.000229724204903,-121.21525899381425
7.910447616,1.0004051235260725,-121.7016733810731
7.921302528,1.0005609779615052,-122.1903819385963
7.93215744,1.00068949771395,-122.68118056556288
7.943012352,1.0007844484392856,-123.17357424882559
7.953867264,1.0008410871574946,-123.66714428891721
7.964721664,1.000856562638985,-124.16145216790879
7.975576576,1.0008300965134096,-124.65587711389891
7.986431488,1.000762838564181,-125.14993613292172
7.9972864,1.0006580406619157,-125.64312025915149
8.008141312,1.0005206566580607,-126.13499776448917
8.018995712,1.0003576226211033,-126.62515766112307
8.029850624,1.0001764840074456,-127.11337624128706
8.040705536,0.9999862489252968,-127.59941618028871
8.051560448,0.9997962183135137,-128.08325326767135
8.06241536,0.9996157167646684,-128.56495152147414
8.07326976,0.9994534007067922,-129.04466367377185
8.084124672,0.9993175627024453,-129.52267074694365
8.094979584,0.9992146311238095,-129.99932181731725
8.105834496,0.9991498794187453,-130.47514593427107
8.116689408,0.9991264125491428,-130.95058629260126
8.12754432,0.9991455865195465,-131.42618651938037
8.13839872,0.999206394174756,-131.90252017444965
8.149253632,0.9993061539929515,-132.38005070347617
8.160108544,0.9994398252088555,-132.85928917636278
8.170963456,0.9996011138392454,-133.3406013026979
8.181818368,0.9997819974804187,-133.82429747615257
8.192672768,0.9999738406706088,-134.31054398300924
8.20352768,1.0001670662883986,-134.7994881593262
8.214382592,1.000352380491171,-135.29102897731133
8.225237504,1.0005206744602206,-135.78503658137765
8.236092416,1.0006637020841898,-136.2812207694298
8.246947328,1.0007743930499842,-136.77924657453266
8.257801728,1.0008474267232963,-137.27864772134598
8.26865664,1.000878953077588,-137.77891913796012
8.279511552,1.0008675267142038,-138.27951202820267
8.290366464,1.0008135462343466,-138.77992354592226
8.301221376,1.0007195504896869,-139.27956941062791
8.312075776,1.0005900849396945,-139.7780470934709
8.322930688,1.0004313708214885,-140.27486371137937
8.3337856,1.0002511013347162,-140.76975981915427
8.344640512,1.0000580534399246,-141.26245167265003
8.355495424,0.9998615684501737,-141.7528751192513
8.366349824,0.9996714570905625,-142.24102559080092
8.377204736,0.9994966836133748,-142.7270263273297
8.388059648,0.9993461237002211,-143.21115459267656
8.39891456,0.9992270727279644,-143.69376587506963
8.409769472,0.9991454179827801,-144.17523087329914
8.420624384,0.9991052689125925,-144.65611204257556
8.431478784,0.9991086094606559,-145.13696925449148
8.442333696,0.9991554594503987,-145.61830926874532
8.453188608,0.9992435664234287,-146.1006996107742
8.46404352,0.9993686346583887,-146.58458456527902
8.474898432,0.9995248489850492,-147.07051272828335
8.485752832,0.9997042626204659,-147.5587190532186
8.496607744,0.9998983577000807,-148.04952102305816
8.507462656,1.000097744658573,-148.54298747490702
8.518317568,1.0002924924762915,-149.0391704455722
8.52917248,1.000473296949726,-149.53791717792822
8.540027392,1.0006311291591494,-150.03902440764176
8.550881792,1.0007582724913802,-150.54212787639818
8.561736704,1.0008485601185004,-151.04679470412782
8.572591616,1.0008974243972797,-151.55255761564644
8.583446528,1.0009024041621157,-152.05885932059795
8.594300928,1.000863282254647,-152.56514907870155
8.605156352,1.0007816234847846,-153.07085327432623
8.616010752,1.000661573106743,-153.57544489278808
8.626866176,1.0005088262110782,-154.07849201420325
8.637720576,1.000330672243802,-154.579633624587
8.648574976,1.0001358848989887,-155.0785801835358
8.6594304,0.9999338697855171,-155.57520039417895
8.6702848,0.9997344407427882,-156.0694304152982
8.681140224,0.9995473907833764,-156.56136331292348
8.691994624,0.9993818402898238,-157.05122313216353
8.702849024,0.9992460275440458,-157.53932986550845
8.713704448,0.9991465440251676,-158.02610273083215
8.724558848,0.9990885534355828,-158.5120345721596
8.735414272,0.9990746484735336,-158.9976269891185
8.746268672,0.9991059330352433,-159.48353474227648
8.757123072,0.999180782201196,-159.97027371400728
8.767978496,0.9992956503477178,-160.45835695371838
8.778832896,0.999445036949749,-160.94832602688479
8.78968832,0.9996217258824601,-161.4404935482869
8.80054272,0.9998170692364015,-161.9352314363101
8.81139712,1.0000215842927744,-162.4326480962618
8.822252544,1.0002253750376195,-162.93287018436956
8.833106944,1.0004183505575983,-163.43575197331543
8.843962368,1.0005912110904374,-163.94114320548664
8.854816768,1.0007353995366466,-164.4487290404275
8.865671168,1.0008438184217796,-164.95809627205074
8.876526592,1.0009111474683121,-165.46873547734376
8.887380992,1.0009340096508124,-165.98011969918028
8.898236416,1.0009112439283288,-166.4917020537287
8.909090816,1.0008437078064911,-167.0028624092861
8.919945216,1.0007347644527436,-167.51309192217477
8.93080064,1.000589541569964,-168.02188079648406
8.94165504,1.000414958376034,-168.52877532444768
8.952510464,1.0002195777200855,-169.03352112957467
8.963364864,1.000012827829667,-169.5358613993642
8.974220288,0.9998047883096615,-170.0356659646575
8.985074688,0.9996055850122649,-170.5330702172907
8.995929088,0.999425029750211,-171.02822199265873
9.006784512,0.9992719668051047,-171.52137802307752
9.017638912,0.9991539684878954,-172.0129440559692
9.028494336,0.999076712126491,-172.50338134258692
9.039348736,0.9990443196579931,-172.9932704389599
9.050203136,0.9990583852606745,-173.48318693385485
9.06105856,0.9991181906429414,-173.97372073849027
9.07191296,0.9992211267548575,-174.4654172352713
9.082768384,0.9993621595778643,-174.95879764108955
9.093622784,0.9995344634351303,-175.45432753530497
9.104477184,0.999729740320239,-175.95232257802465
9.115332608,0.9999384319835349,-176.4530365049732
9.126187008,1.0001505036672662,-176.95660173341395
9.137042432,1.0003553061300834,-177.46292793003633
9.147896832,1.0005434184529518,-177.97190622978206
9.158751232,1.0007050169158929,-178.48327098049197
9.169606656,1.0008324774503623,-178.996628008843
9.180461056,1.0009194850640968,-179.51147530658073
9.19131648,1.000961417435375,179.97268785155822
9.20217088,1.0009567500501473,179.45647656349956
9.21302528,1.0009049956997507,178.94043560024997
9.223880704,1.0008089353119602,178.42522681436745
9.234735104,1.000672939083043,177.91132034768043
9.245590528,1.0005035521472752,177.39920753162613
9.256444928,1.0003089730619963,176.88925327026203
9.267300352,1.0000986395519322,176.3817392923323
9.278154752,0.9998827637122051,175.8768202203866
9.289009152,0.9996718632656493,175.3744674796129
9.299864576,0.999476221279893,174.87460430018047
9.310718976,0.9993054674173547,174.37692126225835
9.3215744,0.9991679465929996,173.8810853839157
9.3324288,0.9990706289692293,173.38667389314034
9.3432832,0.999018176864756,172.8930526947869
9.354138624,0.9990133232641749,172.39974287949448
9.364993024,0.99905648185564,171.90601723383895
9.375848448,0.9991456642256678,171.4113640211067
9.386702848,0.999276512447752,170.91521676448127
9.397557248,0.9994428249586186,170.41703042228923
9.408412672,0.9996365980255711,169.9164531287826
9.419267072,0.9998482625569635,169.41318440393707
9.430122496,1.0000677267208697,168.90702639215664
9.440976896,1.0002841582408966,168.39800406535943
9.451831296,1.0004871378840179,167.88616949651288
9.46268672,1.000666594434042,167.37178312804562
9.47354112,1.000813836450074,166.85521381858177
9.484396544,1.000921510834172,166.33685710743177
9.495250944,1.0009843501941331,165.81733846650357
9.506105344,1.0009990867841154,165.29715997297063
9.516960768,1.0009650713819827,164.77698500619434
9.527815168,1.0008836724674457,164.25741396241884
9.538670592,1.0007586205898502,163.7390299348899
9.549524992,1.0005961649499722,163.2223197831072
9.560380416,1.000404032359918,162.7077613243985
9.571234816,1.000191393196339,162.19566886901657
9.582089216,0.9999684907055386,161.6862306208925
9.59294464,0.9997464581644929,161.179496649508
9.60379904,0.9995359618998003,160.67542550355208
9.614654464,0.999347190523724,160.17380636280654
9.625508864,0.9991895694982139,159.67430312780644
9.636363264,0.9990708918056669,159.1764638551077
9.647218688,0.9989971385998145,158.67974695159361
9.658073088,0.9989718421636897,158.18360876528033
9.668928512,0.99899636688945,157.68735967655567
9.679782912,0.9990699056185274,157.19043023270436
9.690637312,0.9991887402581169,156.69216702291166
9.701492736,0.9993473716527953,156.19205952204888
9.712347136,0.9995379421029346,155.68965363898346
9.72320256,0.9997513074408282,155.1845617344745
9.73405696,0.9999772072288146,154.67659144593236
9.74491136,1.0002047278407193,154.16564539063737
9.755766784,1.000422437601349,153.65175548509882
9.766621184,1.0006200317439993,153.13513190933935
9.777476608,1.000787612287104,152.6160948456681
9.788331008,1.0009170678880723,152.09504683401863
9.799185408,1.0010019009039677,151.5725521516595
9.810040832,1.001038012503929,151.0491893048641
9.820895232,1.0010234016920452,150.52555868533037
9.831750656,1.00095850852633,150.00233441251964
9.842605056,1.0008466027840726,149.48012038268342
9.85346048,1.0006927974569162,148.95949822817997
9.86431488,1.0005045814270708,148.44092659106204
9.87516928,1.0002909864167997,147.9248591737391
9.886024704,1.000062294835731,147.41147846485245
9.896879104,0.9998296596550117,146.90093325141495
9.907734528,0.9996043945368058,146.393250722153
9.918588928,0.9993974442927284,145.8882500421707
9.929443328,0.9992192535075115,145.38560799602442
9.940298752,0.9990781550258929,144.88495058643764
9.951153152,0.9989815673124423,144.38574333127139
9.962008576,0.9989341153003204,143.8873825157917
9.972862976,0.9989383730933118,143.38927260151067
9.983717376,0.9989940715491669,142.8906880903592
9.9945728,0.9990989633012483,142.39102878201635
10.0054272,0.9992478274138766,141.88970876895135
10.016282624,0.999433661437461,141.38617747271456
10.027137024,0.9996474049269236,140.88003522394314
10.037991424,0.9998785918011682,140.37100624548148
10.048846848,1.0001162898971343,139.85892204517293
10.059701248,1.0003485644591192,139.34376505699902
10.070556672,1.000564365002235,138.82568907996597
10.081411072,1.0007529891340248,138.3049690864756
10.092265472,1.0009052458873207,137.78200796555072
10.103120896,1.0010134864319338,137.2573062986138
10.113975296,1.001072476828896,136.73145294068755
10.12483072,1.0010790447204696,136.20507914919307
10.13568512,1.0010329286967534,135.67889071060318
10.14653952,1.0009359065665915,135.1535246223697
10.157394944,1.0007928589537451,134.62958471788852
10.168249344,1.000610279296662,134.1076588936548
10.179104768,1.0003972176444202,133.5881369537373
10.189959168,1.000163778596388,133.07140038674896
10.200814592,0.9999213848112299,132.55760831451784
10.211668992,0.9996817730539282,132.0468495739825
10.222523392,0.999456549442885,131.5389865474576
10.233378816,0.9992569252820467,131.03378094643878
10.244233216,0.9990925751993927,130.53083107121424
10.25508864,0.998971807156424,130.02968171448015
10.26594304,0.9989005262922106,129.52970757096455
10.27679744,0.998882509663108,129.0302852639249
10.287652864,0.9989186851526808,128.53070282078536
10.298507264,0.9990074807127761,128.03030051093165
10.309362688,0.9991448273991924,127.5284280950795
10.320217088,0.999323965330984,127.0244807252343
10.331071488,0.9995364351327318,126.51800557135236
