freq,mag,phase
6.0,0.9999988084341686,-158.04260248411794
6.008,0.9999993420143114,-158.35291225668811
6.016,0.9999998533356358,-158.6628473658331
6.024,0.9999999999999999,-158.97241294900968
6.032,1.0,-159.28161413653928
6.04,1.0,-159.59045605166233
6.048,1.0,-159.89894381059625
6.056,0.9999999999999999,-160.20708252259502
6.064,0.9999999999999999,-160.51487729001227
6.072,0.9999999999999999,-160.8223332083663
6.08,1.0,-161.12945536640768
6.088,1.0,-161.43624884618953
6.096,1.0,-161.74271872314003
6.104,0.9999999999999999,-162.0488700661371
6.112,1.0,-162.35470793758577
6.12,1.0,-162.66023739349743
6.128,0.9999999999999999,-162.96546348357137
6.136,0.9999999999999999,-163.2703912512788
6.144,1.0,-163.57502573394837
6.152,0.9999999999999999,-163.87937196285455
6.16,0.9999999999999999,-164.1834349633073
6.168,0.9999999999999999,-164.48721975474422
6.176,0.9999999999999999,-164.7907313508243
6.184,0.9999999999999999,-165.0939747595243
6.192,1.0,-165.3969549832359
6.2,0.9999999999999999,-165.69967701886566
6.208,0.9999999999999999,-166.00214585793626
6.216,1.0,-166.30436648669007
6.224,1.0,-166.60634388619346
6.232,1.0,-166.9080830324438
6.24,1.0,-167.2095888964778
6.248,1.0,-167.51086644448114
6.256,1.0,-167.81192063790044
6.264,1.0,-168.11275643355586
6.272,1.0,-168.41337878375612
6.28,1.0,-168.71379263641444
6.288,1.0,-169.01400293516633
6.296,0.9999999999999999,-169.31401461948846
6.304,1.0,-169.61383262481942
6.312,1.0,-169.9134618826813
6.32,0.9999999999999999,-170.21290732080323
6.328,1.0,-170.5121738632458
6.336,1.0,-170.8112664305269
6.344,1.0,-171.11018993974918
6.352,1.0,-171.40894930472814
6.36,1.0,-171.707549436122
6.368,1.0,-172.00599524156246
6.376,1.0,-172.30429162578693
6.384,1.0,-172.6024434907715
6.392,0.9999999999999999,-172.90045573586534
6.4,1.0,-173.19833325792635
6.408,0.9999999999999999,-173.49608095145746
6.416,1.0,-173.7937037087443
6.424,1.0,-174.09120641999385
6.432,0.9999999999999998,-174.3885939734742
6.44,1.0,-174.68587125565494
6.448,1.0,-174.98304315134914
6.456,0.9999999999999999,-175.28011454385563
6.464,0.9999999999999999,-175.57709031510277
6.472,0.9999999999999999,-175.87397534579276
6.48,1.0,-176.17077451554707
6.4879999999999995,1.0,-176.46749270305244
6.496,1.0,-176.76413478620847
6.504,1.0,-177.06070564227485
6.5120000000000005,1.0,-177.35721014802064
6.52,0.9999999999999999,-177.6536531798735
6.5280000000000005,0.9999999999999998,-177.9500396140703
6.536,0.9999999999999999,-178.24637432680782
6.5440000000000005,1.0,-178.54266219439506
6.552,0.9999999999999999,-178.8389080934053
6.5600000000000005,0.9999999999999998,-179.13511690082987
6.568,1.0000000000000002,-179.43129349423165
6.5760000000000005,1.0,-179.72744275190036
6.584,0.9999999999999999,179.976430446993
6.592,0.9999999999999999,179.6803212222392
6.6,0.9999999999999999,179.3842246924349
6.608,1.0,179.0881359748252
6.616,0.9999999999999998,178.79205018514574
6.624,0.9999999999999998,178.49596243746436
6.632,1.0,178.19986784402226
6.64,1.0,177.9037615150743
6.648,0.9999999999999999,177.60763855872912
6.656,1.0,177.31149408078844
6.664,0.9999999999999999,177.015323184586
6.672,1.0,176.71912097082622
6.68,1.0,176.42288253742183
6.688,0.9999999999999999,176.1266029793316
6.696,1.0,175.83027738839738
6.704,1.0,175.5339008531807
6.712,0.9999999999999999,175.23746845879901
6.72,0.9999999999999999,174.94097528676153
6.728,1.0,174.64441641480468
6.736,1.0,174.34778691672716
6.744,0.9999999999999999,174.05108186222475
6.752,1.0,173.75429631672463
6.76,1.0,173.45742534121953
6.768,1.0,173.16046399210137
6.776,0.9999999999999999,172.86340732099495
6.784,0.9999999534873552,172.56625037459102
6.792,0.9999998050517972,172.26898819447922
6.8,0.9999996577406571,171.97161581698103
6.808,0.9999995116103901,171.67412827298185
6.816,0.9999993667153992,171.37652058776365
6.824,0.9999992231080638,171.07878778083696
6.832,0.9999990808387795,170.78092486577273
6.84,0.9999989399559889,170.482926850034
6.848,0.9999988005062137,170.18478873480774
6.856,0.9999986625340901,169.8865055148362
6.864,0.9999985260824004,169.5880721782483
6.872,0.9999983911921023,169.28948370639088
6.88,0.9999982579023634,168.99073507366
6.888,0.999998126250592,168.6918212473321
6.896,0.999997996272466,168.39273718739497
6.904,0.9999978680019642,168.09347784637907
6.912,0.9999977414713964,167.79403816918852
6.92,0.9999976167114326,167.49441309293218
6.928,0.9999974937511328,167.19459754675495
6.936,0.9999973726179744,166.8945864516689
6.944,0.9999972533378811,166.59437472038454
6.952,0.9999971359352519,166.2939572571423
6.96,0.9999970204329879,165.99332895754404
6.968,0.9999969068525205,165.69248470838463
6.976,0.9999967952138358,165.39141938748392
6.984,0.9999966855355035,165.0901278635186
6.992,0.9999965778347047,164.78860499585448
7.0,0.9999964721272536,164.48684563437894
7.008,0.9999963684276265,164.1848446193336
7.016,0.9999962667489859,163.88259678114738
7.024,0.9999961671032048,163.58009694026958
7.032,0.9999960695008941,163.27733990700384
7.04,0.9999959739514235,162.9743204813415
7.048,0.9999958804629451,162.67103345279665
7.056,0.999995789042425,162.3674736002402
7.064,0.999995699695653,162.06363569173547
7.072,0.9999956124272815,161.7595144843737
7.08,0.9999955272408336,161.4551047241101
7.088,0.9999954441387362,161.15040114560037
7.096,0.9999953631223374,160.84539847203797
7.104,0.9999952841919312,160.540091414992
7.112,0.9999952073467752,160.23447467424523
7.12,0.9999951325851161,159.92854293763327
7.128,0.9999950599042093,159.62229088088404
7.136,0.9999949893003397,159.31571316745834
7.144,0.9999949207688431,159.00880444839075
7.152,0.9999948543041242,158.7015593621313
7.16,0.9999947898996813,158.39397253438847
7.168,0.999994727548121,158.08603857797235
7.176,0.9999946672411827,157.7777520926392
7.184,0.9999946089697549,157.46910766493644
7.192,0.9999945527238953,157.16009986804906
7.2,0.9999944984928486,156.8507232616467
7.208,0.9999944462650705,156.540972391732
7.216,0.9999943960282368,156.2308417904897
7.224,0.9999943477692701,155.92032597613706
7.232,0.9999943014743546,155.60941945277554
7.24,0.9999942571289546,155.29811671024333
7.248,0.9999942147178305,154.98641222396958
7.256,0.9999941742250577,154.67430045482948
7.264,0.9999941356340452,154.36177584900085
7.272,0.9999940989275494,154.0488328378221
7.28,0.9999940640876943,153.73546583765201
7.288,0.9999940310959845,153.42166924972997
7.296,0.9999939999333248,153.10743746003897
7.304,0.9999939705800365,152.79276483916937
7.312,0.9999939430158676,152.47764574218434
7.32,0.9999939172200222,152.16207450848773
7.328,0.999993893171158,151.8460454616925
7.336,0.9999938708474168,151.52955290949205
7.344,0.9999938502264323,151.21259114353282
7.352,0.9999938312853494,150.89515443928894
7.36,0.9999938140008342,150.57723705593892
7.368,0.9999937983490964,150.25883323624424
7.376,0.9999937843058927,149.9399372064302
7.384,0.9999937718465544,149.620543176069
7.392,0.999993760945993,149.30064533796477
7.4,0.9999937515787163,148.98023786804123
7.4079999999999995,0.9999937437188443,148.6593149252316
7.416,0.9999937373401218,148.3378706513707
7.4239999999999995,0.9999937324159315,148.01589917109024
7.432,0.9999937289193107,147.69339459171576
7.4399999999999995,0.9999937268229593,147.37035100316737
7.448,0.9999937260992604,147.0467624778621
7.4559999999999995,0.9999937267202857,146.72262307061987
7.464,0.9999937286578149,146.397926818572
7.4719999999999995,0.9999937318833474,146.07266774107305
7.48,0.9999937363681107,145.7468398396151
7.4879999999999995,0.9999937420830793,145.42043709774606
7.496,0.9999937489989837,145.09345348099026
7.504,0.999993757086323,144.76588293677335
7.5120000000000005,0.9999937663153794,144.43771939434973
7.52,0.9999937766562277,144.10895676473436
7.5280000000000005,0.9999937880787477,143.77958894063724
7.536,0.9999938005526414,143.4496097964027
7.5440000000000005,0.9999938140474356,143.11901318795134
7.552,0.9999938285325014,142.78779295272687
7.5600000000000005,0.9999938439770645,142.45594290964638
7.568,0.9999938603502124,142.12345685905498
7.5760000000000005,0.9999938776209124,141.7903285826845
7.584,0.9999938957580173,141.45655184361686
7.5920000000000005,0.9999939147302797,141.12212038625117
7.6,0.9999939345063636,140.78702793627653
7.6080000000000005,0.9999939550548536,140.45126820064826
7.616,0.9999939763442673,140.11483486757
7.6240000000000006,0.9999939983430639,139.7777216064799
7.632,0.9999940210196604,139.43992206804245
7.640000000000001,0.9999940443424347,139.10142988414498
7.648,0.999994068279744,138.76223866790005
7.656000000000001,0.9999940927999296,138.4223420136525
7.664,0.9999941178713295,138.08173349699288
7.672,0.9999941434622908,137.7404066747758
7.68,0.9999941695411759,137.39835508514477
7.688,0.9999941960763759,137.0555722475625
7.696,0.9999942230363205,136.7120516628476
7.704,0.9999942503894865,136.36778681321735
7.712,0.9999942781044096,136.0227711623372
7.72,0.9999943061496938,135.67699815537625
7.728,0.9999943344940194,135.3304612190701
7.736,0.9999943631061577,134.98315376178994
7.744,0.9999943919549747,134.63506917361926
7.752,0.9999944210094458,134.28620082643715
7.76,0.9999944502386626,133.93654207400934
7.768,0.9999944796118434,133.58608625208657
7.776,0.9999945090983432,133.23482667851076
7.784,0.999994538667662,132.88275665332898
7.792,0.9999945682894549,132.5298694589152
7.8,0.9999945979335426,132.17615836010077
7.808,0.9999946275699182,131.82161660431277
7.816,0.9999946571687579,131.4662374217211
7.824,0.9999946867004315,131.11001402539458
7.832,0.9999947161355078,130.75293961146548
7.84,0.9999947454447689,130.39500735930355
7.848,0.9999947745992136,130.03621043169937
7.856,0.999994803570071,129.67654197505695
7.864,0.9999948323288067,129.31599511959644
7.872,0.9999948608471326,128.95456297956642
7.88,0.9999948890970164,128.59223865346644
7.888,0.9999949170506887,128.22901522428015
7.896,0.9999949446806535,127.86488575971842
7.904,0.9999949719596961,127.49984331247397
7.912,0.9999949988608914,127.13388092048629
7.92,0.999995025357613,126.76699160721817
7.928,0.9999950514235425,126.3991683819437
7.936,0.9999950770326753,126.03040424004757
7.944,0.9999951021593327,125.66069216333676
7.952,0.9999951267781683,125.29002512036394
7.96,0.9999951508641758,124.91839606676336
7.968,0.999995174392699,124.54579794559955
7.976,0.9999951973394393,124.17222368772849
7.984,0.9999952196804631,123.79766621217215
7.992,0.9999952413922116,123.42211842650629
8.0,0.9999952624515083,123.04557322726178
8.008,0.9999952828355663,122.6680235003399
8.016,0.9999953025219978,122.28946212144137
8.024000000000001,0.9999953214888205,121.9098819565104
8.032,0.9999953397144682,121.52927586219276
8.04,0.999995357177795,121.14763668630867
8.048,0.9999953738580862,120.76495726834133
8.056000000000001,0.9999953897350654,120.38123043994071
8.064,0.9999954047889013,119.99644902544276
8.072,0.9999954190002166,119.61060584240437
8.08,0.9999954323500951,119.2236937021554
8.088000000000001,0.9999954448200897,118.83570541036651
8.096,0.9999954563922295,118.44663376763405
8.104,0.9999954670490274,118.0564715700816
8.112,0.9999954767734885,117.66521160997935
8.120000000000001,0.9999954855491164,117.27284667638118
8.128,0.9999954933599208,116.87936955577909
8.136,0.9999955001904252,116.48477303277608
8.144,0.9999955060256734,116.08904989077766
8.152000000000001,0.9999955108512385,115.69219291270214
8.16,0.9999955146532273,115.29419488170996
8.168,0.9999955174182896,114.8950485819518
8.176,0.9999955191336243,114.49474679933724
8.184000000000001,0.999995519786986,114.09328232232303
8.192,0.9999955193666928,113.69064794272141
8.2,0.9999955178616324,113.28683645652887
8.208,0.9999955152612688,112.8818406647761
8.216000000000001,0.9999955115556491,112.47565337439904
8.224,0.9999955067354099,112.06826739913119
8.232,0.9999955007917845,111.65967556041723
8.24,0.9999954937166078,111.24987068834929
8.248000000000001,0.9999954855023246,110.83884562262556
8.256,0.9999954761419932,110.4265932135308
8.264,0.9999954656292941,110.01310632294
8.272,0.9999954539585347,109.59837782534552
8.280000000000001,0.9999954411246553,109.1824006089075
8.288,0.999995427123235,108.76516757652779
8.296,0.9999954119504971,108.34667164694791
8.304,0.999995395603316,107.92690575587142
8.312,0.9999953780792203,107.50586285711134
8.32,0.9999953593764006,107.08353592376095
8.328,0.9999953394937132,106.65991794939164
8.336,0.9999953184306861,106.23500194927422
8.344,0.9999952961875234,105.80878096162753
8.352,0.9999952727651104,105.38124804889134
8.36,0.9999952481650172,104.952396299027
8.368,0.9999952223895063,104.5222188268428
8.376,0.9999951954415337,104.09070877534761
8.384,0.999995167324755,103.65785931712968
8.392,0.999995138043529,103.22366365576424
8.4,0.9999951076029215,102.78811502724665
8.408,0.9999950760087087,102.35120670145466
8.416,0.9999950432673829,101.91293198363692
8.424,0.9999950093861533,101.47328421593093
8.432,0.9999949743729509,101.03225677890718
8.44,0.9999949382364306,100.58984309314376
8.448,0.9999949009859748,100.14603662082716
8.456,0.999994862631696,99.7008308673838
8.464,0.9999948231844382,99.25421938313822
8.472,0.9999947826557819,98.80619576500213
8.48,0.9999947410580421,98.35675365819057
8.488,0.9999946984042741,97.90588675796906
8.496,0.9999946547082718,97.45358881142793
8.504,0.9999946099845715,96.99985361928806
8.512,0.999994564248452,96.54467503773391
8.52,0.9999945175159355,96.08804698027787
8.528,0.9999944698037879,95.62996341965224
8.536,0.9999944211295196,95.17041838973255
8.544,0.9999943715113861,94.7094059874884
8.552,0.9999943209683861,94.24692037496574
8.56,0.9999942695202628,93.78295578129676
8.568,0.9999942171875019,93.31750650474083
8.576,0.9999941639913323,92.85056691475322
8.584,0.9999941099537216,92.38213145408457
8.592,0.999994055097378,91.91219464090806
8.6,0.9999939994457452,91.440751070977
8.608,0.9999939430230027,90.96779541980983
8.616,0.999993885854061,90.49332244490533
8.624,0.9999938279645597,90.01732698798472
8.632,0.9999937693808646,89.53980397726376
8.64,0.9999937101300623,89.06074842975109
8.648,0.9999936502399579,88.58015545357604
8.656,0.9999935897390698,88.09802025034239
8.664,0.9999935286566244,87.6143381175106
8.672,0.9999934670225518,87.12910445080558
8.68,0.9999934048674803,86.64231474665223
8.688,0.9999933422227292,86.15396460463532
8.696,0.999993279120303,85.66404972998693
8.704,0.9999932155928851,85.17256593609686
8.712,0.9999931516738307,84.6795091470497
8.72,0.9999930873971573,84.18487540018396
8.728,0.9999930227975392,83.68866084867669
8.736,0.9999929579102967,83.19086176414909
8.744,0.9999928927713888,82.69147453929611
8.752,0.9999928274174025,82.1904956905361
8.76,0.9999927618855438,81.68792186068288
8.768,0.9999926962136261,81.18374982163631
8.776,0.999992630440061,80.6779764770941
8.784,0.999992564603846,80.17059886528021
8.792,0.9999924987445525,79.66161416169297
8.8,0.9999924329023141,79.15101968186806
8.808,0.999992367117813,78.63881288415932
8.815999999999999,0.9999923014322676,78.12499137253273
8.824,0.9999922358874177,77.6095528993755
8.832,0.9999921705255115,77.09249536831784
8.84,0.9999921053892888,76.57381683706619
8.847999999999999,0.999992040521968,76.05351552024698
8.856,0.9999919759672282,75.53158979226045
8.864,0.9999919117691931,75.00803819014263
8.872,0.9999918479724154,74.482859416434
8.879999999999999,0.9999917846218582,73.95605234205374
8.888,0.9999917217628763,73.42761600917888
8.896,0.9999916594411997,72.89754963412646
8.904,0.9999915977029129,72.36585261023676
8.911999999999999,0.999991536594435,71.83252451075656
8.92,0.9999914761625007,71.29756509172155
8.928,0.9999914164541398,70.76097429483569
8.936,0.9999913575166537,70.22275225034542
8.943999999999999,0.9999912993975965,69.68289927990796
8.952,0.9999912421447508,69.14141589945163
8.96,0.9999911858061055,68.59830282202714
8.968,0.9999911304298322,68.05356096064646
8.975999999999999,0.9999910760642613,67.50719143110871
8.984,0.9999910227578581,66.95919555481149
8.992,0.9999909705591974,66.40957486154497
9.0,0.9999909195169377,65.8583310922669
9.008,0.9999908696797963,65.30546620185633
9.016,0.9999908210965212,64.75098236184537
9.024000000000001,0.999990773815866,64.19488196312557
9.032,0.9999907278865618,63.63716761862687
9.04,0.9999906833572882,63.07784216596756
9.048,0.999990640276647,62.51690867007316
9.056000000000001,0.9999905986931317,61.95437042576179
9.064,0.9999905586550988,61.3902309602934
9.072,0.9999905202107383,60.824494035880846
9.08,0.999990483408044,60.25716365216123
9.088000000000001,0.9999904482947817,59.68824404862458
9.096,0.9999904149184592,59.11773970699699
9.104,0.9999903833262965,58.54565535357659
9.112,0.9999903535651903,57.97199596152011
9.120000000000001,0.9999903256816862,57.39676675307735
9.128,0.9999902997219449,56.81997320177064
9.136,0.9999902757317078,56.24162103451714
9.144,0.9999902537562678,55.6617162336923
9.152000000000001,0.9999902338404332,55.08026503913123
9.16,0.9999902160284955,54.49727395006514
9.168,0.9999902003641961,53.91274972699085
9.176,0.9999901868906924,53.32669939347138
9.184000000000001,0.9999901756505234,52.73913023786442
9.192,0.9999901666855766,52.150049814976086
9.2,0.9999901600370525,51.55946594763741
9.208,0.9999901557454316,50.96738672820221
9.216000000000001,0.9999901538504405,50.37382051996256
9.224,0.9999901543910148,49.77877595847985
9.232,0.9999901574052684,49.182261952828505
9.24,0.9999901629304566,48.58428768675109
9.248000000000001,0.9999901710029431,47.98486261972162
9.256,0.999990181658164,47.38399648791411
9.264,0.9999901949305975,46.7816993050747
9.272,0.9999902108537257,46.1779813632953
9.280000000000001,0.9999902294600039,45.572853233686146
9.288,0.9999902507808244,44.96632576694423
9.296,0.9999902748464864,44.35841009381616
9.304,0.9999903016861603,43.749117625453636
9.312000000000001,0.9999903313278568,43.138460053658726
9.32,0.9999903637983936,42.52644935101688
9.328,0.9999903991233628,41.913097770915414
9.336,0.9999904373271027,41.298417847446636
9.344,0.9999904784326623,40.682422395193036
9.352,0.9999905224617737,40.06512450889134
9.36,0.9999905694348212,39.44653756297677
9.368,0.9999906193708125,38.82667521100207
9.376,0.9999906722873492,38.205551384933514
9.384,0.9999907282005983,37.58318029431847
9.392,0.9999907871252657,36.95957642532701
9.4,0.9999908490745704,36.33475453966224
9.408,0.9999909140602147,35.70872967334198
9.416,0.9999909820923635,35.08151713534673
9.424,0.9999910531796173,34.453132506136875
9.432,0.9999911273289894,33.82359163603386
9.44,0.9999912045458847,33.19291064346897
9.448,0.9999912848340745,32.561105913094295
9.456,0.9999913681956807,31.92819409375984
9.464,0.9999914546311518,31.294192096351868
9.472,0.9999915441392472,30.659117091496203
9.48,0.9999916367170191,30.022986507121935
9.488,0.9999917323597944,29.385818025889908
9.496,0.9999918310611634,28.74762958248111
9.504,0.9999919328129611,28.108439360749838
9.512,0.9999920376052575,27.468265790737142
9.52,0.9999921454263452,26.827127545549537
9.528,0.9999922562627287,26.185043538098686
9.536,0.9999923700991168,25.542032917707377
9.544,0.9999924869184126,24.89811506657781
9.552,0.9999926067017088,24.25330959612778
9.56,0.9999927294282829,23.60763634319101
9.568,0.9999928550755923,22.96111536608733
9.576,0.9999929836192732,22.313766940559585
9.584,0.9999931150331393,21.665611555582974
9.592,0.9999932492891833,21.016669909044005
9.6,0.9999933863575774,20.36696290329522
9.608,0.9999935262066788,19.716511640582883
9.616,0.9999936688030341,19.065337418354222
9.624,0.999993814111385,18.413461724441706
9.632,0.9999939620946778,17.760906232131266
9.64,0.9999941127140725,17.1076927951119
9.648,0.999994265928953,16.45384344231415
9.656,0.9999944216969415,15.799380372635165
9.664,0.9999945799739116,15.144325949557858
9.672,0.9999947407140045,14.488702695662354
9.68,0.9999949038696452,13.832533287037254
9.688,0.9999950693915629,13.1758405475894
9.696,0.9999952372288095,12.518647443259844
9.704,0.9999954073287824,11.860977076144692
9.712,0.9999955796372484,11.202852678529183
9.72,0.9999957540983658,10.544297606833505
