freq,mag,phase
6.0,0.9999929797324119,57.07413383396696
6.008,0.9999930277636387,56.89166520583177
6.016,0.9999930784323663,56.70913541386373
6.024,0.9999931316901183,56.52654445021062
6.032,0.999993187488269,56.34389230768455
6.04,0.9999932457780549,56.161178979761466
6.048,0.9999933065105894,55.97840446058066
6.056,0.9999933696368755,55.795568744944184
6.064,0.9999934351078167,55.61267182831641
6.072,0.9999935028742335,55.42971370682339
6.08,0.9999935728868714,55.24669437725248
6.088,0.9999936450964172,55.06361383705166
6.096,0.9999937194535085,54.88047208432904
6.104,0.9999937959087468,54.697269117852365
6.112,0.9999938744127101,54.51400493704839
6.12,0.9999939549159633,54.33067954200235
6.128,0.9999940373690707,54.14729293345744
6.136,0.999994121722607,53.963845112814205
6.144,0.9999942079271693,53.78033608212997
6.152,0.9999942959333878,53.596765844118366
6.16,0.9999943856919369,53.413134402148586
6.168,0.9999944771535465,53.22944176024495
6.176,0.9999945702690116,53.04568792308628
6.184,0.9999946649892046,52.86187289600527
6.192,0.9999947612650844,52.67799668498796
6.2,0.9999948590477078,52.49405929667309
6.208,0.9999949582882389,52.31006073835152
6.216,0.9999950589379597,52.12600101796562
6.224,0.9999951609482793,51.941880144108694
6.232,0.9999952642707447,51.75769812602429
6.24,0.9999953688570498,51.57345497360565
6.248,0.9999954746590448,51.38915069739506
6.256,0.9999955816287458,51.20478530858328
6.264,0.9999956897183445,51.02035881900881
6.272,0.9999957988802166,50.835871241157335
6.28,0.9999959090669306,50.65132258816104
6.288,0.9999960202312578,50.46671287379805
6.296,0.9999961323261799,50.28204211249166
6.304,0.9999962453048976,50.097310319309756
6.312,0.9999963591208397,49.9125175099642
6.32,0.9999964737276709,49.72766370081009
6.328,0.9999965890793,49.54274890884509
6.336,0.9999967051298883,49.35777315170886
6.344,0.9999968218338566,49.17273644768229
6.352,0.9999969391458947,48.98763881568684
6.36,0.9999970570209662,48.80248027528392
6.368,0.9999971754143195,48.61726084667409
6.376,0.9999972942814925,48.43198055069648
6.384,0.9999974135783205,48.24663940882806
6.392,0.9999975332609441,48.061237443182925
6.4,0.9999976532858156,47.875774676511554
6.408,0.9999977736097055,47.69025113220024
6.416,0.9999978941897104,47.50466683427021
6.424,0.9999980149832581,47.31902180737701
6.432,0.9999981359481155,47.13331607680976
6.44,0.9999982570423938,46.94754966849045
6.448,0.9999983782245553,46.76172260897317
6.456,0.9999984994534201,46.57583492544341
6.464,0.999998620688171,46.38988664571731
6.472,0.9999987418883599,46.20387779824089
6.48,0.9999988630139133,46.017808412089394
6.4879999999999995,0.9999989840251382,45.831678516966406
6.496,0.9999991048827281,45.645488143203174
6.504,0.9999992255477669,45.45923732175794
6.5120000000000005,0.9999993459817355,45.2729260842149
6.52,0.9999994661465167,45.08655446278382
6.5280000000000005,0.9999995860043996,44.900122490298884
6.536,0.9999997055180851,44.71363020021821
6.5440000000000005,0.999999824650691,44.527077626622834
6.552,0.9999999433657556,44.340464804216175
6.5600000000000005,1.0,44.15379176832294
6.568,0.9999999999999999,43.967058554888695
6.5760000000000005,1.0,43.78026520047865
6.584,0.9999999999999999,43.59341174227728
6.592,0.9999999999999999,43.40649821808716
6.6,1.0,43.21952466632834
6.608,1.0,43.032491126037534
6.616,1.0,42.845397636867204
6.624,1.0,42.658244239084794
6.632,1.0,42.471030973571914
6.64,1.0,42.283757881823455
6.648,0.9999999999999999,42.096425005946756
6.656,1.0,41.909032388660826
6.664,0.9999999999999998,41.721580073295414
6.672,0.9999999999999999,41.53406810379019
6.68,1.0,41.34649652469391
6.688,1.0,41.158865381163515
6.696,1.0,40.971174718963276
6.704,0.9999999999999999,40.78342458446392
6.712,0.9999999999999999,40.59561502464181
6.72,1.0,40.407746087077946
6.728,1.0,40.21981781995721
6.736,0.9999999999999999,40.03183027206736
6.744,0.9999999999999999,39.843783492798266
6.752,1.0,39.65567753214088
6.76,0.9999999999999999,39.46751244068639
6.768,0.9999999999999998,39.2792882696254
6.776,1.0,39.0910050707468
6.784,1.0,38.90266289643711
6.792,0.9999999999999999,38.71426179967932
6.8,1.0000000000000002,38.52580183405216
6.808,1.0,38.33728305372903
6.816,1.0,38.14870551347717
6.824,0.9999999999999999,37.960069268656596
6.832,0.9999999999999999,37.77137437521932
6.84,1.0,37.58262088970822
6.848,1.0,37.393808869256226
6.856,1.0,37.20493837158531
6.864,0.9999999999999999,37.01600945500551
6.872,1.0,36.82702217841401
6.88,1.0,36.63797660129409
6.888,0.9999999999999998,36.44887278371419
6.896,0.9999999999999999,36.25971078632698
6.904,1.0,36.07049067036832
6.912,1.0,35.88121249765624
6.92,1.0,35.691876330589984
6.928,0.9999999999999999,35.50248223214902
6.936,1.0,35.31303026589203
6.944,0.9999999999999999,35.12352049595586
6.952,0.9999999999999999,34.93395298705458
6.96,0.9999999999999999,34.74432780447836
6.968,0.9999999999999999,34.55464501409255
6.976,1.0,34.3649046823366
6.984,1.0,34.17510687622303
6.992,1.0,33.985251663336385
7.0,0.9999999999999998,33.79533911183221
7.008,0.9999999999999999,33.605369290436016
7.016,1.0,33.41534226844217
7.024,1.0,33.225258115712876
7.032,1.0,33.03511690267716
7.04,1.0,32.84491870032969
7.048,0.9999999999999999,32.654663580229816
7.056,1.0,32.46435161450043
7.064,1.0,32.27398287582687
7.072,1.0,32.08355743745593
7.08,1.0,31.893075373194637
7.088,1.0,31.70253675740925
7.096,1.0,31.511941665024146
7.104,1.0,31.32129017152069
7.112,1.0,31.130582352936106
7.12,1.0,30.939818285862437
7.128,1.0000000000000002,30.74899804744533
7.136,0.9999999999999999,30.558121715383
7.144,1.0,30.367189367925043
7.152,1.0,30.17620108387133
7.16,1.0,29.985156942570832
7.168,1.0,29.7940570239205
7.176,1.0,29.602901408364144
7.184,1.0,29.411690176891256
7.192,1.0,29.220423411035785
7.2,1.0,29.029101192875086
7.208,1.0,28.83772360502869
7.216,1.0,28.64629073065712
7.224,1.0000000000000002,28.454802653460778
7.232,0.9999999999999999,28.26325945767865
7.24,0.9999999999999999,28.071661228087233
7.248,0.9999999999999999,27.880008049999258
7.256,0.9999999999999999,27.68830000926254
7.264,1.0,27.496537192258767
7.272,1.0,27.304719685902274
7.28,1.0,27.112847577638842
7.288,0.9999999999999999,26.920920955444444
7.296,0.9999999999999999,26.72893990782414
7.304,0.9999999999999999,26.536904523810673
7.312,0.9999999999999999,26.344814892963388
7.32,0.9999999999999999,26.1526711053669
7.328,0.9999999999999999,25.960473251629892
7.336,0.9999999999999999,25.768221422883872
7.344,1.0,25.57591571078189
7.352,0.9999999999999999,25.38355620749731
7.36,1.0,25.19114300572253
7.368,0.9999999999999999,24.998676198667713
7.376,1.0,24.806155880059524
7.384,1.0,24.61358214413985
7.392,0.9999999999999999,24.420955085664517
7.4,1.0,24.228274799901968
7.4079999999999995,0.9999999999999999,24.035541382632054
7.416,1.0,23.842754930144604
7.4239999999999995,1.0,23.649915539238325
7.432,0.9999999999999999,23.45702330721922
7.4399999999999995,1.0,23.26407833189956
7.448,0.9999999999999999,23.071080711596302
7.4559999999999995,1.0,22.878030545130034
7.464,0.9999999999999999,22.684927931823353
7.4719999999999995,0.9999999999999999,22.491772971499852
7.48,1.0,22.298565764482433
7.4879999999999995,0.9999999999999999,22.1053064115923
7.496,1.0,21.911995014147337
7.504,1.0,21.718631673961
7.5120000000000005,1.0,21.525216493340665
7.52,1.0,21.33174957508661
7.5280000000000005,1.0,21.138231022490295
7.536,1.0,20.94466093933331
7.5440000000000005,1.0,20.7510394298857
7.552,1.0,20.557366598904878
7.5600000000000005,1.0,20.36364255163392
7.568,1.0,20.16986739380051
7.5760000000000005,0.9999999999999999,19.976041231615174
7.584,0.9999999999999999,19.782164171770244
7.5920000000000005,1.0,19.588236321438103
7.6,1.0,19.394257788270124
7.6080000000000005,1.0,19.200228680394858
7.616,0.9999999999999999,19.00614910641702
7.6240000000000006,0.9999999999999999,18.81201917541564
7.632,1.0,18.61783899694306
7.640000000000001,1.0,18.423608681023055
7.648,1.0,18.22932833814983
7.656000000000001,1.0,18.034998079286137
7.664,0.9999999999999999,17.840618015862205
7.672,0.9999999999999999,17.64618825977398
7.68,0.9999999999999999,17.45170892338183
7.688,0.9999999999999998,17.257180119509037
7.696,1.0,17.062601961440294
7.704,1.0,16.867974562920228
7.712,0.9999999999999999,16.673298038151973
7.72,0.9999999999999999,16.47857250179557
7.728,0.9999999999999999,16.283798068966586
7.736,1.0,16.08897485523451
7.744,0.9999999999999999,15.894102976621337
7.752,1.0,15.69918254959998
7.76,0.9999999999999999,15.50421369109282
7.768,1.0,15.30919651847011
7.776,1.0,15.114131149548518
7.784,1.0,14.919017702589555
7.792,1.0,14.723856296298035
7.8,1.0,14.528647049820574
7.808,1.0,14.333390082743982
7.816,0.9999999999999998,14.138085515093758
7.824,1.0,13.9427334673325
7.832,1.0,13.747334060358371
7.84,0.9999999999999999,13.5518874155035
7.848,0.9999999999999998,13.356393654532441
7.856,1.0,13.16085289964057
7.864,0.9999999999999998,12.965265273452502
7.872,0.9999999999999999,12.769630899020518
7.88,1.0,12.573949899822964
7.888,1.0,12.378222399762649
7.896,1.0,12.182448523165231
7.904,0.9999999999999998,11.986628394777636
7.912,1.0,11.790762139766416
7.92,1.0,11.594849883716149
7.928,1.0,11.3988917526278
7.936,0.9999999999999999,11.202887872917088
7.944,0.9999999999999999,11.006838371412881
7.952,1.0,10.81074337535553
7.96,1.0,10.614603012395216
7.968,1.0,10.418417410590322
7.976,1.0,10.222186698405775
7.984,1.0,10.025911004711377
7.992,0.9999999999999999,9.829590458780144
8.0,0.9999999999999999,9.633225190286634
8.008,0.9999999759724756,9.436815329305299
8.016,0.9999998918338188,9.24036100630868
8.024000000000001,0.9999998080845132,9.043862352165936
8.032,0.9999997247537076,8.847319498141042
8.04,0.9999996418705287,8.650732575890997
8.048,0.9999995594640756,8.454101717464212
8.056000000000001,0.9999994775634141,8.257427055298894
8.064,0.9999993961975719,8.060708722221262
8.072,0.9999993153955331,7.863946851443708
8.08,0.9999992351862336,7.667141576563204
8.088000000000001,0.9999991555985539,7.4702930315596365
8.096,0.9999990766613172,7.273401350794
8.104,0.9999989984032808,7.076466669006573
8.112,0.9999989208531335,6.879489121315253
8.120000000000001,0.9999988440394889,6.682468843213919
8.128,0.9999987679908813,6.485405970570572
8.136,0.9999986927357596,6.288300639625506
8.144,0.9999986183024832,6.091152986989628
8.152000000000001,0.999998544719316,5.8939631496427785
8.16,0.9999984720144225,5.696731264931879
8.168,0.9999984002158614,5.499457470569068
8.176,0.9999983293515812,5.302141904630001
8.184000000000001,0.9999982594494162,5.10478470555215
8.192,0.9999981905370804,4.907386012132942
8.2,0.9999981226421623,4.709945963527858
8.208,0.9999980557921206,4.512464699248733
8.216000000000001,0.9999979900142801,4.3149423591620275
8.224,0.9999979253358249,4.117379083486938
8.232,0.9999978617837958,3.919775012793485
8.24,0.9999977993850832,3.722130288000789
8.248000000000001,0.9999977381664242,3.5244450503753293
8.256,0.9999976781543977,3.3267194415290215
8.264,0.9999976193754178,3.128953603417309
8.272,0.9999975618557317,2.9311476783373935
8.280000000000001,0.9999975056214129,2.733301808926487
8.288,0.9999974506983587,2.5354161381598783
8.296,0.9999973971122829,2.337490809348976
8.304,0.9999973448887135,2.1395259661395607
8.312,0.9999972940529879,1.9415217525100235
8.32,0.9999972446302473,1.7434783127692242
8.328,0.9999971966454327,1.5453957915549332
8.336,0.999997150123281,1.3472743338316204
8.344,0.9999971050883206,1.1491140848889312
8.352,0.9999970615648656,0.9509151903394212
8.36,0.9999970195770129,0.752677796117049
8.368,0.9999969791486387,0.5544020484748899
8.376,0.999996940303392,0.3560880939836206
8.384,0.9999969030646915,0.1577360795292291
8.392,0.9999968674557215,-0.040653847688519894
8.4,0.999996833499428,-0.23908154015837485
8.408,0.9999968012185141,-0.4375468500591507
8.416,0.999996770635436,-0.6360496292620114
8.424,0.9999967417723991,-0.8345897293320571
8.432,0.999996714651354,-1.033167001530591
8.44,0.999996689293993,-1.2317812968167354
8.448,0.9999966657217446,-1.4304324658497038
8.456,0.999996643955772,-1.6291203589904124
8.464,0.9999966240169673,-1.8278448263037843
8.472,0.9999966059259491,-2.0266057175603462
8.48,0.9999965897030575,-2.2254028822385585
8.488,0.9999965753683512,-2.424236169526417
8.496,0.9999965629416042,-2.6231054283237856
8.504,0.9999965524423009,-2.822010507244022
8.512,0.9999965438896337,-3.020951254616308
8.52,0.9999965373024993,-3.219927518487281
8.528,0.9999965326994946,-3.41893914662338
8.536,0.9999965300989138,-3.6179859865124873
8.544,0.9999965295187454,-3.8170678853662854
8.552,0.9999965309766676,-4.016184690121898
8.56,0.999996534490046,-4.215336247444264
8.568,0.9999965400759308,-4.41452240372778
8.576,0.9999965477510518,-4.613743005098689
8.584,0.9999965575318172,-4.812997897416745
8.592,0.9999965694343094,-5.01228692627758
8.6,0.9999965834742822,-5.2116099370143925
8.608,0.9999965996671578,-5.410966774700335
8.616,0.9999966180280241,-5.6103572841502
8.624,0.9999966385716312,-5.809781309922808
8.632,0.9999966613123895,-6.009238696322718
8.64,0.9999966862643649,-6.208729287402617
8.648,0.9999967134412786,-6.408252926965036
8.656,0.9999967428565036,-6.607809458564756
8.664,0.9999967745230607,-6.807398725510522
8.672,0.9999968084536167,-7.00702057086747
8.68,0.999996844660483,-7.206674837458839
8.688,0.9999968831556113,-7.40636136786841
8.696,0.9999969239505925,-7.606080004442228
8.704,0.9999969670566532,-7.805830589291049
8.712,0.9999970124846541,-8.005612964292068
8.72,0.9999970602450877,-8.205426971091383
8.728,0.9999971103480758,-8.405272451105713
8.736,0.9999971628033671,-8.60514924552488
8.744,0.999997217620336,-8.80505719531355
8.752,0.9999972748079792,-9.004996141213702
8.76,0.9999973343749149,-9.204965923746382
8.768,0.9999973963293797,-9.40496638321419
8.776,0.9999974606792279,-9.604997359703027
8.784,0.9999975274319283,-9.805058693084604
8.792,0.9999975965945642,-10.005150223018186
8.8,0.9999976681738293,-10.20527178895312
8.808,0.9999977421760284,-10.405423230130578
8.815999999999999,0.9999978186070739,-10.605604385586043
8.824,0.9999978974724851,-10.805815094151303
8.832,0.9999979787773869,-11.006055194456529
8.84,0.9999980625265076,-11.206324524932496
8.847999999999999,0.9999981487241779,-11.406622923812854
8.856,0.9999982373743296,-11.606950229136185
8.864,0.9999983284804945,-11.807306278748076
8.872,0.999998422045802,-12.007690910303404
8.879999999999999,0.9999985180729796,-12.208103961268574
8.888,0.9999986165643509,-12.408545268923602
8.896,0.9999987175218339,-12.60901467036423
8.904,0.9999988209469419,-12.809512002504187
8.911999999999999,0.99999892684078,-13.010037102077462
8.92,0.9999990352040466,-13.210589805640415
8.928,0.9999991460370303,-13.411169949573885
8.936,0.999999259339612,-13.611777370085456
8.943999999999999,0.999999375111261,-13.812411903211784
8.952,0.9999994933510366,-14.013073384820679
8.96,0.9999996140575864,-14.213761650613256
8.968,0.9999997372291466,-14.414476536126214
8.975999999999999,0.99999986286354,-14.615217876734146
8.984,0.9999999909581784,-14.815985507651687
8.992,1.0,-15.01677926393563
9.0,0.9999999999999999,-15.217598980487239
9.008,1.0,-15.418444492054588
9.016,0.9999999999999999,-15.619315633234688
9.024000000000001,0.9999999999999999,-15.820212238475637
9.032,1.0,-16.021134142078974
9.04,1.0,-16.22208117820196
9.048,1.0,-16.423053180859785
9.056000000000001,1.0,-16.624049983927698
9.064,1.0,-16.825071421143377
9.072,0.9999999999999999,-17.02611732610925
9.08,0.9999999999999999,-17.22718753229468
9.088000000000001,1.0,-17.428281873038102
9.096,0.9999999999999999,-17.629400181549464
9.104,1.0,-17.830542290912472
9.112,1.0,-18.03170803408686
9.120000000000001,1.0,-18.232897243910557
9.128,1.0,-18.434109753101993
9.136,0.9999999999999999,-18.635345394262572
9.144,0.9999999999999999,-18.836603999878786
9.152000000000001,1.0,-19.03788540232444
9.16,0.9999999999999999,-19.239189433863032
9.168,1.0,-19.44051592665013
9.176,0.9999999999999999,-19.64186471273559
9.184000000000001,1.0,-19.843235624065734
9.192,1.0,-20.044628492485792
9.2,1.0,-20.246043149742214
9.208,1.0,-20.447479427484993
9.216000000000001,0.9999999999999998,-20.648937157269796
9.224,1.0,-20.8504161705604
9.232,0.9999999999999999,-21.0519162987311
9.24,1.0,-21.253437373068913
9.248000000000001,0.9999999999999999,-21.454979224775823
9.256,1.0,-21.656541684971224
9.264,0.9999999999999999,-21.858124584694263
9.272,0.9999999999999999,-22.059727754906145
9.280000000000001,1.0,-22.26135102649232
9.288,1.0,-22.462994230264947
9.296,1.0,-22.664657196965297
9.304,1.0,-22.866339757265997
9.312000000000001,1.0,-23.068041741773268
9.32,1.0,-23.2697629810294
9.328,0.9999999999999998,-23.471503305515142
9.336,0.9999999999999999,-23.67326254565197
9.344,0.9999999999999999,-23.87504053180431
9.352,0.9999999999999999,-24.076837094282183
9.36,0.9999999999999999,-24.278652063343227
9.368,1.0,-24.48048526919536
9.376,0.9999999999999999,-24.682336541998847
9.384,0.9999999999999998,-24.88420571186895
9.392,0.9999999999999999,-25.08609260887799
9.4,1.0,-25.287997063057983
9.408,0.9999999999999999,-25.489918904402767
9.416,1.0,-25.691857962870603
9.424,1.0,-25.893814068386263
9.432,0.9999999999999999,-26.09578705084373
9.44,1.0,-26.297776740108226
9.448,1.0,-26.499782966018927
9.456,0.9999999999999998,-26.701805558390973
9.464,0.9999999999999999,-26.903844347018225
9.472,0.9999999999999999,-27.10589916167529
9.48,1.0,-27.307969832120243
9.488,1.0,-27.51005618809663
9.496,0.9999999999999998,-27.71215805933624
9.504,0.9999999999999999,-27.914275275561135
9.512,0.9999999999999999,-28.116407666486403
9.52,1.0,-28.3185550618221
9.528,1.0,-28.520717291276135
9.536,0.9999999999999999,-28.722894184556203
9.544,1.0,-28.92508557137256
9.552,0.9999999999999999,-29.12729128144006
9.56,0.9999999999999999,-29.32951114448093
9.568,1.0,-29.531744990226766
9.576,1.0,-29.733992648421328
9.584,0.9999999999999999,-29.93625394882254
9.592,1.0,-30.138528721205287
9.6,1.0,-30.340816795363413
9.608,1.0,-30.543118001112553
9.616,1.0,-30.745432168292066
9.624,0.9999999999999999,-30.947759126767924
9.632,1.0,-31.15009870643467
9.64,1.0,-31.352450737218177
9.648,0.9999999999999999,-31.554815049077774
9.656,0.9999999999999999,-31.757191472008948
9.664,1.0,-31.95957983604538
9.672,1.0000000000000002,-32.161979971261765
9.68,1.0,-32.364391707775845
9.688,1.0,-32.566814875751156
9.696,1.0000000000000002,-32.7692493053991
9.704,0.9999999999999999,-32.971694826981704
9.712,1.0,-33.17415127081371
9.72,0.9999999999999999,-33.376618467265274
9.728,0.9999999999999999,-33.57909624676407
9.736,1.0,-33.78158443979806
9.744,1.0,-33.984082876917554
9.752,1.0,-34.186591388737966
9.76,0.9999999999999999,-34.389109805941864
9.768,1.0,-34.59163795928176
9.776,1.0,-34.79417567958217
9.784,0.9999999999999999,-34.99672279774236
9.792,1.0000000000000002,-35.19927914473844
9.8,1.0,-35.40184455162614
9.808,1.0,-35.6044188495428
9.816,1.0,-35.807001869710234
9.824,1.0,-36.00959344343672
9.832,1.0,-36.21219340211981
9.84,1.0,-36.41480157724839
9.847999999999999,0.9999999999999999,-36.617417800405384
9.856,1.0,-36.82004190327005
9.864,0.9999999999999998,-37.02267371762032
9.872,1.0,-37.22531307533527
9.879999999999999,0.9999999999999999,-37.42795980839766
9.888,1.0,-37.630613748896224
9.896,1.0,-37.83327472902805
9.904,1.0,-38.03594258110101
9.911999999999999,1.0,-38.23861713753634
9.92,1.0,-38.44129823087087
9.928,1.0,-38.6439856937595
9.936,1.0,-38.846679358977504
9.943999999999999,1.0,-39.04937905942318
9.952,1.0,-39.252084628120116
9.96,1.0,-39.45479589821955
9.968,0.9999999999999999,-39.65751270300279
9.975999999999999,0.9999999999999999,-39.86023487588378
9.984,0.9999999999999999,-40.06296225041143
9.992,0.9999999999999999,-40.26569466027186
10.0,1.0,-40.46843193929095
10.008,1.0,-40.67117392143684
10.016,1.0000000000000002,-40.87392044082225
10.024000000000001,0.9999999999999999,-41.076671331706734
10.032,0.9999999999999998,-41.27942642849923
10.04,1.0,-41.48218556576052
10.048,1.0,-41.684948578205606
