freq,mag,phase
6.0,0.9998162007376848,-27.610542045984644
6.017391104,0.9998076275910593,-28.214583255632036
6.03478272,0.9998092811962304,-28.818645398217775
6.052173824,0.999818487507217,-29.422787843628246
6.06956544,0.9998351517281009,-30.027130364732965
6.086956544,0.9998584133603466,-30.631724463555592
6.104347648,0.9998874335374806,-31.23663614877225
6.121739264,0.9999211649379062,-31.841994752927565
6.139130368,0.9999581551268711,-32.44774790253995
6.156521984,0.9999968852335875,-33.05394557433241
6.173913088,1.0000358965486775,-33.660656845870854
6.191304192,1.0000736662614085,-34.26783061205753
6.208695808,1.000108820640457,-34.875466039253325
6.226086912,1.0001394814277909,-35.483514744445294
6.243478016,1.000165066314446,-36.09194047032275
6.260869632,1.0001840367778194,-36.70063274971215
6.278260736,1.0001960007786799,-37.30951673555341
6.295652352,1.000200185359467,-37.91852387481718
6.313043456,1.0001965299772015,-38.52762190453472
6.33043456,1.0001852947371501,-39.136647469519325
6.347826176,1.0001667431481887,-39.74555867469326
6.36521728,1.0001418075003385,-40.35422424220217
6.382608896,1.0001110629489764,-40.96260399561949
6.4,1.0000761408590229,-41.570691434160025
6.417391104,1.0000383018627357,-42.17834194178812
6.43478272,0.9999989244350604,-42.78561360046435
6.452173824,0.9999595971488818,-43.392447593005805
6.46956544,0.9999219829326171,-43.99890190071482
6.486956544,0.999887574167884,-44.6049455688795
6.504347648,0.9998577092786946,-45.210652491371334
6.521739264,0.9998334810240169,-45.816115023643164
6.539130368,0.9998159375359454,-46.421379307431586
6.556521984,0.9998057476283111,-47.026448522607325
6.573913088,0.9998036163749624,-47.63153435407947
6.591304192,0.9998091317838084,-48.23667653543977
6.608695808,0.9998223755630676,-48.841957564872786
6.626086912,0.9998429077329442,-49.4474720176505
6.643478016,0.9998697135329346,-50.053231548629846
6.660869632,0.9999018400075572,-50.659407835798426
6.678260736,0.9999380933116849,-51.26603147152891
6.695652352,0.9999769317946902,-51.873085210162046
6.713043456,1.0000168729531786,-52.48062832692663
6.73043456,1.0000562182538275,-53.08867480108222
6.747826176,1.0000935124588848,-53.69720675608272
6.76521728,1.0001272427111267,-54.30615426040587
6.782608896,1.000156308101839,-54.915495697480644
6.8,1.000179134786686,-55.52519506534402
6.817391104,1.0001949195632973,-56.13516952177933
6.83478272,1.000203252432458,-56.74527862247839
6.852173824,1.000203671328196,-57.355446565347016
6.86956544,1.0001959113077192,-57.96564478449867
6.886956544,1.000180710518029,-58.57577388088499
6.904347648,1.0001581820493501,-59.18571053610229
6.921739264,1.0001297410065835,-59.795334749421535
6.939130368,1.0000962222184107,-60.40468821226521
6.956521984,1.0000586913642413,-61.01366109531604
6.973913088,1.0000191753424044,-61.62225120844528
6.991304192,0.9999788010047206,-62.23038594698193
7.008695808,0.9999392305363939,-62.83811685216882
7.026086912,0.9999022972049407,-63.445443766766424
7.043478016,0.999869172722497,-64.05238360248018
7.060869632,0.9998413252580691,-64.65902619579252
7.078260736,0.9998200330216928,-65.26542286115004
7.095652352,0.9998057851928949,-65.87163431531714
7.113043456,0.9997993043067799,-66.47778816558686
7.13043456,0.9998010228549704,-67.08391200915223
7.147826176,0.9998106834349436,-67.69013951784386
7.16521728,0.9998280308669895,-68.2965716490107
7.182608896,0.9998524314806886,-68.90324341832368
7.2,0.9998825750781387,-69.51030788476571
7.217391104,0.9999178271960096,-70.11774072289
7.23478272,0.9999563658476549,-70.72563726697904
7.252173824,0.9999968874796219,-71.3340414528029
7.26956544,1.0000374540288473,-71.94293993328998
7.286956544,1.0000769956596618,-72.55233329571638
7.304347648,1.0001136284299779,-73.16216480593624
7.321739264,1.0001458805338939,-73.77247407427058
7.339130368,1.0001723941119347,-74.38314488986211
7.356521984,1.0001924615571491,-74.99408868191186
7.373913088,1.0002049446326853,-75.605296639623
7.391304192,1.0002093089145407,-76.21660214702275
7.408695808,1.0002057163912634,-76.82794957451567
7.426086912,1.0001939298986933,-77.43926030597672
7.443478016,1.0001746519911454,-78.05042855651028
7.460869632,1.0001484289795708,-78.66138097897014
7.478260736,1.000116473205649,-79.27203953433585
7.495652352,1.0000799703265055,-79.88234613758664
7.513043456,1.000040328268344,-80.492184328293
7.53043456,0.9999991813297607,-81.10166680233162
7.547826176,0.9999581976664049,-81.71070234677019
7.56521728,0.9999187917103511,-82.319294066796
7.582608896,0.9998827726731602,-82.92747604512705
7.6,0.9998513911068128,-83.53532422892208
7.617391104,0.9998260975166793,-84.14285850899539
7.63478272,0.999807711639367,-84.7502301817913
7.652173824,0.9997970315500345,-85.35742325113966
7.66956544,0.9997945460235075,-85.96455763068386
7.686956544,0.9998003120130617,-86.57178565378749
7.704347648,0.9998142481597603,-87.17912666383206
7.721739264,0.9998355976275497,-87.78672821785003
7.739130368,0.9998636497026548,-88.39461088203896
7.756521984,0.9998973660772714,-89.00292029818793
7.773913088,0.9999352908092934,-89.61164773460767
7.791304192,0.9999759565315622,-90.22083746498835
7.808695808,1.000017753186426,-90.83058711997187
7.826086912,1.0000591147818347,-91.44082102747932
7.843478016,1.0000982750793392,-92.05154172376616
7.860869632,1.00013382293882,-92.66276576746921
7.878260736,1.0001641851934082,-93.27435266960227
7.895652352,1.0001882352148659,-93.8862908582198
7.913043456,1.0002050146764752,-94.49853819001201
7.93043456,1.0002138079728882,-95.110934975648
7.947826176,1.0002144031087083,-95.72341575643772
7.96521728,1.0002064879106833,-96.33589877198114
7.982608896,1.0001904244381794,-96.94829055137869
8.0,1.000167126882684,-97.56051385642999
8.017391104,1.000137237031447,-98.17241100791726
8.03478272,1.000101938596471,-98.78402916201624
8.052173824,1.0000626850926977,-99.39522780933834
8.06956544,1.0000211053259835,-100.00599841624266
8.086956544,0.999978720741336,-100.61630216970734
8.104347648,0.999937237948819,-101.22617983153778
8.121739264,0.9998983379083403,-101.8356228270905
8.139130368,0.9998634611421525,-102.44468746242872
8.156521984,0.9998341897681375,-103.05339321267006
8.173913088,0.999811565042177,-103.66184389639058
8.191304192,0.9997965317400604,-104.27011739648862
8.208695808,0.999789672805276,-104.87830687046399
8.226086912,0.9997913271268596,-105.48649194293738
8.243478016,0.9998012677710018,-106.09476422595817
8.260869632,0.9998194472701296,-106.7032147182267
8.278260736,0.9998448986277696,-107.31196101839708
8.295652352,0.9998766886788554,-107.92105941397963
8.313043456,0.9999136183522974,-108.53061404136518
8.33043456,0.9999541555005557,-109.14061364177458
8.347826176,0.9999966892127728,-109.75113211905719
8.36521728,1.0000396613684244,-110.36218005428121
8.382608896,1.0000811566239085,-110.97372879111678
8.4,1.0001198331379686,-111.5857869129522
8.417391104,1.0001539560177053,-112.19828533572371
8.43478272,1.0001821320729298,-112.81118871504978
8.452173824,1.0002032963199279,-113.42438559017434
8.46956544,1.0002165339801823,-114.03785827616682
8.486956544,1.000221492918668,-114.651420074157
8.504347648,1.0002177072812828,-115.26504279156326
8.521739264,1.0002054933937108,-115.87859314228619
8.539130368,1.0001853261658722,-116.4920455867841
8.556521984,1.0001579602122868,-117.10519912716624
8.573913088,1.000124256182629,-117.718064395984
8.591304704,1.000085872860644,-118.33054133297132
8.608695296,1.000044199940083,-118.94261317009307
8.626086912,1.000000711169024,-119.55422242854681
8.643478528,0.9999573958962281,-120.16534394025764
8.66086912,0.9999157251831786,-120.77602751744466
8.678260736,0.9998775632665263,-121.3862881402809
8.695652352,0.9998443595019728,-121.99616889168678
8.713043968,0.9998174438615888,-122.60573446999241
8.73043456,0.9997978011500814,-123.21506863436667
8.747826176,0.9997863705667455,-123.82425633419221
8.765217792,0.9997835451937063,-124.43335398879175
8.782608384,0.9997893736922988,-125.04254066638107
8.8,0.9998038181202217,-125.65186103097845
8.817391616,0.9998262132566182,-126.26141278177273
8.834782208,0.9998557809077736,-126.87131579764042
8.852173824,0.9998912602542861,-127.48160487893519
8.86956544,0.9999312808938937,-128.09235860120037
8.886956032,0.999974177393347,-128.70359620701288
8.904347648,1.0000184744115428,-129.31538121543318
8.921739264,1.0000622045988254,-129.92771293653166
8.93913088,1.000103744767922,-130.54058295833116
8.956521472,1.0001414818102168,-131.15389057301658
8.973913088,1.000173877352655,-131.76767300992816
8.991304704,1.0001995367268508,-132.38180759993216
9.008695296,1.0002175233289878,-132.99621529760933
9.026086912,1.0002271137553604,-133.6108321442955
9.043478528,1.0002279558467402,-134.22552893534373
9.06086912,1.0002198325271838,-134.84022103529574
9.078260736,1.0002032007106247,-135.4548096075843
9.095652352,1.0001786702905695,-136.06917514004107
9.113043968,1.0001471289936619,-136.6832925451899
9.13043456,1.0001099758358585,-137.29701473768984
9.147826176,1.00006853004577,-137.91034080047547
9.165217792,1.0000244462575216,-138.52320215701033
9.182608384,0.999979483269188,-139.135561511392
9.2,0.9999353705793984,-139.74744473107714
9.217391616,0.9998940201434544,-140.35890369181104
9.234782208,0.9998568479032184,-140.9699082638995
9.252173824,0.9998256080340919,-141.5805461176078
9.26956544,0.9998012788961387,-142.19092824984
9.286956032,0.9997849929610418,-142.80107218241466
9.304347648,0.9997774342071843,-143.41113064064564
9.321739264,0.9997788170034815,-144.02115457571665
9.33913088,0.9997891841340784,-144.63129921982284
9.356521472,0.9998081084157445,-145.2416176384938
9.373913088,0.9998349034086723,-145.85224345533405
9.391304704,0.9998683768099436,-146.46324014332757
9.408695296,0.9999074589304453,-147.0746732686958
9.426086912,0.9999504580146921,-147.68660742292465
9.443478528,0.9999957071452844,-148.29908700887
9.46086912,1.000041350585333,-148.91210167576315
9.478260736,1.0000857197036785,-149.5256529519081
9.495652352,1.0001269057358262,-150.13974916083808
9.513043968,1.0001633486307582,-150.75431142060887
9.53043456,1.0001935810516878,-151.36927617064984
9.547826176,1.0002165143754886,-151.9846089276136
9.565217792,1.000231063781398,-152.60014693081814
9.582608384,1.000236608934676,-153.21585882616816
9.6,1.0002330204060574,-153.8316063476584
9.617391616,1.0002203904359745,-154.44728955755664
9.634782208,1.0001991791050104,-155.0627999630421
9.652173824,1.0001702673865096,-155.67806954021302
9.66956544,1.0001346641635318,-156.29301060555093
9.686956032,1.0000939428310194,-156.90751528058067
9.704347648,1.0000495455953633,-157.52157431274904
9.721739264,1.0000033227385934,-158.13515877705927
9.73913088,0.9999569866122113,-158.74823083352194
9.756521472,0.9999125431288756,-159.36082289992754
9.773913088,0.9998716069732371,-159.97293555904417
9.791304704,0.9998358909493111,-160.58463976818894
9.808695296,0.9998067920851594,-161.19599860005962
9.826086912,0.9997854732818249,-161.8070968898542
9.843478528,0.9997728706208344,-162.41802203900534
9.86086912,0.9997693338187207,-163.02887451215028
9.878260736,0.9997752283358308,-163.63977605788634
9.895652352,0.999790233369625,-164.25084033798493
9.913043968,0.999813860907322,-164.86211607423604
9.93043456,0.9998450460338886,-165.47374659697584
9.947826176,0.9998826144809625,-166.0857843564446
9.965217792,0.9999252249372563,-166.69833309798472
9.982608384,0.9999709999273491,-167.31138988978904
10.0,1.0000183396190994,-167.92501007087435
10.017391616,1.000065239310193,-168.5392046322772
10.034782208,1.0001098648954443,-169.15395616700914
10.052173824,1.0001503848771087,-169.76920479877688
10.06956544,1.000185397008538,-170.38493497508483
10.086956032,1.0002132696094774,-171.00105537521773
10.104347648,1.000233006297535,-171.61745671842246
10.121739264,1.0002436160615071,-172.2340893471361
10.13913088,1.0002449500176125,-172.85079790617397
10.156521472,1.0002367801585281,-173.4674890135717
10.173913088,1.0002194538664904,-174.08409963949052
10.191304704,1.0001936563600737,-174.70046347964956
10.208695296,1.0001601954282515,-175.31651826192765
10.226086912,1.0001205446371255,-175.932187565252
10.243478528,1.0000762595695982,-176.54741091972764
10.26086912,1.000029062808563,-177.16213360300446
10.278260736,0.9999808308556434,-177.77633612272996
10.295652352,0.9999334597037431,-178.39001450404382
10.313043968,0.9998887584750726,-179.00319310621148
10.33043456,0.999848658204602,-179.61591451768695
10.347826176,0.9998145750045032,179.77176488479557
10.365217792,0.9997880185482011,179.15978454222986
10.382608384,0.9997700298092367,178.54801558069144
10.4,0.9997613992552145,177.9363959166587
10.417391616,0.9997622527321025,177.32477704653178
10.434782208,0.9997728560729207,176.71309415146143
10.452173824,0.9997927141419765,176.101204510184
10.46956544,0.9998210484928292,175.48902562512606
10.486956032,0.9998568215496869,174.87644435730377
10.504347648,0.9998984894697392,174.2634045813689
10.521739264,0.9999445035604916,173.64983556768323
10.53913088,0.9999929771370903,173.0357010997804
10.556521472,1.000042225598725,172.42098419029296
10.573913088,1.0000901434459013,171.80568784575448
10.591304704,1.0001347639429028,171.1898198828712
10.608695296,1.0001743753778927,170.5734758626809
10.626086912,1.000207508399792,169.95665983071873
10.643478528,1.0002326820179175,169.3394987201974
10.66086912,1.0002489449401397,168.7220705081127
10.678260736,1.0002555970066997,168.1044771570343
10.695652352,1.0002522978644564,167.48685854453046
10.713043968,1.0002392816331898,166.86925682875423
10.73043456,1.000217114738509,166.25185453852478
10.747826176,1.0001863104688578,165.63472960687753
10.765217792,1.0001483091446215,165.01798384666236
10.782608384,1.0001046258077377,164.40167502418154
10.8,1.0000569069693777,163.7858512367891
10.817391616,1.0000069885683516,163.17058967182663
10.834782208,0.999956895394353,162.55584465298713
10.852173824,0.9999086430815889,161.9416579686392
10.86956544,0.9998640495326038,161.3279746027298
10.886956032,0.999825039016731,160.714773072015
10.904347648,0.9997929575911707,160.10192858065875
10.921739264,0.9997692253434857,159.48937993067761
10.93913088,0.9997549121144437,158.8770702206306
10.956521472,0.9997504226930837,158.264815374767
10.973913088,0.9997560551140616,157.65252847379733
10.991304704,0.9997716570458918,157.04012215619565
11.008695296,0.9997964568379077,156.42745259057295
11.026086912,0.9998297729819327,155.81445048778895
11.043478528,0.9998700662183939,155.20100200943762
11.06086912,0.99991579423812,154.58702305832776
11.078260736,0.9999652801205545,153.97248667043436
11.095652352,1.000016578426957,153.35737053665102
11.113043968,1.0000674737735462,152.74163322993323
11.13043456,1.000116248575699,152.1252998744638
11.147826176,1.0001606074472114,151.5084127488393
11.165217792,1.0001990168613477,150.89101616271944
11.182608384,1.0002298945367352,150.27320524204868
11.2,1.0002519962201242,149.65508309031793
11.217391616,1.0002644723934868,149.03670252268853
11.234782208,1.0002667238444638,148.41823508629676
11.252173824,1.0002585737057614,147.79979858502142
11.26956544,1.0002404964496538,147.1814490009957
11.286956032,1.0002129607464687,146.5633438502675
11.304347648,1.0001771798398376,145.94557303001042
11.321739264,1.0001345881448958,145.3282460034446
11.33913088,1.0000866372926467,144.71140134792088
11.356521472,1.0000354423708442,144.09510680847995
11.373913088,0.9999830216522533,143.47939197875127
11.391304704,0.9999311334392702,142.86423505277665
11.408695296,0.9998821506914982,142.24964613519086
11.426086912,0.999837954289524,141.63557660153057
11.443478528,0.999800191817912,141.02195767429518
11.46086912,0.9997704903233362,140.4087131716904
11.478260736,0.9997500483813269,139.79573471124624
11.495652352,0.9997396722171206,139.18291663432328
11.513043968,0.9997398325438092,138.57013028145812
11.53043456,0.9997505309807826,137.95728379191567
11.547826176,0.9997713393376864,137.3442454083836
11.565217792,0.9998015416835423,136.73088056302785
11.582608384,0.9998399052324899,136.11711392335818
11.6,0.9998849922755136,135.50285257280402
11.617391616,0.9999349630628314,134.8880311653114
11.634782208,0.9999879710463815,134.2726060416059
11.652173824,1.0000418033815743,133.6565546606857
11.66956544,1.000094367402234,133.03987056458797
11.686956032,1.0001436212452008,132.42257565520217
11.704347648,1.0001875796216653,131.80472768700005
11.721739264,1.0002245017379556,131.1864092035094
11.73913088,1.0002528463812188,130.56767983796476
11.756521472,1.000271623085905,129.94866355115806
11.773913088,1.0002797370471275,129.32947667258125
11.791304704,1.0002771956708638,128.71022075576076
11.808695296,1.0002638173993104,128.09104033687805
11.826086912,1.0002402508316348,127.47205014649364
11.843478528,1.0002072990017292,126.85334674710722
11.86086912,1.0001662092454908,126.23508242032212
11.878260736,1.0001186376945503,125.61726859174526
11.895652352,1.0000664762535367,125.00000222109645
11.913043968,1.00001176376214,124.38333867984231
11.93043456,0.9999565790910836,123.76731033132455
11.947826176,0.9999031751861348,123.15186141341917
11.965217792,0.9998536691389164,122.53698459692515
11.982608384,0.9998100650242051,121.92262962504815
12.0,0.9997739621681747,121.30873060782316
12.017391616,0.9997469230135441,120.69516498165663
12.034782208,0.9997300721941507,120.08185136638757
12.052173824,0.9997241425650298,119.468645355353
12.06956544,0.9997292483336944,118.85544287349558
12.086956032,0.9997453987626594,118.2421068906204
12.104347648,0.9997719280698333,117.62850431496356
12.121739264,0.9998077503204906,117.01454032371932
12.13913088,0.9998515654949016,116.4001080703572
12.156521472,0.9999017125559001,115.78513210428694
12.173913088,0.9999560662778271,115.16951812932282
12.191304704,1.0000126102368558,114.55328709464281
12.208695296,1.000069134168474,113.93636539704183
12.226086912,1.0001232464386354,113.31880742257803
12.243478528,1.000172937086805,112.70063217985728
12.26086912,1.0002161948251975,112.08191153303675
12.278260736,1.0002513140156595,111.46271990841174
12.295652352,1.0002767170354432,110.84315735529718
12.313043968,1.0002916151231207,110.22334826108057
12.33043456,1.0002951415854764,109.60341035099674
12.347826176,1.000287285391714,108.98348326293282
12.365217792,1.0002682576247073,108.36368003321472
12.382608384,1.0002386481764283,107.74413396541775
12.4,1.0001998272505481,107.12496217250597
12.417391616,1.0001531399768802,106.5062536265886
12.434782208,1.0001004253364827,105.88810561950453
12.452173824,1.0000437431185265,105.27056940205172
12.46956544,0.9999853268355355,104.65365767047038
12.486956032,0.9999275936012778,104.03742302704421
12.504347648,0.9998725924070232,103.42180497893487
12.521739264,0.9998227130023642,102.80676466625854
12.53913088,0.9997798586828202,102.19226527858835
12.556521472,0.9997457515322467,101.57820243246141
12.573913088,0.9997218686526591,100.96443720291427
12.591304704,0.9997091447368747,100.35090031297679
12.608695296,0.9997080409250952,99.73741223846902
12.626086912,0.9997187311199361,99.12388336545354
12.643478528,0.9997408591557895,98.51013637515148
12.66086912,0.9997735542108445,97.89607580065088
12.678260736,0.9998155432846779,97.28158239019908
12.695652352,0.9998652851374439,96.66656690665685
12.713043968,0.999920677512224,96.05092395571864
12.73043456,0.9999796965037757,95.43461851819637
12.747826176,1.0000399266673055,94.81761641753495
12.765217792,1.0000991497092213,94.19992507989338
12.782608384,1.0001547932024997,93.58156531373608
12.8,1.0002048004875148,92.9625590328782
12.817391616,1.0002471030541316,92.34303353893509
12.834782208,1.0002800254324404,91.72305150842712
12.852173824,1.0003022019392431,91.1027238512092
12.86956544,1.0003128268849464,90.48221128933174
12.886956032,1.000311074130228,89.86160464043635
12.904347648,1.000297318241192,89.24108063675232
12.921739264,1.000272103406649,88.62075088535906
12.93913088,1.0002360835844604,88.0007646270134
