freq,mag,phase
6.0,0.9999937570591351,-152.32237860266181
6.008,0.9999937577430683,-152.74535629569695
6.016,0.9999937665693699,-153.1680767161137
6.024,0.9999937832525194,-153.5905418507979
6.032,0.9999938075114246,-154.01275370163413
6.04,0.9999938390693935,-154.4347142852974
6.048,0.9999938776541077,-154.8564256330463
6.056,0.9999939229975934,-155.27788979051803
6.064,0.9999939748361971,-155.69910881752403
6.072,0.9999940329105531,-156.1200847878478
6.08,0.9999940969655599,-156.54081978904313
6.088,0.9999941667503472,-156.9613159222349
6.096,0.9999942420182496,-157.3815753019204
6.104,0.9999943225267774,-157.80160005577227
6.112,0.9999944080375864,-158.221392324443
6.12,0.999994498316449,-158.6409542613706
6.128,0.9999945931332235,-159.06028803258616
6.136,0.999994692261825,-159.47939581652193
6.144,0.9999947954801951,-159.8982798038218
6.152,0.9999949025702721,-160.3169421971524
6.16,0.9999950133179585,-160.7353852110162
6.168,0.999995127513093,-161.15361107156548
6.176,0.9999952449494163,-161.57162201641822
6.184,0.9999953654245447,-161.98942029447494
6.192,0.9999954887399339,-162.4070081657371
6.2,0.9999956147008519,-162.82438790112727
6.208,0.9999957431163441,-163.2415617823098
6.216,0.9999958737992061,-163.65853210151406
6.224,0.999996006565946,-164.0753011613578
6.232,0.9999961412367607,-164.4918712746731
6.24,0.9999962776354951,-164.9082447643326
6.248,0.9999964155896183,-165.32442396307812
6.256,0.9999965549301875,-165.7404112133498
6.264,0.9999966954918157,-166.156208867117
6.272,0.9999968371126413,-166.57181928571063
6.28,0.9999969796342961,-166.98724483965663
6.288,0.9999971229018721,-167.4024879085108
6.296,0.9999972667638887,-167.8175508806952
6.304,0.9999974110722624,-168.2324361533354
6.312,0.9999975556822746,-168.64714613209986
6.32,0.9999977004525378,-169.06168323103944
6.328,0.9999978452449622,-169.4760498724295
6.336,0.999997989924729,-169.8902484866124
6.344,0.9999981343602513,-170.3042815118415
6.352,0.9999982784231473,-170.71815139412672
6.36,0.9999984219882045,-171.13186058708106
6.368,0.9999985649333494,-171.54541155176852
6.376,0.9999987071396147,-171.95880675655306
6.384,0.9999988484911077,-172.37204867694922
6.392,0.9999989888749777,-172.7851397954736
6.4,0.9999991281813833,-173.19808260149767
6.408,0.9999992663034628,-173.61087959110185
6.416,0.9999994031372992,-174.0235332669306
6.424,0.9999995385818906,-174.4360461380491
6.432,0.999999672539117,-174.84842071980066
6.44,0.9999998049137094,-175.26065953366543
6.448,0.9999999356132182,-175.67276510712054
6.456,0.9999999999999998,-176.08473997350086
6.464,1.0,-176.4965866718615
6.472,0.9999999999999999,-176.90830774684096
6.48,1.0,-177.31990574852543
6.4879999999999995,1.0,-177.7313832323145
6.496,1.0000000000000002,-178.14274275878782
6.504,0.9999999999999999,-178.5539868935723
6.5120000000000005,1.0,-178.9651182072116
6.52,0.9999999999999999,-179.37613927503486
6.5280000000000005,0.9999999999999999,-179.78705267702867
6.536,1.0000000000000002,179.80213900229217
6.5440000000000005,0.9999999999999999,179.391433174011
6.552,0.9999999999999999,178.98082724493628
6.5600000000000005,1.0,178.57031861772592
6.568,1.0,178.15990469101254
6.5760000000000005,1.0,177.7495828595257
6.584,1.0,177.33935051421528
6.592,1.0,176.92920504237205
6.6,1.0,176.5191438277488
6.608,0.9999999999999999,176.1091642506797
6.616,0.9999999999999999,175.6992636881992
6.624,1.0,175.28943951415977
6.632,1.0,174.87968909934904
6.64,0.9999999999999999,174.47000981160596
6.648,0.9999999999999999,174.06039901593618
6.656,1.0000000000000002,173.65085407462672
6.664,1.0,173.24137234735957
6.672,0.9999999999999999,172.83195119132472
6.68,1.0,172.4225879613326
6.688,1.0,172.0132800099252
6.696,0.9999999999999999,171.60402468748725
6.704,1.0,171.19481934235574
6.712,0.9999999999999999,170.7856613209298
6.72,0.9999999999999998,170.37654796777872
6.728,1.0,169.9674766257505
6.736,1.0,169.5584446360787
6.744,1.0,169.14944933848932
6.752,1.0,168.74048807130666
6.76,0.9999999999999999,168.33155817155892
6.768,1.0,167.92265697508282
6.776,1.0,167.51378181662787
6.784,0.9999999999999999,167.10493002996006
6.792,1.0,166.69609894796486
6.8,1.0,166.28728590274991
6.808,1.0,165.8784882257469
6.816,0.9999999999999999,165.4697032478132
6.824,1.0,165.06092829933266
6.832,1.0,164.65216071031656
6.84,0.9999999999999999,164.24339781050332
6.848,1.0,163.83463692945824
6.856,0.9999999999999999,163.42587539667278
6.864,0.9999999999999999,163.01711054166324
6.872,1.0000000000000002,162.60833969406914
6.88,1.0,162.1995601837513
6.888,1.0,161.79076934088923
6.896,1.0000000000000002,161.38196449607875
6.904,1.0,160.97314298042852
6.912,1.0,160.56430212565692
6.92,1.0,160.15543926418803
6.928,0.9999999999999999,159.74655172924798
6.936,1.0,159.33763685496024
6.944,0.9999999999999999,158.9286919764413
6.952,1.0,158.51971442989574
6.96,0.9999999999999999,158.11070155271125
6.968,1.0,157.7016506835532
6.976,0.9999999999999999,157.2925591624592
6.984,1.0,156.88342433093354
6.992,1.0,156.47424353204096
7.0,0.9999999999999999,156.06501411050104
7.008,1.0,155.65573341278173
7.016,0.9999999999999998,155.24639878719313
7.024,1.0,154.83700758398095
7.032,1.0,154.42755715542
7.04,1.0,154.01804485590776
7.048,0.9999999999999999,153.60846804205724
7.056,0.9999999999999999,153.1988240727906
7.064,1.0000000000000002,152.78911030943186
7.072,0.9999999999999999,152.37932411580067
7.08,1.0,151.96946285830475
7.088,0.9999999999999999,151.5595239060335
7.096,0.9999999999999999,151.14950463085069
7.104,1.0,150.739402407488
7.112,1.0,150.32921461363787
7.12,0.9999999999999999,149.9189386300468
7.128,1.0,149.5085718406088
7.136,1.0,149.0981116324584
7.144,1.0,148.68755539606443
7.152,1.0,148.27690052532327
7.16,0.9999999480525499,147.86614441765286
7.168,0.9999998172327713,147.45528447408608
7.176,0.9999996843815177,147.04431809936492
7.184,0.9999995495472129,146.63324270203464
7.192,0.9999994127787438,146.22205569453766
7.2,0.9999992741254458,145.81075449330856
7.208,0.9999991336370836,145.3993365188681
7.216,0.9999989913638321,144.98779919591848
7.224,0.999998847356262,144.57613995343831
7.232,0.9999987016653191,144.1643562247777
7.24,0.9999985543423079,143.75244544775404
7.248,0.9999984054388747,143.34040506474764
7.256,0.9999982550069926,142.92823252279788
7.264,0.9999981030989394,142.51592527369942
7.272,0.9999979497672848,142.10348077409895
7.28,0.9999977950648744,141.69089648559208
7.288,0.9999976390448101,141.27816987482058
7.296,0.9999974817604338,140.86529841356997
7.304,0.9999973232653155,140.45227957886743
7.312,0.9999971636132322,140.0391108530801
7.32,0.9999970028581541,139.6257897240137
7.328,0.999996841054229,139.21231368501145
7.336,0.9999966782557657,138.7986802350535
7.344,0.9999965145172199,138.38488687885686
7.352,0.9999963498931754,137.97093112697536
7.36,0.9999961844383329,137.55681049590038
7.368,0.9999960182074928,137.1425225081619
7.376,0.9999958512555401,136.7280646924298
7.384,0.9999956836374283,136.31343458361604
7.392,0.9999955154081682,135.89862972297678
7.4,0.9999953466228091,135.48364765821535
7.4079999999999995,0.9999951773364272,135.06848594358553
7.416,0.9999950076041092,134.65314213999525
7.4239999999999995,0.9999948374809398,134.23761381511122
7.432,0.9999946670219859,133.82189854346325
7.4399999999999995,0.9999944962822829,133.40599390654987
7.448,0.999994325316823,132.98989749294404
7.4559999999999995,0.9999941541805372,132.57360689839982
7.464,0.9999939829282846,132.1571197259585
7.4719999999999995,0.9999938116148385,131.74043358605712
7.48,0.999993640294873,131.32354609663548
7.4879999999999995,0.9999934690229486,130.90645488324552
7.496,0.9999932978535004,130.48915757915967
7.504,0.9999931268408234,130.0716518254814
7.5120000000000005,0.9999929560390607,129.65393527125474
7.52,0.9999927855021924,129.23600557357588
7.5280000000000005,0.9999926152840181,128.81786039770407
7.536,0.9999924454381485,128.39949741717422
7.5440000000000005,0.9999922760179923,127.98091431390915
7.552,0.9999921070767418,127.56210877833351
7.5600000000000005,0.9999919386673638,127.14307850948698
7.568,0.9999917708425836,126.72382121513982
7.5760000000000005,0.9999916036548765,126.30433461190708
7.584,0.9999914371564543,125.88461642536552
7.5920000000000005,0.9999912713992534,125.4646643901691
7.6,0.9999911064349244,125.04447625016721
7.6080000000000005,0.9999909423148187,124.62404975852156
7.616,0.9999907790899791,124.20338267782543
7.6240000000000006,0.9999906168111264,123.78247278022229
7.632,0.9999904555286502,123.36131784752622
7.640000000000001,0.9999902952925965,122.9399156713417
7.648,0.9999901361526579,122.51826405318566
7.656000000000001,0.9999899781581614,122.09636080460862
7.664,0.999989821358058,121.67420374731788
7.672,0.9999896658009144,121.25179071330014
7.68,0.9999895115348986,120.82911954494608
7.688,0.9999893586077729,120.40618809517464
7.696,0.9999892070668812,119.98299422755844
7.704,0.9999890569591409,119.55953581644988
7.712,0.9999889083310314,119.13581074710781
7.72,0.9999887612285853,118.71181691582505
7.728,0.9999886156973776,118.28755223005642
7.736,0.9999884717825168,117.86301460854777
7.744,0.9999883295286349,117.43820198146531
7.752,0.9999881889798787,117.01311229052605
7.76,0.9999880501798992,116.58774348912858
7.768,0.999987913171843,116.16209354248491
7.776,0.9999877779983443,115.73616042775268
7.784,0.9999876447015144,115.30994213416832
7.792,0.9999875133229333,114.88343666318066
7.8,0.9999873839036417,114.45664202858562
7.808,0.9999872564841306,114.02955625666108
7.816,0.9999871311043355,113.60217738630291
7.824,0.9999870078036254,113.17450346916145
7.832,0.9999868866207965,112.74653256977867
7.84,0.9999867675940629,112.31826276572608
7.848,0.9999866507610484,111.8896921477434
7.856,0.9999865361587797,111.46081881987772
7.864,0.9999864238236784,111.03164089962331
7.872,0.999986313791552,110.60215651806247
7.88,0.9999862060975883,110.17236382000652
7.888,0.9999861007763464,109.74226096413784
7.896,0.9999859978617506,109.31184612315236
7.904,0.9999858973870824,108.88111748390277
7.912,0.9999857993849739,108.45007324754226
7.92,0.9999857038874004,108.01871162966913
7.928,0.9999856109256744,107.58703086047166
7.936,0.9999855205304387,107.15502918487394
7.944,0.9999854327316586,106.72270486268212
7.952,0.9999853475586176,106.29005616873125
7.96,0.9999852650399096,105.85708139303276
7.968,0.9999851852034332,105.42377884092252
7.976,0.9999851080763855,104.99014683320945
7.984,0.999985033685257,104.55618370632467
7.992,0.9999849620558245,104.12188781247123
8.0,0.9999848932131461,103.6872575197743
8.008,0.9999848271815562,103.25229121243211
8.016,0.9999847639846595,102.81698729086686
8.024000000000001,0.999984703645326,102.38134417187702
8.032,0.9999846461856848,101.94536028878927
8.04,0.9999845916271218,101.50903409161116
8.048,0.9999845399902721,101.07236404718438
8.056000000000001,0.9999844912950161,100.63534863933869
8.064,0.9999844455604765,100.19798636904575
8.072,0.9999844028050109,99.76027575457343
8.08,0.9999843630462102,99.32221533164083
8.088000000000001,0.9999843263008932,98.88380365357386
8.096,0.9999842925851029,98.44503929146057
8.104,0.9999842619141018,98.00592083430699
8.112,0.9999842343023705,97.56644688919368
8.120000000000001,0.9999842097636005,97.12661608143247
8.128,0.9999841883106941,96.68642705472325
8.136,0.9999841699557594,96.245878471311
8.144,0.9999841547101077,95.8049690121434
8.152000000000001,0.9999841425842495,95.3636973770288
8.16,0.9999841335878932,94.92206228479387
8.168,0.9999841277299418,94.48006247344158
8.176,0.9999841250184889,94.03769670030967
8.184000000000001,0.9999841254608197,93.59496374222934
8.192,0.9999841290634041,93.15186239568361
8.2,0.9999841358318989,92.7083914769658
8.208,0.9999841457711435,92.26454982233857
8.216000000000001,0.9999841588851575,91.82033628819292
8.224,0.9999841751771428,91.37574975120692
8.232,0.9999841946494765,90.93078910850444
8.24,0.9999842173037146,90.48545327781416
8.248000000000001,0.9999842431405881,90.03974119762867
8.256,0.9999842721600026,89.59365182736316
8.264,0.9999843043610371,89.14718414751383
8.272,0.999984339741945,88.7003371598167
8.280000000000001,0.9999843783001515,88.25310988740634
8.288,0.9999844200322531,87.8055013749739
8.296,0.99998446493402,87.35751068892503
8.304,0.9999845130003929,86.90913691753792
8.312,0.999984564225486,86.46037917112128
8.32,0.9999846186025848,86.01123658217088
8.328,0.9999846761241485,85.56170830552736
8.336,0.9999847367818083,85.11179351853222
8.344,0.9999848005663713,84.66149142118475
8.352,0.9999848674678196,84.2108012362972
8.36,0.9999849374753104,83.75972220965099
8.368,0.9999850105771796,83.30825361015079
8.376,0.9999850867609429,82.85639472997994
8.384,0.9999851660132955,82.40414488475344
8.392,0.9999852483201158,81.95150341367206
8.4,0.9999853336664669,81.49846967967439
8.408,0.999985422036599,81.04504306958954
8.416,0.9999855134139509,80.59122299428796
8.424,0.9999856077811541,80.13700888883275
8.432,0.9999857051200328,79.68240021262886
8.44,0.9999858054116109,79.22739644957302
8.448,0.9999859086361108,78.77199710820126
8.456,0.9999860147729591,78.31620172183719
8.464,0.9999861238007908,77.8600098487377
8.472,0.9999862356974493,77.40342107223942
8.48,0.999986350439994,76.94643500090253
8.488,0.9999864680047027,76.48905126865519
8.496,0.9999865883670757,76.03126953493526
8.504,0.9999867115018398,75.57308948483265
8.512,0.9999868373829544,75.11451082922878
8.52,0.9999869659836138,74.65553330493644
8.528,0.9999870972762545,74.19615667483714
8.536,0.9999872312325585,73.73638072801839
8.544,0.99998736782346,73.27620527990831
8.552,0.9999875070191492,72.81563017241047
8.56,0.9999876487890793,72.35465527403572
8.568,0.9999877931019721,71.8932804800342
8.576,0.9999879399258234,71.43150571252428
8.584,0.9999880892279094,70.96933092062149
8.592,0.9999882409747938,70.50675608056447
8.6,0.9999883951323334,70.04378119584084
8.608,0.9999885516656852,69.58040629730968
8.616,0.9999887105393135,69.11663144332421
8.624,0.9999888717169967,68.65245671985083
8.632,0.999989035161835,68.18788224058818
8.64,0.9999892008362574,67.7229081470827
8.648,0.9999893687020299,67.25753460884395
8.656,0.9999895387202627,66.79176182345638
8.664,0.9999897108514195,66.32559001669068
8.672,0.9999898850553233,65.85901944261175
8.68,0.9999900612911676,65.39205038368593
8.688,0.9999902395175231,64.92468315088465
8.696,0.9999904196923475,64.45691808378767
8.704,0.9999906017729937,63.98875555068226
8.712,0.9999907857162191,63.52019594866197
8.72,0.9999909714781957,63.05123970372142
8.728,0.999991159014518,62.5818872708503
8.736,0.9999913482802139,62.11213913412351
8.744,0.9999915392297547,61.64199580679045
8.752,0.9999917318170642,61.17145783136014
8.76,0.999991925995529,60.70052577968553
8.768,0.9999921217180099,60.22920025304362
8.776,0.9999923189368503,59.75748188221456
8.784,0.99999251760389,59.28537132755641
8.792,0.9999927176704729,58.81286927907906
8.8,0.9999929190874602,58.33997645651335
8.808,0.9999931218052404,57.866693609379595
8.815999999999999,0.999993325773741,57.39302151705109
8.824,0.9999935309424408,56.91896098881633
8.832,0.9999937372603798,56.44451286393782
8.84,0.9999939446761733,55.96967801170767
8.847999999999999,0.9999941531380216,55.49445733150009
8.856,0.9999943625937239,55.01885175282121
8.864,0.9999945729906893,54.54286223535598
8.872,0.9999947842759505,54.06648976901117
8.879999999999999,0.9999949963961755,53.58973537395546
8.888,0.9999952092976804,53.11260010065654
8.896,0.999995422926443,52.635085029914976
8.904,0.9999956372281146,52.157191272894295
8.911999999999999,0.9999958521480344,51.67891997114775
8.92,0.9999960676312425,51.20027229664199
8.928,0.9999962836224917,50.72124945177741
8.936,0.9999965000662638,50.24185266940443
8.943999999999999,0.9999967169067817,49.7620832128363
8.952,0.999996934088023,49.28194237585878
8.96,0.9999971515537344,48.80143148273611
8.968,0.999997369247446,48.320551888213
8.975999999999999,0.9999975871124852,47.83930497751274
8.984,0.9999978050919899,47.357692166332264
8.992,0.9999980231289256,46.875714900833174
9.0,0.9999982411660971,46.39337465762868
9.008,0.9999984591461646,45.91067294376655
9.016,0.9999986770116573,45.427611296708825
9.024000000000001,0.9999988947049897,44.94419128430736
9.032,0.9999991121684754,44.4604145047751
9.04,0.9999993293443418,43.9762825866534
9.048,0.9999995461747462,43.49179718877566
9.056000000000001,0.9999997626017905,43.006960000226954
9.064,0.9999999785675356,42.52177274029912
9.072,1.0,42.0362371584417
9.08,1.0,41.55035503420933
9.088000000000001,1.0,41.064128177204616
9.096,0.9999999999999998,40.577558427016776
9.104,1.0,40.09064765315565
9.112,1.0,39.603397754982254
9.120000000000001,1.0,39.11581066163477
9.128,1.0,38.62788833194988
9.136,1.0,38.13963275437983
9.144,0.9999999999999999,37.6510459469055
9.152000000000001,1.0,37.16212995694509
9.16,1.0,36.67288686125804
9.168,0.9999999999999999,36.183318765844476
9.176,1.0,35.69342780584063
9.184000000000001,1.0,35.20321614540988
9.192,1.0,34.71268597762888
9.2,0.9999999999999999,34.22183952436912
9.208,1.0,33.730679036174514
9.216000000000001,1.0,33.23920679213446
9.224,1.0,32.74742509975188
9.232,1.0,32.255336294806824
9.24,0.9999999999999999,31.76294274121593
9.248000000000001,1.0,31.270246830887267
9.256,1.0,30.777250983570312
9.264,0.9999999999999999,30.28395764670129
9.272,1.0,29.79036929524439
9.280000000000001,1.0,29.296488431528427
9.288,1.0,28.8023175850785
9.296,0.9999999999999999,28.307859312443167
9.304,1.0,27.813116197017212
9.312000000000001,1.0,27.318090848860315
9.32,1.0,26.822785904510194
9.328,1.0,26.327204026791655
9.336,1.0,25.83134790462125
9.344,1.0,25.335220252807588
9.352,0.9999999999999999,24.838823811846066
9.36,0.9999999999999999,24.342161347710686
9.368,0.9999999999999999,23.845235651639594
9.376,1.0,23.348049539917945
9.384,1.0,22.850605853654486
9.392,1.0,22.35290745855543
9.4,1.0,21.854957244692198
9.408,1.0000000000000002,21.356758126266467
9.416,1.0,20.858313041368984
9.424,0.9999999999999998,20.359624951735952
9.432,1.0,19.860696842499046
9.44,0.9999999999999999,19.361531721933165
9.448,0.9999999999999999,18.8621326211978
9.456,1.0,18.3625025940762
9.464,1.0,17.862644716708324
9.472,1.0,17.362562087321432
9.48,1.0,16.86225782595473
9.488,0.9999999999999999,16.361735074181627
9.496,1.0,15.86099699482615
9.504,0.9999999999999999,15.360046771677018
9.512,1.0,14.858887609195934
9.52,0.9999999999999999,14.357522732223684
9.528,1.0,13.855955385680456
9.536,1.0,13.354188834264123
9.544,1.0,12.852226362142767
9.552,1.0,12.350071272645335
9.56,1.0000000000000002,11.847726887946536
9.568,0.9999999999999999,11.34519654875001
9.576,0.9999999999999999,10.84248361396589
9.584,1.0,10.339591460386623
9.592,1.0,9.83652348235741
9.6,1.0,9.333283091444944
9.608,1.0,8.82987371610084
9.616,1.0,8.32629880132355
9.624,0.9999999999999999,7.8225618083150925
9.632,1.0,7.3186662141363
9.64,1.0,6.8146155113570535
9.648,0.9999999999999999,6.310413207705162
9.656,1.0,5.80606282571037
9.664,1.0,5.301567902347042
9.672,1.0,4.7969319886722515
9.68,1.0,4.29215864946256
9.688,0.9999999999999999,3.787251462846356
9.696,1.0,3.2822140199351035
9.704,1.0,2.7770499244501408
9.712,1.0,2.2717627923486687
9.72,1.0,1.7663562514453945
9.728,1.0,1.260833941033434
9.736,1.0,0.7551995115011032
9.744,1.0,0.2494566239480909
9.752,0.9999999999999999,-0.25639105020233877
9.76,1.0,-0.762339829591603
9.768,0.9999999999999999,-1.2683860233178754
9.776,1.0,-1.7745259313284476
9.784,1.0,-2.280755844815804
9.792,1.0,-2.787072046613765
9.8,1.0,-3.2934708115971816
9.808,0.9999999999999998,-3.7999484070815925
9.816,1.0,-4.306501093226237
9.824,1.0,-4.813125123436848
9.832,1.0,-5.319816744771664
9.84,0.9999999999999998,-5.82657219834703
9.847999999999999,0.9999999999999999,-6.3333877197459625
9.856,0.9999999999999999,-6.840259539426785
9.864,0.9999999999999999,-7.3471838831329945
9.872,1.0,-7.854156972304612
9.879999999999999,1.0,-8.361175024490446
9.888,1.0,-8.868234253760798
9.896,1.0,-9.375330871120894
9.904,1.0,-9.882461084925493
9.911999999999999,1.0,-10.389621101294038
