freq,mag,phase
6.0,0.999995246374199,-41.27380879861991
6.008,0.9999962324142989,-41.61601822544387
6.016,0.9999971702227946,-41.958014439553615
6.024,0.9999980609760075,-42.299795934933066
6.032,0.9999989058335805,-42.64136121781887
6.04,0.9999997059385723,-42.98270880674076
6.048,1.0,-43.32383723256066
6.056,1.0,-43.664745038510496
6.064,1.0,-44.00543078022872
6.072,1.0,-44.34589302579571
6.08,1.0,-44.68613035576772
6.088,1.0,-45.02614136320978
6.096,1.0,-45.36592465372724
6.104,1.0,-45.70547884549602
6.112,0.9999999999999999,-46.044802569291846
6.12,0.9999999999999999,-46.38389446851801
6.128,0.9999999999999999,-46.72275319923201
6.136,1.0,-47.06137743017102
6.144,0.9999999999999999,-47.39976584277603
6.152,1.0,-47.73791713121485
6.16,1.0,-48.07583000240388
6.168,1.0,-48.41350317602869
6.176,0.9999999999999999,-48.7509353845634
6.184,0.9999999999999999,-49.08812537328887
6.192,1.0,-49.42507190030976
6.2,1.0,-49.76177373657021
6.208,1.0,-50.09822966586862
6.216,0.9999999999999999,-50.43443848487116
6.224,1.0,-50.770399003124
6.232,1.0,-51.106110043064604
6.24,1.0,-51.44157044003165
6.248,1.0000000000000002,-51.77677904227406
6.256,1.0,-52.11173471095864
6.264,1.0,-52.44643632017687
6.272,1.0,-52.78088275695026
6.28,1.0,-53.115072921235004
6.288,1.0,-53.449005725925076
6.296,0.9999999999999999,-53.78268009685459
6.304,1.0,-54.116094972798976
6.312,1.0,-54.449249305474964
6.32,1.0,-54.78214205953967
6.328,1.0,-55.11477221258851
6.336,1.0,-55.447138755152096
6.344,1.0,-55.77924069069211
6.352,0.9999999999999998,-56.111077035596196
6.36,1.0,-56.44264681917162
6.368,1.0,-56.7739490836382
6.376,1.0,-57.104982884120005
6.384,1.0,-57.43574728863621
6.392,0.9999999999999999,-57.76624137809083
6.4,1.0,-58.09646424626162
6.408,0.9999999999999999,-58.426414999787845
6.416,1.0,-58.75609275815731
6.424,1.0,-59.08549665369214
6.432,0.9999999999999999,-59.414625831533975
6.44,1.0,-59.74347944962789
6.448,0.9999999999999999,-60.07205667870569
6.456,1.0,-60.40035670226809
6.464,1.0,-60.728378716566084
6.472,1.0,-61.056121930581455
6.48,0.9999999999999999,-61.38358556600628
6.4879999999999995,1.0,-61.71076885722175
6.496,1.0,-62.03767105127601
6.504,1.0,-62.36429140786098
6.5120000000000005,0.9999999999999999,-62.690629199289
6.52,0.9999999753799166,-63.01668371046752
6.5280000000000005,0.9999996169952072,-63.34245423887429
6.536,0.9999992569239351,-63.66794009453053
6.5440000000000005,0.9999988954926081,-63.99314059997434
6.552,0.9999985330186788,-64.31805509023239
6.5600000000000005,0.9999981698106678,-64.64268291279174
6.568,0.9999978061682833,-64.96702342756996
6.5760000000000005,0.9999974423825448,-65.29107600688549
6.584,0.9999970787359003,-65.61484003542624
6.592,0.9999967155023514,-65.93831491021842
6.6,0.9999963529475678,-66.26150004059389
6.608,0.9999959913290118,-66.58439484815716
6.616,0.9999956308960537,-66.90699876675173
6.624,0.9999952718900919,-67.22931124242552
6.632,0.9999949145446705,-67.55133173339588
6.64,0.9999945590855971,-67.87305971001362
6.648,0.999994205731059,-68.19449465472667
6.656,0.9999938546917405,-68.51563606204293
6.664,0.9999935061709383,-68.83648343849264
6.672,0.9999931603646764,-69.1570363025898
6.68,0.9999928174618211,-69.47729418479341
6.688,0.9999924776441957,-69.79725662746776
6.696,0.9999921410866925,-70.11692318484228
6.704,0.9999918079573876,-70.43629342297082
6.712,0.9999914784176506,-70.75536691969023
6.72,0.9999911526222584,-71.07414326457855
6.728,0.9999908307195047,-71.39262205891254
6.736,0.9999905128513111,-71.71080291562465
6.744,0.9999901991533356,-72.02868545925958
6.752,0.999989889755082,-72.34626932593015
6.76,0.9999895847800087,-72.66355416327286
6.768,0.9999892843456338,-72.98053963040276
6.776,0.9999889885636445,-73.29722539786793
6.784,0.9999886975400015,-73.61361114760352
6.792,0.9999884113750445,-73.9296965728852
6.8,0.9999881301635957,-74.24548137828232
6.808,0.999987853995065,-74.56096527961037
6.816,0.999987582953552,-74.87614800388336
6.824,0.9999873171179484,-75.19102928926539
6.832,0.9999870565620385,-75.50560888502207
6.84,0.9999868013546007,-75.81988655147148
6.848,0.9999865515595067,-76.13386205993466
6.856,0.9999863072358205,-76.4475351926857
6.864,0.9999860684378956,-76.76090574290163
6.872,0.9999858352154747,-77.07397351461171
6.88,0.9999856076137822,-77.38673832264656
6.888,0.9999853856736243,-77.69919999258681
6.896,0.9999851694314797,-78.01135836071144
6.904,0.9999849589195955,-78.32321327394587
6.912,0.9999847541660805,-78.63476458980962
6.92,0.999984555194996,-78.94601217636374
6.928,0.9999843620264484,-79.2569559121579
6.936,0.9999841746766789,-79.56759568617724
6.944,0.9999839931581526,-79.87793139778879
6.952,0.9999838174796486,-80.1879629566879
6.96,0.9999836476463466,-80.49769028284406
6.968,0.9999834836599142,-80.80711330644682
6.976,0.9999833255185935,-81.11623196785112
6.984,0.9999831732172846,-81.42504621752266
6.992,0.9999830267476318,-81.73355601598291
7.0,0.9999828860981058,-82.04176133375394
7.008,0.9999827512540869,-82.34966215130298
7.016,0.9999826221979452,-82.65725845898685
7.024,0.9999824989091234,-82.96455025699625
7.032,0.9999823813642142,-83.27153755529969
7.04,0.9999822695370415,-83.57822037358741
7.048,0.9999821633987369,-83.88459874121503
7.056,0.9999820629178159,-84.19067269714708
7.064,0.9999819680602573,-84.49644228990051
7.072,0.999981878789575,-84.80190757748771
7.08,0.9999817950668946,-85.1070686273598
7.088,0.9999817168510252,-85.41192551634953
7.096,0.9999816440985332,-85.71647833061417
7.104,0.9999815767638139,-86.02072716557822
7.112,0.9999815147991618,-86.3246721258761
7.12,0.9999814581548397,-86.62831332529471
7.128,0.9999814067791496,-86.93165088671587
7.136,0.9999813606184983,-87.23468494205869
7.144,0.9999813196174673,-87.53741563222198
7.152,0.9999812837188763,-87.83984310702634
7.16,0.9999812528638508,-88.14196752515646
7.168,0.9999812269918847,-88.4437890541033
7.176,0.9999812060409058,-88.74530787010605
7.184,0.9999811899473359,-89.0465241580943
7.192,0.9999811786461557,-89.34743811162998
7.2,0.9999811720709629,-89.64804993284955
7.208,0.999981170154035,-89.94835983240564
7.216,0.9999811728263845,-90.2483680294094
7.224,0.9999811800178212,-90.5480747513723
7.232,0.999981191657008,-90.84748023414805
7.24,0.9999812076715163,-91.14658472187473
7.248,0.9999812279878832,-91.44538846691668
7.256,0.9999812525316665,-91.74389172980659
7.264,0.9999812812274967,-92.04209477918752
7.272,0.9999813139991314,-92.339997891755
7.28,0.9999813507695084,-92.63760135219917
7.288,0.9999813914607955,-92.93490545314691
7.296,0.999981435994441,-93.23191049510409
7.304,0.9999814842912246,-93.5286167863979
7.312,0.9999815362713059,-93.82502464311908
7.32,0.9999815918542714,-94.12113438906444
7.328,0.9999816509591835,-94.41694635567929
7.336,0.9999817135046243,-94.712460882
7.344,0.9999817794087436,-95.00767831459675
7.352,0.9999818485893027,-95.30259900751612
7.36,0.9999819209637185,-95.597223322224
7.368,0.9999819964491053,-95.89155162754855
7.376,0.99998207496232,-96.1855842996232
7.384,0.9999821564200005,-96.47932172182982
7.392,0.999982240738608,-96.77276428474194
7.4,0.9999823278344675,-97.06591238606823
7.4079999999999995,0.999982417623806,-97.35876643059582
7.416,0.9999825100227908,-97.6513268301343
7.4239999999999995,0.999982604947568,-97.94359400345891
7.432,0.9999827023142989,-98.23556837625512
7.4399999999999995,0.9999828020391957,-98.52725038106202
7.448,0.9999829040385579,-98.81864045721714
7.4559999999999995,0.999983008228806,-99.10973905080019
7.464,0.9999831145265159,-99.40054661457808
7.4719999999999995,0.9999832228484521,-99.69106360794915
7.48,0.9999833331115995,-99.98129049688835
7.4879999999999995,0.9999834452331958,-100.27122775389186
7.496,0.9999835591307622,-100.56087585792264
7.504,0.9999836747221342,-100.85023529435529
7.5120000000000005,0.9999837919254906,-101.13930655492202
7.52,0.9999839106593816,-101.4280901376579
7.5280000000000005,0.9999840308427594,-101.71658654684718
7.536,0.9999841523950032,-102.00479629296879
7.5440000000000005,0.9999842752359477,-102.29271989264318
7.552,0.9999843992859085,-102.58035786857816
7.5600000000000005,0.9999845244657077,-102.86771074951614
7.568,0.9999846506966988,-103.15477907018033
7.5760000000000005,0.9999847779007913,-103.44156337122233
7.584,0.9999849060004731,-103.72806419916895
7.5920000000000005,0.9999850349188348,-104.01428210637006
7.6,0.9999851645795916,-104.3002176509457
7.6080000000000005,0.9999852949071039,-104.58587139673463
7.616,0.9999854258263994,-104.87124391324174
7.6240000000000006,0.9999855572631933,-105.15633577558701
7.632,0.9999856891439085,-105.44114756445339
7.640000000000001,0.9999858213956936,-105.72567986603622
7.648,0.9999859539464424,-106.00993327199154
7.656000000000001,0.9999860867248117,-106.29390837938598
7.664,0.9999862196602396,-106.57760579064552
7.672,0.9999863526829604,-106.86102611350582
7.68,0.9999864857240229,-107.14416996096168
7.688,0.9999866187153046,-107.4270379512173
7.696,0.9999867515895283,-107.70963070763683
7.704,0.9999868842802755,-107.99194885869478
7.712,0.9999870167220007,-108.27399303792706
7.72,0.9999871488500465,-108.55576388388201
7.728,0.9999872806006537,-108.83726204007185
7.736,0.9999874119109765,-109.11848815492421
7.744,0.9999875427190928,-109.39944288173407
7.752,0.9999876729640174,-109.68012687861591
7.76,0.9999878025857104,-109.96054080845592
7.768,0.99998793152509,-110.24068533886489
7.776,0.9999880597240415,-110.52056114213089
7.784,0.9999881871254268,-110.80016889517248
7.792,0.9999883136730936,-111.07950927949219
7.8,0.9999884393118835,-111.35858298113011
7.808,0.9999885639876412,-111.63739069061785
7.816,0.9999886876472207,-111.91593310293271
7.824,0.9999888102384935,-112.1942109174522
7.832,0.9999889317103544,-112.47222483790871
7.84,0.9999890520127293,-112.74997557234454
7.848,0.9999891710965794,-113.02746383306715
7.856,0.9999892889139075,-113.30469033660465
7.864,0.9999894054177628,-113.5816558036617
7.872,0.9999895205622453,-113.85836095907545
7.88,0.9999896343025111,-114.13480653177201
7.888,0.9999897465947736,-114.41099325472297
7.896,0.9999898573963105,-114.68692186490229
7.904,0.9999899666654634,-114.96259310324355
7.912,0.999990074361642,-115.2380077145973
7.92,0.999990180445327,-115.51316644768879
7.928,0.9999902848780705,-115.78807005507589
7.936,0.9999903876224979,-116.06271929310749
7.944,0.99999048864231,-116.33711492188198
7.952,0.9999905879022821,-116.6112577052059
7.96,0.9999906853682663,-116.88514841055331
7.968,0.9999907810071896,-117.15878780902494
7.976,0.9999908747870556,-117.43217667530791
7.984,0.9999909666769425,-117.70531578763563
7.992,0.9999910566470024,-117.978205927748
8.0,0.9999911446684612,-118.25084788085194
8.008,0.9999912307136154,-118.52324243558198
8.016,0.9999913147558313,-118.79539038396163
8.024000000000001,0.9999913967695425,-119.06729252136424
8.032,0.999991476730248,-119.33894964647482
8.04,0.9999915546145084,-119.61036256125202
8.048,0.9999916303999437,-119.88153207089024
8.056000000000001,0.9999917040652295,-120.15245898378167
8.064,0.9999917755900941,-120.42314411147944
8.072,0.9999918449553137,-120.69358826866048
8.08,0.9999919121427093,-120.96379227308876
8.088000000000001,0.9999919771351413,-121.23375694557869
8.096,0.9999920399165053,-121.50348310995903
8.104,0.9999921004717277,-121.77297159303708
8.112,0.9999921587867596,-122.04222322456302
8.120000000000001,0.9999922148485723,-122.31123883719424
8.128,0.9999922686451513,-122.5800192664606
8.136,0.9999923201654902,-122.84856535072957
8.144,0.9999923693995852,-123.11687793117173
8.152000000000001,0.9999924163384285,-123.38495785172616
8.16,0.9999924609740019,-123.6528059590668
8.168,0.9999925032992696,-123.92042310256879
8.176,0.9999925433081723,-124.18781013427483
8.184000000000001,0.9999925809956192,-124.45496790886202
8.192,0.9999926163574813,-124.72189728360901
8.2,0.9999926493905833,-124.98859911836347
8.208,0.9999926800926963,-125.2550742755097
8.216000000000001,0.9999927084625296,-125.52132361993638
8.224,0.9999927344997239,-125.78734801900487
8.232,0.9999927582048413,-126.05314834251786
8.24,0.9999927795793574,-126.31872546268781
8.248000000000001,0.9999927986256543,-126.584080254106
8.256,0.9999928153470093,-126.8492135937119
8.264,0.9999928297475883,-127.11412636076263
8.272,0.9999928418324351,-127.37881943680277
8.280000000000001,0.9999928516074641,-127.64329370563442
8.288,0.9999928590794492,-127.90755005328734
8.296,0.9999928642560154,-128.1715893679898
8.304,0.9999928671456283,-128.43541254013948
8.312,0.9999928677575859,-128.69902046227404
8.32,0.9999928661020068,-128.96241402904315
8.328,0.9999928621898225,-129.22559413717957
8.336,0.9999928560327653,-129.4885616854715
8.344,0.999992847643359,-129.75131757473426
8.352,0.9999928370349092,-130.0138627077831
8.36,0.9999928242214913,-130.27619798940543
8.368,0.9999928092179416,-130.53832432633425
8.376,0.9999927920398458,-130.80024262722065
8.384,0.9999927727035286,-131.0619538026079
8.392,0.9999927512260424,-131.3234587649045
8.4,0.9999927276251573,-131.58475842835864
8.408,0.9999927019193495,-131.84585370903181
8.416,0.9999926741277907,-132.10674552477377
8.424,0.9999926442703356,-132.36743479519663
8.432,0.9999926123675131,-132.6279224416503
8.44,0.9999925784405129,-132.88820938719712
8.448,0.9999925425111751,-133.14829655658778
8.456,0.9999925046019786,-133.40818487623636
8.464,0.9999924647360295,-133.66787527419683
8.472,0.9999924229370499,-133.92736868013856
8.48,0.9999923792293662,-134.18666602532318
8.488,0.9999923336378967,-134.4457682425807
8.496,0.9999922861881422,-134.70467626628684
8.504,0.9999922369061706,-134.96339103233956
8.512,0.9999921858186083,-135.2219134781369
8.52,0.9999921329526271,-135.48024454255395
8.528,0.999992078335933,-135.7383851659211
8.536,0.9999920219967524,-135.99633629000164
8.544,0.9999919639638228,-136.25409885797038
8.552,0.9999919042663793,-136.5116738143916
8.56,0.999991842934143,-136.76906210519826
8.568,0.9999917799973087,-137.0262646776704
8.576,0.9999917154865331,-137.2832824804147
8.584,0.9999916494329234,-137.54011646334345
8.592,0.9999915818680237,-137.7967675776545
8.6,0.9999915128238046,-138.05323677581057
8.608,0.9999914423326502,-138.30952501151987
8.616,0.999991370427346,-138.56563323971568
8.624,0.9999912971410672,-138.82156241653735
8.632,0.999991222507366,-139.07731349931052
8.64,0.999991146560161,-139.3328874465283
8.648,0.9999910693337227,-139.5882852178322
8.656,0.9999909908626636,-139.84350777399354
8.664,0.9999909111819253,-140.0985560768947
8.672,0.9999908303267656,-140.35343108951133
8.68,0.999990748332748,-140.6081337758936
8.688,0.9999906652357285,-140.86266510114902
8.696,0.9999905810718447,-141.11702603142422
8.704,0.9999904958775019,-141.37121753388786
8.712,0.999990409689363,-141.62524057671308
8.72,0.9999903225443358,-141.87909612906085
8.728,0.9999902344795609,-142.1327851610625
8.736,0.9999901455323996,-142.38630864380372
8.744,0.999990055740423,-142.63966754930752
8.752,0.9999899651413986,-142.89286285051847
8.76,0.9999898737732806,-143.14589552128618
8.768,0.9999897816741956,-143.3987665363498
8.776,0.999989688882433,-143.6514768713219
8.784,0.9999895954364313,-143.9040275026735
8.792,0.9999895013747687,-144.1564194077182
8.8,0.99998940673615,-144.40865356459756
8.808,0.9999893115593941,-144.66073095226574
8.815999999999999,0.999989215883425,-144.91265255047506
8.824,0.9999891197472581,-145.1644193397613
8.832,0.9999890231899903,-145.41603230142925
8.84,0.9999889262507863,-145.66749241753854
8.847999999999999,0.9999888289688704,-145.91880067088977
8.856,0.9999887313835126,-146.16995804501045
8.864,0.9999886335340189,-146.4209655241414
8.872,0.9999885354597189,-146.67182409322317
8.879999999999999,0.9999884371999556,-146.922534737883
8.888,0.999988338794074,-147.17309844442133
8.896,0.9999882402814099,-147.423516199799
8.904,0.9999881417012793,-147.6737889916242
8.911999999999999,0.999988043092967,-147.9239178081404
8.92,0.9999879444957166,-148.17390363821318
8.928,0.9999878459487191,-148.4237474713183
8.936,0.9999877474911016,-148.67345029752957
8.943999999999999,0.9999876491619187,-148.9230131075066
8.952,0.9999875510001395,-149.17243689248346
8.96,0.9999874530446388,-149.42172264425642
8.968,0.9999873553341863,-149.6708713551728
8.975999999999999,0.9999872579074356,-149.91988401811975
8.984,0.9999871608029148,-150.16876162651278
8.992,0.9999870640590157,-150.41750517428468
9.0,0.9999869677139844,-150.666115655875
9.008,0.9999868718059104,-150.914594066219
9.016,0.9999867763727175,-151.1629414007373
9.024000000000001,0.9999866814521529,-151.4111586553252
9.032,0.999986587081778,-151.65924682634255
9.04,0.9999864932989595,-151.90720691060375
9.048,0.9999864001408582,-152.15503990536754
9.056000000000001,0.9999863076444206,-152.4027468083272
9.064,0.9999862158463687,-152.65032861760093
9.072,0.9999861247831914,-152.89778633172233
9.08,0.9999860344911343,-153.14512094963084
9.088000000000001,0.9999859450061919,-153.39233347066258
9.096,0.9999858563640964,-153.63942489454107
9.104,0.9999857686003113,-153.88639622136844
9.112,0.99998568175002,-154.1332484516166
9.120000000000001,0.9999855958481182,-154.37998258611802
9.128,0.9999855109292055,-154.62659962605767
9.136,0.9999854270275761,-154.87310057296435
9.144,0.9999853441772102,-155.11948642870246
9.152000000000001,0.9999852624117661,-155.36575819546343
9.16,0.9999851817645712,-155.61191687575803
9.168,0.9999851022686141,-155.85796347240836
9.176,0.9999850239565367,-156.1038989885399
9.184000000000001,0.9999849468606256,-156.34972442757382
9.192,0.9999848710128042,-156.59544079321932
9.2,0.9999847964446259,-156.8410490894665
9.208,0.9999847231872638,-157.08655032057865
9.216000000000001,0.9999846512715063,-157.33194549108518
9.224,0.999984580727747,-157.5772356057745
9.232,0.9999845115859786,-157.82242166968697
9.24,0.9999844438757843,-158.06750468810833
9.248000000000001,0.9999843776263327,-158.3124856665624
9.256,0.9999843128663679,-158.5573656108048
9.264,0.9999842496242051,-158.80214552681647
9.272,0.9999841879277214,-159.0468264207971
9.280000000000001,0.9999841278043501,-159.29140929915863
9.288,0.9999840692810748,-159.53589516851946
9.296,0.9999840123844207,-159.78028503569791
9.304,0.9999839571404496,-160.02457990770677
9.312000000000001,0.9999839035747536,-160.2687807917467
9.32,0.9999838517124477,-160.51288869520096
9.328,0.9999838015781645,-160.7569046256296
9.336,0.9999837531960477,-161.00082959076386
9.344,0.9999837065897463,-161.24466459850052
9.352,0.9999836617824092,-161.48841065689683
9.36,0.9999836187966782,-161.73206877416484
9.368,0.9999835776546837,-161.9756399586666
9.376,0.999983538378039,-162.21912521890857
9.384,0.9999835009878328,-162.46252556353724
9.392,0.9999834655046279,-162.70584200133348
9.4,0.9999834319484521,-162.94907554120837
9.408,0.9999834003387956,-163.192227192198
9.416,0.9999833706946043,-163.4352979634591
9.424,0.9999833430342773,-163.67828886426432
9.432,0.9999833173756588,-163.92120090399777
9.44,0.9999832937360371,-164.16403509215073
9.448,0.9999832721321373,-164.40679243831732
9.456,0.9999832525801186,-164.64947395219
9.464,0.9999832350955693,-164.89208064355594
9.472,0.9999832196935018,-165.13461352229245
9.48,0.9999832063883516,-165.3770735983634
9.488,0.9999831951939694,-165.6194618818149
9.496,0.9999831861236198,-165.86177938277208
9.504,0.9999831791899769,-166.1040271114345
9.512,0.9999831744051214,-166.34620607807327
9.52,0.9999831717805355,-166.588317293027
9.528,0.9999831713271016,-166.83036176669845
9.536,0.9999831730550975,-167.07234050955083
9.544,0.9999831769741943,-167.31425453210483
9.552,0.9999831830934518,-167.5561048449348
9.56,0.9999831914213183,-167.797892458666
9.568,0.9999832019656257,-168.039618383971
9.576,0.9999832147335875,-168.28128363156682
9.584,0.9999832297317963,-168.5228892122117
9.592,0.9999832469662212,-168.76443613670236
9.6,0.9999832664422059,-169.00592541587068
9.608,0.999983288164467,-169.24735806058132
9.616,0.9999833121370901,-169.48873508172846
9.624,0.9999833383635296,-169.73005749023346
