freq,mag,phase
6.0,0.9999989810364219,114.19641180849263
6.008,0.9999991529088652,114.1061655169066
6.016,0.9999993191757044,114.01590981513465
6.024,0.999999479907765,113.92564469213896
6.032,0.9999996351754995,113.83537013688438
6.04,0.999999785048986,113.7450861383385
6.048,0.9999999295979308,113.65479268547176
6.056,0.9999999999999999,113.56448976725753
6.064,1.0,113.47417737267209
6.072,1.0,113.38385549069478
6.08,1.0,113.29352411030806
6.088,1.0,113.20318322049745
6.096,0.9999999999999999,113.11283281025183
6.104,0.9999999999999998,113.02247286856328
6.112,1.0,112.93210338442731
6.12,0.9999999999999999,112.84172434684277
6.128,0.9999999999999999,112.7513357448121
6.136,1.0,112.66093756734124
6.144,0.9999999999999999,112.57052980343973
6.152,0.9999999999999999,112.48011244212087
6.16,1.0,112.38968547240168
6.168,1.0,112.299248883303
6.176,1.0,112.20880266384951
6.184,0.9999999999999999,112.11834680306993
6.192,1.0,112.02788128999694
6.2,1.0,111.93740611366732
6.208,1.0,111.84692126312196
6.216,1.0,111.75642672740604
6.224,0.9999999999999999,111.66592249556889
6.232,1.0,111.57540855666433
6.24,1.0,111.48488489975044
6.248,0.9999999999999998,111.39435151388987
6.256,1.0,111.30380838814978
6.264,0.9999999999999999,111.21325551160187
6.272,1.0,111.1226928733226
6.28,1.0,111.03212046239307
6.288,0.9999999999999999,110.9415382678992
6.296,0.9999999999999999,110.8509462789318
6.304,1.0,110.76034448458651
6.312,0.9999999999999999,110.66973287396404
6.32,1.0,110.57911143617008
6.328,0.9999999999999999,110.48848016031546
6.336,1.0,110.39783903551617
6.344,1.0,110.30718805089343
6.352,1.0,110.21652719557376
6.36,1.0,110.12585645868906
6.368,1.0,110.03517582937658
6.376,1.0,109.94448529677913
6.384,0.9999999999999999,109.85378485004507
6.392,1.0,109.76307447832828
6.4,0.9999999999999999,109.67235417078842
6.408,0.9999999999999999,109.58162391659079
6.416,0.9999999999999999,109.49088370490655
6.424,1.0,109.40013352491269
6.432,0.9999999999999999,109.30937336579211
6.44,0.9999999999999999,109.21860321673371
6.448,1.0,109.12782306693244
6.456,0.9999999999999999,109.03703290558929
6.464,1.0,108.94623272191147
6.472,1.0,108.85542250511243
6.48,1.0,108.76460224441185
6.4879999999999995,0.9999999999999999,108.67377192903578
6.496,0.9999999999999999,108.58293154821665
6.504,0.9999999999999999,108.49208109119346
6.5120000000000005,0.9999999999999999,108.40122054721158
6.52,0.9999999999999999,108.31034990552308
6.5280000000000005,0.9999999999999999,108.2194691553866
6.536,1.0,108.12857828606761
6.5440000000000005,1.0000000000000002,108.03767728683815
6.552,1.0,107.94676614697727
6.5600000000000005,1.0,107.85584485577077
6.568,1.0,107.7649134025115
6.5760000000000005,1.0,107.67397177649922
6.584,0.9999999999999999,107.58301996704078
6.592,1.0,107.49205796345018
6.6,1.0,107.40108575504851
6.608,0.9999999999999999,107.3101033311642
6.616,1.0,107.2191106811329
6.624,0.9999999999999999,107.1281077942976
6.632,1.0,107.03709466000873
6.64,1.0,106.94607126762418
6.648,1.0,106.8550376065093
6.656,1.0,106.76399366603711
6.664,1.0,106.67293943558816
6.672,0.9999999297649927,106.58187490455074
6.68,0.999999843664943,106.4908000623209
6.688,0.9999997566881883,106.39971489830242
6.696,0.999999668877351,106.30861940190698
6.704,0.9999995802747667,106.21751356255415
6.712,0.9999994909224841,106.12639736967145
6.72,0.9999994008622686,106.03527081269443
6.728,0.999999310135602,105.94413388106672
6.736,0.9999992187836841,105.85298656424003
6.744,0.9999991268474361,105.76182885167424
6.752,0.9999990343674994,105.67066073283753
6.76,0.9999989413842391,105.57948219720626
6.768,0.9999988479377454,105.48829323426519
6.776,0.999998754067834,105.39709383350743
6.784,0.9999986598140495,105.30588398443453
6.792,0.9999985652156655,105.21466367655653
6.8,0.9999984703116871,105.12343289939196
6.808,0.9999983751408522,105.032191642468
6.816,0.9999982797416337,104.94093989532041
6.824,0.9999981841522402,104.84967764749366
6.832,0.9999980884106198,104.75840488854094
6.84,0.9999979925544588,104.66712160802419
6.848,0.9999978966211869,104.57582779551421
6.856,0.9999978006479764,104.48452344059068
6.864,0.9999977046717452,104.39320853284212
6.872,0.999997608729159,104.30188306186612
6.88,0.9999975128566323,104.21054701726919
6.888,0.999997417090331,104.11920038866694
6.896,0.999997321466174,104.02784316568406
6.904,0.9999972260198363,103.93647533795438
6.912,0.9999971307867487,103.8450968951209
6.92,0.999997035802102,103.75370782683586
6.928,0.9999969411008489,103.66230812276075
6.936,0.9999968467177048,103.57089777256637
6.944,0.9999967526871517,103.47947676593286
6.952,0.9999966590434387,103.38804509254973
6.96,0.9999965658205856,103.29660274211595
6.968,0.9999964730523846,103.20514970433989
6.976,0.999996380772402,103.11368596893945
6.984,0.9999962890139829,103.02221152564204
6.992,0.9999961978102502,102.93072636418461
7.0,0.9999961071941097,102.83923047431378
7.008,0.9999960171982518,102.7477238457857
7.016,0.9999959278551539,102.65620646836622
7.024,0.9999958391970827,102.56467833183088
7.032,0.9999957512560974,102.47313942596493
7.04,0.9999956640640522,102.38158974056333
7.048,0.9999955776525989,102.29002926543086
7.056,0.9999954920531902,102.19845799038205
7.064,0.9999954072970813,102.10687590524125
7.072,0.999995323415335,102.01528299984263
7.08,0.9999952404388219,101.92367926403026
7.088,0.9999951583982261,101.83206468765803
7.096,0.9999950773240457,101.74043926058975
7.104,0.9999949972465987,101.64880297269913
7.112,0.9999949181960236,101.55715581386981
7.12,0.9999948402022849,101.46549777399531
7.128,0.9999947632951747,101.37382884297914
7.136,0.9999946875043169,101.28214901073473
7.144,0.9999946128591711,101.19045826718545
7.152,0.9999945393890356,101.09875660226463
7.16,0.9999944671230512,101.00704400591559
7.168,0.9999943960902047,100.91532046809155
7.176,0.9999943263193333,100.82358597875567
7.184,0.9999942578391279,100.73184052788112
7.192,0.999994190678138,100.64008410545091
7.2,0.9999941248647745,100.54831670145803
7.208,0.999994060427315,100.45653830590534
7.216,0.9999939973939076,100.3647489088056
7.224,0.9999939357925757,100.2729485001814
7.232,0.9999938756512217,100.18113707006518
7.24,0.9999938169976328,100.08931460849917
7.248,0.9999937598594848,99.9974811055354
7.256,0.9999937042643472,99.9056365512356
7.264,0.9999936502396881,99.81378093567122
7.272,0.99999359781288,99.72191424892331
7.28,0.9999935470112044,99.63003648108257
7.288,0.9999934978618567,99.5381476222492
7.296,0.9999934503919528,99.44624766253287
7.304,0.9999934046285349,99.35433659205269
7.312,0.9999933605985754,99.26241440093712
7.32,0.9999933183289851,99.17048107932386
7.328,0.9999932778466182,99.07853661735983
7.336,0.9999932391782789,98.98658100520099
7.344,0.9999932023507279,98.89461423301233
7.352,0.9999931673906891,98.80263629096773
7.36,0.9999931343248561,98.71064716924987
7.368,0.9999931031798999,98.61864685805007
7.376,0.9999930739824757,98.52663534756822
7.384,0.9999930467592301,98.43461262801257
7.392,0.9999930215368096,98.34257868959972
7.4,0.9999929983418681,98.25053352255429
7.4079999999999995,0.9999929772010744,98.15847711710892
7.416,0.9999929581411221,98.06640946350393
7.4239999999999995,0.9999929411887365,97.97433055198739
7.432,0.9999929263706848,97.8822403728146
7.4399999999999995,0.9999929137137854,97.79013891624815
7.448,0.9999929032449154,97.69802617255758
7.4559999999999995,0.9999928949910223,97.60590213201918
7.464,0.9999928889791343,97.51376678491566
7.4719999999999995,0.9999928852363685,97.42162012153607
7.48,0.999992883789944,97.32946213217528
7.4879999999999995,0.9999928846671915,97.23729280713394
7.496,0.9999928878955648,97.14511213671794
7.504,0.9999928935026529,97.05292011123828
7.5120000000000005,0.9999929015161922,96.96071672101053
7.52,0.9999929119640789,96.86850195635465
7.5280000000000005,0.9999929248743818,96.77627580759439
7.536,0.9999929402753558,96.68403826505711
7.5440000000000005,0.9999929581954556,96.59178931907313
7.552,0.99999297866335,96.49952895997542
7.5600000000000005,0.9999930017079373,96.40725717809902
7.568,0.9999930273583588,96.31497396378057
7.5760000000000005,0.9999930556440169,96.2226793073577
7.584,0.9999930865945892,96.13037319916859
7.5920000000000005,0.9999931202400477,96.03805562955115
7.6,0.9999931566106737,95.94572658884259
7.6080000000000005,0.9999931957370775,95.85338606737854
7.616,0.999993237650217,95.76103405549247
7.6240000000000006,0.9999932823814163,95.66867054351488
7.632,0.9999933299623862,95.57629552177244
7.640000000000001,0.999993380425245,95.48390898058717
7.648,0.9999934338025399,95.39151091027558
7.656000000000001,0.9999934901272686,95.29910130114762
7.664,0.9999935494329031,95.20668014350575
7.672,0.9999936117534136,95.11424742764376
7.68,0.9999936771232925,95.02180314384573
7.688,0.9999937455775804,94.92934728238481
7.696,0.9999938171518924,94.83687983352186
7.704,0.9999938918824458,94.74440078750423
7.712,0.9999939698060889,94.6519101345642
7.72,0.9999940509603296,94.55940786491755
7.728,0.9999941353833663,94.4668939687619
7.736,0.999994223114121,94.37436843627506
7.744,0.9999943141922694,94.28183125761313
7.752,0.9999944086582774,94.18928242290872
7.76,0.9999945065534356,94.09672192226878
7.768,0.9999946079198958,94.00414974577255
7.776,0.9999947128007081,93.9115658834692
7.784,0.9999948212398632,93.81897032537542
7.792,0.9999949332823289,93.72636306147287
7.8,0.9999950489740961,93.63374408170543
7.808,0.999995168362221,93.54111337597628
7.816,0.99999529149487,93.44847093414478
7.824,0.9999954184213679,93.35581674602328
7.832,0.999995549192246,93.26315080137348
7.84,0.9999956838592927,93.17047308990288
7.848,0.9999958224756058,93.07778360126072
7.856,0.9999959650956467,92.98508232503377
7.864,0.9999961117752962,92.89236925074194
7.872,0.9999962625719124,92.7996443678334
7.88,0.9999964175443905,92.70690766567962
7.888,0.9999965767532257,92.61415913356986
7.896,0.999996740260576,92.52139876070548
7.904,0.9999969081303279,92.4286265361937
7.912,0.9999970804281667,92.33584244904115
7.92,0.9999972572216445,92.2430464881468
7.928,0.9999974385802533,92.1502386422945
7.936,0.9999976245754998,92.05741890014504
7.944,0.9999978152809823,91.9645872502276
7.952,0.9999980107724679,91.87174368093065
7.96,0.9999982111279748,91.77888818049226
7.968,0.9999984164278537,91.68602073698968
7.976,0.9999986267548725,91.5931413383282
7.984,0.9999988421943025,91.5002499722293
7.992,0.999999062834006,91.40734662621783
8.0,0.9999992887645245,91.3144312876085
8.008,0.99999952007917,91.22150394349117
8.016,0.9999997568741141,91.12856458071523
8.024000000000001,0.9999999992484803,91.03561318587288
8.032,0.9999999999999999,90.94264974528112
8.04,1.0,90.84967424496242
8.048,1.0,90.75668667062406
8.056000000000001,1.0,90.66368700763606
8.064,1.0,90.57067524100718
8.072,0.9999999999999999,90.47765135535934
8.08,0.9999999999999999,90.38461533490027
8.088000000000001,1.0,90.29156716339388
8.096,0.9999999999999999,90.19850682412854
8.104,1.0000000000000002,90.10543429988299
8.112,0.9999999999999999,90.01234957288963
8.120000000000001,0.9999999999999999,89.91925262479518
8.128,0.9999999999999999,89.82614343661817
8.136,0.9999999999999999,89.73302198870334
8.144,1.0,89.63988826067258
8.152000000000001,1.0,89.54674223137215
8.16,0.9999999999999999,89.45358387881592
8.168,1.0,89.36041318012414
8.176,0.9999999999999999,89.2672301114578
8.184000000000001,1.0,89.17403464794793
8.192,1.0,89.08082676361965
8.2,1.0,88.9876064313103
8.208,1.0,88.8943736225817
8.216000000000001,1.0,88.80112830762592
8.224,0.9999999999999999,88.70787045516401
8.232,1.0,88.61460003233732
8.24,1.0,88.5213170045913
8.248000000000001,1.0,88.42802133555081
8.256,1.0000000000000002,88.33471298688708
8.264,1.0,88.2413919181754
8.272,0.9999999999999999,88.14805808674369
8.280000000000001,1.0,88.05471144751145
8.288,1.0,87.96135195281882
8.296,1.0,87.86797955224569
8.304,1.0,87.7745941924214
8.312,0.9999999999999999,87.68119581682465
8.32,1.0,87.58778436557459
8.328,1.0,87.49435977521412
8.336,1.0,87.40092197848625
8.344,0.9999999999999999,87.307470904106
8.352,0.9999999999999999,87.21400647652989
8.36,1.0,87.12052861572673
8.368,1.0,87.02703723695366
8.376,1.0,86.93353225054358
8.384,1.0,86.84001356171036
8.392,0.9999999999999999,86.74648107038126
8.4,1.0,86.65293467106673
8.408,1.0,86.55937425278184
8.416,1.0,86.46579969903455
8.424,1.0,86.37221088790149
8.432,1.0,86.27860769221387
8.44,1.0,86.18498997988193
8.448,0.9999999999999999,86.09135761439028
8.456,1.0000000000000002,85.99771045550236
8.464,1.0,85.90404836021749
8.472,1.0000000000000002,85.81037118403009
8.48,1.0,85.71667878254557
8.488,1.0,85.6229710135135
8.496,1.0,85.52924773934073
8.504,1.0,85.43550883015038
8.512,1.0,85.3417541674494
8.52,1.0,85.24798364846244
8.528,1.0,85.1541971911761
8.536,0.9999999999999999,85.06039474011759
8.544,1.0,84.96657627286031
8.552,0.9999999999999999,84.87274180720635
8.56,1.0,84.7788914089377
8.568,1.0,84.6850251999575
8.576,1.0,84.59114336655571
8.584,0.9999999999999999,84.49724616743646
8.592,1.0,84.40333394104042
8.6,1.0,84.30940711159455
8.608,1.0,84.21546619323482
8.616,1.0,84.12151179149305
8.624,1.0,84.02754460143271
8.632,0.9999999999999999,83.93356540178246
8.64,1.0,83.83957504456127
8.648,1.0,83.74557443993032
8.656,0.9999999999999999,83.65156453633267
8.664,1.0,83.55754629638173
8.672,0.9999999999999998,83.4635206693912
8.68,1.0,83.36948856185657
8.688,0.9999999999999999,83.27545080753873
8.696,0.9999999999999999,83.18140813900904
8.704,0.9999999999999999,83.08736116254127
8.712,1.0,82.99331033806455
8.72,1.0,82.89925596552311
8.728,1.0,82.80519817847296
8.736,1.0,82.71113694514075
8.744,0.9999999999999999,82.61707207656296
8.752,0.9999999999999998,82.52300324088449
8.76,0.9999999999999999,82.42892998249394
8.768,1.0,82.3348517444371
8.776,0.9999999999999999,82.24076789249446
8.784,1.0,82.14667773940715
8.792,0.9999999999999999,82.05258056795834
8.8,0.999999014391062,81.95847565190967
8.808,0.9999977432115177,81.8643622741169
8.815999999999999,0.9999965692400619,81.7702397414576
8.824,0.9999954927618041,81.67610739647714
8.832,0.9999945127957764,81.5819646258736
8.84,0.9999936273111871,81.48781086609749
8.847999999999999,0.9999928334347238,81.39364560643745
8.856,0.9999921276425315,81.29946839000964
8.864,0.9999915059328364,81.20527881307386
8.872,0.9999909639771518,81.11107652307645
8.879999999999999,0.9999904972495411,81.01686121578014
8.888,0.9999901011345523,80.92263263178978
8.896,0.9999897710152253,80.8283905527293
8.904,0.9999895023430405,80.7341347972734
8.911999999999999,0.9999892906919311,80.63986521718925
8.92,0.9999891317985401,80.54558169350285
8.928,0.9999890215908405,80.4512841328686
8.936,0.9999889562071043,80.35697246419284
8.943999999999999,0.9999889320070054,80.26264663553978
8.952,0.9999889455764426,80.16830661133106
8.96,0.9999889937274398,80.0739523698377
8.968,0.9999890734942897,79.97958390095444
8.975999999999999,0.9999891821269025,79.88520120424046
8.984,0.9999893170821543,79.79080428720746
8.992,0.9999894760138803,79.69639316383339
9.0,0.9999896567620247,79.60196785327997
9.008,0.9999898573413528,79.50752837879293
9.016,0.9999900759300353,79.41307476676384
9.024000000000001,0.9999903108583402,79.31860704593456
9.032,0.9999905605976082,79.22412524672632
9.04,0.9999908237496336,79.1296294006773
9.048,0.9999910990365386,79.03511953997432
9.056000000000001,0.99999138529119,78.94059569706543
9.064,0.9999916814481933,78.84605790434217
9.072,0.999991986535469,78.75150619388108
9.08,0.9999922996664162,78.65694059723599
9.088000000000001,0.9999926200326423,78.56236114527334
9.096,0.9999929468972452,78.46776786804362
9.104,0.9999932795886183,78.37316079468329
9.112,0.9999936174947548,78.2785399533427
9.120000000000001,0.9999939600580184,78.18390537113484
9.128,0.9999943067703481,78.08925707410236
9.136,0.9999946571688721,77.99459508719863
9.144,0.9999950108318978,77.89991943428136
9.152000000000001,0.999995367375247,77.80523013811563
9.16,0.999995726448913,77.71052722038503
9.168,0.999996087734011,77.61581070170881
9.176,0.9999964509399998,77.52108060166421
9.184000000000001,0.9999968158021479,77.42633693881255
9.192,0.9999971820792259,77.33157973072815
9.2,0.9999975495514077,77.23680899402926
9.208,0.9999979180183549,77.14202474441066
9.216000000000001,0.999998287297478,77.047226996677
9.224,0.9999986572223483,76.95241576477656
9.232,0.9999990276412575,76.8575910618353
9.24,0.9999993984159017,76.76275290019048
9.248000000000001,0.9999997694201856,76.66790129142417
9.256,0.9999999999999999,76.5730362463959
9.264,1.0,76.47815777527464
9.272,1.0,76.3832658875699
9.280000000000001,1.0,76.28836059216215
9.288,1.0,76.19344189733181
9.296,1.0,76.09850981078752
9.304,1.0,76.00356433969326
9.312000000000001,0.9999999999999999,75.9086054906945
9.32,0.9999999999999999,75.81363326994317
9.328,1.0,75.71864768312152
9.336,0.9999999999999999,75.62364873546514
9.344,1.0,75.52863643178497
9.352,0.9999999999999999,75.43361077648801
9.36,0.9999999999999999,75.33857177359752
9.368,1.0,75.24351942677175
9.376,1.0,75.14845373932253
9.384,0.9999999999999999,75.0533747142321
9.392,0.9999999999999999,74.95828235416991
9.4,0.9999999999999999,74.863176661508
9.408,1.0,74.76805763833622
9.416,1.0,74.67292528647604
9.424,1.0,74.57777960749446
9.432,0.9999999999999999,74.4826206027164
9.44,0.9999999999999999,74.38744827323721
9.448,0.9999999999999999,74.2922626199341
9.456,0.9999999999999999,74.19706364347729
9.464,1.0,74.1018513443403
9.472,1.0,74.00662572281016
9.48,0.9999999999999999,73.91138677899656
9.488,1.0,73.81613451284124
9.496,1.0,73.72086892412624
9.504,1.0,73.6255900124822
9.512,1.0,73.53029777739606
9.52,1.0,73.43499221821845
9.528,1.0,73.33967333417066
9.536,1.0,73.2443411243514
9.544,1.0,73.14899558774297
9.552,0.9999999999999999,73.05363672321752
9.56,1.0,72.95826452954267
9.568,1.0,72.862879005387
9.576,0.9999999999999999,72.76748014932524
9.584,0.9999999999999999,72.67206795984335
9.592,1.0,72.57664243534306
9.6,1.0,72.48120357414665
9.608,0.9999999999999999,72.38575137450093
9.616,1.0,72.29028583458162
9.624,1.0,72.19480695249705
9.632,1.0,72.09931472629202
9.64,0.9999999999999999,72.00380915395125
9.648,1.0,71.9082902334029
9.656,0.9999999999999998,71.81275796252164
9.664,1.0,71.71721233913193
9.672,0.9999999999999999,71.62165336101079
9.68,1.0,71.52608102589072
9.688,1.0,71.43049533146238
9.696,1.0,71.33489627537716
9.704,0.9999999999999999,71.23928385524958
9.712,1.0,71.14365806865979
9.72,1.0,71.04801891315559
9.728,0.9999999999999998,70.95236638625481
9.736,1.0,70.85670048544719
9.744,1.0,70.76102120819651
9.752,0.9999999999999999,70.66532855194224
9.76,1.0,70.56962251410165
9.768,1.0,70.47390309207123
9.776,0.9999999999999999,70.3781702832286
9.784,1.0,70.2824240849339
9.792,1.0,70.18666449453143
9.8,1.0,70.09089150935107
9.808,1.0,69.99510512670966
9.816,1.0,69.89930534391233
9.824,1.0,69.80349215825383
9.832,1.0,69.70766556701972
9.84,1.0,69.61182556748757
9.847999999999999,1.0,69.5159721569281
9.856,1.0,69.42010533260623
9.864,0.9999999999999999,69.32422509178217
9.872,1.0,69.22833143171249
9.879999999999999,0.9999999999999998,69.13242434965086
9.888,1.0,69.03650384284921
9.896,0.9999999999999999,68.94056990855854
9.904,0.9999999999999999,68.84462254402979
9.911999999999999,0.9999999999999999,68.74866174651461
9.92,0.9999999999999999,68.65268751326614
9.928,1.0,68.55669984153995
9.936,1.0,68.4606987285946
9.943999999999999,1.0,68.36468417169233
9.952,1.0,68.26865616809987
9.96,0.9999999999999999,68.17261471508904
9.968,1.0,68.07655980993738
9.975999999999999,1.0,67.9804914499287
9.984,1.0,67.88440963235375
9.992,0.9999999999999999,67.78831435451073
10.0,1.0,67.69220561370594
10.008,1.0,67.59608340725408
10.016,1.0000000000000002,67.49994773247903
10.024000000000001,1.0,67.4037985867141
10.032,0.9999999999999999,67.30763596730272
10.04,0.9999999999999999,67.21145987159869
10.048,1.0,67.11527029696674
10.056000000000001,0.9999999999999998,67.01906724078292
10.064,1.0,66.92285070043505
10.072,0.9999999999999998,66.82662067332302
