freq,mag,phase
6.0,0.9999959737256454,91.36434115081707
6.008,0.99999594995672,91.2211126430977
6.016,0.9999959268829482,91.07778746613394
6.024,0.9999959044982505,90.93436555134416
6.032,0.9999958827965195,90.79084683064892
6.04,0.9999958617716218,90.64723123647394
6.048,0.9999958414173987,90.50351870175302
6.056,0.9999958217276672,90.35970915993106
6.064,0.9999958026962193,90.21580254496695
6.072,0.999995784316825,90.07179879133658
6.08,0.9999957665832307,89.92769783403581
6.088,0.999995749489162,89.7834996085835
6.096,0.9999957330283232,89.63920405102436
6.104,0.9999957171943988,89.49481109793216
6.112,0.9999957019810533,89.35032068641245
6.12,0.9999956873819326,89.20573275410581
6.128,0.9999956733906651,89.06104723919074
6.136,0.9999956600008615,88.91626408038668
6.144,0.9999956472061161,88.77138321695702
6.152,0.9999956350000079,88.62640458871218
6.16,0.9999956233761003,88.48132813601254
6.168,0.9999956123279424,88.33615379977158
6.176,0.9999956018490697,88.19088152145882
6.184,0.9999955919330057,88.04551124310291
6.192,0.9999955825732603,87.90004290729469
6.2,0.9999955737633335,87.75447645719017
6.208,0.999995565496713,87.60881183651368
6.216,0.9999955577668777,87.46304898956083
6.224,0.9999955505672966,87.31718786120167
6.232,0.9999955438914306,87.17122839688366
6.24,0.9999955377327318,87.0251705426348
6.248,0.9999955320846463,86.8790142450667
6.256,0.999995526940612,86.73275945137763
6.264,0.9999955222940629,86.58640610935566
6.272,0.999995518138426,86.43995416738167
6.28,0.9999955144671256,86.2934035744325
6.288,0.9999955112735809,86.14675428008402
6.296,0.9999955085512082,86.0000062345142
6.304,0.9999955062934225,85.85315938850631
6.312,0.9999955044936352,85.70621369345189
6.32,0.9999955031452581,85.55916910135394
6.328,0.9999955022417018,85.41202556483003
6.336,0.9999955017763775,85.26478303711541
6.344,0.9999955017426976,85.11744147206608
6.352,0.9999955021340746,84.97000082416197
6.36,0.9999955029439253,84.82246104851006
6.368,0.9999955041656678,84.67482210084746
6.376,0.9999955057927243,84.52708393754457
6.384,0.9999955078185211,84.37924651560824
6.392,0.9999955102364892,84.23130979268485
6.4,0.9999955130400653,84.08327372706349
6.408,0.9999955162226914,83.93513827767906
6.416,0.9999955197778175,83.78690340411548
6.424,0.9999955236988997,83.63856906660874
6.432,0.9999955279794023,83.49013522605017
6.44,0.9999955326127985,83.34160184398945
6.448,0.9999955375925704,83.19296888263786
6.456,0.9999955429122104,83.04423630487142
6.464,0.9999955485652201,82.895404074234
6.472,0.999995554545114,82.74647215494055
6.48,0.9999955608454161,82.59744051188017
6.4879999999999995,0.9999955674596641,82.44830911061938
6.496,0.9999955743814078,82.29907791740513
6.504,0.9999955816042105,82.14974689916816
6.5120000000000005,0.99999558912165,82.00031602352598
6.52,0.9999955969273178,81.85078525878622
6.5280000000000005,0.999995605014821,81.70115457394951
6.536,0.9999956133777825,81.55142393871306
6.5440000000000005,0.9999956220098412,81.40159332347339
6.552,0.9999956309046534,81.25166269932994
6.5600000000000005,0.9999956400558923,81.1016320380878
6.568,0.9999956494572488,80.95150131226127
6.5760000000000005,0.9999956591024333,80.80127049507672
6.584,0.9999956689851751,80.65093956047606
6.592,0.9999956790992219,80.50050848311963
6.6,0.9999956894383435,80.34997723838954
6.608,0.9999956999963289,80.19934580239286
6.616,0.9999957107669897,80.04861415196468
6.624,0.9999957217441577,79.89778226467139
6.632,0.9999957329216888,79.7468501188138
6.64,0.9999957442934608,79.5958176934303
6.648,0.9999957558533745,79.44468496830012
6.656,0.9999957675953557,79.29345192394639
6.664,0.9999957795133542,79.1421185416394
6.672,0.9999957916013443,78.99068480339973
6.68,0.9999958038533265,78.83915069200141
6.688,0.9999958162633268,78.68751619097517
6.696,0.9999958288253978,78.53578128461152
6.704,0.9999958415336189,78.3839459579639
6.712,0.9999958543820973,78.23201019685199
6.72,0.999995867364968,78.07997398786472
6.728,0.9999958804763941,77.92783731836353
6.736,0.9999958937105681,77.7756001764855
6.744,0.9999959070617115,77.62326255114651
6.752,0.9999959205240758,77.4708244320444
6.76,0.9999959340919433,77.31828580966214
6.768,0.9999959477596259,77.16564667527098
6.776,0.9999959615214679,77.01290702093358
6.784,0.9999959753718447,76.86006683950724
6.792,0.999995989305164,76.70712612464693
6.8,0.9999960033158661,76.55408487080854
6.808,0.9999960173984245,76.40094307325195
6.816,0.9999960315473456,76.24770072804424
6.824,0.9999960457571707,76.09435783206278
6.832,0.999996060022474,75.94091438299841
6.84,0.999996074337866,75.78737037935848
6.848,0.9999960886979914,75.63372582047008
6.856,0.9999961030975306,75.47998070648313
6.864,0.9999961175312004,75.32613503837351
6.872,0.9999961319937537,75.17218881794614
6.88,0.9999961464799806,75.01814204783815
6.888,0.9999961609847077,74.86399473152194
6.896,0.9999961755027995,74.70974687330833
6.904,0.9999961900291588,74.55539847834966
6.912,0.999996204558727,74.40094955264287
6.92,0.9999962190864831,74.24640010303256
6.928,0.9999962336074462,74.09175013721418
6.936,0.9999962481166751,73.93699966373698
6.944,0.9999962626092675,73.78214869200727
6.952,0.999996277080362,73.62719723229132
6.96,0.9999962915251381,73.4721452957185
6.968,0.9999963059388154,73.31699289428438
6.976,0.9999963203166551,73.16174004085373
6.984,0.9999963346539603,73.00638674916362
6.992,0.999996348946076,72.85093303382645
7.0,0.9999963631883896,72.695378910333
7.008,0.9999963773763302,72.53972439505546
7.016,0.9999963915053715,72.38396950525045
7.024,0.999996405571029,72.22811425906205
7.032,0.9999964195688625,72.07215867552489
7.04,0.9999964334944758,71.91610277456705
7.048,0.9999964473435163,71.7599465770131
7.056,0.999996461111677,71.60369010458714
7.064,0.9999964747946942,71.4473333799158
7.072,0.9999964883883509,71.29087642653116
7.08,0.999996501888474,71.13431926887374
7.088,0.9999965152909374,70.97766193229553
7.096,0.9999965285916593,70.82090444306289
7.104,0.9999965417866064,70.66404682835957
7.112,0.9999965548717898,70.50708911628959
7.12,0.9999965678432684,70.35003133588022
7.128,0.9999965806971479,70.19287351708485
7.136,0.9999965934295812,70.03561569078605
7.144,0.9999966060367688,69.87825788879834
7.152,0.9999966185149581,69.72080014387117
7.16,0.9999966308604465,69.56324248969186
7.168,0.9999966430695775,69.40558496088835
7.176,0.9999966551387441,69.24782759303218
7.184,0.9999966670643877,69.0899704226414
7.192,0.9999966788429989,68.93201348718337
7.2,0.9999966904711172,68.77395682507756
7.208,0.999996701945331,68.61580047569852
7.216,0.9999967132622783,68.45754447937858
7.224,0.9999967244186481,68.29918887741086
7.232,0.9999967354111773,68.14073371205177
7.24,0.9999967462366542,67.98217902652422
7.248,0.9999967568919176,67.82352486502009
7.256,0.9999967673738549,67.66477127270306
7.264,0.9999967776794063,67.50591829571161
7.272,0.9999967878055618,67.34696598116147
7.28,0.9999967977493622,67.18791437714854
7.288,0.9999968075079,67.02876353275171
7.296,0.9999968170783181,66.8695134980353
7.304,0.9999968264578114,66.71016432405212
7.312,0.9999968356436265,66.55071606284588
7.32,0.9999968446330617,66.3911687674541
7.328,0.9999968534234663,66.23152249191065
7.336,0.9999968620122421,66.07177729124848
7.344,0.9999968703968434,65.91193322150228
7.352,0.9999968785747761,65.7519903397111
7.36,0.9999968865435986,65.59194870392095
7.368,0.9999968943009213,65.43180837318748
7.376,0.999996901844408,65.27156940757858
7.384,0.9999969091717742,65.11123186817694
7.392,0.9999969162807888,64.95079581708261
7.4,0.9999969231692726,64.79026131741563
7.4079999999999995,0.9999969298351004,64.6296284333185
7.416,0.9999969362761988,64.46889722995878
7.4239999999999995,0.9999969424905483,64.30806777353168
7.432,0.999996948476182,64.14714013126229
7.4399999999999995,0.9999969542311862,63.98611437140845
7.448,0.9999969597537004,63.82499056326295
7.4559999999999995,0.9999969650419173,63.66376877715614
7.464,0.9999969700940831,63.50244908445828
7.4719999999999995,0.999996974908497,63.341031557582134
7.48,0.9999969794835116,63.17951626998511
7.4879999999999995,0.9999969838175333,63.017903296172044
7.496,0.9999969879090211,62.85619271169721
7.504,0.9999969917564886,62.69438459316702
7.5120000000000005,0.9999969953585015,62.53247901824208
7.52,0.9999969987136799,62.37047606563984
7.5280000000000005,0.9999970018206968,62.208375815136606
7.536,0.9999970046782791,62.04617834757015
7.5440000000000005,0.999997007285207,61.883883744841754
7.552,0.9999970096403136,61.721492089918655
7.5600000000000005,0.9999970117424861,61.559003466836195
7.568,0.9999970135906653,61.396417960700155
7.5760000000000005,0.9999970151838439,61.23373565768888
7.584,0.9999970165210695,61.0709566450556
7.5920000000000005,0.9999970176014426,60.90808101113048
7.6,0.9999970184241165,60.74510884532297
7.6080000000000005,0.9999970189882978,60.58204023812374
7.616,0.9999970192932464,60.41887528110708
7.6240000000000006,0.9999970193382755,60.255614066932715
7.632,0.9999970191227509,60.09225668934821
7.640000000000001,0.9999970186460914,59.92880324319076
7.648,0.999997017907769,59.76525382438954
7.656000000000001,0.9999970169073081,59.60160852996745
7.664,0.9999970156442861,59.43786745804343
7.672,0.9999970141183331,59.27403070783422
7.68,0.999997012329131,59.11009837965652
7.688,0.9999970102764151,58.94607057492881
7.696,0.9999970079599724,58.78194739617345
7.704,0.9999970053796422,58.61772894701843
7.712,0.9999970025353163,58.45341533219944
7.72,0.9999969994269378,58.28900665756164
7.728,0.999996996054502,58.124503030061604
7.736,0.999996992418056,57.95990455776908
7.744,0.9999969885176985,57.79521134986888
7.752,0.9999969843535794,57.63042351666262
7.76,0.9999969799258999,57.4655411695706
7.768,0.9999969752349128,57.3005644211334
7.776,0.999996970280921,57.13549338501383
7.784,0.9999969650642794,56.97032817599844
7.792,0.9999969595853926,56.80506890999932
7.8,0.999996953844716,56.63971570405576
7.808,0.9999969478427557,56.47426867633589
7.816,0.9999969415800671,56.308727946138276
7.824,0.9999969350572564,56.14309363389359
7.832,0.9999969282749792,55.97736586116613
7.84,0.9999969212339404,55.81154475065537
7.848,0.9999969139348948,55.64563042619758
7.856,0.9999969063786452,55.47962301276722
7.864,0.9999968985660457,55.313522636478496
7.872,0.9999968904979969,55.14732942458684
7.88,0.9999968821754487,54.981043505490305
7.888,0.9999968735993991,54.814665008730984
7.896,0.9999968647708947,54.648194064996396
7.904,0.9999968556910295,54.48163080612089
7.912,0.9999968463609449,54.31497536508698
7.92,0.9999968367818303,54.148227876026596
7.928,0.9999968269549213,53.981388474222484
7.936,0.9999968168815014,53.81445729610938
7.944,0.9999968065628999,53.647434479275276
7.952,0.9999967960004926,53.48032016246269
7.96,0.9999967851957015,53.31311448556977
7.968,0.9999967741499943,53.14581758965152
7.976,0.9999967628648844,52.97842961692094
7.984,0.99999675134193,52.810950710750085
7.992,0.9999967395827345,52.6433810156712
8.0,0.9999967275889464,52.47572067737779
8.008,0.9999967153622578,52.307969842725626
8.016,0.9999967029044051,52.14012865973366
8.024000000000001,0.9999966902171687,51.97219727758526
8.032,0.9999966773023724,51.80417584662895
8.04,0.9999966641618828,51.63606451837931
8.048,0.9999966507976098,51.46786344551798
8.056000000000001,0.9999966372115057,51.29957278189458
8.064,0.9999966234055644,51.131192682527484
8.072,0.9999966093818226,50.96272330360447
8.08,0.999996595142358,50.79416480248381
8.088000000000001,0.9999965806892891,50.625517337694816
8.096,0.9999965660247763,50.45678106893873
8.104,0.9999965511510193,50.28795615708921
8.112,0.9999965360702584,50.11904276419314
8.120000000000001,0.9999965207847743,49.950041053471345
8.128,0.9999965052968864,49.78095118931909
8.136,0.9999964896089533,49.61177333730665
8.144,0.9999964737233723,49.44250766417991
8.152000000000001,0.999996457642579,49.27315433786093
8.16,0.9999964413690474,49.10371352744847
8.168,0.9999964249052885,48.934185403218265
8.176,0.9999964082538505,48.76457013662363
8.184000000000001,0.9999963914173191,48.59486790029588
8.192,0.9999963743983152,48.425078868044665
8.2,0.9999963571994972,48.255203214858234
8.208,0.9999963398235576,48.08524111690384
8.216000000000001,0.9999963222732255,47.915192751528046
8.224,0.999996304551264,47.745058297256996
8.232,0.9999962866604704,47.574837933796495
8.24,0.9999962686036766,47.404531842032306
8.248000000000001,0.9999962503837482,47.23414020403033
8.256,0.9999962320035831,47.06366320303676
8.264,0.9999962134661123,46.89310102347805
8.272,0.9999961947742997,46.72245385096105
8.280000000000001,0.9999961759311402,46.551721872273106
8.288,0.9999961569396605,46.38090527538203
8.296,0.9999961378029184,46.21000424943598
8.304,0.9999961185240019,46.03901898476347
8.312,0.9999960991060299,45.86794967287335
8.32,0.9999960795521499,45.69679650645455
8.328,0.9999960598655395,45.525559679375995
8.336,0.9999960400494039,45.354239386686366
8.344,0.9999960201069784,45.182835824613996
8.352,0.9999960000415239,45.01134919056636
8.36,0.9999959798563309,44.839779683130175
8.368,0.9999959595547153,44.668127502070625
8.376,0.9999959391400199,44.49639284833142
8.384,0.9999959186156135,44.32457592403406
8.392,0.9999958979848901,44.15267693247769
8.4,0.9999958772512689,43.98069607813843
8.408,0.9999958564181941,43.80863356666907
8.416,0.9999958354891331,43.636489604898294
8.424,0.9999958144675773,43.4642644008305
8.432,0.9999957933570408,43.29195816364474
8.44,0.9999957721610611,43.119571103694554
8.448,0.9999957508831967,42.94710343250689
8.456,0.9999957295270282,42.77455536278179
8.464,0.9999957080961577,42.60192710839129
8.472,0.9999956865942067,42.42921888437903
8.48,0.9999956650248178,42.256430906959075
8.488,0.9999956433916528,42.08356339351543
8.496,0.9999956216983924,41.910616562600886
8.504,0.9999955999487361,41.737590633936314
8.512,0.9999955781464013,41.56448582840953
8.52,0.9999955562951226,41.39130236807459
8.528,0.999995534398652,41.21804047615047
8.536,0.9999955124607574,41.04470037702029
8.544,0.9999954904852235,40.87128229622998
8.552,0.9999954684758495,40.69778646048741
8.56,0.9999954464364502,40.524213097661
8.568,0.9999954243708541,40.35056243677878
8.576,0.9999954022829038,40.17683470802687
8.584,0.9999953801764554,40.00303014274853
8.592,0.9999953580553772,39.82914897344255
8.6,0.99999533592355,39.65519143376222
8.608,0.9999953137848666,39.48115775851366
8.616,0.9999952916432304,39.30704818365473
8.624,0.9999952695025552,39.13286294629323
8.632,0.9999952473667656,38.95860228468579
8.64,0.9999952252397951,38.78426643823597
8.648,0.9999952031255862,38.609855647493106
8.656,0.99999518102809,38.435370154150384
8.664,0.9999951589512656,38.26081020104342
8.672,0.9999951368990786,38.0861760321484
8.68,0.9999951148755021,37.91146789258071
8.688,0.9999950928845149,37.73668602859276
8.696,0.9999950709301022,37.5618306875726
8.704,0.9999950490162534,37.38690211804186
8.712,0.9999950271469623,37.211900569654055
8.72,0.9999950053262281,37.036826293192505
8.728,0.9999949835580515,36.8616795405687
8.736,0.9999949618464372,36.68646056481999
8.744,0.9999949401953924,36.51116962010794
8.752,0.9999949186089246,36.335806961715996
8.76,0.9999948970910444,36.16037284604761
8.768,0.9999948756457612,35.98486753062398
8.776,0.9999948542770856,35.80929127408212
8.784,0.9999948329890271,35.633644336172296
8.792,0.9999948117855948,35.45792697775631
8.8,0.9999947906707949,35.282139460804736
8.808,0.9999947696486324,35.10628204839501
8.815999999999999,0.9999947487231095,34.93035500470884
8.824,0.9999947278982243,34.75435859502989
8.832,0.9999947071779718,34.57829308574155
8.84,0.9999946865663418,34.40215874432425
8.847999999999999,0.9999946660673196,34.225955839353034
8.856,0.9999946456848847,34.049684640495045
8.864,0.9999946254230103,33.87334541850704
8.872,0.999994605285663,33.69693844523278
8.879999999999999,0.9999945852768023,33.52046399360017
8.888,0.999994565400379,33.34392233761883
8.896,0.9999945456603364,33.16731375237733
8.904,0.9999945260606085,32.99063851404043
8.911999999999999,0.9999945066051192,32.81389689984614
8.92,0.9999944872977832,32.63708918810309
8.928,0.9999944681425036,32.46021565818759
8.936,0.999994449143173,32.28327659054077
8.943999999999999,0.9999944303036715,32.106272266665535
8.952,0.9999944116278674,31.92920296912355
8.96,0.9999943931196155,31.752068981532513
8.968,0.9999943747827577,31.574870588562803
8.975999999999999,0.9999943566211216,31.397608075934496
8.984,0.9999943386385199,31.220281730414126
8.992,0.9999943208387506,31.04289183981174
9.0,0.9999943032255953,30.865438692977584
9.008,0.99999428580282,30.687922579798702
9.016,0.9999942685741738,30.510343791195876
9.024000000000001,0.9999942515433881,30.33270261912021
9.032,0.9999942347141764,30.154999356549826
9.04,0.9999942180902337,29.977234297486348
9.048,0.9999942016752363,29.799407736951544
9.056000000000001,0.9999941854728404,29.62151997098393
9.064,0.9999941694866826,29.443571296635195
9.072,0.9999941537203786,29.26556201196656
9.08,0.9999941381775228,29.087492416045333
9.088000000000001,0.999994122861688,28.909362808941264
9.096,0.9999941077764243,28.73117349172292
9.104,0.9999940929252599,28.55292476645383
9.112,0.9999940783116988,28.374616936188858
9.120000000000001,0.9999940639392212,28.19625030497054
9.128,0.9999940498112831,28.017825177825156
9.136,0.999994035931316,27.839341860758864
9.144,0.999994022302725,27.66080066075381
9.152000000000001,0.9999940089288896,27.48220188576441
9.16,0.999993995813163,27.303545844713206
9.168,0.9999939829588713,27.124832847486857
9.176,0.9999939703693128,26.946063204932187
9.184000000000001,0.999993958047758,26.767237228852185
9.192,0.9999939459974487,26.588355232001845
9.2,0.9999939342215975,26.409417528083942
9.208,0.9999939227233875,26.23042443174491
9.216000000000001,0.9999939115059722,26.051376258570784
9.224,0.9999939005724736,25.872273325082787
9.232,0.9999938899259828,25.693115948733055
9.24,0.9999938795695603,25.51390444790034
9.248000000000001,0.9999938695062336,25.33463914188576
9.256,0.9999938597389976,25.15532035090831
9.264,0.9999938502708141,24.97594839610043
9.272,0.9999938411046124,24.79652359950352
9.280000000000001,0.9999938322432865,24.617046284063587
9.288,0.9999938236896967,24.437516773626655
9.296,0.9999938154466678,24.25793539293406
9.304,0.9999938075169893,24.07830246761797
9.312000000000001,0.9999937999034155,23.89861832419682
9.32,0.9999937926086634,23.71888329007057
9.328,0.9999937856354133,23.53909769351589
9.336,0.9999937789863093,23.35926186368153
9.344,0.9999937726639557,23.179376130583687
9.352,0.9999937666709209,22.999440825100844
9.36,0.9999937610097334,22.819456278969298
9.368,0.9999937556828827,22.639422824777988
9.376,0.999993750692819,22.45934079596384
9.384,0.9999937460419525,22.279210526806555
9.392,0.9999937417326532,22.099032352423905
9.4,0.9999937377672502,21.91880660876646
9.408,0.9999937341480314,21.738533632612803
9.416,0.9999937308772427,21.558213761564176
9.424,0.999993727957089,21.37784733403966
9.432,0.9999937253897312,21.197434689270732
9.44,0.9999937231772889,21.016976167296395
9.448,0.9999937213218376,20.83647210895765
9.456,0.9999937198254093,20.655922855892577
9.464,0.9999937186899921,20.47532875053072
9.472,0.9999937179175296,20.29469013608817
9.48,0.9999937175099203,20.11400735656181
9.488,0.9999937174690181,19.933280756724326
9.496,0.9999937177966309,19.752510682118466
9.504,0.999993718494521,19.571697479051945
9.512,0.9999937195644042,19.390841494591644
9.52,0.9999937210079498,19.20994307655842
9.528,0.99999372282678,19.029002573521293
9.536,0.9999937250224693,18.848020334792203
9.544,0.9999937275965457,18.666996710420054
9.552,0.9999937305504879,18.48593205118551
9.56,0.9999937338857268,18.30482670859492
9.568,0.9999937376036446,18.123681034875037
9.576,0.9999937417055745,17.942495382966978
9.584,0.9999937461928003,17.761270106520755
9.592,0.9999937510665565,17.58000555988927
9.6,0.999993756328027,17.39870209812275
9.608,0.9999937619783461,17.217360076962702
9.616,0.9999937680185972,17.03597985283628
