freq,mag,phase
6.0,1.0002272987695664,109.09483967780228
6.002287104,1.000121310707235,108.94005962151235
6.004574208,1.000008342701282,108.78690414570535
6.006861312,0.9998951037015711,108.6354047780293
6.009147904,0.9997887127392403,108.48553887052465
6.011435008,0.9996959982425135,108.33713895353965
6.013722112,0.9996227004685242,108.19003205963735
6.016009216,0.9995736628391071,108.0437855619469
6.01829632,0.9995518779113939,107.89812730058146
6.020583424,0.9995588228579404,107.75260741712945
6.022870016,0.9995939509140708,107.60682594637301
6.02515712,0.9996551188256437,107.46035189296747
6.027444224,0.999738496883742,107.31284196918476
6.029731328,0.9998389010816829,107.16405816387523
6.032018432,0.9999498598068882,107.01379008597955
6.034305536,1.0000643653123034,106.86186752891783
6.036592128,1.000175225183548,106.70837120243917
6.038879232,1.0002753804980649,106.55336945594745
6.041166336,1.0003584194757273,106.39706624356391
6.04345344,1.0004193407768105,106.23973843214574
6.045740544,1.0004540841939837,106.08173366045676
6.048027648,1.0004604373814672,105.92349505885458
6.05031424,1.0004380957020702,105.7653787973205
6.052601344,1.0003881656140572,105.60782882384582
6.054888448,1.0003141426594093,105.45116219657268
6.057175552,1.0002203715982807,105.29577262340634
6.059462656,1.0001130998348156,105.14187407251983
6.06174976,0.9999988950112996,104.98960310854297
6.064036352,0.9998848821835938,104.83905281883271
6.066323456,0.999778495333273,104.69009514515078
6.06861056,0.9996863062150015,104.54261433664611
6.070897664,0.9996142289768991,104.39638764701117
6.073184768,0.9995669274826167,104.25105671079756
6.075471872,0.9995472575989175,104.1062169623463
6.077758464,0.9995565671278923,103.96152577410815
6.080045568,0.9995942634102979,103.81647512614424
6.082332672,0.9996580038763424,103.67073010478657
6.084619776,0.9997438550153107,103.52395540983775
6.08690688,0.9998461462561591,103.3758083207779
6.089193984,0.999958652651002,103.2261504235531
6.091481088,1.0000742314318865,103.07484789613034
6.09376768,1.0001853519337387,102.92196428565629
6.096054784,1.0002852354419005,102.76753453691549
6.098341888,1.0003674867421575,102.6118448913466
6.100628992,1.0004268738054118,102.45514445575695
6.102916096,1.0004596247942383,102.29780235244596
6.1052032,1.00046348946097,102.14021961372006
6.107489792,1.0004385495205725,101.98280484151196
6.109776896,1.0003861752924463,101.82600785734962
6.112064,1.0003095478292707,101.67013069026021
6.114351104,1.0002135953086893,101.51555757420871
6.116638208,1.00010450902759,101.36248485260595
6.118925312,0.9999889747819606,101.21107296313036
6.121211904,0.9998743320267168,101.06140154351758
6.123499008,0.9997678846251675,100.9133132293917
6.125786112,0.9996764762692858,100.7667081018284
6.128073216,0.9996056801143023,100.6213180789286
6.13036032,0.9995601446110434,100.4768016270153
6.132647424,0.9995427483467701,100.33277724895044
6.134934016,0.9995546485647465,100.18881576394463
6.13722112,0.9995950547652185,100.04449967618338
6.139508224,0.9996614258378858,99.89944760806779
6.141795328,0.9997496598477857,99.75329814976051
6.144082432,0.9998540145914341,99.60576490457004
6.146369536,0.9999680985156696,99.45669052358241
6.148656128,1.000084584247864,99.30595592341994
6.150943232,1.0001960335517657,99.15360403806591
6.153230336,1.000295575261868,98.9997491951377
6.15551744,1.0003767093250409,98.84460059445895
6.157804544,1.000434406760373,98.68847683358754
6.160091648,1.0004650983693206,98.53169815843587
6.162378752,1.0004666531308843,98.37474396808419
6.164665344,1.0004389355841612,98.21801287282665
6.166952448,1.0003838234084863,98.06189682752924
6.169239552,1.0003047125727145,97.90677644973323
6.171526656,1.000206685745837,97.75296501897844
6.17381376,1.000095635410206,97.6006873476949
6.176100864,0.9999788379776002,97.4501115052918
6.178387456,0.9998636601501372,97.30122161974738
6.18067456,0.9997572915389964,97.15397789775265
6.182961664,0.9996665294893239,97.00821336680346
6.185248768,0.9995971754548355,96.86361843730265
6.187535872,0.9995535613830654,96.7198742214425
6.189822976,0.9995385594773184,96.57659596166886
6.192109568,0.9995529947023971,96.43336170504368
6.194396672,0.9995961042357132,96.28972740747797
6.196683776,0.9996651001827943,96.14527758861335
6.19897088,0.999755722331724,95.99969957162966
6.201257984,0.9998622589261166,95.852739219729
6.203545088,0.9999777427310464,95.70421620445157
6.20583168,1.0000951875065722,95.55398466140322
6.208118784,1.0002068515906408,95.40210803738768
6.210405888,1.0003059461466308,95.24875945178944
6.212692992,1.000386059023407,95.09409998011301
6.214980096,1.000442099467276,94.93846781439953
6.2172672,1.0004703954431613,94.78231176813087
6.219553792,1.0004694678205297,94.62591348664168
6.221840896,1.0004390684315039,94.469794806567
6.224128,1.0003812215187773,94.31432771183019
6.226415104,1.000299474542326,94.15991791936924
6.228702208,1.0001990837740002,94.00682142346868
6.230989312,1.0000862835050737,93.8553061782884
6.233275904,0.9999682952498288,93.70550348065854
6.235563008,0.9998525946519791,93.5574183438437
6.237850112,0.999746256332594,93.41096028301374
6.240137216,0.9996563641565247,93.26597344760299
6.24242432,0.9995884424667785,93.12214115384617
6.244711424,0.9995468119068571,92.9791410831099
6.246998528,0.9995341395284724,92.8365375201382
6.24928512,0.999551370687517,92.69395855334773
6.251572224,0.9995972334589165,92.5509358504384
6.253859328,0.9996689732030427,92.40706217861819
6.256146432,0.9997620914666445,92.26206252946069
6.258433536,0.9998705440129934,92.11558875368944
6.26072064,0.9999876492472846,91.96751098607434
6.263007232,1.0001058860063647,91.81774704954452
6.265294336,1.0002178175032357,91.66634092353691
6.26758144,1.000316342627457,91.51342503944205
6.269868544,1.0003952185361245,91.35923864350544
6.272155648,1.0004494340304495,91.20408061279305
6.274442752,1.0004756417871532,91.04840574274733
6.276729344,1.0004721112865498,90.89257455346353
6.279016448,1.000438963756842,90.73700826375284
6.281303552,1.0003782709081832,90.58215654894073
6.283590656,1.0002939168135654,90.42840083877441
6.28587776,1.0001912525194618,90.27599590080698
6.288164864,1.000076654367821,90.12518304210536
6.290451456,0.9999574696146759,89.97610836218246
6.29273856,0.9998412082406797,89.82876180280599
6.295025664,0.9997352144708193,89.68304725619608
6.297312768,0.9996462064527969,89.53880219443337
6.299599872,0.9995798322715685,89.39569692107887
6.301886976,0.99954026281282,89.25334699933465
6.304173568,0.9995301732567793,89.11142190424225
6.306460672,0.9995501328858134,88.96946036755799
6.308747776,0.9995988333556441,88.82697659827497
6.31103488,0.9996733712806417,88.68366092555802
6.313321984,0.9997688473860996,88.53912286011642
6.315609088,0.9998794028540211,88.39312540056386
6.317896192,0.9999979556853513,88.24545770341376
6.320182784,1.000117058800704,88.09609084979627
6.322469888,1.000229104992657,87.9450700038836
6.324756992,1.0003270001080131,87.7925513056088
6.327044096,1.000404706522098,87.63875572415382
6.3293312,1.000457085771512,87.48407557555323
6.331618304,1.0004807663126452,87.32883756935871
6.333904896,1.0004744850396656,87.17347843749245
6.336192,1.0004384966691242,87.01844482008528
6.338479104,1.0003750175645956,86.86416502194207
6.340766208,1.0002880864412969,86.71101599675055
6.343053312,1.0001830631820754,86.55924608759554
6.345340416,1.0000667538298476,86.40910849336959
6.347627008,0.9999464291608745,86.26072815594965
6.349914112,0.9998297655002344,86.11407677361397
6.352201216,0.9997239970490024,85.96905900523393
6.35448832,0.9996359153687144,85.82547724423353
6.356775424,0.9995711934312387,85.68301657971705
6.359062528,0.999533835820041,85.5413587309102
6.36134912,0.9995262900777205,85.40001642847263
6.363636224,0.9995490266547905,85.25860620133966
6.365923328,0.9996006958453866,85.11664649179102
6.368210432,0.9996780194852325,84.97379717795228
6.370497536,0.9997760634496149,84.82970457327228
6.37278464,0.9998886170181653,84.68406399903445
6.375071232,1.0000086412214917,84.53677481454946
6.377358336,1.0001284543846047,84.38777018103488
6.37964544,1.0002406106693147,84.23709147571877
6.381932544,1.0003378302546815,84.08491289286303
6.384219648,1.000414132040992,83.9314952819652
6.386506752,1.0004645902486566,83.77717752879094
6.388793344,1.0004859371090176,83.62233499381556
6.391080448,1.0004768743332229,83.46743023120777
6.393367552,1.000437910974859,83.31290759633005
6.395654656,1.0003715228188632,83.15914945584483
6.39794176,1.000281900538358,83.00654645842278
6.400228864,1.0001746143634676,82.85537738256795
6.402515968,1.0000564650609034,82.70586222341589
6.40480256,0.999935142133463,82.5581349655556
6.407089664,0.9998179012697143,82.4121494123979
6.409376768,0.9997125739288637,82.2677775400062
6.411663872,0.999625587779152,82.1248396091384
6.413950976,0.9995626215719404,81.98301249638355
6.41623808,0.9995275559718535,81.84189960101646
6.418524672,0.999522616740624,81.7011213006443
6.420811776,0.9995483317841218,81.56021249451643
6.42309888,0.9996029313178049,81.4187189638514
6.425385984,0.9996831239077612,81.27628822687501
6.427673088,0.9997835982607709,81.13257778087736
6.429960192,0.9998982163182208,80.98728006908372
6.432246784,1.0000195882733287,80.84031338633648
6.434533888,1.0001402278655969,80.69161057629083
6.436820992,1.0002523261900111,80.54121620487011
6.439108096,1.000348846301923,80.38931602932276
6.4413952,1.0004236599752188,80.23622090774356
6.443682304,1.0004720119815815,80.0822250980542
6.445968896,1.000490818921212,79.92776551168146
6.448256,1.0004788813739327,79.77326781452395
6.450543104,1.000436954845911,79.61916437543682
6.452830208,1.0003675861237187,79.4658898652503
6.455117312,1.000275284361654,79.31381252570239
6.457404416,1.000165757534714,79.16321500195386
6.459691008,1.0000459291904762,79.0142786481644
6.461978112,0.9999234020306274,78.86714152675874
6.464265216,0.9998059327822181,78.72175594238622
6.46655232,0.9997009299619776,78.57799093141864
6.468839424,0.9996151622547516,78.43563344154934
6.471126528,0.9995539235077306,78.29440466990837
6.473413632,0.9995212624403257,78.153816683006
6.475700224,0.9995191562603873,78.01353819155256
6.477987328,0.9995478324550444,77.87310312891033
6.480274432,0.9996054993966759,77.73202032798412
6.482561536,0.999688439276416,77.58994033323171
6.48484864,0.99979148031718,77.44654057965948
6.487135744,0.9999081131475127,77.30155566157127
6.489422336,1.0000309531120246,77.15485689416988
6.49170944,1.000152226330528,77.006368934809
6.493996544,1.0002642739012675,76.85621296089896
6.496283648,1.000359890629103,76.7045836704311
6.498570752,1.0004332370846156,76.55171749067503
6.500857856,1.0004794011034492,76.3980237377868
6.503144448,1.0004955819555736,76.24388463630211
6.505431552,1.0004807402985707,76.08972499493686
6.507718656,1.0004357645901902,75.9360294459531
6.51000576,1.0003634563802821,75.78316360525582
6.512292864,1.0002683458100443,75.63158838188141
6.514579968,1.0001565800724068,75.48147295806599
6.51686656,1.0000350030923384,75.33310111375017
6.519153664,0.9999114755204805,75.18651661567756
6.521440768,0.9997937227284494,75.04168997586586
6.523727872,0.9996892332519753,74.89850396193451
6.526014976,0.9996046504916427,74.75669034092778
6.52830208,0.9995454281350927,74.61597202586326
6.530588672,0.9995150736445392,74.47589942823295
6.532875776,0.9995158660484483,74.33606410877293
6.53516288,0.9995476548863573,74.19598811924979
6.537449984,0.9996082682434583,74.05529230281847
6.539737088,0.9996941208230995,73.91354533275998
6.542024192,0.9997998543084715,73.77039711374881
6.544310784,0.9999184188146643,73.62564319719758
6.546597888,1.000042612759738,73.47913611138642
6.548884992,1.0001644975603659,73.33085902788716
6.551172096,1.0002763566180917,73.18090287354245
6.5534592,1.0003710768058893,73.02944842661171
6.555746304,1.0004427792859256,72.87679601263855
6.558033408,1.0004866737594993,72.72333034035621
6.56032,1.0005001838378713,72.56944896690662
6.562607104,1.0004823436390204,72.41561590333654
6.564894208,1.0004342220573172,72.26226176853771
6.567181312,1.0003589453406208,72.10981627169829
6.569468416,1.0002611712178118,71.95863724587693
6.57175552,1.000146965830339,71.80901459074391
6.574042112,1.0000237918859565,71.66114376498642
6.576329216,0.9998993358511844,71.51505157726405
6.57861632,0.9997813580547791,71.37075650545482
6.580903424,0.9996774989575384,71.2280681418982
6.583190528,0.9995942121302602,71.08678352813278
6.585477632,0.9995369214669209,70.94651397932952
6.587764224,0.9995092051029806,70.80687706973896
6.590051328,0.9995129177168105,70.66745443668655
6.592338432,0.99954772902925,70.52772318091968
6.594625536,0.9996115324769034,70.38731805900717
6.59691264,0.9997003061684886,70.2458248326852
6.599199744,0.9998084334367604,70.1029107229237
6.601486336,0.9999290579003456,69.95833462257832
6.60377344,1.000054551780738,69.81196907460843
6.606060544,1.0001770312884686,69.66384375132955
6.608347648,1.0002886602338534,69.51402472051683
6.610634752,1.000382274074581,69.36268270341247
6.612921856,1.0004522590621705,69.21022628753605
6.615208448,1.0004938472629283,69.05694159373726
6.617495552,1.0005045871476241,68.90327186593863
6.619782656,1.0004836020793404,68.7497157731275
6.62206976,1.0004323630590142,68.59664845504147
6.624356864,1.0003540718530572,68.44456578464535
6.626643968,1.0002534812452137,68.29377552855352
6.628931072,1.0001370585702354,68.14458335548149
6.631217664,1.0000122561803968,67.99713352021001
6.633504768,0.9998868067843366,67.85152301500167
6.635791872,0.999768750238157,67.70770045362045
6.638078976,0.9996655002581006,67.56548385636275
6.64036608,0.9995836651112263,67.42464202339757
6.642653184,0.999528473349622,67.28480576638218
6.644939776,0.9995033653855371,67.14555273758353
6.64722688,0.9995099957168146,67.00645984679255
6.649513984,0.999548013034819,66.8670707231765
6.651801088,0.9996150121651228,66.72691910406124
6.654088192,0.99970671227753,66.58559885962363
6.656375296,0.9998174045367332,66.44285614974743
6.658661888,0.9999399706136431,66.29838629155854
6.660948992,1.0000667834901036,66.15214829039597
6.663236096,1.0001896337150928,66.00410588452796
6.6655232,1.0003010643726247,65.85435668270075
6.667810304,1.0003936722308304,65.70315083395
6.670097408,1.0004617214767457,65.55078201389342
6.672384,1.0005009719206985,65.39763327577838
6.674671104,1.0005087396736396,65.24413532362168
6.676958208,1.000484725786747,65.09076949436485
6.679245312,1.0004302488991317,64.93799301224337
6.681532416,1.0003487463240381,64.78621223722492
6.68381952,1.0002454609897256,64.63576798064479
6.686106112,1.000126863282982,64.48695279782346
6.688393216,1.000000410749308,64.33991586680078
6.69068032,0.9998740257338804,64.19473730096293
6.692967424,0.9997558628776464,64.05130930776687
6.695254528,0.9996533928561,63.90953365790076
6.697541632,0.9995731499172161,63.76908738180848
6.699828224,0.9995200458728537,63.62963754883673
6.702115328,0.9994977026689204,63.490725503342624
6.704402432,0.9995073683428739,63.35191567169565
6.706689536,0.9995486211933065,63.2127513891715
6.70897664,0.9996188355146828,63.07280713780823
6.711263744,0.9997134334177755,62.93165818992932
6.713550848,0.999826609948596,62.78899279260483
6.71583744,0.9999511866046057,62.64462485898421
6.718124544,1.0000791329331182,62.498439865988
6.720411648,1.0002025843458902,62.35041349692048
6.722698752,1.0003135485102406,62.20069979099319
6.724985856,1.000404957660521,62.04953459126462
6.72727296,1.0004711181221277,61.89722921351274
6.729559552,1.0005078667038592,61.744167174481774
6.731846656,1.0005127380179202,61.5908072860834
6.73413376,1.00048541575459,61.437614238175875
6.736420864,1.0004277309798846,61.28506042212751
6.738707968,1.0003431689832947,61.133530349426614
6.740995072,1.0002370536560075,60.98338964769744
6.743281664,1.0001162350624997,60.83490006003609
6.745568768,0.999988222098502,60.68823487218454
6.747855872,0.9998610366478188,60.543426772187225
6.750142976,0.9997429218407181,60.40040067919768
6.75243008,0.999641271778321,60.25898704705413
6.754717184,0.9995626077878785,60.11891176545424
6.757003776,0.9995118042521042,59.97976512958077
6.75929088,0.9994922022659033,59.841141832160744
6.761577984,0.999505136809848,59.702584607386214
6.763865088,0.9995496818850239,59.563615610508165
6.766152192,0.9996230553065946,59.42379018586986
6.768439296,0.9997207068495709,59.28272668049556
6.770725888,0.9998363989132554,59.14013624508703
6.773012992,0.9999628217691691,58.99578760287497
6.775300096,1.0000920684194838,58.84957885499348
6.7775872,1.000215717119473,58.70155266488595
6.779874304,1.000326220127396,58.55182137178002
6.782161408,1.0004164847824475,58.40063747489347
6.784448512,1.0004806625939708,58.24833066726987
6.786735104,1.0005147616299233,58.09531520584326
6.789022208,1.000516638548415,57.942051597150375
6.791309312,1.0004860599310004,57.788990283769614
6.793596416,1.0004250249035527,57.636588956306646
6.79588352,1.00033728902149,57.48528088912056
6.798170624,1.0002284305083715,57.33540150885019
6.800457216,1.000105297594295,57.18719690765333
6.80274432,0.9999757089454778,57.04086567659554
6.805031424,0.9998478381940329,56.89637701993363
6.807318528,0.9997298329153602,56.75369547774725
6.809605632,0.9996290909027914,56.61262652397625
6.811892736,0.9995520638051365,56.47283577768311
6.814179328,0.9995036092247827,56.3339619653216
6.816466432,0.9994868978309132,56.19557505290681
6.818753536,0.9995029946312044,56.05721199047822
6.82104064,0.9995509151465627,55.91837728330179
6.823327744,0.999627565480057,55.77865063688449
6.825614848,0.9997281696469517,55.63762425660369
6.82790144,0.9998464187203235,55.49502782303249
6.830188544,0.999974682301251,55.35064130468284
6.832475648,1.0001050437127432,55.20438122547081
6.834762752,1.000229045112852,55.056282886188455
6.837049856,1.0003389942012875,54.906474135146425
6.83933696,1.0004278843493588,54.75522775731159
6.841623552,1.0004899670793406,54.60290700954347
6.843910656,1.0005214363458623,54.449886419402276
6.84619776,1.000520184013957,54.296648545375795
6.848484864,1.0004863461660685,54.143670133583946
6.850771968,1.000421874811961,53.99142302570791
6.853059072,1.0003309914169651,53.84025931184543
6.855345664,1.0002193763349359,53.69059387156634
6.857632768,1.0000941012620195,53.5426569686314
6.859919872,0.9999630591124086,53.396571132175104
6.862206976,0.9998344303498916,53.25238307908834
6.86449408,0.9997165461729414,53.109984476223204
6.866781184,0.9996167980170247,52.96919157548697
6.869068288,0.9995415532542713,52.829667147444674
6.87135488,0.9994956609123977,52.69102124924769
6.873641984,0.9994818629527469,52.55282691490633
6.875929088,0.9995012377778886,52.41458627973652
6.878216192,0.9995525194716259,52.275836940523256
6.880503296,0.9996324410091723,52.136135757149205
6.8827904,0.9997360789037832,51.99512079898157
6.885076992,0.9998567833282737,51.85246431603498
6.887364096,0.9999869771148424,51.70799489215855
6.8896512,1.000118359489356,51.56162451511869
6.891938304,1.000242531124174,51.41339471515056
6.894225408,1.0003519050991787,51.2634581907795
6.896512512,1.000439286728618,51.11211805303964
6.898799104,1.0004991851163312,50.95968403550734
6.901086208,1.0005279064957826,50.806623654876596
6.903373312,1.0005235359658304,50.65337921354996
6.905660416,1.0004862395512442,50.5004452838578
6.90794752,1.0004184371144025,50.348250704292305
6.910234624,1.0003243833937694,50.19725967264922
6.912521216,1.0002099807385312,50.04774635267607
6.91480832,1.000082514714955,49.900013262592765
6.917095424,0.9999500237442294,49.75416504095514
6.919382528,0.9998208148317868,49.61021298714686
6.921669632,0.9997031100265594,49.468079150255285
6.923956736,0.9996044995204851,49.327487079972116
6.926243328,0.999531091998433,49.18815629350487
6.928530432,0.9994876810325817,49.049696361560166
6.930817536,0.9994769944799342,48.9116308175849
6.93310464,0.999499627016009,48.77346877460839
6.935391744,0.9995543990093663,48.6347579615428
6.937678848,0.9996376793190352,48.495049644494834
