freq,mag,phase
6.0,0.9999877526056082,-166.66410260165821
6.008,0.9999866221416611,-167.09997812184747
6.016,0.9999855077839692,-167.53565728796718
6.024,0.9999844094556288,-167.9711424274545
6.032,0.9999833270791495,-168.40643588798457
6.04,0.9999822605764692,-168.84154003721173
6.048,0.9999812098689688,-169.27645726251237
6.056,0.9999801748774865,-169.71118997072838
6.064,0.9999791555223345,-170.14574058791243
6.072,0.9999781517233095,-170.58011155907406
6.08,0.9999771633997115,-171.01430534792735
6.088,0.9999761904703538,-171.44832443663958
6.096,0.999975232853579,-171.88217132558148
6.104,0.9999742904672734,-172.31584853307848
6.112,0.9999733632288784,-172.7493585951635
6.12,0.9999724510554053,-173.1827040653308
6.128,0.9999715538634482,-173.6158875142913
6.136,0.9999706715691966,-174.04891152972925
6.144,0.9999698040884505,-174.48177871606003
6.152,0.9999689513366291,-174.91449169418942
6.16,0.9999681132287876,-175.3470531012741
6.168,0.9999672896796262,-175.7794655904836
6.176,0.9999664806035041,-176.21173183076334
6.184,0.9999656859144521,-176.64385450659918
6.192,0.9999649055261824,-177.0758363177835
6.2,0.999964139352103,-177.50767997918192
6.208,0.9999633873053265,-177.939388220502
6.216,0.9999626492986835,-178.3709637860631
6.224,0.9999619252447329,-178.80240943456732
6.232,0.9999612150557743,-179.23372793887194
6.24,0.9999605186438575,-179.6649220857632
6.248,0.999959835920793,179.9040053242686
6.256,0.9999591667981639,179.473051477253
6.264,0.9999585111873363,179.04221354596166
6.272,0.9999578689994687,178.61148869012933
6.28,0.9999572401455227,178.18087405667396
6.288,0.9999566245362725,177.75036677991486
6.296,0.9999560220823165,177.31996398179047
6.304,0.9999554326940847,176.88966277207382
6.312,0.9999548562818484,176.4594602485878
6.32,0.9999542927557307,176.02935349741844
6.328,0.9999537420257175,175.5993395931273
6.336,0.9999532040016624,175.16941559896247
6.344,0.999952678593299,174.73957856706866
6.352,0.9999521657102475,174.30982553869558
6.36,0.9999516652620253,173.88015354440563
6.368,0.9999511771580538,173.45055960428024
6.376,0.9999507013076667,173.0210407281249
6.384,0.9999502376201223,172.5915939156733
6.392,0.9999497860046057,172.16221615679007
6.4,0.9999493463702408,171.73290443167264
6.408,0.9999489186260961,171.3036557110517
6.416,0.999948502681193,170.87446695639105
6.424,0.9999480984445137,170.44533512008564
6.432,0.9999477058250092,170.01625714565935
6.44,0.9999473247316052,169.587229967961
6.448,0.999946955073209,169.1582505133599
6.456,0.9999465967587193,168.72931569993995
6.464,0.9999462496970293,168.30042243769302
6.472,0.9999459137970363,167.87156762871115
6.48,0.9999455889676482,167.44274816737789
6.4879999999999995,0.9999452751177879,167.0139609405588
6.496,0.9999449721564028,166.5852028277904
6.504,0.9999446799924671,166.15647070146937
6.5120000000000005,0.9999443985349927,165.72776142703944
6.52,0.9999441276930321,165.29907186317868
6.5280000000000005,0.9999438673756844,164.87039886198474
6.536,0.9999436174921033,164.44173926916056
6.5440000000000005,0.9999433779515002,164.01308992419777
6.552,0.9999431486631516,163.58444766056064
6.5600000000000005,0.999942929536404,163.15580930586822
6.568,0.9999427204806793,162.72717168207652
6.5760000000000005,0.9999425214054807,162.29853160565904
6.584,0.9999423322203959,161.8698858877876
6.592,0.9999421528351058,161.44123133451146
6.6,0.9999419831593858,161.01256474693653
6.608,0.9999418231031121,160.58388292140347
6.616,0.9999416725762676,160.15518264966514
6.624,0.9999415314889457,159.72646071906377
6.632,0.9999413997513528,159.297713912707
6.64,0.9999412772738177,158.8689390096439
6.648,0.9999411639667911,158.4401327850398
6.656,0.9999410597408526,158.0112920103513
6.664,0.9999409645067139,157.58241345349984
6.672,0.9999408781752246,157.1534938790458
6.68,0.9999408006573729,156.72453004836123
6.688,0.999940731864294,156.29551871980252
6.696,0.9999406717072696,155.8664566488828
6.704,0.9999406200977351,155.43734058844348
6.712,0.9999405769472814,155.00816728882563
6.72,0.9999405421676594,154.57893349804115
6.728,0.999940515670783,154.1496359619432
6.736,0.9999404973687335,153.72027142439663
6.744,0.9999404871737615,153.29083662744793
6.752,0.9999404849982924,152.86132831149493
6.76,0.9999404907549273,152.43174321545624
6.768,0.9999405043564483,152.0020780769405
6.776,0.9999405257158199,151.57232963241535
6.784,0.9999405547461938,151.14249461737606
6.792,0.9999405913609104,150.71256976651443
6.8,0.9999406354735024,150.2825518138869
6.808,0.9999406869976971,149.85243749308316
6.816,0.9999407458474218,149.42222353739416
6.824,0.9999408119368017,148.9919066799804
6.832,0.9999408851801677,148.5614836540398
6.84,0.9999409654920549,148.13095119297589
6.848,0.9999410527872089,147.70030603056577
6.856,0.9999411469805848,147.26954490112809
6.864,0.9999412479873525,146.838664539691
6.872,0.9999413557228978,146.4076616821604
6.88,0.9999414701028242,145.97653306548804
6.888,0.9999415910429562,145.5452754278396
6.896,0.9999417184593433,145.11388550876333
6.904,0.9999418522682575,144.68236004935827
6.912,0.9999419923861996,144.2506957924431
6.92,0.9999421387299008,143.8188894827249
6.928,0.9999422912163223,143.38693786696814
6.936,0.9999424497626603,142.95483769416404
6.944,0.9999426142863476,142.52258571570013
6.952,0.9999427847050523,142.09017868552976
6.96,0.9999429609366858,141.65761336034257
6.968,0.9999431428993975,141.22488649973442
6.976,0.9999433305115829,140.7919948663786
6.984,0.9999435236918826,140.35893522619642
6.992,0.9999437223591827,139.92570434852905
7.0,0.9999439264326208,139.49229900630917
7.008,0.9999441358315835,139.0587159762331
7.016,0.9999443504757107,138.6249520389339
7.024,0.9999445702848958,138.19100397915417
7.032,0.9999447951792894,137.75686858591976
7.04,0.9999450250792977,137.32254265271405
7.048,0.999945259905587,136.88802297765244
7.056,0.9999454995790844,136.45330636365767
7.064,0.9999457440209796,136.01838961863558
7.072,0.9999459931527253,135.58326955565127
7.08,0.9999462468960397,135.1479429931062
7.088,0.9999465051729078,134.7124067549158
7.096,0.9999467679055841,134.2766576706875
7.104,0.9999470350165917,133.8406925758997
7.112,0.9999473064287253,133.40450831208116
7.12,0.9999475820650531,132.96810172699145
7.128,0.9999478618489158,132.53146967480146
7.136,0.9999481457039315,132.09460901627557
7.144,0.9999484335539947,131.6575166189537
7.152,0.9999487253232779,131.22018935733462
7.16,0.9999490209362346,130.78262411305974
7.168,0.9999493203175981,130.34481777509816
7.176,0.9999496233923855,129.90676723993187
7.184,0.9999499300858966,129.46846941174238
7.192,0.9999502403237175,129.02992120259788
7.2,0.999950554031722,128.5911195326414
7.208,0.9999508711360698,128.15206133027962
7.216,0.9999511915632108,127.71274353237297
7.224,0.9999515152398866,127.27316308442629
7.232,0.9999518420931301,126.83331694078052
7.24,0.9999521720502674,126.39320206480537
7.248,0.9999525050389202,125.95281542909295
7.256,0.999952840987006,125.51215401565217
7.264,0.9999531798227403,125.07121481610459
7.272,0.9999535214746371,124.62999483188055
7.28,0.9999538658715105,124.18849107441696
7.288,0.9999542129424756,123.74670056535572
7.296,0.9999545626169537,123.30462033674351
7.304,0.9999549148246663,122.86224743123194
7.312,0.9999552694956441,122.41957890227971
7.32,0.9999556265602221,121.9766118143549
7.328,0.9999559859490467,121.53334324313907
7.336,0.9999563475930728,121.08977027573191
7.344,0.9999567114235662,120.6458900108572
7.352,0.9999570773721072,120.20169955907
7.36,0.9999574453705894,119.75719604296455
7.368,0.9999578153512226,119.31237659738377
7.376,0.9999581872465334,118.86723836962942
7.384,0.9999585609893684,118.4217785196737
7.392,0.999958936512892,117.97599422037189
7.4,0.9999593137505937,117.52988265767604
7.4079999999999995,0.9999596926362831,117.08344103084991
7.416,0.9999600731040974,116.63666655268496
7.4239999999999995,0.9999604550884978,116.18955644971784
7.432,0.9999608385242754,115.74210796244812
7.4399999999999995,0.9999612233465495,115.29431834555862
7.448,0.9999616094907721,114.84618486813525
7.4559999999999995,0.9999619968927267,114.39770481388967
7.464,0.9999623854885316,113.94887548138138
7.4719999999999995,0.9999627752146417,113.49969418424284
7.48,0.9999631660078498,113.05015825140386
7.4879999999999995,0.9999635578052873,112.60026502731898
7.496,0.999963950544428,112.15001187219418
7.504,0.999964344163088,111.69939616221669
7.5120000000000005,0.9999647385994288,111.24841528978394
7.52,0.9999651337919578,110.7970666637356
7.5280000000000005,0.9999655296795321,110.3453477095851
7.536,0.9999659262013572,109.89325586975362
7.5440000000000005,0.999966323296992,109.4407886038041
7.552,0.9999667209063492,108.98794338867756
7.5600000000000005,0.999967118969697,108.53471771892922
7.568,0.9999675174276621,108.08110910696716
7.5760000000000005,0.9999679162212303,107.6271150832906
7.584,0.9999683152917498,107.17273319673093
7.5920000000000005,0.9999687145809316,106.71796101469198
7.6,0.9999691140308533,106.26279612339341
7.6080000000000005,0.9999695135839611,105.80723612811308
7.616,0.9999699131830688,105.35127865343244
7.6240000000000006,0.999970312771364,104.8949213434813
7.632,0.9999707122924076,104.43816186218504
7.640000000000001,0.9999711116901373,103.98099789351156
7.648,0.9999715109088695,103.52342714172053
7.656000000000001,0.9999719098933,103.06544733161225
7.664,0.999972308588508,102.60705620877897
7.672,0.9999727069399585,102.14825153985568
7.68,0.9999731048935031,101.68903111277305
7.688,0.9999735023953829,101.22939273701067
7.696,0.999973899392231,100.76933424385123
7.704,0.9999742958310757,100.3088534866358
7.712,0.9999746916593412,99.8479483410197
7.72,0.99997508682485,99.38661670522949
7.728,0.9999754812758276,98.9248565003205
7.736,0.9999758749609023,98.46266567043538
7.744,0.9999762678291094,98.0000421830632
7.752,0.9999766598298921,97.53698402929945
7.76,0.999977050913106,97.0734892241067
7.768,0.9999774410290198,96.60955580657583
7.776,0.9999778301283192,96.14518184018813
7.784,0.9999782181621082,95.68036541307781
7.792,0.9999786050819127,95.21510463829523
7.8,0.9999789908396829,94.7493976540706
7.808,0.9999793753877954,94.28324262407831
7.816,0.9999797586790569,93.81663773770163
7.824,0.9999801406667055,93.3495812102979
7.832,0.999980521304415,92.88207128346428
7.84,0.9999809005462954,92.41410622530368
7.848,0.9999812783468984,91.9456843306911
7.856,0.9999816546612178,91.47680392154032
7.864,0.9999820294446936,91.0074633470709
7.872,0.9999824026532143,90.53766098407522
7.88,0.9999827742431193,90.0673952371859
7.888,0.9999831441712024,89.59666453914326
7.896,0.9999835123947152,89.12546735106287
7.904,0.9999838788713683,88.6538021627032
7.912,0.9999842435593345,88.18166749273325
7.92,0.999984606417253,87.70906188900015
7.928,0.9999849674042312,87.23598392879661
7.936,0.9999853264798481,86.76243221912833
7.944,0.9999856836041561,86.28840539698113
7.952,0.9999860387376853,85.81390212958786
7.96,0.9999863918414458,85.33892111469513
7.968,0.9999867428769302,84.86346108082942
7.976,0.9999870918061176,84.38752078756322
7.984,0.9999874385914757,83.91109902578015
7.992,0.9999877831959633,83.4341946179401
8.0,0.9999881255830346,82.9568064183435
8.008,0.9999884657166414,82.47893331339509
8.016,0.9999888035612353,82.00057422186666
8.024000000000001,0.9999891390817726,81.52172809515983
8.032,0.9999894722437142,81.04239391756722
8.04,0.9999898030130326,80.5625707065329
8.048,0.9999901313562107,80.08225751291216
8.056000000000001,0.9999904572402478,79.60145342123046
8.064,0.9999907806326607,79.1201575499408
8.072,0.9999911015014876,78.63836905167989
8.08,0.9999914198152899,78.15608711352367
8.088000000000001,0.9999917355431576,77.67331095724157
8.096,0.9999920486547083,77.19003983954885
8.104,0.9999923591200938,76.70627305235764
8.112,0.9999926669100001,76.22200992302703
8.120000000000001,0.9999929719956526,75.73724981461133
8.128,0.9999932743488175,75.25199212610659
8.136,0.9999935739418045,74.7662362926952
8.144,0.9999938707474706,74.27998178598921
8.152000000000001,0.9999941647392216,73.79322811427188
8.16,0.9999944558910162,73.3059748227368
8.168,0.9999947441773678,72.81822149372498
8.176,0.999995029573347,72.32996774696032
8.184000000000001,0.9999953120545851,71.84121323978306
8.192,0.9999955915972767,71.35195766738028
8.2,0.9999958681781812,70.86220076301431
8.208,0.9999961417746259,70.37194229824912
8.216000000000001,0.9999964123645101,69.88118208317424
8.224,0.9999966799263046,69.38991996662553
8.232,0.9999969444390567,68.89815583640352
8.24,0.9999972058823915,68.40588961948941
8.248000000000001,0.9999974642365143,67.91312128225813
8.256,0.9999977194822135,67.41985083068819
8.264,0.9999979716008621,66.9260783105685
8.272,0.9999982205744207,66.43180380770255
8.280000000000001,0.9999984663854389,65.93702744810948
8.288,0.9999987090170589,65.44174939822139
8.296,0.9999989484530152,64.94596986507743
8.304,0.9999991846776389,64.44968909651479
8.312,0.999999417675859,63.952907381356376
8.32,0.9999996474332038,63.45562504959382
8.328,0.9999998739358031,62.95784247256826
8.336,1.0,62.459560063145965
8.344,1.0,61.960778275891386
8.352,1.0,61.46149760723488
8.36,0.9999999999999999,60.96171859563801
8.368,1.0,60.46144182175288
8.376,0.9999999999999999,59.96066790857921
8.384,1.0,59.45939752161505
8.392,1.0,58.95763136900516
8.4,1.0,58.455370201682946
8.408,1.0,57.952614813509655
8.416,1.0,57.44936604140707
8.424,1.0,56.945624765487274
8.432,1.0,56.441391909175806
8.44,1.0,55.93666843933158
8.448,0.9999999999999999,55.43145536636001
8.456,0.9999999999999999,54.925753744322954
8.464,1.0,54.4195646710414
8.472,1.0,53.912889288194854
8.48,1.0,53.40572878141347
8.488,1.0,52.89808438036657
8.496,1.0,52.38995735884374
8.504,1.0,51.88134903483207
8.512,1.0,51.37226077058598
8.52,1.0,50.862693972692945
8.528,1.0,50.352650092131505
8.536,1.0,49.84213062432525
8.544,1.0,49.331137109188674
8.552,1.0,48.81967113116896
8.56,1.0,48.30773431927963
8.568,1.0,47.79532834712966
8.576,1.0,47.282454932944425
8.584,1.0,46.769115839582064
8.592,1.0,46.25531287454139
8.6,0.9999999999999999,45.741047889965174
8.608,0.9999999999999998,45.226322782634675
8.616,1.0,44.71113949395948
8.624,1.0,44.195500009958586
8.632,1.0,43.679406361236374
8.64,1.0,43.16286062294985
8.648,0.9999999999999999,42.645864914770684
8.656,1.0,42.128421400838306
8.664,1.0,41.610532289707656
8.672,1.0,41.09219983428786
8.68,1.0,40.573426331775615
8.688,1.0,40.054214123579094
8.696,1.0,39.53456559523658
8.704,1.0,39.01448317632567
8.712,1.0,38.49396934036688
8.72,0.9999999999999999,37.973026604717646
8.728,1.0,37.45165753046095
8.736,1.0,36.92986472228399
8.744,1.0,36.407650828351386
8.752,0.9999999999999999,35.88501854016857
8.76,1.0,35.36197059243932
8.768,1.0,34.838509762913546
8.776,1.0,34.31463887222926
8.784,0.9999999999999999,33.790360783744546
8.792,0.9999999999999999,33.26567840336369
8.8,1.0,32.74059467935333
8.808,1.0,32.21511260215257
8.815999999999999,1.0,31.689235204173446
8.824,1.0,31.162965559594262
8.832,1.0,30.63630678414506
8.84,1.0,30.109262034884367
8.847999999999999,0.9999999999999998,29.581834509968004
8.856,0.9999999999999998,29.05402744841016
8.864,0.9999999999999999,28.525844129836475
8.872,1.0,27.99728787422851
8.879999999999999,0.9999999999999998,27.468362041660125
8.888,0.9999999999999999,26.939070032026244
8.896,1.0,26.409415284763533
8.904,1.0,25.87940127856244
8.911999999999999,0.9999999999999999,25.349031531071297
8.92,1.0,24.818309598592712
8.928,1.0,24.287239075771932
8.936,1.0,23.755823595276773
8.943999999999999,1.0,23.22406682746942
8.952,0.9999999999999999,22.69197248007078
8.96,0.9999999999999999,22.159544297816915
8.968,1.0,21.626786062106937
8.975999999999999,1.0,21.093701590643164
8.984,0.9999999999999999,20.56029473706377
8.992,1.0,20.02656939056765
9.0,1.0,19.492529475531065
9.008,1.0,18.95817895111649
9.016,1.0,18.423521810874274
9.024000000000001,1.0,17.888562082336744
9.032,1.0,17.35330382660408
9.04,0.9999999999999999,16.817751137922844
9.048,1.0,16.281908143257457
9.056000000000001,0.9999999999999999,15.745779001854244
9.064,0.9999999999999999,15.209367904797713
9.072,1.0,14.672679074559605
9.08,1.0,14.135716764541186
9.088000000000001,1.0,13.598485258608424
9.096,1.0,13.060988870619736
9.104,1.0,12.523231943946705
9.112,0.9999999999999999,11.985218850988483
9.120000000000001,0.9999999999999999,11.446953992679356
9.128,1.0,10.908441797989237
9.136,1.0,10.369686723417498
9.144,0.9999999999999999,9.830693252480824
9.152000000000001,0.9999999999999999,9.291465895194714
9.16,1.0,8.752009187548163
9.168,1.0,8.212327690972211
9.176,1.0,7.672425991802876
9.184000000000001,1.0,7.132308700738168
9.192,0.9999999999999999,6.59198045228876
9.2,1.0,6.051445904222915
9.208,0.9999999999999999,5.510709737006332
9.216000000000001,1.0,4.969776653236496
9.224,0.9999999999999999,4.428651377071176
9.232,1.0,3.8873386536517236
9.24,0.9999999999999999,3.3458432485217195
9.248000000000001,1.0000000000000002,2.8041699470406742
9.256,1.0,2.26232355379243
9.264,1.0,1.7203088919888307
9.272,0.9999999999999999,1.178130802869353
9.280000000000001,1.0,0.6357941450962998
9.288,1.0,0.09330379414527155
9.296,0.9999999999999999,-0.44933535830857
9.304,0.9999999999999999,-0.9921184050075762
9.312000000000001,0.9999999999999998,-1.5350404237327169
9.32,1.0,-2.078096477928659
9.328,1.0,-2.6212816173325053
9.336,0.9999999999999999,-3.1645908786053543
9.344,0.9999999999999999,-3.708019285966979
9.352,1.0,-4.251561851834714
9.36,1.0,-4.795213577463539
9.368,0.9999999999999999,-5.33896945359074
9.376,0.9999999999999999,-5.88282446108122
9.384,0.9999999999999999,-6.426773571577202
9.392,0.9999999999999999,-6.97081174814822
9.4,1.0,-7.514933945945112
9.408,1.0,-8.059135112854001
9.416,1.0,-8.603410190153989
9.424,1.0,-9.147754113174498
9.432,0.9999999999999999,-9.692161811955847
9.44,1.0,-10.236628211909292
9.448,1.0,-10.781148234480023
9.456,1.0,-11.325716797809019
9.464,1.0,-11.870328817397768
9.472,1.0,-12.414979206771367
9.48,0.9999999999999999,-12.959662878144217
9.488,1.0,-13.504374743083758
9.496,0.9999999999999999,-14.049109713176298
9.504,1.0,-14.593862700690797
9.512,1.0,-15.13862861924421
9.52,0.9999999999999999,-15.683402384464468
9.528,1.0,-16.228178914654737
9.536,1.0,-16.77295313145496
9.544,1.0,-17.317719960504284
9.552,1.0000000000000002,-17.86247433210044
9.56,1.0,-18.40721118185975
9.568,0.9999999999999998,-18.951925451373643
9.576,0.9999999999999999,-19.496612088865483
9.584,1.0,-20.041266049843646
9.592,0.9999999999999998,-20.585882297754512
9.6,0.9999999999999999,-21.130455804631328
9.608,1.0,-21.674981551742757
9.616,1.0,-22.21945453023698
9.624,1.0,-22.763869741785
9.632,1.0,-23.308222199219326
9.64,0.9999999999999999,-23.852506927171518
9.648,1.0,-24.396718962704725
9.656,1.0,-24.94085335594488
9.664,1.0,-25.48490517070647
9.672,0.9999999999999999,-26.028869485116672
9.68,1.0,-26.572741392233908
9.688,0.9999999846276305,-27.116516000664213
9.696,0.9999999005091992,-27.660188435171936
9.704,0.9999998174574375,-28.203753837287856
9.712,0.9999997355018447,-28.747207365911372
9.72,0.9999996546714717,-29.290544197909885
9.728,0.9999995749949148,-29.833759528711816
9.736,0.9999994965003097,-30.37684857289671
9.744,0.9999994192153262,-30.91980656477857
9.752,0.9999993431671621,-31.462628758986124
9.76,0.9999992683825386,-32.005310431036065
9.768,0.9999991948876951,-32.54784687790277
9.776,0.999999122708383,-33.09023341858092
9.784,0.9999990518698629,-33.63246539464443
9.792,0.9999989823968988,-34.1745381707978
9.8,0.9999989143137529,-34.71644713542369
9.808,0.9999988476441832,-35.258187701122665
9.816,0.999998782411438,-35.79975530524896
9.824,0.9999987186382522,-36.3411454104381
9.832,0.9999986563468435,-36.88235350513039
9.84,0.9999985955589091,-37.423375104086155
9.847999999999999,0.9999985362956227,-37.96420574889632
9.856,0.99999847857763,-38.504841008485386
9.864,0.9999984224250464,-39.04527647960781
9.872,0.9999983678574544,-39.5855077873384
9.879999999999999,0.9999983148939003,-40.12553058555578
