freq,mag,phase
6.0,0.9999244003983458,-130.83120209249063
6.026935808,0.9999334051277098,-132.2838664625017
6.053872128,0.9999444419806913,-133.73643078750064
6.080807936,0.9999571153806208,-135.18886797763514
6.107744256,0.9999710420450584,-136.64115576772772
6.134680064,0.9999859973930192,-138.09333348078798
6.161616384,1.0000015374404747,-139.54534491755672
6.188552192,1.0000173460852257,-140.99720637319274
6.215488,1.00003292989089,-142.44893260652157
6.24242432,1.0000480703297414,-143.90045532501586
6.269360128,1.0000622240763788,-145.35178715314228
6.296296448,1.000075188761783,-146.80286156186645
6.323232256,1.0000864348779586,-148.253737546561
6.350168576,1.000095964837512,-149.70429992262547
6.377104384,1.0001032496782953,-151.1545734109929
6.404040192,1.0001083176712742,-152.60449035651655
6.430976512,1.0001109507784796,-154.05405016735077
6.45791232,1.0001110549557042,-155.50318500894758
6.48484864,1.0001086681589821,-156.9518679985302
6.511784448,1.0001037488093134,-158.40007124509344
6.538720768,1.000096464486734,-159.84776991594248
6.565656576,1.0000870519584957,-161.29489021062213
6.592592384,1.0000756551329941,-162.7414680800725
6.619528704,1.0000625605789553,-164.18743732926103
6.646464512,1.0000480156507252,-165.63275675396378
6.673400832,1.000032578125495,-167.07742808434506
6.70033664,1.0000163113946023,-168.5214039194198
6.72727296,0.9999998824087342,-169.96473127104133
6.754208768,0.9999835448881853,-171.40732488116413
6.781144576,0.9999679288381444,-172.8492204824514
6.808080896,0.9999530553135614,-174.29039627919116
6.835016704,0.999939537788123,-175.73086405451966
6.861953024,0.999927616168801,-177.17062465302396
6.888888832,0.9999177445450458,-178.60964743527168
6.915825152,0.9999099309285726,179.9519803699101
6.94276096,0.9999045396032592,178.51430869636567
6.969696768,0.9999016270493203,177.0773336860301
6.996633088,0.9999013431825907,175.6409659472418
7.023568896,0.9999037525415274,174.20527312486126
7.050505216,0.9999086743432947,172.77023453487593
7.077441024,0.9999160315288038,171.33577317078849
7.104377344,0.9999257426018169,169.9019286981065
7.131313152,0.9999374460953874,168.4686583598796
7.15824896,0.9999509913195495,167.03597184608026
7.18518528,0.9999659087890566,165.60391544799458
7.212121088,0.999981945547574,164.17235844605187
7.239057408,0.9999986942493085,162.74137662120717
7.265993216,1.0000156969684775,161.31097556979367
7.292929536,1.000032532634355,159.8811510606896
7.319865344,1.000048887108014,158.45190114297725
7.346801152,1.0000642322721147,157.02326987619372
7.373737472,1.0000782050119394,155.5952443712907
7.40067328,1.0000905827633957,154.1678211432987
7.4276096,1.0001008730091046,152.7410806175019
7.454545408,1.000108962700273,151.31501316749973
7.481481728,1.000114564104023,149.8896580763429
7.508417536,1.000117533220087,148.4650174622582
7.535353344,1.000117901165682,147.0411377656682
7.562289664,1.0001153588542686,145.6180619677288
7.589225472,1.000110346672458,144.19579477818218
7.616161792,1.0001025319145938,142.7743676981464
7.6430976,1.0000925063436987,141.35383992982483
7.67003392,1.0000802928129084,139.9341697403922
7.696969728,1.0000662571427028,138.51541955548748
7.723905536,1.0000507576790008,137.09762590689846
7.750841856,1.0000339919466033,135.68078842515155
7.777777664,1.0000165425235519,134.26487711167502
7.804713984,0.9999988495445028,132.84996969569565
7.831649792,0.999981256945564,131.4360001680847
7.858586112,0.9999642821657923,130.0230111957924
7.88552192,0.9999482861034978,128.61101130081502
7.912457728,0.9999336336111038,127.19995816590647
7.939394048,0.9999208889843203,125.78983591083066
7.966329856,0.9999101469701691,124.38063535238614
7.993266176,0.999901716435731,122.97236201724256
8.020201984,0.9998959044389905,121.56496847742036
8.047137792,0.9998928693787639,120.15843089020387
8.074074112,0.9998925406746115,118.7527375017938
8.10100992,0.9998951782991796,117.34787010889774
8.12794624,0.9999005818588919,115.94376659063688
8.154882048,0.9999086893576906,114.5404138982088
8.181818368,0.9999192186710484,113.1378237082081
8.208754176,0.9999319941259907,111.73594723895378
8.235689984,0.9999467109190092,110.3347481148388
8.262626304,0.9999629801917483,108.93423454131502
8.289562112,0.999980433802508,107.53438186653561
8.316498432,0.9999986566616245,106.13518001404701
8.34343424,1.000017179077602,104.73661191841883
8.37037056,1.000035468088898,103.3387074087274
8.397306368,1.0000533767890392,101.94142820568283
8.424242176,1.0000700329669425,100.54480807377116
8.451178496,1.0000852481476494,99.14881591659118
8.478114304,1.0000985873914592,97.75349628524141
8.505050624,1.00010982229207,96.35888234559614
8.531986432,1.0001184769992562,94.96496020050874
8.558922752,1.0001244561367177,93.57171395213854
8.58585856,1.0001275982644833,92.17926152923314
8.612794368,1.0001278528232618,90.78753515665815
8.639730688,1.0001249585697125,89.39660641253168
8.666667008,1.0001192884743668,88.0064796406655
8.693602304,1.0001107137698517,86.61717772055023
8.720538624,1.0000996373338926,85.22874489752611
8.747474944,1.000086150415853,83.84116554037475
8.774411264,1.0000707062578977,82.45446614366618
8.80134656,1.0000536301627674,81.06866702794397
8.82828288,1.0000353083935265,79.68374723855943
8.8552192,1.0000162320895025,78.29974273111056
8.882154496,0.999996864436161,76.9166459211334
8.909090816,0.9999776848677039,75.53444515085036
8.936027136,0.999959231322735,74.15314435318096
8.962963456,0.9999418243467688,72.77270580354701
8.989898752,0.9999260185293225,71.39312726027582
9.016835072,0.9999120627938923,70.01438767238488
9.043771392,0.9999005382450566,68.63645241893988
9.070706688,0.9998916614282701,67.25930475719257
9.097643008,0.9998855388709914,65.882898498556
9.124579328,0.9998824924659022,64.50722152431763
9.151515648,0.9998825297440549,63.13222851564582
9.178450944,0.9998857830412137,61.75787955455969
9.205387264,0.9998919811841348,60.38412426879835
9.232323584,0.9999012349630639,59.01095933914574
9.25925888,0.9999131232615613,57.63833894476464
9.2861952,0.9999274281028564,56.26623319028918
9.31313152,0.9999439270464132,54.89460807843923
9.34006784,0.999962075173124,53.52343953628014
9.367003136,0.9999814025216006,52.15270842170475
9.393939456,1.0000015596429488,50.78238642244237
9.420875776,1.000022017903142,49.41248463912926
9.447811072,1.0000421979500138,48.04296245932092
9.474747392,1.0000616316899935,46.67383882157517
9.501683712,1.000079911899124,45.305110975606596
9.528620032,1.000096482208699,43.93675521897164
9.555555328,1.0001109077161416,42.56881631983376
9.582491648,1.000122942052559,41.20129805858285
9.609427968,1.0001321756181967,39.83419940421346
9.636363264,1.0001383127814731,38.46754966994794
9.663299584,1.0001413060881863,37.10136253570291
9.690235904,1.0001409093110039,35.73564127004544
9.717172224,1.0001373260283632,34.370448540910445
9.74410752,1.0001304183150166,33.005775886756176
9.77104384,1.0001204903699645,31.641640271385523
9.79798016,1.0001076858406401,30.278074219186657
9.824915456,1.0000923681830154,28.915083032116897
9.851851776,1.000074916536664,27.552662503069403
9.878788096,1.00005563619282,26.190848355532648
9.905724416,1.0000350398768796,24.829638824690452
9.932659712,1.0000137421495576,23.46902372814234
9.959596032,0.9999921846341233,22.109016458336093
9.986532352,0.9999709393582448,20.749570754936393
10.013467648,0.9999504333052948,19.390722447398204
10.040403968,0.9999313512374965,18.032412719046622
10.067340288,0.999914039652418,16.674636167916834
10.094275584,0.9998990483398409,15.317354023110724
10.121211904,0.9998866805789748,13.960531538911491
10.148148224,0.9998772644086509,12.604160114523912
10.175084544,0.999871166977192,11.24817157333341
10.20201984,0.9998684202990477,9.892533142162748
10.22895616,0.9998691833414695,8.537218131613118
10.25589248,0.9998733979354949,7.182137971390764
10.282827776,0.9998810503101484,5.827316260996453
10.309764096,0.9998919819918929,4.472656948116488
10.336700416,0.999905918350339,3.118153812146657
10.363636736,0.9999225093393118,1.7637558531438862
10.390572032,0.9999413090825069,0.40943078726957916
10.417508352,0.9999619806928124,-0.9448590070695662
10.444444672,0.9999838577581939,-2.2991138807822984
10.471379968,1.0000065413416843,-3.653369201291546
10.498316288,1.0000294409707213,-5.007661638775558
10.525252608,1.0000519439630866,-6.3619629446660975
10.552188928,1.000073509174462,-7.716303225093838
10.579124224,1.0000936671934813,-9.0706848389195
10.606060544,1.000111700813265,-10.425076616757657
10.632996864,1.0001273642168926,-11.779532168529617
10.65993216,1.0001402573439753,-13.133975696866532
10.68686848,1.0001497892822453,-14.48839098642535
10.7138048,1.000155884412026,-15.8428024612586
10.74074112,1.0001583710494524,-17.197177911607238
10.767676416,1.0001570536131972,-18.551461284536355
10.794612736,1.0001521328776857,-19.905686862685066
10.821549056,1.0001435053785361,-21.259770083773144
10.848484352,1.0001314591970083,-22.613727516383353
10.875420672,1.0001163118086493,-23.96753256484675
10.902356992,1.000098397329976,-25.321163939995166
10.929293312,1.0000780393919466,-26.674615635111834
10.956228608,1.0000557986629173,-28.027868598690578
10.983164928,1.0000323601272212,-29.38094243294734
11.010101248,1.0000081006057713,-30.73380422607889
11.037036544,0.999983632554645,-32.086500280457614
11.063972864,0.9999597489301427,-33.439004559825165
11.090909184,0.9999369061052037,-34.79134238217246
11.117845504,0.9999156224220205,-36.14355674441802
11.1447808,0.9998966382337297,-37.495654925823644
11.17171712,0.9998803097799221,-38.84768857015899
11.19865344,0.9998669442669541,-40.1996503613036
11.225588736,0.9998571761904567,-41.551645396292095
11.252525056,0.9998511186112398,-42.903666180351195
11.279461376,0.9998490211669329,-44.25578071727485
11.306397696,0.9998507740771128,-45.60802758347472
11.333332992,0.9998565983968373,-46.96047249580635
11.360269312,0.9998661711241998,-48.3131218521806
11.387205632,0.9998795434766089,-49.66606215496651
11.414140928,0.9998961264707458,-51.019301411862344
11.441077248,0.9999156065990212,-52.3729118010536
11.468013568,0.999937695935979,-53.726918301231976
11.494949888,0.9999616227290485,-55.081332205481544
11.521885184,0.9999869286587714,-56.43618153017129
11.548821504,1.0000129480957278,-57.791500826080146
11.575757824,1.0000390014419016,-59.14731474087656
11.60269312,1.0000644938482905,-60.50361840741684
11.62962944,1.0000888128149628,-61.860423949648016
11.65656576,1.0001112684051627,-63.21770972322752
11.68350208,1.0001313344861544,-64.57548586037042
11.710437376,1.0001485532914807,-65.9337287583555
11.737373696,1.0001621938377414,-67.29242570900756
11.764310016,1.000172262211366,-68.65154338339622
11.791245312,1.0001782451168424,-70.01106259425012
11.818181632,1.0001800248342116,-71.37096946046377
11.845117952,1.0001775802713095,-72.7312163304268
11.872054272,1.0001708745512663,-74.09179099048228
11.898989568,1.0001599879874652,-75.4526481146297
11.925925888,1.0001452672604547,-76.81377405524043
11.952862208,1.0001270018285744,-78.17512379586067
11.979797504,1.0001057203415649,-79.53671580609311
12.006733824,1.0000817861556806,-80.89847598161653
12.033670144,1.0000557870786866,-82.26045068077524
12.060606464,1.0000284738726801,-83.62259513167795
12.08754176,1.000000419307923,-84.98491202338326
12.11447808,0.999972344107703,-86.347411702681
12.1414144,0.9999449072502445,-87.71009524691613
12.168349696,0.9999189157435738,-89.07299987100255
12.195286016,0.999894918230825,-90.43614291982071
12.222222336,0.9998735951891492,-91.7995413201732
12.249158656,0.9998554747248863,-93.16322392310809
12.276093952,0.9998410508713304,-94.5272543252578
12.303030272,0.9998306541254709,-95.89165090486952
12.329966592,0.9998245746431492,-97.2564846959547
12.356901888,0.999823118370696,-98.62176769014367
12.383838208,0.9998262184331151,-99.98758273670384
12.410774528,0.9998338783970698,-101.35396162655935
12.437710848,0.999845963283672,-102.7209521553788
12.464646144,0.9998622134548019,-104.08861468561231
12.491582464,0.9998822345113277,-105.45697732594984
12.518518784,0.9999056159894085,-106.8260844227034
12.54545408,0.9999316850108962,-108.19597014978994
12.5723904,0.9999599379454953,-109.56667261992636
12.59932672,0.9999895511515309,-110.93820671865222
12.62626304,1.0000199839846577,-112.31058578879488
12.653198336,1.00005029440799,-113.6838418913525
12.680134656,1.0000798330764036,-115.05795585596617
12.707070976,1.0001078048438774,-116.43293295681538
12.734006272,1.0001335269443665,-117.80876793893637
12.760942592,1.000156410381157,-119.18542395552082
12.787878912,1.0001757803970446,-120.56290845834677
12.814815232,1.0001911294953076,-121.94117859985775
12.841750528,1.0002020002637746,-123.32018282679542
12.868686848,1.0002081611574627,-124.699918348728
12.895623168,1.000209421387594,-126.08033699441108
12.922558464,1.0002057080351239,-127.46139697382186
12.949494784,1.0001969067996925,-128.84303838479545
12.976431104,1.000183440379516,-130.22525116310942
13.003367424,1.0001655138453067,-131.60799982594943
13.03030272,1.000143442417554,-132.99122279367586
13.05723904,1.000117834501773,-134.3749035428817
13.08417536,1.000089208491338,-135.75900764590364
13.111110656,1.0000583191215477,-137.1435207001848
13.138046976,1.000025888023045,-138.52843013249438
13.164983296,0.9999927712111462,-139.91371920177681
13.191919616,0.9999597196629063,-141.29939856467382
13.218854912,0.9999274454392504,-142.68547222629425
13.245791232,0.9998969919638636,-144.07193635470236
13.272727552,0.9998689456535659,-145.4588289345253
13.299662848,0.9998441316555484,-146.84617332227285
13.326599168,0.9998230682718885,-148.23399821490815
13.353535488,0.9998064626599342,-149.6223397504243
13.380471808,0.999794626215906,-151.0112598464436
13.407407104,0.9997881374875558,-152.400789712003
13.434343424,0.99978696931854,-153.79097559977765
13.461279744,0.9997912434764901,-155.18188300549212
13.48821504,0.9998009921832249,-156.57352899938485
13.51515136,0.9998159467605577,-157.9659982910054
13.54208768,0.9998358709722641,-159.35932857124482
13.569024,0.9998601505239054,-160.75357121510922
13.595959296,0.9998884882907272,-162.14874145370973
13.622895616,0.9999200455841541,-163.54490625023496
13.649831936,0.9999541026746962,-164.94205649480642
13.676767232,0.9999898493524688,-166.340231357642
13.703703552,1.0000263874233581,-167.73944642184003
13.730639872,1.0000628485309047,-169.13969605900485
13.757576192,1.0000983576068139,-170.54098854748185
13.784511488,1.0001320619535763,-171.94331807790243
13.811447808,1.0001629452819065,-173.3466481769603
13.838384128,1.0001904218916642,-174.75094376854418
13.865319424,1.0002135748134175,-176.1561996151023
13.892255744,1.0002319375835493,-177.56235031191886
13.919192064,1.0002449045811026,-178.96937505924373
13.946128384,1.0002522230417208,179.62283106932887
13.97306368,1.0002534954486244,178.2142624233498
14.0,1.0002488262350082,176.80499079138843
