freq,mag,phase
6.0,0.9999934643769491,-164.0911767123036
6.008,0.9999927861229159,-164.41323329324877
6.016,0.9999921419413917,-164.73504865399036
6.024,0.9999915310256186,-165.05662766324684
6.032,0.9999909525812437,-165.37797518763938
6.04,0.999990405826175,-165.6990960917488
6.048,0.9999898899904428,-166.01999523817494
6.056,0.9999894043160558,-166.34067748759747
6.064,0.9999889480568633,-166.6611476988391
6.072,0.9999885204784168,-166.98141072893026
6.08,0.9999881208578344,-167.30147143317603
6.088,0.9999877484836616,-167.62133466522457
6.096,0.9999874026557413,-167.9410052771374
6.104,0.9999870826850753,-168.26048811946166
6.112,0.9999867878936969,-168.5797880413037
6.12,0.9999865176145364,-168.89890989040467
6.128,0.999986271191294,-169.21785851321752
6.136,0.9999860479783087,-169.5366387549859
6.144,0.9999858473404317,-169.85525545982415
6.152,0.999985668652902,-170.17371347079953
6.16,0.9999855113012173,-170.49201763001525
6.168,0.9999853746810151,-170.81017277869555
6.176,0.999985258197945,-171.1281837572718
6.184,0.9999851612675511,-171.44605540547047
6.192,0.9999850833151491,-171.7637925624019
6.2,0.9999850237757086,-172.0814000666512
6.208,0.9999849820937332,-172.39888275636977
6.216,0.9999849577231464,-172.71624546936843
6.224,0.9999849501271736,-173.033493043212
6.232,0.999984958778226,-173.3506303153148
6.24,0.9999849831577924,-173.66766212303753
6.248,0.9999850227563222,-173.9845933037855
6.256,0.9999850770731135,-174.3014286951075
6.264,0.9999851456162088,-174.6181731347966
6.272,0.9999852279022802,-174.9348314609913
6.28,0.9999853234565231,-175.25140851227826
6.288,0.9999854318125512,-175.56790912779582
6.296,0.9999855525122887,-175.88433814733878
6.304,0.9999856851058679,-176.20070041146397
6.312,0.999985829151523,-176.5170007615969
6.32,0.9999859842154895,-176.83324404013936
6.328,0.9999861498719027,-177.149435090578
6.336,0.9999863257026979,-177.46557875759376
6.344,0.9999865112975093,-177.7816798871721
6.352,0.999986706253574,-178.09774332671427
6.36,0.9999869101756333,-178.4137739251494
6.368,0.9999871226758383,-178.72977653304702
6.376,0.9999873433736542,-179.04575600273088
6.384,0.9999875718957644,-179.36171718839347
6.392,0.9999878078759805,-179.6776649462107
6.4,0.9999880509551486,-179.99360413445805
6.408,0.9999883007810595,179.69046038637316
6.416,0.999988557008357,179.37452375345833
6.424,0.9999888192984501,179.0585811015221
6.432,0.9999890873194258,178.7426275627197
6.44,0.9999893607459602,178.426658266518
6.448,0.9999896392592339,178.11066833957597
6.456,0.9999899225468454,177.79465290562447
6.464,0.9999902103027293,177.4786070853456
6.472,0.9999905022270714,177.16252599625153
6.48,0.9999907980262258,176.84640475256293
6.4879999999999995,0.9999910974126358,176.53023846508677
6.496,0.9999914001047516,176.21402224109374
6.504,0.9999917058269513,175.89775118419556
6.5120000000000005,0.9999920143094627,175.58142039422123
6.52,0.9999923252882854,175.26502496709386
6.5280000000000005,0.9999926385051136,174.94855999470607
6.536,0.9999929537072603,174.6320205647961
6.5440000000000005,0.9999932706475828,174.3154017608228
6.552,0.9999935890844077,173.9986986618411
6.5600000000000005,0.9999939087814582,173.6819063423763
6.568,0.9999942295077814,173.36501987229937
6.5760000000000005,0.9999945510376758,173.0480343167006
6.584,0.9999948731506221,172.7309447357646
6.592,0.9999951956312115,172.41374618464368
6.6,0.9999955182690782,172.09643371333226
6.608,0.9999958408588294,171.77900236654054
6.616,0.9999961631999787,171.46144718356834
6.624,0.9999964850968794,171.14376319817873
6.632,0.9999968063586575,170.82594543847185
6.64,0.9999971267991475,170.50798892675834
6.648,0.9999974462368276,170.18988867943335
6.656,0.9999977644947562,169.87163970685006
6.664,0.9999980814005082,169.55323701319358
6.672,0.9999983967861137,169.23467559635492
6.68,0.9999987104879956,168.9159504478048
6.688,0.9999990223469105,168.59705655246813
6.696,0.9999993322078873,168.27798888859823
6.704,0.9999996399201677,167.95874242765137
6.712,0.9999999453371484,167.63931213416163
6.72,1.0,167.31969296561593
6.728,1.0,166.99987987232936
6.736,0.9999999999999999,166.6798677973209
6.744,1.0,166.35965167618937
6.752,0.9999999999999999,166.0392264369898
6.76,1.0,165.71858700011023
6.768,1.0,165.39772827814903
6.776,1.0,165.07664517579235
6.784,1.0,164.75533258969253
6.792,1.0,164.43378540834652
6.8,0.9999999999999999,164.1119985119755
6.808,1.0,163.78996677240434
6.816,0.9999999999999999,163.46768505294236
6.824,1.0,163.1451482082643
6.832,1.0,162.8223510842921
6.84,1.0,162.49928851807763
6.848,0.9999999999999999,162.1759553376857
6.856,1.0,161.85234636207835
6.864,0.9999999999999999,161.52845640099963
6.872,1.0,161.20428025486154
6.88,1.0,160.87981271463053
6.888,0.9999999999999999,160.55504856171515
6.896,1.0,160.2299825678548
6.904,1.0,159.9046094950091
6.912,0.9999999999999999,159.57892409524888
6.92,0.9999999999999999,159.25292111064755
6.928,0.9999999999999999,158.9265952731743
6.936,1.0,158.5999413045882
6.944,1.0,158.27295391633328
6.952,0.9999999999999999,157.94562780943528
6.96,0.9999999999999999,157.61795767439946
6.968,1.0,157.28993819111008
6.976,0.9999999999999999,156.96156402873058
6.984,1.0,156.63282984560604
6.992,1.0,156.30373028916668
7.0,1.0,155.97425999583294
7.008,0.9999999999999999,155.64441359092217
7.016,0.9999999999999999,155.31418568855705
7.024,1.0,154.98357089157568
7.032,1.0,154.6525637914432
7.04,1.0,154.32115896816563
7.048,0.9999999999999999,153.989350990205
7.056,0.9999999999999999,153.657134414397
7.064,1.0,153.32450378587015
7.072,0.9999999999999999,152.9914536379669
7.08,0.9999999999999999,152.6579784921675
7.088,1.0,152.32407285801509
7.096,0.9999999999999999,151.9897312330436
7.104,0.9999999999999998,151.65494810270775
7.112,1.0,151.31971794031526
7.12,0.9999999999999999,150.98403520696147
7.128,0.9999999999999999,150.64789435146653
7.136,0.9999999999999999,150.31128981031512
7.144,0.9999999999999999,149.9742160075982
7.152,0.9999999999999999,149.6366673549584
7.16,1.0,149.29863825153717
7.168,0.9999999999999999,148.96012308392508
7.176,1.0,148.6211162261154
7.184,1.0,148.28161203945956
7.192,1.0,147.94160487262675
7.2,1.0,147.6010890615658
7.208,0.9999999999999999,147.26005892947066
7.216,1.0,146.9185087867488
7.224,1.0,146.57643293099304
7.232,0.9999999999999999,146.23382564695694
7.24,1.0,145.8906812065333
7.248,1.0,145.54699386873656
7.256,0.9999999999999999,145.20275787968856
7.264,1.0,144.85796747260827
7.272,1.0,144.51261686780506
7.28,0.9999999999999999,144.16670027267617
7.288,1.0,143.820211881708
7.296,1.0,143.47314587648137
7.304,1.0,143.12549642568123
7.312,0.9999999999999999,142.77725768511047
7.32,0.9999999999999999,142.42842379770815
7.328,0.9999999999999999,142.0789888935721
7.336,0.9999999999999999,141.72894708998632
7.344,0.9999999999999999,141.37829249145275
7.352,1.0000000000000002,141.02701918972804
7.36,1.0000000000000002,140.67512126386524
7.368,1.0,140.3225927802601
7.376,1.0,139.96942779270302
7.384,0.9999999999999999,139.6156203424357
7.392,1.0000000000000002,139.2611644582134
7.4,1.0,138.90605415637262
7.4079999999999995,0.9999999999999999,138.5502834409041
7.416,0.9999999999999999,138.19384630353184
7.4239999999999995,0.9999999999999999,137.8367367237976
7.432,1.0,137.47894866915124
7.4399999999999995,1.0,137.12047609504765
7.448,1.0,136.76131294504904
7.4559999999999995,0.9999999999999999,136.40145315093426
7.464,1.0,136.04089063281367
7.4719999999999995,1.0,135.6796192992517
7.48,0.9999999999999999,135.3176330473948
7.4879999999999995,0.9999999999999999,134.95492576310727
7.496,1.0,134.59149132111307
7.504,1.0,134.22732358514583
7.5120000000000005,0.9999999999999999,133.8624164081047
7.52,1.0,133.4967636322191
7.5280000000000005,0.9999999999999999,133.13035908921927
7.536,1.0,132.76319660051607
7.5440000000000005,1.0,132.39526997738733
7.552,1.0,132.02657302117314
7.5600000000000005,1.0,131.65709952347802
7.568,1.0,131.28684326638282
7.5760000000000005,0.9999999999999999,130.9157980226635
7.584,1.0,130.5439575560198
7.5920000000000005,1.0,130.17131562131135
7.6,1.0,129.79786596480395
7.6080000000000005,1.0,129.4236023244236
7.616,1.0,129.04851843002075
7.6240000000000006,1.0,128.67260800364298
7.632,0.9999999999999998,128.2958647598184
7.640000000000001,1.0,127.91828240584724
7.648,1.0,127.53985464210469
7.656000000000001,1.0,127.16057516235264
7.664,1.0,126.78043765406265
7.672,1.0,126.39943579874817
7.68,1.0000000000000002,126.01756327230844
7.688,0.9999999999999998,125.63481374538227
7.696,1.0,125.2511808837132
7.704,1.0,124.86665834852545
7.712,1.0,124.48123979691131
7.72,1.0,124.09491888223012
7.728,1.0,123.70768925451846
7.736,1.0,123.31954456091252
7.744,0.9999999999999999,122.93047844608243
7.752,1.0,122.54048455267872
7.76,0.9999999999999999,122.14955652179113
7.768,1.0,121.75768799342005
7.776,1.0,121.36487260696089
7.784,0.9999999999999999,120.97110400170104
7.792,1.0,120.57637581733032
7.8,1.0,120.18068169446472
7.808,0.9999999999999999,119.78401527518358
7.816,0.9999998092924581,119.38637020358048
7.824,0.9999995711550066,118.98774012632832
7.832,0.9999993324540943,118.58811869325824
7.84,0.9999990932687985,118.18749955795302
7.848,0.9999988536781811,117.78587637835506
7.856,0.99999861376127,117.38324281738893
7.864,0.9999983735970432,116.97959254359893
7.872,0.9999981332644106,116.57491923180176
7.88,0.999997892842196,116.16921656375455
7.888,0.9999976524091208,115.76247822883826
7.896,0.999997412043785,115.35469792475698
7.904,0.99999717182465,114.94586935825299
7.912,0.9999969318300216,114.53598624583793
7.92,0.9999966921380316,114.1250423145403
7.928,0.9999964528266203,113.71303130266946
7.936,0.9999962139735183,113.29994696059629
7.944,0.9999959756562298,112.8857830515506
7.952,0.9999957379520128,112.4705333524358
7.96,0.9999955009378634,112.05419165466061
7.968,0.9999952646904959,111.63675176498838
7.976,0.9999950292863257,111.2182075064038
7.984,0.999994794801451,110.79855271899757
7.992,0.9999945613116352,110.37778126086899
8.0,0.9999943288922877,109.95588700904666
8.008,0.9999940976184458,109.53286386042754
8.016,0.9999938675647575,109.10870573273422
8.024000000000001,0.9999936388054613,108.68340656549157
8.032,0.9999934114143701,108.25696032102135
8.04,0.9999931854648502,107.82936098545602
8.048,0.9999929610298041,107.40060256977202
8.056000000000001,0.9999927381816519,106.97067911084223
8.064,0.9999925169923125,106.53958467250754
8.072,0.9999922975331844,106.10731334666798
8.08,0.9999920798751274,105.67385925439395
8.088000000000001,0.9999918640884439,105.23921654705714
8.096,0.999991650242859,104.80337940748129
8.104,0.9999914384075027,104.36634205111272
8.112,0.9999912286508901,103.9280987272116
8.120000000000001,0.9999910210409023,103.48864372006355
8.128,0.999990815644769,103.0479713502111
8.136,0.9999906125290455,102.60607597570576
8.144,0.9999904117595975,102.162951993381
8.152000000000001,0.9999902134015797,101.71859384014584
8.16,0.9999900175194159,101.27299599429891
8.168,0.9999898241767823,100.82615297686307
8.176,0.9999896334365842,100.37805935294149
8.184000000000001,0.9999894453609408,99.92870973309448
8.192,0.9999892600111622,99.47809877473672
8.2,0.9999890774477309,99.02622118355576
8.208,0.9999888977302838,98.57307171495157
8.216000000000001,0.9999887209175908,98.11864517549706
8.224,0.9999885470675354,97.66293642441936
8.232,0.9999883762370954,97.20594037510183
8.24,0.9999882084823237,96.74765199660742
8.248000000000001,0.9999880438583282,96.28806631522285
8.256,0.9999878824192517,95.82717841602336
8.264,0.9999877242182534,95.36498344445788
8.272,0.9999875693074882,94.9014766079556
8.280000000000001,0.999987417738087,94.43665317755278
8.288,0.9999872695601383,93.97050848953984
8.296,0.9999871248226675,93.50303794712858
8.304,0.9999869835736181,93.03423702214018
8.312,0.9999868458598309,92.56410125671316
8.32,0.9999867117270262,92.0926262650302
8.328,0.999986581219784,91.61980773506635
8.336,0.9999864543815236,91.14564143035474
8.344,0.9999863312544851,90.6701231917735
8.352,0.9999862118797105,90.19324893934979
8.36,0.9999860962970243,89.71501467408443
8.368,0.9999859845450138,89.23541647979317
8.376,0.9999858766610118,88.75445052496796
8.384,0.9999857726810766,88.2721130646543
8.392,0.999985672639973,87.78840044234789
8.4,0.9999855765711555,87.3033090919067
8.408,0.9999854845067481,86.81683553948162
8.416,0.9999853964775274,86.3289764054617
8.424,0.999985312512904,85.83972840643732
8.432,0.999985232640904,85.34908835717692
8.44,0.9999851568881531,84.85705317262078
8.448,0.9999850852798574,84.36361986988753
8.456,0.9999850178397878,83.8687855702967
8.464,0.9999849545902608,83.37254750140275
8.472,0.9999848955521241,82.87490299904445
8.48,0.9999848407447394,82.37584950940426
8.488,0.9999847901859646,81.87538459108195
8.496,0.9999847438921401,81.37350591717724
8.504,0.9999847018780726,80.87021127738498
8.512,0.9999846641570185,80.36549858009849
8.52,0.9999846307406707,79.85936585452362
8.528,0.9999846016391427,79.3518112527999
8.536,0.9999845768609557,78.84283305213073
8.544,0.9999845564130224,78.332429656919
8.552,0.9999845403006369,77.8205996009106
8.56,0.9999845285274583,77.30734154934134
8.568,0.9999845210955002,76.79265430109
8.576,0.9999845180051181,76.27653679083345
8.584,0.9999845192549969,75.75898809120581
8.592,0.99998452484214,75.24000741495765
8.6,0.9999845347618596,74.71959411711782
8.608,0.9999845490077657,74.19774769715296
8.616,0.999984567571755,73.67446780112762
8.624,0.9999845904440052,73.14975422386023
8.632,0.9999846176129628,72.62360691107732
8.64,0.9999846490653371,72.0960259615615
8.648,0.9999846847860934,71.56701162929551
8.656,0.9999847247584438,71.03656432559751
8.664,0.9999847689638435,70.50468462125039
8.672,0.9999848173819843,69.97137324861973
8.68,0.9999848699907911,69.43663110376328
8.688,0.9999849267664147,68.90045924852673
8.696,0.9999849876832327,68.36285891262847
8.704,0.9999850527138432,67.82383149572779
8.712,0.9999851218290655,67.28337856947962
8.72,0.9999851949979385,66.74150187957007
8.728,0.9999852721877184,66.1982033477354
8.736,0.9999853533638825,65.65348507375931
8.744,0.9999854384901283,65.1073493374509
8.752,0.9999855275283767,64.5597986005976
8.76,0.9999856204387741,64.01083550889625
8.768,0.9999857171796979,63.46046289385608
8.776,0.99998581770776,62.908683774676646
8.784,0.9999859219778129,62.35550136009487
8.792,0.9999860299429574,61.80091905020375
8.8,0.9999861415545486,61.244940438237116
8.808,0.999986256762206,60.687569312322935
8.815999999999999,0.9999863755138217,60.12880965719954
8.824,0.9999864977555729,59.56866565589645
8.832,0.9999866234319313,59.00714169137664
8.84,0.9999867524856776,58.44424234813836
8.847999999999999,0.9999868848579135,57.879972413775306
8.856,0.9999870204880776,57.31433688049399
8.864,0.9999871593139612,56.74734094658594
8.872,0.9999873012717242,56.17899001785329
8.879999999999999,0.9999874462959133,55.609289708985315
8.888,0.9999875943194816,55.03824584488613
8.896,0.9999877452738077,54.465864461950275
8.904,0.9999878990887183,53.892151809284705
8.911999999999999,0.9999880556925087,53.317114349875666
8.92,0.9999882150119672,52.740758761699254
8.928,0.9999883769724003,52.1630919387739
8.936,0.9999885414976566,51.58412099215191
8.943999999999999,0.9999887085101551,51.00385325084978
8.952,0.9999888779309124,50.422296262715314
8.96,0.999989049679572,49.83945779522999
8.968,0.9999892236744347,49.255345836244345
8.975999999999999,0.9999893998324888,48.66996859464488
8.984,0.9999895780694439,48.08333450095214
8.992,0.9999897582997639,47.49545220784726
9.0,0.999989940436701,46.90633059062522
9.008,0.9999901243923337,46.31597874757392
9.016,0.9999903100776005,45.724406000277746
9.024000000000001,0.9999904974023404,45.131621893844105
9.032,0.9999906862753307,44.5376361970507
9.04,0.9999908766043284,43.9424589024126
9.048,0.9999910682961096,43.34610022616877
9.056000000000001,0.9999912612565143,42.748570608185574
9.064,0.9999914553904863,42.149880711775886
9.072,0.9999916506021209,41.55004142343317
9.08,0.9999918467947089,40.949063852479384
9.088000000000001,0.9999920438707821,40.34695933062556
9.096,0.9999922417321618,39.74373941144333
9.104,0.9999924402800067,39.139415869746585
9.112,0.9999926394148619,38.53400070088322
9.120000000000001,0.9999928390367085,37.92750611993521
9.128,0.9999930390450156,37.319944560825896
9.136,0.9999932393387906,36.71132867533383
9.144,0.9999934398166335,36.10167133201338
9.152000000000001,0.9999936403767892,35.490985615020556
9.16,0.9999938409172006,34.87928482284305
9.168,0.9999940413355657,34.266582466934516
9.176,0.9999942415293904,33.65289227025293
9.184000000000001,0.9999944413960483,33.0382281657024
9.192,0.9999946408328328,32.422604294477196
9.2,0.9999948397370176,31.80603500430866
9.208,0.9999950380059136,31.188534847614882
9.216000000000001,0.999995235536927,30.570118579553018
9.224,0.9999954322276184,29.950801155973135
9.232,0.9999956279757615,29.330597731274704
9.24,0.999995822679403,28.709523656165878
9.248000000000001,0.9999960162369221,28.08759447532566
9.256,0.9999962085470904,27.46482592496846
9.264,0.9999963995091321,26.841233930312015
9.272,0.9999965890227862,26.216834602949792
9.280000000000001,0.9999967769883641,25.591644238127543
9.288,0.9999969633068125,24.965679311924653
9.296,0.9999971478797728,24.338956478340883
9.304,0.9999973306096424,23.711492566290417
9.312000000000001,0.9999975113996352,23.083304576503206
9.32,0.9999976901538412,22.454409678334255
9.328,0.9999978667772877,21.82482520648225
9.336,0.9999980411759992,21.194568657619467
9.344,0.9999982132570555,20.563657686933624
9.352,0.9999983829286536,19.9321101045815
9.36,0.9999985501001633,19.299943872059178
9.368,0.9999987146821898,18.667177098486356
9.376,0.9999988765866276,18.033828036810235
9.384,0.9999990357267198,17.39991507992674
9.392,0.999999192017115,16.765456756724962
9.4,0.9999993453739234,16.13047172805221
9.408,0.9999994957147701,15.494978782606132
9.416,0.9999996429588522,14.858996832751506
9.424,0.9999997870269915,14.222544910267889
9.432,0.9999999278416871,13.585642162026149
9.44,1.0,12.94830784560047
9.448,0.9999999999999999,12.310561324813468
9.456,1.0,11.672422065221488
9.464,1.0,11.033909629537812
9.472,0.9999999999999999,10.39504367300094
9.48,1.0,9.755843938685828
9.488,1.0,9.11633025276527
9.496,1.0,8.476522519719545
9.504,0.9999999999999999,7.836440717501731
9.512,1.0,7.196104892656602
9.52,1.0,6.55553515540071
9.528,0.9999999999999999,5.914751674662001
9.536,1.0,5.273774673086227
9.544,0.9999999999999998,4.63262442200869
9.552,1.0,3.9913212363988415
9.56,1.0,3.349885469776178
9.568,1.0,2.7083375091050006
9.576,0.9999999999999999,2.0666977696666664
9.584,1.0,1.4249866899168504
9.592,1.0,0.7832247263264881
9.6,1.0,0.1414323482139773
9.608,0.9999999999999999,-0.5003699674325556
9.616,0.9999999999999999,-1.14216174113556
9.624,0.9999999999999999,-1.7839224961120046
9.632,0.9999999999999998,-2.425631763453423
9.64,1.0,-3.0672690873033637
9.648,1.0,-3.708814030024675
9.656,1.0,-4.350246177357825
9.664,0.9999999999999999,-4.9915451435627425
9.672,0.9999999999999999,-5.6326905765455875
9.68,1.0,-6.273662162962739
9.688,1.0,-6.914439633303504
9.696,1.0000000000000002,-7.555002766943981
9.704,0.9999999999999998,-8.195331397173588
9.712,0.9999999999999999,-8.835405416186731
9.72,1.0,-9.47520478004123
9.728,1.0,-10.114709513575946
9.736,0.9999999999999999,-10.753899715289503
9.744,0.9999999999999999,-11.392755562172535
9.752,1.0,-12.031257314495333
9.76,0.9999999999999999,-12.669385320543638
9.768,1.0,-13.30712002130437
9.776,1.0,-13.944441955094389
9.784,0.9999999999999999,-14.581331762133898
9.792,1.0,-15.217770189057854
9.8,0.9999999999999999,-15.853738093367266
9.808,1.0,-16.489216447813615
9.816,1.0,-17.12418634471856
9.824,1.0,-17.75862900022232
9.832,1.0,-18.392525758462934
9.84,1.0,-19.025858095680125
9.847999999999999,1.0,-19.65860762424572
9.856,0.9999999999999999,-20.2907560966157
9.864,1.0,-20.92228540920318
9.872,1.0,-21.553177606171314
9.879999999999999,1.0,-22.18341488314365
9.888,1.0,-22.812979590830018
