freq,mag,phase
6.0,0.9999916755981271,54.99039350011941
6.008,0.9999919122093223,54.811013579845685
6.016,0.9999921422975655,54.63159362821877
6.024,0.999992365967508,54.45213365150809
6.032,0.9999925833227205,54.272633656329496
6.04,0.9999927944656998,54.093093649645375
6.048,0.9999929994978761,53.91351363876471
6.056,0.99999319851962,53.73389363134322
6.064,0.9999933916302498,53.554233635383426
6.072,0.9999935789280373,53.37453365923467
6.08,0.9999937605102169,53.194793711593285
6.088,0.9999939364729897,53.01501380150258
6.096,0.9999941069115329,52.835193938353
6.104,0.9999942719200049,52.655334131882015
6.112,0.9999944315915542,52.47543439217439
6.12,0.9999945860183237,52.29549472966209
6.128,0.999994735291459,52.11551515512435
6.136,0.9999948795011158,51.93549567968774
6.144,0.999995018736465,51.755436314826234
6.152,0.9999951530857009,51.57533707236114
6.16,0.9999952826360465,51.39519796446119
6.168,0.9999954074737623,51.21501900364261
6.176,0.9999955276841503,51.03480020276906
6.184,0.9999956433515634,50.85454157505165
6.192,0.9999957545594096,50.674243134049
6.2,0.9999958613901606,50.49390489366721
6.208,0.9999959639253574,50.313526868159876
6.216,0.999996062245616,50.13310907212804
6.224,0.9999961564306361,49.95265152052024
6.232,0.9999962465592062,49.772154228632466
6.24,0.99999633270921,49.59161721210813
6.248,0.9999964149576336,49.41104048693806
6.256,0.9999964933805714,49.23042406946047
6.264,0.9999965680532329,49.04976797636088
6.272,0.9999966390499486,48.86907222467218
6.28,0.9999967064441773,48.688336831774485
6.288,0.9999967703085112,48.50756181539515
6.296,0.999996830714684,48.32674719360862
6.304,0.999996887733575,48.145892984836536
6.312,0.9999969414352169,47.96499920784754
6.32,0.9999969918888025,47.78406588175724
6.328,0.9999970391626889,47.603093026028176
6.336,0.9999970833244062,47.422080660469675
6.344,0.9999971244406617,47.241028805237825
6.352,0.9999971625773473,47.05993748083538
6.36,0.9999971977995453,46.87880670811168
6.368,0.9999972301715343,46.69763650826248
6.376,0.999997259756795,46.516426902829956
6.384,0.9999972866180182,46.33517791370251
6.392,0.9999973108171081,46.153889563114745
6.4,0.9999973324151905,45.972561873647265
6.408,0.9999973514726174,45.79119486822659
6.416,0.9999973680489741,45.60978857012508
6.424,0.9999973822030847,45.42834300296072
6.432,0.9999973939930176,45.246858190697026
6.44,0.9999974034760926,45.06533415764293
6.448,0.9999974107088849,44.883770928452606
6.456,0.9999974157472331,44.70216852812531
6.464,0.9999974186462443,44.52052698200525
6.472,0.999997419460299,44.33884631578144
6.48,0.9999974182430577,44.157126555487515
6.4879999999999995,0.9999974150474672,43.97536772750156
6.496,0.9999974099257654,43.79356985854587
6.504,0.9999974029294874,43.61173297568702
6.5120000000000005,0.9999973941094714,43.42985710633532
6.52,0.9999973835158641,43.24794227824494
6.5280000000000005,0.9999973711981267,43.06598851951352
6.536,0.9999973572050399,42.883995858582146
6.5440000000000005,0.9999973415847109,42.70196432423486
6.552,0.999997324384577,42.5198939455989
6.5600000000000005,0.9999973056514126,42.337784752143975
6.568,0.9999972854313348,42.155636773682474
6.5760000000000005,0.9999972637698079,41.97345004036899
6.584,0.9999972407116501,41.79122458270024
6.592,0.999997216301038,41.60896043151469
6.6,0.9999971905815123,41.42665761799243
6.608,0.999997163595984,41.24431617365496
6.616,0.9999971353867387,41.0619361303648
6.624,0.9999971059954422,40.87951752032537
6.632,0.9999970754631475,40.6970603760807
6.64,0.9999970438302966,40.51456473051512
6.648,0.9999970111367301,40.33203061685307
6.656,0.999996977421689,40.149458068658774
6.664,0.9999969427238218,39.96684711983599
6.672,0.9999969070811892,39.78419780462772
6.68,0.9999968705312693,39.601510157615934
6.688,0.9999968331109635,39.418784213721295
6.696,0.9999967948566001,39.23602000820276
6.704,0.9999967558039407,39.053217576657474
6.712,0.9999967159881858,38.87037695502029
6.72,0.9999966754439783,38.68749817956356
6.728,0.9999966342054089,38.50458128689673
6.736,0.9999965923060229,38.32162631396616
6.744,0.9999965497788232,38.13863329805464
6.752,0.9999965066562766,37.95560227678118
6.76,0.9999964629703174,37.772533288100604
6.768,0.9999964187523538,37.58942637030328
6.776,0.999996374033272,37.4062815620147
6.784,0.999996328843442,37.223098902195176
6.792,0.9999962832127207,37.03987843013948
6.8,0.9999962371704586,36.85662018547648
6.808,0.9999961907455037,36.67332420816882
6.816,0.9999961439662065,36.48999053851243
6.824,0.9999960968604253,36.306619217136316
6.832,0.9999960494555296,36.123210285002024
6.84,0.9999960017784063,35.9397637834034
6.848,0.9999959538554636,35.75627975396611
6.856,0.9999959057126362,35.57275823864725
6.864,0.9999958573753891,35.38919927973502
6.872,0.9999958088687241,35.205602919848225
6.88,0.9999957602171811,35.021969201935896
6.888,0.9999957114448467,34.838298169276975
6.896,0.9999956625753558,34.65458986547975
6.904,0.9999956136318972,34.47084433448153
6.912,0.9999955646372183,34.28706162054818
6.92,0.9999955156136299,34.10324176827369
6.928,0.9999954665830088,33.91938482257978
6.936,0.9999954175668048,33.735490828715356
6.944,0.999995368586044,33.551559832256196
6.952,0.9999953196613323,33.36759187910441
6.96,0.9999952708128609,33.18358701548801
6.968,0.9999952220604108,32.99954528796043
6.976,0.9999951734233566,32.815466743400094
6.984,0.9999951249206706,32.63135142900992
6.992,0.9999950765709276,32.44719939231683
7.0,0.9999950283923089,32.26301068117133
7.008,0.9999949804026071,32.07878534374695
7.016,0.9999949326192291,31.8945234285398
7.024,0.9999948850592015,31.71022498436805
7.032,0.9999948377391742,31.525890060371463
7.04,0.9999947906754247,31.341518706010845
7.048,0.9999947438838617,31.15711097106756
7.056,0.9999946973800301,30.972666905643
7.064,0.9999946511791145,30.78818656015814
7.072,0.9999946052959434,30.603669985352877
7.08,0.9999945597449937,30.41911723228562
7.088,0.9999945145403929,30.234528352332667
7.096,0.9999944696959255,30.04990339718777
7.104,0.9999944252250356,29.865242418861467
7.112,0.9999943811408305,29.680545469680638
7.12,0.9999943374560861,29.495812602287888
7.128,0.9999942941832489,29.311043869641033
7.136,0.9999942513344419,29.12623932501248
7.144,0.999994208921466,28.941399021988744
7.152,0.9999941669558062,28.756523014469778
7.16,0.999994125448634,28.571611356668434
7.168,0.9999940844108115,28.38666410310994
7.176,0.9999940438528954,28.201681308631226
7.184,0.9999940037851399,28.01666302838036
7.192,0.9999939642175018,27.83160931781597
7.2,0.9999939251596425,27.64652023270665
7.208,0.9999938866209331,27.461395829130286
7.216,0.9999938486104571,27.276236163473538
7.224,0.9999938111370147,27.091041292431157
7.232,0.9999937742091256,26.905811273005376
7.24,0.9999937378350332,26.720546162505332
7.248,0.9999937020227079,26.535246018546367
7.256,0.9999936667798502,26.349910899049426
7.264,0.9999936321138952,26.16454086224041
7.272,0.9999935980320154,25.979135966649597
7.28,0.9999935645411236,25.793696271110846
7.288,0.9999935316478775,25.6082218347611
7.296,0.9999934993586826,25.422712717039612
7.304,0.9999934676796949,25.23716897768738
7.312,0.9999934366168252,25.05159067674637
7.32,0.9999934061757422,24.86597787455892
7.328,0.9999933763618756,24.68033063176707
7.336,0.999993347180419,24.494649009311846
7.344,0.9999933186363343,24.30893306843255
7.352,0.9999932907343538,24.123182870666138
7.36,0.9999932634789842,23.937398477846486
7.368,0.9999932368745093,23.751579952103643
7.376,0.9999932109249926,23.565727355863235
7.384,0.9999931856342823,23.379840751845656
7.392,0.9999931610060128,23.19392020306541
7.4,0.9999931370436083,23.007965772830357
7.4079999999999995,0.999993113750286,22.82197752474103
7.416,0.9999930911290584,22.635955522689827
7.4239999999999995,0.9999930691827379,22.449899830860442
7.432,0.999993047913938,22.263810513726884
7.4399999999999995,0.9999930273250777,22.077687636053007
7.448,0.999993007418384,21.891531262891487
7.4559999999999995,0.9999929881958941,21.705341459583376
7.464,0.9999929696594595,21.519118291757007
7.4719999999999995,0.9999929518107485,21.332861825327587
7.48,0.9999929346512486,21.14657212649607
7.4879999999999995,0.9999929181822695,20.96024926174877
7.496,0.999992902404947,20.7738932978562
7.504,0.999992887320244,20.58750430187266
7.5120000000000005,0.999992872928955,20.401082341135105
7.52,0.9999928592317076,20.214627483262724
7.5280000000000005,0.9999928462289659,20.028139796155767
7.536,0.9999928339210332,19.84161934799511
7.5440000000000005,0.9999928223080549,19.655066207241124
7.552,0.99999281139002,19.4684804426332
7.5600000000000005,0.9999928011667648,19.281862123188606
7.568,0.9999927916379766,19.095211318201983
7.5760000000000005,0.9999927828031933,18.908528097244247
7.584,0.999992774661809,18.721812530162055
7.5920000000000005,0.9999927672130751,18.535064687076652
7.6,0.9999927604561024,18.34828463838339
7.6080000000000005,0.9999927543898652,18.16147245475055
7.616,0.9999927490132023,17.974628207118847
7.6240000000000006,0.9999927443248208,17.787751966700206
7.632,0.9999927403232973,17.60084380497733
7.640000000000001,0.9999927370070811,17.413903793702428
7.648,0.9999927343744965,17.22693200489675
7.656000000000001,0.9999927324237453,17.03992851084936
7.664,0.9999927311529088,16.852893384116634
7.672,0.9999927305599502,16.665826697521055
7.68,0.9999927306427174,16.478728524150576
7.688,0.9999927313989455,16.291598937357595
7.696,0.9999927328262579,16.104438010758223
7.704,0.9999927349221699,15.917245818231207
7.712,0.9999927376840898,15.730022433917226
7.72,0.9999927411093223,15.542767932217863
7.728,0.99999274519507,15.355482387794762
7.736,0.9999927499384356,15.168165875568729
7.744,0.9999927553364242,14.980818470718807
7.752,0.9999927613859456,14.793440248681364
7.76,0.9999927680838167,14.60603128514919
7.768,0.9999927754267622,14.418591656070575
7.776,0.9999927834114186,14.23112143764838
7.784,0.9999927920343352,14.043620706339102
7.792,0.9999928012919759,13.856089538851965
7.8,0.9999928111807225,13.668528012147952
7.808,0.9999928216968754,13.480936203438908
7.816,0.999992832836656,13.29331419018655
7.824,0.9999928445962087,13.105662050101548
7.832,0.9999928569716034,12.917979861142577
7.84,0.9999928699588368,12.730267701515327
7.848,0.9999928835538343,12.542525649671585
7.856,0.9999928977524519,12.354753784308247
7.864,0.999992912550479,12.166952184366355
7.872,0.9999929279436385,11.979120929030133
7.88,0.9999929439275903,11.791260097725994
7.888,0.9999929604979324,11.603369770121578
7.896,0.9999929776502026,11.415450026124772
7.904,0.9999929953798808,11.227500945882687
7.912,0.9999930136823899,11.03952260978073
7.92,0.9999930325530988,10.851515098441542
7.928,0.999993051987322,10.663478492724058
7.936,0.9999930719803244,10.475412873722453
7.944,0.9999930925273198,10.287318322765184
7.952,0.9999931136234756,10.099194921413936
7.96,0.9999931352639114,9.91104275146265
7.968,0.9999931574437028,9.722861894936475
7.976,0.9999931801578822,9.53465243409076
7.984,0.9999932034014408,9.346414451410025
7.992,0.9999932271693297,9.158148029606947
8.0,0.9999932514564616,8.969853251621307
8.008,0.9999932762577124,8.781530200618986
8.016,0.9999933015679232,8.593178959990828
8.024000000000001,0.9999933273819004,8.404799613351779
8.032,0.9999933536944192,8.216392244539717
8.04,0.9999933805002234,8.02795693761437
8.048,0.9999934077940273,7.839493776856285
8.056000000000001,0.9999934355705177,7.651002846765906
8.064,0.9999934638243544,7.4624842320623985
8.072,0.9999934925501728,7.273938017682504
8.08,0.999993521742584,7.085364288779584
8.088000000000001,0.9999935513961767,6.896763130722596
8.096,0.9999935815055188,6.708134629094968
8.104,0.9999936120651588,6.519478869693409
8.112,0.9999936430696262,6.330795938526935
8.120000000000001,0.9999936745134336,6.142085921815858
8.128,0.9999937063910783,5.953348905990613
8.136,0.9999937386970423,5.764584977690591
8.144,0.9999937714257949,5.5757942237631175
8.152000000000001,0.9999938045717929,5.386976731262451
8.16,0.9999938381294822,5.198132587448593
8.168,0.9999938720932999,5.009261879786095
8.176,0.9999939064576735,4.820364695943042
8.184000000000001,0.9999939412170235,4.631441123790031
8.192,0.9999939763657646,4.442491251398954
8.2,0.9999940118983061,4.253515167041821
8.208,0.9999940478090538,4.064512959189702
8.216000000000001,0.9999940840924094,3.875484716511714
8.224,0.9999941207427747,3.6864305278737786
8.232,0.9999941577545495,3.4973504823374326
8.24,0.999994195122134,3.308244669158778
8.248000000000001,0.9999942328399305,3.1191131777874164
8.256,0.9999942709023429,2.9299560978652384
8.264,0.9999943093037791,2.7407735192251965
8.272,0.9999943480386508,2.55156553189024
8.280000000000001,0.9999943871013763,2.36233222607226
8.288,0.9999944264863787,2.173073692170837
8.296,0.9999944661880885,1.9837900207720363
8.304,0.9999945062009461,1.7944813026472983
8.312,0.9999945465193988,1.6051476287524247
8.32,0.9999945871379055,1.4157890902261283
8.328,0.9999946280509351,1.2264057783891935
8.336,0.9999946692529686,1.0369977847429737
8.344,0.9999947107384998,0.8475652009685507
8.352,0.9999947525020348,0.6581081189252529
8.36,0.9999947945380957,0.46862663064978205
8.368,0.9999948368412183,0.27912082835470925
8.376,0.9999948794059547,0.08959080442764109
8.384,0.9999949222268739,-0.09996334857031222
8.392,0.9999949652985621,-0.28954153790538745
8.4,0.9999950086156234,-0.47914367067268737
8.408,0.9999950521726814,-0.6687696537970402
8.416,0.9999950959643783,-0.8584193940345338
8.424,0.9999951399853779,-1.0480927979733685
8.432,0.9999951842303647,-1.2377897720354092
8.44,0.9999952286940434,-1.4275102224770222
8.448,0.9999952733711437,-1.6172540553906576
8.456,0.9999953182564162,-1.807021176705677
8.464,0.9999953633446363,-1.9968114921899365
8.472,0.9999954086306032,-2.186624907450632
8.48,0.9999954541091413,-2.3764613279358744
8.488,0.9999954997751002,-2.566320658935559
8.496,0.9999955456233561,-2.756202805582919
8.504,0.9999955916488118,-2.946107672855425
8.512,0.999995637846397,-3.136035165576321
8.52,0.9999956842110698,-3.3259851884155403
8.528,0.9999957307378163,-3.5159576458912563
8.536,0.9999957774216512,-3.7059524423707795
8.544,0.9999958242576195,-3.8959694820721293
8.552,0.999995871240795,-4.08600866906493
8.56,0.9999959183662832,-4.2760699072719905
8.568,0.9999959656292192,-4.466153100470199
8.576,0.9999960130247705,-4.656258152292111
8.584,0.9999960605481358,-4.846384966226849
8.592,0.9999961081945463,-5.036533445621691
8.6,0.9999961559592657,-5.226703493682978
8.608,0.9999962038375908,-5.416895013477705
8.616,0.9999962518248525,-5.6071079079344335
8.624,0.9999962999164148,-5.797342079844884
8.632,0.9999963481076768,-5.9875974318648515
8.64,0.9999963963940716,-6.17787386651581
8.648,0.9999964447710673,-6.368171286185826
8.656,0.9999964932341682,-6.558489593131164
8.664,0.9999965417789137,-6.748828689477211
8.672,0.9999965904008798,-6.939188477220077
8.68,0.9999966390956779,-7.129568858227533
8.688,0.9999966878589572,-7.31996973424061
8.696,0.9999967366864032,-7.510391006874531
8.704,0.9999967855737394,-7.700832577620335
8.712,0.999996834516726,-7.891294347845802
8.72,0.9999968835111618,-8.081776218797062
8.728,0.9999969325528829,-8.272278091599564
8.736,0.999996981637765,-8.462799867259651
8.744,0.9999970307617209,-8.653341446665548
8.752,0.9999970799207033,-8.84390273058894
8.76,0.9999971291107038,-9.03448361968595
8.768,0.9999971783277529,-9.22508401449876
8.776,0.9999972275679205,-9.415703815456535
8.784,0.9999972768273168,-9.606342922877085
8.792,0.9999973261020911,-9.7970012369678
8.8,0.999997375388433,-9.987678657827276
8.808,0.9999974246825725,-10.17837508544627
8.815999999999999,0.9999974739807792,-10.369090419709313
8.824,0.9999975232793643,-10.559824560395853
8.832,0.9999975725746783,-10.750577407181481
8.84,0.9999976218631133,-10.941348859639312
8.847999999999999,0.999997671141102,-11.13213881724137
8.856,0.999997720405118,-11.322947179359812
8.864,0.9999977696516763,-11.51377384526812
8.872,0.9999978188773323,-11.704618714142537
8.879999999999999,0.9999978680786833,-11.895481685063407
8.888,0.9999979172523679,-12.086362657016426
8.896,0.9999979663950654,-12.277261528893856
8.904,0.9999980155034973,-12.468178199495936
8.911999999999999,0.9999980645744263,-12.659112567532233
8.92,0.999998113604657,-12.850064531622916
8.928,0.9999981625910346,-13.041033990299958
8.936,0.9999982115304465,-13.232020842008543
8.943999999999999,0.9999982604198225,-13.423024985108448
8.952,0.9999983092561325,-13.614046317875308
8.96,0.9999983580363895,-13.805084738501801
8.968,0.9999984067576467,-13.99614014509909
8.975999999999999,0.9999984554170005,-14.187212435698198
8.984,0.9999985040115877,-14.378301508251266
8.992,0.9999985525385873,-14.56940726063276
9.0,0.9999986009952198,-14.760529590640905
9.008,0.9999986493787467,-14.951668395999071
9.016,0.999998697686472,-15.142823574357008
9.024000000000001,0.9999987459157407,-15.333995023292092
9.032,0.9999987940639384,-15.52518264031075
9.04,0.9999988421284935,-15.716386322849832
9.048,0.9999988901068748,-15.90760596827786
9.056000000000001,0.999998937996592,-16.098841473896314
9.064,0.9999989857951967,-16.290092736940977
9.072,0.999999033500281,-16.481359654583382
9.08,0.9999990811094781,-16.67264212393205
9.088000000000001,0.9999991286204618,-16.863940042033732
9.096,0.9999991760309473,-17.055253305874814
9.104,0.9999992233386897,-17.246581812382754
9.112,0.9999992705414853,-17.437925458427276
9.120000000000001,0.9999993176371698,-17.629284140821674
9.128,0.99999936462362,-17.82065775632419
9.136,0.9999994114987526,-18.012046201639443
9.144,0.9999994582605243,-18.203449373419655
9.152000000000001,0.9999995049069316,-18.39486716826594
9.16,0.9999995514360108,-18.586299482729654
9.168,0.9999995978458375,-18.77774621331389
9.176,0.9999996441345271,-18.969207256474643
9.184000000000001,0.9999996903002338,-19.160682508622127
9.192,0.9999997363411516,-19.352171866122145
9.2,0.9999997822555123,-19.543675225297534
9.208,0.9999998280415876,-19.735192482429397
9.216000000000001,0.999999873697687,-19.926723533758352
9.224,0.9999999192221581,-20.118268275485942
9.232,0.9999999646133877,-20.309826603776102
9.24,1.0,-20.501398414756302
9.248000000000001,1.0,-20.692983604518922
9.256,0.9999999999999999,-20.88458206912258
9.264,1.0,-21.07619370459356
9.272,1.0,-21.26781840692711
9.280000000000001,0.9999999999999999,-21.459456072088624
9.288,1.0,-21.65110659601511
9.296,1.0,-21.84276987461657
9.304,1.0,-22.034445803777285
9.312000000000001,1.0,-22.22613427935702
9.32,1.0,-22.417835197192478
9.328,1.0,-22.609548453098675
9.336,1.0,-22.801273942870232
9.344,0.9999999999999999,-22.993011562282543
9.352,1.0,-23.184761207093416
9.36,1.0,-23.376522773044073
9.368,1.0,-23.568296155860796
9.376,1.0,-23.76008125125593
9.384,0.9999999999999999,-23.95187795492955
9.392,1.0,-24.143686162570447
9.4,1.0,-24.335505769857807
9.408,1.0,-24.527336672462184
9.416,0.9999999999999999,-24.719178766047154
9.424,1.0,-24.911031946270338
9.432,1.0,-25.10289610878508
9.44,1.0,-25.294771149241303
9.448,0.9999999999999999,-25.486656963287366
9.456,1.0,-25.678553446570902
9.464,0.9999999999999999,-25.870460494740545
9.472,1.0000000000000002,-26.06237800344688
9.48,0.9999999999999999,-26.25430586834414
9.488,0.9999999999999999,-26.446243985091172
9.496,1.0,-26.63819224935308
9.504,0.9999999999999999,-26.8301505568022
9.512,0.9999999999999999,-27.02211880311982
9.52,1.0,-27.214096883997048
9.528,0.9999999999999999,-27.406084695136602
9.536,1.0,-27.598082132253662
9.544,1.0,-27.790089091077604
9.552,0.9999999999999999,-27.98210546735294
9.56,1.0,-28.174131156840982
9.568,1.0,-28.366166055320797
9.576,1.0,-28.558210058590877
9.584,1.0,-28.750263062470115
9.592,1.0,-28.942324962799418
9.6,1.0,-29.13439565544271
9.608,1.0,-29.326475036288553
9.616,0.9999999999999999,-29.51856300125114
9.624,1.0,-29.71065944627188
9.632,1.0,-29.90276426732046
9.64,0.9999999999999999,-30.09487736039638
9.648,0.9999999999999999,-30.286998621529982
9.656,0.9999999999999999,-30.47912794678409
