freq,mag,phase
6.0,1.0003206881287328,-41.607375513469066
6.005121536,1.0003031199744616,-41.824795280624635
6.010243072,1.0002671485334398,-42.04190972330206
6.01536512,1.000215128289627,-42.25841908267915
6.020486656,1.0001503745441094,-42.47420290806431
6.025608192,1.0000764363474455,-42.68905861943616
6.030729728,0.9999976241298614,-42.90289086861558
6.035851264,0.9999187798086818,-43.11565951821977
6.040973312,0.9998444184808348,-43.327445315979396
6.046094848,0.9997790096860507,-43.53828637779867
6.051216384,0.9997260102336141,-43.74835828591499
6.05633792,0.9996892539728705,-43.95785339988197
6.061459456,0.999670495787381,-44.16704607990412
6.066581504,0.9996711641353767,-44.37608335565086
6.07170304,0.9996910049601598,-44.58539055647034
6.076824576,0.9997289655284386,-44.79509344294823
6.081946112,0.999782846932212,-45.005502192463304
6.087067648,0.9998494305557387,-45.216851682406514
6.092189696,0.9999245728309655,-45.42924219345437
6.097311232,1.0000044886275548,-45.64274348910718
6.102432768,1.000084011327086,-45.857388736547286
6.107554304,1.0001586206296065,-46.07322700310774
6.11267584,1.0002237192864467,-46.290079649802436
6.117797888,1.000275528317372,-46.507819225142775
6.122919424,1.0003111032670322,-46.72620915533706
6.12804096,1.000328211348296,-46.94504309926569
6.133162496,1.0003257823906202,-47.16404652141956
6.138284032,1.000303906504301,-47.38290429475068
6.14340608,1.000264070978229,-47.60141576380128
6.148527616,1.0002084074640534,-47.81930924730668
6.153649152,1.0001399802041027,-48.03639505831831
6.158770688,1.0000631424413862,-48.252512603101856
6.163892224,0.9999824683857234,-48.46754724595246
6.169014272,0.9999023537050012,-48.68158651950124
6.174135808,0.9998276945079425,-48.8945113276873
6.179257344,0.9997629929239639,-49.10658242641863
6.18437888,0.9997120366614017,-49.31781548903402
6.189500416,0.9996775665826674,-49.52859365796049
6.194622464,0.999662103222069,-49.73901813343013
6.199744,0.9996663671699184,-49.94943468843869
6.204865536,0.9996903533517464,-50.1601005147945
6.209987072,0.9997322699343466,-50.371277895613964
6.215108608,0.9997899223724995,-50.58317737577488
6.220230656,0.9998598061479363,-50.79605321628666
6.225352192,0.9999378580901731,-51.01000608316313
6.230473728,1.0000198467191803,-51.22517048537294
6.235595264,1.0001003341650847,-51.44150551849522
6.2407168,1.0001749869401386,-51.6589384813522
6.245838848,1.0002392563103248,-51.877448159528925
6.250960384,1.0002893637894743,-52.096827052627674
6.25608192,1.0003224548241085,-52.316815307681814
6.261203456,1.0003362556070798,-52.537180053494026
6.266324992,1.0003300038932266,-52.75767338051262
6.27144704,1.000304157020785,-52.97803533387606
6.276568576,1.0002602667972877,-53.19791054928217
6.281690112,1.0002007724561877,-53.417158388254194
6.286811648,1.0001291011161528,-53.63549268718318
6.291933184,1.0000496066904687,-53.85285218917321
6.297055232,0.9999668410919585,-54.06917218266267
6.302176768,0.9998856947120998,-54.28434384547589
6.307298304,0.9998110260975499,-54.49853078330891
6.31241984,0.9997473047568368,-54.71176187551893
6.317541376,0.9996980123123141,-54.924268339139296
6.322663424,0.9996664112642915,-55.13622979101621
6.32778496,0.9996541886144004,-55.34794567577843
6.332906496,0.9996621520692869,-55.559709498933714
6.338028032,0.9996900570075401,-55.771745220248235
6.343149568,0.9997359076411836,-55.9843635306486
6.348271616,0.9997973803144597,-56.19778288696657
6.353393152,0.9998707204573669,-56.41216696166594
6.358514688,0.9999516087294303,-56.627704570713334
6.363636224,1.0000352471171112,-56.84447862136309
6.36875776,1.0001168424279454,-57.06242090041525
6.373879808,1.0001915280594516,-57.281554697940855
6.379001344,1.0002547847063488,-57.50170555518458
6.38412288,1.000302967112877,-57.722651709353634
6.389244416,1.0003332537412342,-57.944222642655255
6.394365952,1.0003436056403157,-58.16616749164772
6.399488,1.0003337888620245,-58.38816710975828
6.404609536,1.000303817470564,-58.60991036413867
6.409731072,1.0002559025178124,-58.83119310470992
6.414852608,1.000192698674938,-59.051754659677705
6.419974144,1.0001175908818234,-59.271394913885246
6.425096192,1.000035516123672,-59.48999654582442
6.430217728,0.9999507187705077,-59.707455179562245
6.435339264,0.9998687809814274,-59.92383420433842
6.4404608,0.9997941113528372,-60.13920806407006
6.445582336,0.9997314173991143,-60.35356408037835
6.450704384,0.9996841193832965,-60.56728718514183
6.45582592,0.9996553123593802,-60.7804952260295
6.460947456,0.9996465248588884,-60.993461613552704
6.466068992,0.9996583489632248,-61.20654946879181
6.471190528,0.9996902580535175,-61.41997062768663
6.476312576,0.9997401774257462,-61.634042947329434
6.481434112,0.9998054263102588,-61.84894274172523
6.486555648,0.9998820795565732,-62.064878873310924
6.491677184,0.9999655026519817,-62.282044307063266
6.49679872,1.000050995615699,-62.50039760992623
6.501920768,1.0001335182142903,-62.71995323679257
6.507042304,1.0002080808755114,-62.94069507781769
6.51216384,1.000270180822997,-63.16248804094332
6.517285376,1.0003164008850922,-63.385057780533444
6.522407424,1.0003438262844209,-63.60821251399077
6.52752896,1.0003507027111997,-63.83166045104643
6.532650496,1.000336860575052,-64.05511045337705
6.537772032,1.0003030284297756,-64.27829669956739
6.542893568,1.0002511243107697,-64.50090398079702
6.548015616,1.0001839587617387,-64.72276825236592
6.553137152,1.0001057227723567,-64.9436931678611
6.558258688,1.0000209531482014,-65.16347779926055
6.563380224,0.999934659059255,-65.3821299634031
6.56850176,0.9998517636393853,-65.59968068081089
6.573623808,0.9997772521943719,-65.81617482828231
6.578745344,0.999715711177824,-66.03177327708171
6.58386688,0.9996707481524545,-66.24663888670169
6.588988416,0.9996446821869146,-66.46106398783165
6.594109952,0.9996392854671873,-66.6753011784249
6.599232,0.999655108698258,-66.88969629390162
6.604353536,0.999691119189901,-67.10450588651985
6.609475072,0.9997451473181205,-67.31998436159954
6.614596608,0.9998141803802735,-67.53635336204891
6.619718144,0.9998939797903456,-67.75385487139692
6.624840192,0.9999801321140726,-67.97254099684469
6.629961728,1.000067288095015,-68.19247533426345
6.635083264,1.000150438471917,-68.41372617606049
6.6402048,1.0002246320468955,-68.63607023734149
6.645326336,1.0002855295765147,-68.85943552819543
6.650448384,1.0003296136406938,-69.08358980293575
6.65556992,1.000354080319606,-69.30831188847287
6.660691456,1.0003576501810585,-69.53322773219664
6.665812992,1.0003398112340247,-69.75814487601697
6.670934528,1.0003017093841062,-69.98270178595017
6.676056576,1.0002458197625024,-70.20670138739187
6.681178112,1.000174937285996,-70.4298123929969
6.686299648,1.0000935139967788,-70.6519205668451
6.691421184,1.0000061563832587,-70.8729184628277
6.69654272,0.9999181863998251,-71.09275954555358
6.701664768,0.9998347133511132,-71.31142644132582
6.706786304,0.9997605395969318,-71.52904627515298
6.71190784,0.9997002392291815,-71.74575498118428
6.717029376,0.9996573083491901,-71.96181461820424
6.722150912,0.9996343296105265,-72.17741408739874
6.72727296,0.9996326665010572,-72.39293561098643
6.732394496,0.999652343819795,-72.60864664281814
6.737516032,0.9996925476361942,-72.82477519403172
6.742637568,0.9997505809679764,-73.04166948489542
6.747759104,0.9998233521631567,-73.25950031534595
6.752881152,0.9999062419663712,-73.47850518022261
6.758002688,0.9999949361977294,-73.69875698157152
6.763124224,1.0000836363922203,-73.92032356503198
6.76824576,1.0001674117117902,-74.1431196154742
6.773367296,1.0002414015272814,-74.36708358556672
6.778489344,1.0003008752017255,-74.59199964412262
6.78361088,1.0003426545420315,-74.81772041800214
6.788732416,1.0003641663226157,-75.0439365825003
6.793853952,1.0003638975686953,-75.27038683090002
6.798975488,1.0003420965007899,-75.49666396224917
6.804097536,1.0002999456864246,-75.72259513496788
6.809219072,1.000239792941485,-75.94785484382076
6.814340608,1.000165330206605,-76.17223840104954
6.819462144,1.0000806344898496,-76.3955490183828
6.82458368,0.9999910141813471,-76.61768958557775
6.829705728,0.999901435412193,-76.83862051055534
6.834827264,0.9998173231323508,-77.05842476953865
6.8399488,0.9997437620343695,-77.27714866676862
6.845070336,0.9996848397408896,-77.49498476540509
6.850191872,0.9996443464510134,-77.71219813256847
6.85531392,0.9996242316818917,-77.92899132107353
6.860435456,0.9996263175512984,-78.14573144256968
6.865556992,0.9996499616241813,-78.36266741805342
6.870678528,0.9996943447180139,-78.5801869958651
6.875800064,0.9997564974974026,-78.79845182652937
6.880922112,0.9998329029113475,-79.0177473564073
6.886043648,0.9999191902546547,-79.23822234857545
6.891165184,1.0000099437063215,-79.4600282078843
6.89628672,1.000100316719014,-79.68309841798097
6.901408256,1.0001846129557617,-79.90746386552237
6.906530304,1.0002578405692713,-80.13301165853862
6.91165184,1.0003160256612713,-80.35950444781865
6.916773376,1.000355403233384,-80.58671826780271
6.921894912,1.0003736503058613,-80.81441300955723
6.927016448,1.000369914569472,-81.04227401524355
6.932138496,1.0003440653126396,-81.26997735468758
6.937260032,1.000297667387899,-81.49723004664436
6.942381568,1.0002335245518377,-81.72371496237882
6.947503104,1.0001552646498955,-81.94932742371006
6.95262464,1.000067611981735,-82.17379065287317
6.957746688,0.9999755527106016,-82.39703959770426
6.962868224,0.9998845273829348,-82.61911484939161
6.96798976,0.9998000326270584,-82.83994953356616
6.973111296,0.9997268392836096,-83.0597490624249
6.978232832,0.9996694683717113,-83.27865927122593
6.98335488,0.9996313119927053,-83.49695753807673
6.988476416,0.9996145784232346,-83.71494945629091
6.993597952,0.9996203964499469,-83.93285431783383
6.998719488,0.9996482819214311,-84.151055304291
7.003841024,0.9996967279387989,-84.36989438644177
7.008963072,0.9997628936132894,-84.58952771194616
7.014084608,0.9998430365353279,-84.81025726484215
7.019206144,0.9999322656570933,-85.0321750935801
7.02432768,1.0000255740872765,-85.25543515062378
7.029449216,1.000117150525374,-85.4800742718252
7.034571264,1.0002019023497688,-85.70596046679903
7.0396928,1.0002746370171633,-85.93301892201555
7.044814336,1.0003311956620655,-86.16104522683983
7.049935872,1.0003680440893277,-86.3897623793252
7.055057408,1.0003829846758132,-86.6189144499548
7.060179456,1.0003754975304822,-86.8481649487053
7.065300992,1.0003453924634131,-87.07716871057652
7.070422528,1.0002949211258696,-87.30568410957571
7.075544064,1.0002267080419713,-87.53343426379966
7.0806656,1.000144728187062,-87.76023069503151
7.085787648,1.0000538624020074,-87.98577583444573
7.090909184,0.9999596780494298,-88.21010741964895
7.09603072,0.9998672486658102,-88.4331904171868
7.101152256,0.9997823052332147,-88.65510541152581
7.106273792,0.999709893489582,-88.87590676476489
7.11139584,0.9996542925884392,-89.09588912253199
7.116517376,0.9996185044777395,-89.31527990581286
7.121638912,0.9996051116186766,-89.53433941609038
7.126760448,0.999614670408422,-89.75347179347665
7.131881984,0.9996467756926448,-89.97287464335304
7.137004032,0.9996995392960868,-90.1929508983891
7.142125568,0.9997698492167303,-90.4139254592876
7.147247104,0.9998536431386238,-90.63602648115399
7.15236864,0.9999458959694961,-90.85943343643257
7.157490176,1.0000413450726413,-91.08417708373423
7.162612224,1.0001342511925038,-91.31026666834389
7.16773376,1.0002193436221076,-91.53768897953867
7.172855296,1.0002912881270016,-91.76621114487722
7.177976832,1.0003460647971665,-91.99571478250277
7.183098368,1.000380365419334,-92.22586501841771
7.188220416,1.0003921578842567,-92.45640868531842
7.193341952,1.0003806884925728,-92.6869962720063
7.198463488,1.000346439086355,-92.91730502916481
7.203585024,1.0002916351903561,-93.14705956668394
7.20870656,1.0002192695053616,-93.37599270593182
7.213828608,1.0001337010439508,-93.60384280565292
7.218950144,1.0000398192500874,-93.83050319202522
7.22407168,0.9999432905535394,-94.05583851445837
7.229193216,0.9998496515843509,-94.27995727068041
7.234314752,0.999764509444189,-94.50281796506196
7.2394368,0.9996928503752137,-94.72465542775493
7.244558336,0.9996388749707794,-94.94561214648033
7.249679872,0.9996059626601482,-95.16603977604342
7.254801408,0.9995958544689347,-95.38617886296514
7.259922944,0.9996094049191976,-95.60641152698554
7.265044992,0.9996456845527705,-95.82703440185657
7.270166528,0.9997027433905596,-96.04833222816373
7.275288064,0.9997771115262383,-96.2706018580292
7.2804096,0.999864505873676,-96.4940544073705
7.285531136,0.9999598362471115,-96.71883321309446
7.290653184,1.0000574465628984,-96.94499795366144
7.29577472,1.0001516313746481,-97.17255504488526
7.300896256,1.0002368235188102,-97.40138999695927
7.306017792,1.0003079984648409,-97.63140733034741
7.311139328,1.000360973270559,-97.8623273450767
7.316261376,1.0003924666845443,-98.09388158268862
7.321382912,1.000400855785073,-98.32575320760314
7.326504448,1.000385318612106,-98.5576685309663
7.331625984,1.000346900001762,-98.78920443271234
7.33674752,1.0002878674689357,-99.02013884551539
7.341869568,1.0002113799373558,-99.25015897258163
7.346991104,1.0001221881514124,-99.47909031518893
7.35211264,1.0000253691872798,-99.70673797961152
7.357234176,0.9999266669215799,-99.93307873993331
7.362355712,0.9998319051809287,-100.15813084021019
7.36747776,0.9997466399219576,-100.38193523240719
7.372599296,0.9996758147430448,-100.60468921224606
7.377720832,0.9996238295213783,-100.82662442741137
7.382842368,0.9995935933067777,-101.04801129692495
7.387963904,0.9995870894310849,-101.26919704889463
7.393085952,0.9996046423414073,-101.49051272389133
7.398207488,0.9996451177940439,-101.71228126896897
7.403329024,0.9997066136929764,-101.93477582042107
7.40845056,0.9997850080803218,-102.15830905047494
7.413572096,0.9998761080252203,-102.38306017184559
7.418694144,0.9999744330357039,-102.60916626881772
7.42381568,1.0000740690329672,-102.83671163843276
7.428937216,1.000169342102885,-103.06567276022653
7.434058752,1.0002546812118094,-103.29592389833459
7.439180288,1.000324940124746,-103.52732257020313
7.444302336,1.0003758756680743,-103.75960738458477
7.449423872,1.000404684188458,-103.99253034367469
7.454545408,1.0004094079993497,-104.2257202552029
7.459666944,1.0003898358786898,-104.45883691426954
7.46478848,1.0003470825188259,-104.69158245572936
7.469910528,1.000283665277551,-104.92362013108065
7.475032064,1.0002031285739559,-105.15471791522326
7.4801536,1.0001103764737724,-105.38462841144606
7.485275136,1.0000105987336063,-105.61322317347131
7.490396672,0.9999097724999788,-105.84048497963612
7.49551872,0.9998139202323287,-106.0664008634284
7.500640256,0.9997285698850648,-106.29109934757473
7.505761792,0.999658835492486,-106.51474903531192
7.510883328,0.9996088148623545,-106.73758404132694
7.516005376,0.9995815008332115,-106.95994283521881
7.521126912,0.999578531593677,-107.18207784533946
7.526248448,0.9996000680546779,-107.40442537880654
7.531369984,0.9996450486941106,-107.6272470228327
7.53649152,0.9997108465856632,-107.85090365145972
7.541613568,0.9997933378555699,-108.07563191792083
7.546735104,0.9998880722484421,-108.30162557206411
7.55185664,0.9999892693912794,-108.52904950063296
7.556978176,1.0000910314448863,-108.75791838023174
7.562099712,1.0001873745160388,-108.9882054742165
7.56722176,1.0002725926809357,-109.21985334234904
7.572343296,1.0003418205486725,-109.45259000655061
7.577464832,1.0003907076052685,-109.6861924065037
7.582586368,1.000416530690839,-109.92038854521498
7.587707904,1.000417724362205,-110.15480500486646
7.592829952,1.000393979203928,-110.38911373809124
7.597951488,1.0003469153442728,-110.62295608820585
7.603073024,1.0002790135001514,-110.85607857238715
7.60819456,1.0001944120594417,-111.08815035032778
7.613316096,1.0000979871606839,-111.31896813374297
7.618438144,0.999995364221661,-111.54847817115645
7.62355968,0.999892574409707,-111.77659883577671
7.628681216,0.999795643778147,-112.0033363770413
7.633802752,0.9997104124347019,-112.22885459162633
7.638924288,0.9996417132534784,-112.45329999740747
7.644046336,0.9995937847415116,-112.67700220937387
7.649167872,0.9995695243096198,-112.90020681597899
7.654289408,0.9995701926604645,-113.12329331809015
7.659410944,0.9995959760765244,-113.34660412944157
7.66453248,0.9996453493053882,-113.57045764725608
7.669654528,0.999715446207633,-113.79520779200058
7.674776064,0.9998021538391091,-114.02105456437727
7.6798976,0.9999003767048953,-114.24827712896669
7.685019136,1.0000044510596175,-114.47692092712754
7.690140672,1.0001082284766347,-114.70707236526054
7.69526272,1.0002055260521971,-114.93867837275373
7.700384256,1.0002907613607666,-115.17156590386422
7.705505792,1.0003587366463864,-115.40558775422433
7.710627328,1.0004055427588552,-115.64046873229702
7.715748864,1.0004282437797412,-115.87587420826311
7.720870912,1.0004256628520414,-116.11144131432097
7.725992448,1.0003977240120616,-116.34688651998188
7.731113984,1.000346212132111,-116.58175990906406
7.73623552,1.0002739169069337,-116.81582932459543
7.741357056,1.0001851690411425,-117.04883763027523
7.746479104,1.0000851641883914,-117.28055326006707
7.75160064,0.9999795611192605,-117.51086430380047
7.756722176,0.9998749029820658,-117.73975316379449
7.761843712,0.9997770534340128,-117.96726886288083
7.766965248,0.9996919610685426,-118.19354200905498
7.772087296,0.9996245058798451,-118.41874572726348
7.777208832,0.9995788861103975,-118.64317872606956
7.782330368,0.9995576052587865,-118.86720584649652
7.787451904,0.9995622086483887,-119.09116485619224
7.79257344,0.9995921491517471,-119.31537824521598
7.797695488,0.9996460883419065,-119.54019755068214
7.802817024,0.9997206572014582,-119.76596843251873
7.80793856,0.9998115119021125,-119.99293292841807
7.813060096,0.9999133475147612,-120.22126261486453
7.818181632,1.000020272349715,-120.45112561845367
7.82330368,1.0001259527881237,-120.68247397322473
7.828425216,1.0002241769479072,-120.9152850657905
7.833546752,1.0003091096259449,-121.14941338756655
7.838668288,1.0003757996853062,-121.3846748854985
7.843789824,1.0004203124078708,-121.62071646734806
7.848911872,1.0004399453758719,-121.8572862273625
7.854033408,1.0004334961953463,-122.09395756987168
7.859154944,1.0004012777150215,-122.33041532901717
7.86427648,1.0003451527554903,-122.56627577432893
7.869398016,1.000268409815039,-122.80127110887152
7.874520064,1.0001755527257135,-123.03510643507245
7.8796416,1.0000718902916328,-123.26762858012778
7.884763136,0.9999635316493869,-123.49865943408652
7.889884672,0.9998568862480083,-123.72826032250224
7.895006208,0.9997582143426986,-123.95646007316519
7.900128256,0.9996733531758746,-124.18337289391523
7.905249792,0.9996072817246545,-124.40926279026002
7.910371328,0.999563932828477,-124.63445861313222
7.915492864,0.9995459374883031,-124.85922479666905
7.9206144,0.9995543689377255,-125.08395177330814
7.925736448,0.999588846912082,-125.30897936472215
7.930857984,0.9996472711211757,-125.53471356317253
7.93597952,0.9997262215383826,-125.76146552100384
7.941101056,0.9998213121844445,-125.98943703940526
7.946222592,0.9999267485797085,-126.21884037027296
7.95134464,1.000036536826421,-126.449797955262
7.956466176,1.00014410998391,-126.68227651243815
7.961587712,1.00024303781628,-126.91627702381022
7.966709248,1.0003277788834595,-127.15157975850546
7.971830784,1.0003929776156264,-127.38795538606223
7.976952832,1.0004350975223653,-127.62513552102699
7.982074368,1.0004514488160554,-127.8627623150601
7.987195904,1.000441000635157,-128.1004491439037
7.99231744,1.0004043785913377,-128.33787818299584
7.997438976,1.0003436793253424,-128.5746463215038
8.002561024,1.0002623938293862,-128.8104669542077
8.00768256,1.000165261228611,-129.04506274090383
8.012804096,1.0000580426152639,-129.2782719709401
8.017925632,0.9999469352893546,-129.50999301207588
8.023047168,0.9998383967528913,-129.74020224096174
8.028169216,0.9997389758871212,-129.96897226305134
8.033290752,0.9996544580386283,-130.19650159814282
8.038412288,0.9995897664232297,-130.4230059612986
8.043533824,0.999548930332219,-130.6487797101141
