freq,mag,phase
6.0,0.9999978583910748,132.6937485087285
6.008,0.9999979083122863,132.62749913875624
6.016,0.9999979579900387,132.56123716161008
6.024,0.9999980074244404,132.49496256162698
6.032,0.9999980566155909,132.42867532315017
6.04,0.9999981055635786,132.36237543052937
6.048,0.9999981542684824,132.29606286812054
6.056,0.9999982027303721,132.2297376202862
6.064,0.9999982509493069,132.16339967139524
6.072,0.9999982989253372,132.09704900582304
6.08,0.9999983466585038,132.03068560795145
6.088,0.999998394148839,131.96430946216879
6.096,0.9999984413963648,131.89792055287
6.104,0.9999984884010953,131.8315188644565
6.112,0.9999985351630349,131.76510438133636
6.12,0.9999985816821804,131.69867708792415
6.128,0.9999986279585192,131.63223696864117
6.136,0.9999986739920307,131.5657840079153
6.144,0.9999987197826853,131.49931819018113
6.152,0.9999987653304462,131.4328394998799
6.16,0.9999988106352675,131.36634792145958
6.168,0.9999988556970966,131.29984343937494
6.176,0.9999989005158718,131.23332603808745
6.184,0.9999989450915244,131.1667957020654
6.192,0.9999989894239785,131.10025241578384
6.2,0.9999990335131498,131.03369616372476
6.208,0.9999990773589473,130.9671269303769
6.216,0.9999991209612729,130.90054470023597
6.224,0.999999164320021,130.8339494578045
6.232,0.9999992074350794,130.76734118759205
6.24,0.9999992503063286,130.70071987411504
6.248,0.9999992929336432,130.63408550189695
6.256,0.9999993353168907,130.5674380554682
6.264,0.999999377455932,130.50077751936624
6.272,0.999999419350622,130.43410387813566
6.28,0.999999461000809,130.36741711632806
6.288,0.9999995024063355,130.3007172185021
6.296,0.9999995435670382,130.23400416922362
6.304,0.9999995844827477,130.16727795306565
6.312,0.9999996251532886,130.10053855460828
6.32,0.9999996655784803,130.03378595843893
6.328,0.9999997057581365,129.9670201491521
6.336,0.9999997456920655,129.90024111134966
6.344,0.9999997853800706,129.83344882964073
6.352,0.9999998248219496,129.76664328864166
6.36,0.9999998640174955,129.6998244729762
6.368,0.9999999029664962,129.63299236727536
6.376,0.9999999416687347,129.56614695617768
6.384,0.9999999801239899,129.49928822432892
6.392,0.9999999999999998,129.43241615638237
6.4,1.0,129.36553073699872
6.408,0.9999999999999999,129.2986319508462
6.416,0.9999999999999999,129.23171978260044
6.424,1.0,129.1647942169447
6.432,1.0,129.09785523856968
6.44,0.9999999999999998,129.03090283217372
6.448,0.9999999999999999,128.96393698246283
6.456,1.0,128.89695767415049
6.464,1.0,128.82996489195793
6.472,1.0,128.76295862061406
6.48,1.0,128.69593884485545
6.4879999999999995,1.0,128.62890554942646
6.496,0.9999999999999999,128.56185871907914
6.504,1.0,128.4947983385734
6.5120000000000005,0.9999999999999999,128.42772439267685
6.52,0.9999999999999999,128.36063686616507
6.5280000000000005,1.0,128.29353574382134
6.536,1.0,128.22642101043698
6.5440000000000005,1.0,128.15929265081115
6.552,1.0,128.09215064975095
6.5600000000000005,1.0,128.0249949920714
6.568,1.0,127.9578256625957
6.5760000000000005,1.0,127.8906426461548
6.584,0.9999999999999999,127.82344592758793
6.592,0.9999999999999999,127.75623549174222
6.6,0.9999999999999999,127.68901132347303
6.608,1.0,127.62177340764374
6.616,1.0000000000000002,127.554521729126
6.624,1.0,127.48725627279951
6.632,1.0,127.41997702355229
6.64,0.9999999999999999,127.35268396628054
6.648,1.0,127.2853770858887
6.656,0.9999999999999999,127.21805636728956
6.664,0.9999999999999999,127.1507217954042
6.672,0.9999999999999999,127.083373355162
6.68,1.0,127.0160110315008
6.688,1.0,126.94863480936675
6.696,1.0,126.88124467371449
6.704,0.9999999999999998,126.8138406095071
6.712,1.0,126.74642260171609
6.72,1.0,126.67899063532158
6.728,1.0,126.61154469531212
6.736,1.0,126.5440847666849
6.744,1.0,126.4766108344457
6.752,0.9999999999999999,126.40912288360884
6.76,1.0,126.34162089919741
6.768,0.9999999999999999,126.2741048662431
6.776,1.0000000000000002,126.20657476978631
6.784,1.0,126.13903059487626
6.792,1.0,126.07147232657077
6.8,0.9999999999999998,126.00389994993657
6.808,0.9999999999999999,125.9363134500492
6.816,1.0,125.86871281199306
6.824,0.9999999999999999,125.80109802086136
6.832,0.9999999999999999,125.73346906175627
6.84,0.9999999999999999,125.66582591978889
6.848,1.0,125.59816858007923
6.856,0.9999999999999999,125.53049702775643
6.864,0.9999999999999999,125.46281124795851
6.872,1.0,125.39511122583255
6.88,1.0,125.32739694653483
6.888,1.0,125.25966839523062
6.896,1.0,125.19192555709438
6.904,1.0,125.1241684173097
6.912,1.0,125.05639696106947
6.92,0.9999999999999999,124.98861117357563
6.928,1.0,124.92081104003957
6.936,1.0,124.85299654568182
6.944,1.0,124.78516767573232
6.952,0.9999999999999999,124.7173244154303
6.96,1.0,124.64946675002439
6.968,1.0,124.5815946647726
6.976,1.0,124.5137081449424
6.984,0.9999999999999999,124.44580717581074
6.992,1.0,124.37789174266405
7.0,1.0,124.30996183079823
7.008,1.0,124.24201742551887
7.016,1.0,124.17405851214103
7.024,0.9999999999999999,124.10608507598938
7.032,0.9999999999999999,124.03809710239834
7.04,1.0,123.97009457671193
7.048,0.9999999999999999,123.9020774842839
7.056,1.0,123.83404581047775
7.064,1.0,123.76599954066668
7.072,1.0,123.69793866023385
7.08,1.0,123.62986315457206
7.088,1.0,123.56177300908413
7.096,1.0,123.49366820918269
7.104,1.0,123.42554874029027
7.112,1.0000000000000002,123.3574145878395
7.12,0.9999999999999999,123.28926573727281
7.128,1.0,123.2211021740428
7.136,1.0,123.15292388361203
7.144,1.0,123.08473085145322
7.152,1.0,123.0165230630491
7.16,1.0,122.94830050389264
7.168,1.0000000000000002,122.88006315948694
7.176,1.0,122.81181101534534
7.184,1.0,122.74354405699138
7.192,0.9999999999999999,122.67526226995894
7.2,1.0,122.60696563979212
7.208,0.9999999999999999,122.53865415204542
7.216,0.9999999999999999,122.47032779228368
7.224,1.0,122.40198654608218
7.232,0.9999999999999999,122.33363039902659
7.24,1.0,122.26525933671307
7.248,1.0,122.19687334474827
7.256,0.9999999999999999,122.12847240874935
7.264,0.9999999999999999,122.06005651434413
7.272,0.9999999999999999,121.99162564717088
7.28,0.9999999999999999,121.92317979287864
7.288,1.0,121.85471893712703
7.296,0.9999999999999999,121.78624306558638
7.304,1.0,121.71775216393777
7.312,1.0,121.64924621787301
7.32,1.0,121.58072521309478
7.328,0.9999999999999999,121.5121891353165
7.336,0.9999999999999999,121.44363797026246
7.344,1.0,121.37507170366791
7.352,1.0,121.306490321279
7.36,0.9999999999999999,121.23789380885282
7.368,1.0,121.16928215215746
7.376,1.0,121.1006553369721
7.384,0.9999999999999999,121.03201334908687
7.392,1.0,120.96335617430309
7.4,1.0,120.89468379843322
7.4079999999999995,1.0,120.8259962073008
7.416,1.0,120.75729338674067
7.4239999999999995,1.0000000000000002,120.68857532259887
7.432,0.9999999999999999,120.61984200073262
7.4399999999999995,1.0,120.55109340701057
7.448,1.0,120.48232952731264
7.4559999999999995,0.9999999999999999,120.4135503475302
7.464,1.0,120.34475585356589
7.4719999999999995,1.0,120.27594603133393
7.48,1.0,120.2071208667599
7.4879999999999995,0.9999999999999999,120.13828034578097
7.496,0.9999999999999999,120.06942445434585
7.504,1.0,120.00055317841478
7.5120000000000005,1.0,119.93166650395969
7.52,1.0,119.8627644169641
7.5280000000000005,1.0,119.79384690342322
7.536,0.9999999999999999,119.72491394934404
7.5440000000000005,1.0,119.65596554074524
7.552,0.9999999999999999,119.58700166365736
7.5600000000000005,0.9999999999999999,119.51802230412267
7.568,1.0,119.44902744819541
7.5760000000000005,0.9999999999999999,119.38001708194167
7.584,1.0,119.31099119143948
7.5920000000000005,1.0,119.24194976277884
7.6,1.0,119.17289278206178
7.6080000000000005,1.0,119.10382023540232
7.616,1.0,119.03473210892668
7.6240000000000006,1.0,118.96562838877301
7.632,0.9999999999999999,118.89650906109179
7.640000000000001,1.0000000000000002,118.82737411204559
7.648,1.0,118.75822352780925
7.656000000000001,1.0,118.6890572945698
7.664,1.0,118.61987539852672
7.672,0.9999999999999999,118.55067782589167
7.68,1.0000000000000002,118.48146456288876
7.688,1.0,118.41223559575452
7.696,0.9999999999999999,118.34299091073787
7.704,1.0,118.27373049410025
7.712,1.0,118.20445433211566
7.72,1.0,118.13516241107057
7.728,1.0,118.06585471726412
7.736,1.0,117.99653123700806
7.744,1.0,117.92719195662681
7.752,1.0,117.85783686245749
7.76,1.0,117.78846594084999
7.768,0.9999999999999999,117.719079178167
7.776,0.9999999999999999,117.64967656078393
7.784,1.0,117.58025807508918
7.792,1.0,117.510823707484
7.8,0.9999999999999998,117.44137344438252
7.808,1.0,117.37190727221196
7.816,1.0,117.30242517741246
7.824,1.0,117.23292714643725
7.832,0.9999999999999999,117.16341316575264
7.84,0.9999999999999999,117.09388322183807
7.848,1.0,117.02433730118616
7.856,0.9999999999999999,116.95477539030271
7.864,1.0,116.8851974757068
7.872,1.0,116.8156035439308
7.88,0.9999999999999999,116.74599358152035
7.888,1.0,116.67636757503452
7.896,0.9999999999999999,116.60672551104572
7.904,0.9999999999999999,116.53706737613983
7.912,1.0,116.46739315691629
7.92,0.9999999999999999,116.39770283998789
7.928,1.0,116.32799641198109
7.936,1.0,116.25827385953598
7.944,1.0,116.18853516930622
7.952,1.0,116.1187803279592
7.96,1.0,116.049009322176
7.968,1.0,115.97922213865147
7.976,1.0,115.90941876409426
7.984,0.9999999999999998,115.83959918522682
7.992,0.9999999999999999,115.76976338878559
8.0,1.0,115.69991136152083
8.008,1.0,115.63004309019684
8.016,1.0,115.56015856159182
8.024000000000001,1.0,115.4902577624981
8.032,0.9999999999999999,115.42034067972213
8.04,1.0,115.35040730008437
8.048,0.9999999999999999,115.28045761041955
8.056000000000001,1.0,115.21049159757648
8.064,1.0,115.14050924841841
8.072,0.9999999999999998,115.07051054982277
8.08,1.0,115.00049548868125
8.088000000000001,1.0,114.93046405190006
8.096,1.0,114.86041622639979
8.104,0.9999999999999999,114.7903519991154
8.112,1.0,114.72027135699646
8.120000000000001,0.9999999999999999,114.65017428700702
8.128,1.0,114.58006077612573
8.136,0.9999999999999999,114.50993081134591
8.144,1.0,114.43978437967543
8.152000000000001,1.0,114.36962146813701
8.16,1.0,114.29944206376807
8.168,1.0,114.2292461536208
8.176,1.0,114.15903372476224
8.184000000000001,1.0,114.08880476427434
8.192,1.0,114.01855925925399
8.2,1.0,113.948297196813
8.208,1.0,113.87801856407819
8.216000000000001,0.9999999999999999,113.80772334819149
8.224,1.0,113.7374115363099
8.232,0.9999999999999998,113.66708311560558
8.24,1.0,113.5967380732658
8.248000000000001,1.0,113.52637639649315
8.256,1.0,113.45599807250548
8.264,1.0,113.38560308853594
8.272,1.0,113.31519143183301
8.280000000000001,0.9999999999999998,113.24476308966065
8.288,0.9999999999999999,113.17431804929821
8.296,1.0,113.10385629804058
8.304,0.9999999999999999,113.03337782319814
8.312,1.0,112.9628826120969
8.32,1.0,112.89237065207847
8.328,1.0,112.82184193050018
8.336,1.0,112.751296434735
8.344,0.9999999999999999,112.68073415217175
8.352,1.0,112.61015507021499
8.36,1.0,112.53955917628521
8.368,1.0,112.46894645781872
8.376,1.0,112.39831690226784
8.384,1.0,112.32767049710083
8.392,0.9999999999999999,112.25700722980206
8.4,0.9999999999999999,112.1863270878719
8.408,0.9999999999999999,112.11563005882695
8.416,1.0,112.04491613019987
8.424,0.9999999999999999,111.97418528953965
8.432,0.9999999999999999,111.90343752441146
8.44,0.9999999999999999,111.83267282239689
8.448,0.9999999999999999,111.76189117109377
8.456,1.0,111.69109255811647
8.464,0.9999999999999999,111.62027697109569
8.472,1.0,111.54944439767877
8.48,1.0,111.47859482552948
8.488,0.9999999999999999,111.40772824232828
8.496,1.0,111.3368446357722
8.504,1.0,111.26594399357504
8.512,1.0,111.19502630346724
8.52,1.0,111.12409155319622
8.528,1.0,111.05313973052601
8.536,0.9999999999999999,110.98217082323771
8.544,1.0,110.91118481912923
8.552,1.0,110.84018170601556
8.56,1.0,110.76916147172865
8.568,0.9999999999999999,110.6981241041176
8.576,1.0,110.62706959104857
8.584,1.0,110.55599792040496
8.592,1.0,110.48490908008738
8.6,0.9999999999999999,110.41380305801371
8.608,0.9999999999999999,110.34267984211915
8.616,1.0,110.27153942035636
8.624,0.9999999999999998,110.20038178069528
8.632,1.0,110.1292069111235
8.64,1.0,110.05801479964599
8.648,0.9999999999999999,109.98680543428542
8.656,1.0,109.91557880308197
8.664,1.0,109.84433489409363
8.672,1.0,109.77307369539604
8.68,0.9999999999999999,109.70179519508265
8.688,1.0,109.63049938126473
8.696,1.0,109.55918624207145
8.704,1.0,109.4878557656499
8.712,1.0,109.41650794016522
8.72,0.9999999999999999,109.34514275380049
8.728,0.9999999999999999,109.27376019475699
8.736,0.9999999999999999,109.20236025125406
8.744,1.0,109.13094291152929
8.752,0.9999999877711284,109.0595081638385
8.76,0.9999999547116156,108.98805599645583
8.768,0.9999999215432797,108.91658639767377
8.776,0.9999998882682843,108.84509935580323
8.784,0.9999998548888102,108.77359485917351
8.792,0.9999998214070525,108.70207289613259
8.8,0.9999997878252231,108.63053345504686
8.808,0.9999997541455494,108.55897652430143
8.815999999999999,0.9999997203702751,108.48740209230003
8.824,0.999999686501659,108.41581014746515
8.832,0.9999996525419766,108.34420067823811
8.84,0.9999996184935195,108.272573673079
8.847999999999999,0.9999995843585942,108.20092912046688
8.856,0.9999995501395242,108.12926700889967
8.864,0.9999995158386492,108.05758732689442
8.872,0.9999994814583235,107.98589006298718
8.879999999999999,0.9999994470009197,107.91417520573309
8.888,0.9999994124688238,107.84244274370651
8.896,0.9999993778644407,107.77069266550103
8.904,0.9999993431901895,107.69892495972955
8.911999999999999,0.9999993084485059,107.62713961502428
8.92,0.9999992736418422,107.55533662003683
8.928,0.9999992387726666,107.4835159634383
8.936,0.9999992038434632,107.41167763391933
8.943999999999999,0.999999168856733,107.33982162019004
8.952,0.9999991338149926,107.26794791098031
8.96,0.9999990987207757,107.19605649503961
8.968,0.9999990635766308,107.12414736113725
8.975999999999999,0.9999990283851244,107.05222049806227
8.984,0.9999989931488384,106.98027589462363
8.992,0.9999989578703714,106.90831353965018
9.0,0.9999989225523376,106.83633342199083
9.008,0.9999988871973685,106.76433553051446
9.016,0.9999988518081114,106.69231985411007
9.024000000000001,0.9999988163872305,106.62028638168685
9.032,0.9999987809374059,106.54823510217427
9.04,0.9999987454613345,106.476166004522
9.048,0.9999987099617292,106.40407907770006
9.056000000000001,0.9999986744413201,106.331974310699
9.064,0.9999986389028528,106.25985169252972
9.072,0.9999986033490903,106.18771121222372
9.08,0.9999985677828119,106.11555285883306
9.088000000000001,0.9999985322068131,106.0433766214305
9.096,0.9999984966239056,105.97118248910954
9.104,0.9999984610369187,105.89897045098442
9.112,0.9999984254486974,105.82674049619024
9.120000000000001,0.9999983898621037,105.75449261388306
9.128,0.9999983542800159,105.68222679323988
9.136,0.999998318705329,105.60994302345877
9.144,0.9999982831409545,105.53764129375888
9.152000000000001,0.9999982475898207,105.46532159338058
9.16,0.9999982120548725,105.39298391158546
9.168,0.9999981765390711,105.32062823765642
9.176,0.9999981410453946,105.24825456089772
9.184000000000001,0.9999981055768375,105.17586287063511
9.192,0.9999980701364117,105.1034531562158
9.2,0.9999980347271448,105.03102540700863
9.208,0.9999979993520813,104.95857961240401
9.216000000000001,0.9999979640142828,104.88611576181412
9.224,0.9999979287168269,104.81363384467296
9.232,0.9999978934628085,104.7411338504363
9.24,0.9999978582553386,104.66861576858187
9.248000000000001,0.9999978230975455,104.5960795886094
9.256,0.9999977879925733,104.52352530004073
9.264,0.9999977529435841,104.45095289241972
9.272,0.9999977179537547,104.3783623553125
9.280000000000001,0.9999976830262807,104.30575367830754
9.288,0.999997648164373,104.23312685101557
9.296,0.9999976133712596,104.16048186306982
9.304,0.9999975786501849,104.08781870412592
9.312000000000001,0.9999975440044101,104.01513736386218
9.32,0.9999975094372135,103.94243783197953
9.328,0.9999974749518892,103.86972009820158
9.336,0.9999974405517487,103.79698415227477
9.344,0.9999974062401191,103.72422998396843
9.352,0.9999973720203454,103.65145758307479
9.36,0.9999973378957883,103.57866693940917
9.368,0.9999973038698249,103.50585804280999
9.376,0.9999972699458499,103.43303088313883
9.384,0.9999972361272738,103.36018545028053
9.392,0.9999972024175229,103.28732173414332
9.4,0.9999971688200417,103.2144397246588
9.408,0.99999713533829,103.14153941178215
9.416,0.9999971019757441,103.06862078549206
9.424,0.9999970687358973,102.99568383579097
9.432,0.9999970356222588,102.92272855270497
9.44,0.9999970026383543,102.84975492628412
9.448,0.9999969697877256,102.7767629466023
9.456,0.9999969370739311,102.70375260375747
9.464,0.9999969045005459,102.63072388787161
9.472,0.99999687207116,102.55767678909098
9.48,0.9999968397893808,102.48461129758599
9.488,0.9999968076588314,102.41152740355152
9.496,0.999996775683151,102.3384250972068
9.504,0.9999967438659947,102.26530436879571
9.512,0.9999967122110338,102.19216520858664
9.52,0.9999966807219552,102.1190076068728
9.528,0.999996649402462,102.04583155397212
9.536,0.9999966182562731,101.97263704022753
9.544,0.9999965872871232,101.89942405600685
9.552,0.9999965564987618,101.82619259170315
9.56,0.9999965258949552,101.75294263773452
9.568,0.9999964954794844,101.67967418454445
9.576,0.9999964652561464,101.60638722260178
9.584,0.999996435228753,101.53308174240088
9.592,0.9999964054011317,101.45975773446162
9.6,0.9999963757771242,101.38641518932965
9.608,0.9999963463605891,101.31305409757637
9.616,0.9999963171553982,101.23967444979907
9.624,0.9999962881654385,101.16627623662104
9.632,0.9999962593946128,101.09285944869171
9.64,0.9999962308468369,101.01942407668669
9.648,0.9999962025260424,100.94597011130791
9.656,0.9999961744361745,100.87249754328374
9.664,0.9999961465811926,100.79900636336914
9.672,0.9999961189650707,100.72549656234563
9.68,0.9999960915917961,100.65196813102156
9.688,0.9999960644653699,100.57842106023216
9.696,0.999996037589807,100.50485534083964
9.704,0.9999960109691357,100.43127096373337
9.712,0.9999959846073976,100.35766791982991
9.72,0.9999959585086464,100.28404620007316
9.728,0.9999959326769496,100.2104057954346
9.736,0.9999959071163873,100.1367466969132
9.744,0.9999958818310509,100.06306889553576
9.752,0.999995856825045,99.98937238235682
9.76,0.9999958321024857,99.91565714845905
9.768,0.9999958076675003,99.8419231849531
9.776,0.9999957835242285,99.76817048297798
9.784,0.9999957596768196,99.69439903370102
9.792,0.9999957361294355,99.62060882831807
9.8,0.9999957128862468,99.54679985805366
9.808,0.9999956899514353,99.47297211416112
9.816,0.999995667329192,99.39912558792273
9.824,0.999995645023718,99.32526027064982
9.832,0.9999956230392234,99.25137615368297
9.84,0.9999956013799265,99.17747322839216
9.847999999999999,0.9999955800500542,99.10355148617685
9.856,0.9999955590538414,99.02961091846623
9.864,0.9999955383955307,98.95565151671931
9.872,0.9999955180793711,98.88167327242513
9.879999999999999,0.9999954981096186,98.80767617710282
9.888,0.9999954784905352,98.73366022230185
9.896,0.9999954592263883,98.65962539960222
9.904,0.9999954403214509,98.58557170061457
9.911999999999999,0.9999954217799988,98.51149911698029
9.92,0.9999954036063134,98.43740764037186
9.928,0.9999953858046788,98.36329726249286
9.936,0.9999953683793815,98.28916797507831
9.943999999999999,0.9999953513347097,98.21501976989467
9.952,0.9999953346749532,98.14085263874014
9.96,0.9999953184044024,98.06666657344488
9.968,0.9999953025273467,97.9924615658711
9.975999999999999,0.9999952870480757,97.91823760791331
9.984,0.9999952719708759,97.84399469149851
9.992,0.9999952573000317,97.76973280858641
10.0,0.9999952430398235,97.69545195116963
10.008,0.9999952291945272,97.62115211127386
10.016,0.9999952157684133,97.54683328095808
10.024000000000001,0.9999952027657456,97.47249545231493
10.032,0.9999951901907801,97.39813861747069
10.04,0.999995178047764,97.32376276858568
10.048,0.9999951663409347,97.24936789785437
10.056000000000001,0.9999951550745184,97.17495399750575
10.064,0.9999951442527284,97.10052105980347
