freq,mag,phase
6.0,0.9996340179428047,16.26705803286342
6.008040448,0.9994698627148215,16.050183563120285
6.016080384,0.9993341512403187,15.835293634831649
6.024120832,0.9992346290685405,15.622030611758861
6.032160768,0.9991768680665164,15.40976352472466
6.040201216,0.9991639650493405,15.197999112076609
6.048241152,0.9991967331366775,14.986046640541062
6.0562816,0.9992733247588192,14.773402332311218
6.064321536,0.9993895085811855,14.559453872456926
6.072361984,0.9995391497734109,14.343618790022829
6.08040192,0.9997140188165816,14.12562248123725
6.088442368,0.999904391371607,13.905160148298412
6.096482304,1.00010013304743,13.682061009123974
6.104522752,1.0002904091285052,13.456346078273686
6.112562688,1.0004648499679654,13.22819889918279
6.120603136,1.000613997743091,12.997772462931213
6.128643072,1.0007296125148504,12.765651613584744
6.13668352,1.0008054006054745,12.532185710262784
6.144723456,1.0008373016503367,12.297946059932867
6.152763904,1.0008233942272917,12.063611066268633
6.16080384,1.0007645604452524,11.829712232360498
6.168844288,1.000663804875615,11.596908569247336
6.176884224,1.0005267367530557,11.365636983529056
6.184924672,1.000360769550483,11.136424576342796
6.192964608,1.0001748839299347,10.90952199338427
6.201005056,0.999979252579202,10.68520289565061
6.209044992,0.9997846278146041,10.463538861550509
6.21708544,0.9996014436339877,10.244341955532903
6.225125376,0.9994400065041642,10.027491633987873
6.233165824,0.9993087198062905,9.812593698514382
6.241206272,0.999215248895999,9.599219668056943
6.249246208,0.9991644835303467,9.386782422336136
6.257286656,0.9991592923140733,9.17471891412474
6.265326592,0.9991999948450615,8.96240895870506
6.27336704,0.9992843942146676,8.749267694958258
6.281406976,0.9994078646019019,8.534665336222982
6.289447424,0.9995637831121061,8.318181933222004
6.29748736,0.999743445300354,8.099452507741484
6.305527808,0.9999371724861852,7.878156563000103
6.313567744,1.0001344117061173,7.654193306862176
6.321608192,1.000324333821437,7.427658775786329
6.329648128,1.0004966523579544,7.198648515388754
6.337688576,1.000641923992426,6.967456116266842
6.345728512,1.0007521446707355,6.734519943191684
6.35376896,1.000821260331689,6.500407709697774
6.361808896,1.0008456275461777,6.265616129829281
6.369849344,1.0008238715143845,6.030809639483162
6.37788928,1.0007570862859076,5.796565488053171
6.385929728,1.000648778963355,5.563466636054481
6.393969664,1.0005049333499314,5.332070699308754
6.402010112,1.0003335117806456,5.102777693890211
6.410050048,1.0001434597468717,4.875887557368192
6.418090496,0.9999455148287772,4.651596249315919
6.426130432,0.9997503187984553,4.429943092769326
6.43417088,0.9995685723917761,4.210794437512268
6.442210816,0.999410134247369,3.993987164089563
6.450251264,0.999283873604882,3.7790352601977104
6.458291712,0.9991964789466011,3.5655292335152726
6.466331648,0.9991528937366425,3.3528844141335257
6.474372096,0.9991555584971251,3.140549230469015
6.482412032,0.9992042857403962,2.92780796062213
6.49045248,0.9992964966035613,2.7141437778295914
6.498492416,0.9994271199054455,2.498951827837463
6.506532864,0.9995890638793906,2.281741925159349
6.5145728,0.9997735654730737,2.062179041821417
6.522613248,0.9999704196545497,1.840047358898172
6.530653184,1.0001690060277721,1.615233346281485
6.538693632,1.0003584083461985,1.3878085545694718
6.546733568,1.0005282034906036,1.157916206134858
6.554774016,1.0006692514935345,0.9259231142021751
6.562813952,1.0007738740064762,0.6922458866357227
6.5708544,1.0008363249285888,0.4574640499399975
6.578894336,1.000853071174044,0.22210202233648474
6.586934784,1.0008232858085144,-0.01317382229925909
6.59497472,1.0007484525092947,-0.2477395854191674
6.603015168,1.0006326335788822,-0.48110535280169286
6.611055104,1.0004822297897822,-0.7126762920547304
6.619095552,1.0003053131671926,-0.9420349308531698
6.627135488,1.0001114712979688,-1.1689857021242238
6.635175936,0.9999113902325807,-1.393224456245075
6.643215872,0.9997158828779495,-1.6148546650781692
6.65125632,0.9995358212276431,-1.8339088988961034
6.659296256,0.9993808200523621,-2.050760486226244
6.667336704,0.9992594165692598,-2.2657902108322157
6.67537664,0.9991784507252408,-2.479434158810561
6.683417088,0.9991422212898534,-2.6922998635854305
6.691457536,0.9991528594165717,-2.9049896221367213
6.699497472,0.9992095499493872,-3.1181647420505754
6.70753792,0.9993096073110272,-3.3324124975560765
6.715577856,0.9994473605737648,-3.5482319870170094
6.723618304,0.9996153654441505,-3.7661798905731247
6.73165824,0.9998043987477445,-3.9865553279386203
6.739698688,1.0000041885354598,-4.2095244283126245
6.747738624,1.0002038277021195,-4.4352395062900865
6.755779072,1.000392460725538,-4.663569924841819
6.763819008,1.0005597091919278,-4.8942940332871965
6.771859456,1.000696415599119,-5.127137748012478
6.779899392,1.0007951666887818,-5.361558296251376
6.78793984,1.0008506180776753,-5.59702533118791
6.795979776,1.0008597455258534,-5.832957214800032
6.804020224,1.0008217261882866,-6.068697561742851
6.81206016,1.0007387974339985,-6.303692045403521
6.820100608,1.0006156287370764,-6.537271968122476
6.828140544,1.0004586574423295,-6.768986157120311
6.836180992,1.000276411166829,-6.998459557080456
6.844220928,1.0000788332922113,-7.225398129118101
6.852261376,0.9998768726797841,-7.449657037783203
6.860301312,0.999681394223233,-7.671213803456091
6.86834176,0.9995030430651469,-7.890318538459853
6.876381696,0.999351589077414,-8.107218167970274
6.884422144,0.9992356053609786,-8.32226822995746
6.89246208,0.9991610445925528,-8.536067877509886
6.900502528,0.9991323502293403,-8.749173509770165
6.908542464,0.9991509785941683,-8.962248444738284
6.916582912,0.9992159705091936,-9.175892150482857
6.92462336,0.999323774967021,-9.390735058073906
6.932663296,0.9994686376573927,-9.607261634204152
6.940703744,0.9996425174636016,-9.825960542173345
6.94874368,0.999836053116712,-10.04714917097377
6.956784128,1.0000385816327315,-10.271018057876459
6.964824064,1.000238986960668,-10.497645864998935
6.972864512,1.0004265545478241,-10.726922021236243
6.980904448,1.0005909033696756,-10.958546757095322
6.988944896,1.0007231293805723,-11.192171282324315
6.996984832,1.0008158440931452,-11.427361535322719
7.00502528,1.0008641148181705,-11.66352913375938
7.013065216,1.0008653568620745,-11.900030901147964
7.021105664,1.0008191886306277,-12.136246658722888
7.0291456,1.0007283086057397,-12.371580155124509
7.037186048,1.0005976185827017,-12.605431453354118
7.045225984,1.0004341007575224,-12.83731645733861
7.053266432,1.000246755617508,-13.066883341475302
7.061306368,1.000045684947771,-13.293824292395335
7.069346816,0.9998419188402714,-13.518062380498955
7.077386752,0.999646533060749,-13.73966864611951
7.0854272,0.9994703782610606,-13.958745599195998
7.093467136,0.9993228795197636,-14.175655053010285
7.101507584,0.9992122169482164,-14.390862518787198
7.10954752,0.9991445641714235,-14.604818105490882
7.117587968,0.9991233135464325,-14.818206328204468
7.125627904,0.9991501075085742,-15.031691804854184
7.133668352,0.9992231607851776,-15.245829249955086
7.141708288,0.9993388542972595,-15.461237958053813
7.149748736,0.99949070292344,-15.678489255564998
7.157789184,0.9996702933226616,-15.898014142541632
7.16582912,0.9998680639960817,-16.120059966493763
7.173869568,1.0000731415416881,-16.344853961361704
7.181909504,1.0002743356377384,-16.57240272938299
7.189949952,1.0004606704068022,-16.802596753405524
7.197989888,1.0006217510462396,-17.035112353794123
7.206030336,1.000749206471016,-17.26961123768595
7.214070272,1.0008357506557373,-17.50555818900711
7.22211072,1.0008767291191134,-17.742397891411727
7.230150656,1.000869974657345,-17.979494858103045
7.238191104,1.0008156214842368,-18.216190531303457
7.24623104,1.000716709432745,-18.451862182023444
7.254271488,1.0005784690980457,-18.685998084867737
7.262311424,1.000408662525364,-18.9180445354296
7.270351872,1.000216213475422,-19.14769902038541
7.278391808,1.0000118168154921,-19.374674229248054
7.286432256,0.9998065866011765,-19.59892521737913
7.294472192,0.9996117160328595,-19.82051113656559
7.30251264,0.9994377201239409,-20.03961033007138
7.310552576,0.9992943280933271,-20.256577404768127
7.318593024,0.9991894020750335,-20.471886698637483
7.32663296,0.9991284153692571,-20.686088097423433
7.334673408,0.9991152211115306,-20.899796911739752
7.342713344,0.9991501939017308,-21.113682109526245
7.350753792,0.9992315513418207,-21.328332390743952
7.358793728,0.9993548854650925,-21.544407990185185
7.366834176,0.9995136783368666,-21.76239113101943
7.374874624,0.9996990872779207,-21.982730247871892
7.38291456,0.9999008987016561,-22.20566152688586
7.390955008,1.0001083402610662,-22.431369181573142
7.398994944,1.000309906300745,-22.65989400465095
7.407035392,1.000494672748871,-22.891012759258423
7.415075328,1.000652498031816,-23.124451620423947
7.423115776,1.0007748269376957,-23.359805588632085
7.431155712,1.0008550456522574,-23.596530327644345
7.43919616,1.0008885552507374,-23.834074589865416
7.447236096,1.000873639663921,-24.07176365269592
7.455276544,1.0008109303115253,-24.30892423597899
7.46331648,1.0007039154330561,-24.54498615578474
7.471356928,1.0005583416481192,-24.779350729598402
7.479396864,1.0003822426246054,-25.01159407439377
7.487437312,1.000184899321872,-25.24133010494618
7.495477248,0.9999774164821508,-25.468371703248266
7.503517696,0.9997707431962141,-25.6926263787364
7.511557632,0.9995765909007444,-25.914216567718885
7.51959808,0.9994051387167262,-26.133349889513163
7.527638016,0.9992660177568214,-26.350385570716156
7.535678464,0.999166961224045,-26.56581239501278
7.5437184,0.9991131272171744,-26.780267843108323
7.551758848,0.9991077169103928,-26.994318904957147
7.559798784,0.999151155519434,-27.20862198359209
7.567839232,0.9992408256268764,-27.423863219846186
7.575879168,0.9993720039258752,-27.640575594838115
7.583919616,0.999537554870224,-27.859332576093326
7.591959552,0.9997285527740172,-28.080532772530674
7.6,0.9999343405116456,-28.304392840794822
7.608040448,1.0001439405786259,-28.531069209996406
7.616080384,1.0003456863119637,-28.76053736337259
7.624120832,1.0005287548353303,-28.992624427879313
7.632160768,1.00068303505891,-29.226979804593366
7.640201216,1.0008001415310812,-29.46322584461028
7.648241152,1.0008736323172167,-29.700751867834374
7.6562816,1.0008995942605194,-29.938977032758284
7.664321536,1.000876429950707,-30.17724382896593
7.672361984,1.0008053804094574,-30.414875511062352
7.68040192,1.0006902296679432,-30.651305058306587
7.688442368,1.000537303143952,-30.885948040937485
7.696482304,1.0003548898125953,-31.118362810574187
7.704522752,1.0001529759068952,-31.348211449498752
7.712562688,0.9999423403650451,-31.57528725314478
7.720603136,0.999734687302797,-31.799599621456313
7.728643072,0.9995414010256877,-32.021175067979065
7.73668352,0.9993727466662813,-32.24034969901985
7.744723456,0.9992381441197677,-32.45749334996855
7.752763904,0.9991451916548,-32.67309976443861
7.76080384,0.9990986133958547,-32.88779252334355
7.768844288,0.9991012822228165,-33.10220159968592
7.776884224,0.9991532122934701,-33.31697047147771
7.784924672,0.9992511491866832,-33.53279113285183
7.792964608,0.999390055558438,-33.750231965592334
7.801005056,0.9995626125431265,-33.96977389385718
7.809044992,0.9997588321197107,-34.19183115631572
7.81708544,0.9999685419445217,-34.41664372828434
7.825125376,1.0001801055144326,-34.64428483673156
7.833165824,1.000381874242027,-34.87476931432877
7.841206272,1.0005627775756674,-35.107824946896855
7.849246208,1.0007133958182532,-35.34312903548097
7.857286656,1.0008249808721645,-35.58025351656295
7.865326592,1.0008916801346202,-35.81858744166827
7.87336704,1.0009099108838402,-36.05750427211886
7.881406976,1.0008782810194183,-36.29635332425651
7.889447424,1.0007987799357512,-36.53448648831405
7.89748736,1.0006755389807616,-36.77128983365222
7.905527808,1.0005154069936946,-37.00619498471163
7.913567744,1.0003267783714587,-37.238783353253154
7.921608192,1.0001202956621793,-37.46872594069374
7.929648128,0.9999068830216227,-37.695878220944934
7.937688576,0.999698272635867,-37.920186122011806
7.945728512,0.9995060066659665,-38.14179276947101
7.95376896,0.9993404420434172,-38.36106128950384
7.961808896,0.9992106537910201,-38.57829575286475
7.969849344,0.9991238159141191,-38.79412552979332
7.97788928,0.9990848238398956,-39.00907683021612
7.985929728,0.9990957882189537,-39.22386625985949
7.993969664,0.999156099239485,-39.439177771267026
8.002010112,0.9992624964065424,-39.65559054871141
8.010050048,0.9994091762008451,-39.87373531188426
8.018090496,0.9995882630708293,-40.09413670892679
8.026130432,0.9997900603740513,-40.317076493812365
8.03417088,1.0000032372543104,-40.54283455418235
8.042210816,1.0002165332737645,-40.77151669236568
8.050251264,1.0004181582344343,-41.00297792779851
8.058291712,1.000597000673117,-41.237053541795916
8.066331648,1.0007434417536143,-41.473302792276066
8.074372096,1.0008494470907907,-41.711317494937354
8.082412032,1.0009090552450635,-41.95047510171947
8.09045248,1.0009192178937885,-42.19009087751555
8.098492416,1.000879144164499,-42.42957181927304
8.106532864,1.0007911413275363,-42.668166683601655
8.1145728,1.0006598154452007,-42.90533213820771
8.122613248,1.000492361975868,-43.140503171611876
8.130653184,1.000297741509821,-43.37329860183544
8.138693632,1.0000867412422194,-43.60334037709093
8.146733568,0.9998706528842392,-43.83054716232199
8.154774016,0.9996614417811177,-44.05491691648555
8.162813952,0.999470461778214,-44.276561832142164
8.1708544,0.9993082141133718,-44.495892960535045
8.178894336,0.9991833395308061,-44.7132708516211
8.186934784,0.9991030156911227,-44.929297764825186
8.19497472,0.9990716748236378,-45.14454881106398
8.203015168,0.9990909736805935,-45.35977541149972
8.211055104,0.9991598838226706,-45.57561314148111
8.219095552,0.9992747550783685,-45.79265202851613
8.227135488,0.9994292920732349,-46.011543174132456
8.235175936,0.9996148363606273,-46.23279337955843
8.243215872,0.9998218487656255,-46.45669565984171
8.25125632,1.0000386873494418,-46.68347029811053
8.259296256,1.0002534800386997,-46.91312146708139
8.267336704,1.0004546051833008,-47.145644637500396
8.27537664,1.0006311326989354,-47.38071157979693
8.283417088,1.0007732687515323,-47.61795367670246
8.291457536,1.0008734079647523,-47.856882752644445
8.299497472,1.0009258134556502,-48.09682408031276
8.30753792,1.000927849212955,-48.337158511378604
8.315577856,1.0008791931799093,-48.577200358011375
8.323618304,1.0007827037978392,-48.81630684335099
8.33165824,1.0006430556374202,-49.05385045597189
8.339698688,1.0004683859962853,-49.28933770087885
8.347738624,1.0002678666064042,-49.522292654544415
8.355779072,1.000052491256696,-49.75244104655883
8.363819008,0.9998339665099581,-49.97973622099882
8.371859456,0.9996242207657998,-50.20413137469226
8.379899392,0.9994346719604629,-50.42587732577774
8.38793984,0.9992758978903873,-50.64527354767081
8.395979776,0.9991564041274827,-50.86280063436588
8.404020224,0.9990829039628543,-51.079036347134924
8.41206016,0.999059241275036,-51.29465483644679
8.420100608,0.9990870760602463,-51.51031096245805
8.428140544,0.9991646004474672,-51.72670217406235
8.436180992,0.9992878889558877,-51.94444095967629
8.444220928,0.9994501305781002,-52.164106208223096
8.452261376,0.9996426017047717,-52.386229302584276
8.460301312,0.9998545961537026,-52.611053131558364
8.46834176,1.0000747797497362,-52.838837851786614
8.476381696,1.000290963525036,-53.06959559287458
8.484422144,1.000491402080707,-53.30315126492205
8.49246208,1.0006652392996511,-53.53925772621112
8.500502528,1.000802913487548,-53.77750329772508
8.508542464,1.0008968953078472,-54.017322698091945
8.516582912,1.000941890437858,-54.25810212478323
8.52462336,1.0009357252135807,-54.49915047929469
8.532663296,1.0008783548067872,-54.73980256602307
8.540703744,1.000773014957287,-54.979411910248544
8.54874368,1.0006254726865853,-55.217337063500956
8.556784128,1.0004433884456294,-55.453057958372504
8.564824064,1.0002371699706576,-55.6861968109031
8.572864512,1.0000174661522674,-55.916506471786356
8.580904448,0.9997965732470241,-56.143864992985364
8.588944896,0.999586647870203,-56.36833965876407
8.596984832,0.9993987957829604,-56.59015477834712
8.60502528,0.9992437091480312,-56.80961718139203
8.613065728,0.9991296431577242,-57.02734219128508
8.621105152,0.9990629601364798,-57.24383795153615
8.6291456,0.9990475013538217,-57.45980204694045
8.637186048,0.9990838264853084,-57.67593647173146
8.645226496,0.9991702913977139,-57.892884736537106
8.65326592,0.9993021303940345,-58.11134283325243
8.661306368,0.9994722029576908,-58.331819148057356
8.669346816,0.999671127540227,-58.554848220798334
8.677387264,0.9998881769923811,-58.78067254695637
8.685426688,1.0001114131146065,-59.00950763338948
8.693467136,1.0003288579607963,-59.24129000086387
8.701507584,1.0005284104870364,-59.475951893379516
8.709548032,1.0006994669971905,-59.71312040328624
8.717587456,1.0008323495212068,-59.9523454768908
8.725627904,1.0009199659452184,-60.19308757824365
8.733668352,1.0009575341311057,-60.4346832212693
8.7417088,1.0009428264034788,-60.67650005801918
8.749749248,1.0008765390610652,-60.917776950287326
8.757788672,1.0007624605235257,-61.15786632590641
8.76582912,1.0006067059859283,-61.396179542554314
8.773869568,1.0004175850215598,-61.632178978414416
8.781910016,1.0002053133083249,-61.86552453604255
8.78994944,0.9999816572974835,-62.09595036794511
8.797989888,0.9997587128019321,-62.32337810201352
8.806030336,0.9995486774740368,-62.54792740569042
8.814070784,0.9993628485265317,-62.76981177681198
8.822110208,0.9992116965801663,-62.98942556307216
8.830150656,0.9991033271759948,-63.20732956532531
8.838191104,0.9990438416557982,-63.42408866494831
8.846231552,0.9990363735316686,-63.64042394742535
8.854270976,0.9990816123789648,-63.857059585726915
8.862311424,0.9991769862241017,-64.0746263840063
8.870351872,0.9993173194909604,-64.29379600249428
8.87839232,0.9994950062127388,-64.51515354217186
8.886431744,0.9997005096727639,-64.7390804020216
8.894472192,0.9999225233659729,-64.96593063118355
8.90251264,1.0001489186351353,-65.19582530755144
8.910553088,1.0003672769200358,-65.42874151931274
8.918592512,1.0005657662246317,-65.66448675210219
8.92663296,1.0007336269567073,-65.90272027214147
8.934673408,1.000861700787798,-66.14295212553506
8.942713856,1.0009427332469276,-66.38464722490731
8.95075328,1.000972367803432,-66.62711422593371
8.958793728,1.0009490754149324,-66.86963320900189
8.966834176,1.0008739987010047,-67.11155016541605
8.974874624,1.000751016675249,-67.35211711543839
8.982915072,1.0005869075173763,-67.59081043215811
8.990954496,1.0003906279198365,-67.82711487756497
8.998994944,1.0001726850063426,-68.06063877412798
9.007035392,0.9999452094676501,-68.2911735658578
9.01507584,0.9997201467072518,-68.51873261183506
9.023115264,0.999510154987942,-68.74334656990327
9.031155712,0.9993266682734399,-68.96531484741818
9.03919616,0.9991795432816601,-69.18509178118643
9.047236608,0.9990770521019303,-69.40319064985287
9.055276032,0.9990249279170736,-69.6202668766666
9.06331648,0.9990258372220303,-69.83699210928275
9.071356928,0.9990800219224218,-70.05412696064843
9.079397376,0.999184391643146,-70.27231887651435
9.0874368,0.9993333573305213,-70.4922719027658
9.095477248,0.9995189200958214,-70.71448994907469
9.103517696,0.9997307878671626,-70.93941697096025
9.111558144,0.9999575151162866,-71.16729821390027
9.119597568,1.0001868545778556,-71.39828201613415
9.127638016,1.0004061262810744,-71.63230840108449
9.135678464,1.0006034300809439,-71.86918107651253
9.143718912,1.000767913536871,-72.10851015997525
9.151758336,1.0008906868036156,-72.34979198170535
9.159798784,1.0009649852125673,-72.59241412263044
9.167839232,1.0009867142806004,-72.83573987940564
9.17587968,1.0009545150787202,-73.07900794360835
9.183919104,1.0008704170109821,-73.32152760911637
9.191959552,1.000738540077882,-73.56260555387503
9.2,1.0005662474945507,-73.8016953155662
9.208040448,1.0003627955855614,-74.03827786008338
9.216080896,1.0001392770935578,-74.27201242955253
9.22412032,0.9999076879288659,-74.50271165364653
