freq,mag,phase
6.0,0.999402494670025,18.191741639391605
6.008800768,0.9995382929718735,17.95508447291377
6.017601536,0.9996992179560577,17.716375284523387
6.026402816,0.9998765545402263,17.475461489541846
6.035203584,1.0000610569180572,17.232074619027216
6.044004352,1.0002427187001195,16.986234180619356
6.05280512,1.0004119035171164,16.73801985296359
6.0616064,1.0005596919246482,16.487691715517734
6.070407168,1.0006780085710993,16.235534671517033
6.079207936,1.0007607162998335,15.982031195213358
6.088008704,1.0008032407200576,15.727627457117116
6.096809472,1.0008034521914921,15.472941245036546
6.105610752,1.0007611400633352,15.218500158336633
6.11441152,1.0006785121842325,14.964804396487237
6.123212288,1.0005600365753984,14.71245442229561
6.132013056,1.000412016885282,14.461808213562408
6.140814336,1.000242148230916,14.213292560248947
6.149615104,1.0000595918288302,13.967087673490772
6.158415872,0.9998739425230373,13.723252630871336
6.16721664,0.9996953164703993,13.481852413745743
6.176017408,0.9995329687956485,13.242711073294355
6.184818688,0.9993957705751197,13.005476189227124
6.193619456,0.9992910022238078,12.769884313097654
6.202420224,0.9992242074835544,12.535398965320878
6.211220992,0.9991991533740374,12.30146122945918
6.22002176,0.9992172081791593,12.067596827495322
6.22882304,0.9992773001052453,11.83317698390478
6.237623808,0.9993763404363681,11.597671335910071
6.246424576,0.9995090661142871,11.360593017726233
6.255225344,0.9996684984397948,11.121509910128916
6.264026624,0.9998460322635992,10.880183037108537
6.272827392,1.0000322248063678,10.636382151077132
6.28162816,1.0002172032204928,10.390088437839253
6.290428928,1.0003911734750173,10.141391234301265
6.299229696,1.0005447497681734,9.890451145905114
6.308030976,1.0006697598748926,9.637639306137196
6.316831744,1.0007595536764995,9.383381907877503
6.325632512,1.0008092955716654,9.128146298711643
6.33443328,1.0008163738376028,8.872512157023777
6.34323456,1.0007802875432015,8.61703540382599
6.352035328,1.000702919385219,8.362236950548036
6.360836096,1.0005884668360048,8.108717916308402
6.369636864,1.0004427817299986,7.856875841705692
6.378437632,1.0002738245310832,7.607118414115976
6.387238912,1.0000902961859859,7.359605996935177
6.39603968,0.9999021774075735,7.114593312253418
6.404840448,0.9997194911513954,6.872028929785437
6.413641216,0.9995518857004787,6.631735974253493
6.422442496,0.9994083160566382,6.393500512233562
6.431243264,0.9992965089324055,6.156938121052256
6.440044032,0.999222475490036,5.921586552546193
6.4488448,0.999190230261745,5.686898555928574
6.457645568,0.9992014633361116,5.452348414985089
6.466446848,0.9992557068611163,5.217350780651876
6.475247616,0.9993499369831764,4.981296846516367
6.484048384,0.9994794073388422,4.743748558038826
6.492849152,0.999637028009479,4.504245830045595
6.50164992,0.9998145233796301,4.262497046800125
6.5104512,1.0000024052662186,4.018258642840512
6.519251968,1.0001907051555066,3.771517435929556
6.528052736,1.0003693537178386,3.5222570093610295
6.536853504,1.0005286886756861,3.2707274623255533
6.545654784,1.0006604650156719,3.017230430259757
6.554455552,1.0007576567813665,2.76219704488366
6.56325632,1.0008146952212578,2.506103545094259
6.572057088,1.0008288334989774,2.249493443476116
6.580857856,1.0007993086337403,1.9929258263275502
6.589659136,1.0007274713714425,1.7370119305389493
6.598459904,1.0006171120049454,1.4822598080298908
6.607260672,1.0004741233784966,1.229180491107756
6.61606144,1.0003060886225037,0.9781014433652904
6.62486272,1.0001219180253011,0.7293482915263668
6.633663488,0.9999313465974284,0.48304227477056993
6.642464256,0.9997447838834872,0.2392122816536652
6.651265024,0.9995717413976015,-0.002249387056261361
6.660065792,0.9994218350727226,-0.24154598754857826
6.668867072,0.9993029355773787,-0.4791297422903555
6.67766784,0.9992214313110567,-0.7154045416628018
6.686468608,0.9991816557819386,-0.9508715039793177
6.695269376,0.9991859334985691,-1.1861630143053343
6.704070656,0.9992340282267715,-1.4217638014313365
6.712871424,0.9993232800212052,-1.6583890337172267
6.721672192,0.9994492047482452,-1.8964332097072296
6.73047296,0.9996048149428629,-2.136387915226493
6.739273728,0.9997821059840721,-2.3786215592893867
6.748075008,0.9999714641227158,-2.6232921265740146
6.756875776,1.0001629630339142,-2.8705560035941144
6.765676544,1.0003461876761974,-3.120321949500277
6.774477312,1.000511614016616,-3.3724675861438747
6.78327808,1.0006502461467848,-3.62663203722634
6.79207936,1.0007547153349472,-3.882518111761375
6.800880128,1.0008193943585226,-4.13953868619027
6.809680896,1.0008409124580984,-4.397151542671128
6.818481664,1.0008181278376687,-4.6547844498232855
6.827282944,1.0007519655311434,-4.911932008302071
6.836083712,1.0006461228695152,-5.167900699846802
6.84488448,1.0005060606083764,-5.4222870367243745
6.853685248,1.0003392868321797,-5.6746925182080385
6.862486016,1.00015448742706,-5.924800404359837
6.871287296,0.999961720580185,-6.172427018086757
6.880088064,0.9997711333423979,-6.417511303078395
6.888888832,0.9995928344159462,-6.660234891640955
6.8976896,0.9994363972739393,-6.900715603756233
6.90649088,0.99931018097053,-7.139340195034886
6.915291648,0.9992210535483153,-7.376547030854518
6.924092416,0.999173695258246,-7.612856689681937
6.932893184,0.9991707100417717,-7.848883792359065
6.941693952,0.9992123667518595,-8.085221311878202
6.950495232,0.9992963941383606,-8.32241289097283
6.959296,0.9994184544606649,-8.560981749088118
6.968096768,0.9995718933552888,-8.801454265775249
6.976897536,0.999748680677518,-9.044157056402604
6.985698816,0.9999393749486677,-9.289316379733952
6.994499584,1.000133880907881,-9.537083702952167
7.003300352,1.0003218727027774,-9.787445793905583
7.01210112,1.0004932439772738,-10.040195992651705
7.020901888,1.0006388589254582,-10.29513819821277
7.029703168,1.0007508937472125,-10.551799227928614
7.038503936,1.000823426583124,-10.809747074859859
7.047304704,1.0008526335474817,-11.068393264263682
7.056105472,1.0008367865107604,-11.32719888095636
7.06490624,1.0007767621982464,-11.585536852878642
7.07370752,1.0006756281049796,-11.842800847990542
7.082508288,1.0005387117166387,-12.098564556878895
7.091309056,1.0003733821381922,-12.352342913664557
7.100109824,1.0001883578753143,-12.603839379161423
7.108911104,0.9999934219014732,-12.852853660358427
7.117711872,0.9997988785246968,-13.099272598876011
7.12651264,0.999615307857437,-13.343238674070241
7.135313408,0.9994524104421907,-13.584925800645973
7.144114176,0.9993187424884424,-13.824690627318597
7.152915456,0.9992217198869169,-14.06291917631429
7.161716224,0.9991664269950882,-14.300145503471613
7.170516992,0.9991559772607825,-14.536986338374122
7.17931776,0.999190841590213,-14.774031067856502
7.18811904,0.999269318769061,-15.011841761549698
7.196919808,0.9993871083646756,-15.250997577862112
7.205720576,0.9995381758700133,-15.49196802745629
7.214521344,0.9997143097097417,-15.735171370150596
7.223322112,0.9999063144211349,-15.980834985805412
7.232123392,1.0001036775254772,-16.229177418002156
7.24092416,1.0002963086072885,-16.480097728265058
7.249724928,1.0004735860264622,-16.73353920128476
7.258525696,1.0006262779533277,-16.989228471715887
7.267326976,1.0007460757603093,-17.246730878429442
7.276127744,1.000826718954762,-17.50563182024605
7.284928512,1.0008637275206382,-17.765340102274703
7.29372928,1.0008551124494103,-18.02530048869565
7.302530048,1.0008014966094327,-18.284878441203368
7.311331328,1.000705399961082,-18.543508032373172
7.320132096,1.0005720578225112,-18.8006737412413
7.328932864,1.0004083409855848,-19.055859894298287
7.337733632,1.0002230831191798,-19.308807823754737
7.3465344,1.0000261464893554,-19.55926468788901
7.35533568,0.9998278662837305,-19.807104641082752
7.364136448,0.9996389353377987,-20.052392061908037
7.372937216,0.9994694673603655,-20.295362876696522
7.381737984,0.9993281727941474,-20.536260440861902
7.390539264,0.9992231123596119,-20.775556881063245
7.399340032,0.9991597037274079,-21.013748990331152
7.4081408,0.9991414782577788,-21.251452874837092
7.416941568,0.9991692883609562,-21.48922842752362
7.425742336,0.99924192711149,-21.727683647693517
7.434543616,0.9993552831256384,-21.967472933739888
7.443344384,0.9995034435711844,-22.209027765982658
7.452145152,0.9996787800269431,-22.452725155557655
7.46094592,0.9998718350129727,-22.698947683407138
7.4697472,1.000072200521684,-22.947801424662558
7.478547968,1.000269266739602,-23.19935307734838
7.487348736,1.0004525955095385,-23.453459017528132
7.496149504,1.000612482538861,-23.70994316658499
7.504950272,1.000740207083993,-23.968328088811134
7.513751552,1.0008290464575393,-24.228203207321904
7.52255232,1.0008742656673133,-24.489020436893956
7.531353088,1.000873429209027,-24.750169956132748
7.540153856,1.000826451365512,-25.01106705115759
7.548955136,1.000735651911698,-25.27109834167631
7.557755904,1.0006060595603838,-25.529679649723235
7.566556672,1.000444314352091,-25.786387201009255
7.57535744,1.000259315297149,-26.040821409919477
7.584158208,1.000060343956879,-26.29273176203984
7.592959488,0.9998583120843364,-26.542030327109728
7.601760256,0.9996641967220322,-26.788733917002148
7.610561024,0.9994878846843571,-27.032980216729715
7.619361792,0.9993390537521051,-27.27512976102635
7.628163072,0.9992257319986764,-27.515524927615736
7.63696384,0.9991538795500707,-27.75475550458903
7.645764608,0.9991273944505261,-27.993346359285475
7.654565376,0.999147899602229,-28.231913044291048
7.663366144,0.9992142262045608,-28.47111339418442
7.672167424,0.9993227069096332,-28.71152313405368
7.680968192,0.9994680940703606,-28.9536380691204
7.68976896,0.9996422398799101,-29.197911543181405
7.698569728,0.9998359978523061,-29.44467456667904
7.707370496,1.000039133906039,-29.69414668255473
7.716171776,1.000240817171829,-29.946319670865673
7.724972544,1.0004302449443128,-30.201144424134448
7.733773312,1.0005972926714304,-30.45837412293166
7.74257408,1.0007331745311716,-30.717695346250952
7.75137536,1.0008305859763584,-30.978577252540735
7.760176128,1.0008843327040235,-31.240502112830924
7.768976896,1.0008912548738937,-31.5029289926873
7.777777664,1.0008513564509434,-31.76514998729806
7.786578432,1.0007663176197377,-32.02657397481887
7.795379712,1.0006407753437159,-32.28666326463581
7.80418048,1.0004813077312564,-32.54487429175135
7.812981248,1.000296472285227,-32.800885042929345
7.821782016,1.0000960021145626,-33.054344857494556
7.830583296,0.9998904002092449,-33.30517408703435
7.839384064,0.9996907432607482,-33.55330865344058
7.848184832,0.9995078223759278,-33.79895085065685
7.8569856,0.9993511486426516,-34.042373433853065
7.865786368,0.9992293667202907,-34.28396009882701
7.874587648,0.9991488188923794,-34.52425252274794
7.883388416,0.9991138666342996,-34.76380121109267
7.892189184,0.9991265320059093,-35.00321567977334
7.900989952,0.9991862699521957,-35.24316463965218
7.909791232,0.9992897995283228,-35.48421041026442
7.918592,0.9994317328430713,-35.72695302572889
7.927392768,0.9996044457120908,-35.97182344945446
7.936193536,0.9997987978777751,-36.21917653176843
7.944994304,1.0000046270091045,-36.46922435999579
7.953795584,1.0002108361264566,-36.72208305474355
7.962596352,1.0004062458257035,-36.97763774059786
7.97139712,1.000580675354747,-37.23569365547871
7.980197888,1.0007250474437248,-37.49589590973405
7.988998656,1.0008311644060317,-37.75785606725489
7.997799936,1.0008935941078352,-38.02093584367413
8.006600704,1.0009088927095948,-38.28459108901147
8.015401472,1.0008762601257284,-38.548183421546845
8.02420224,1.0007974411677418,-38.811097330722895
8.03300352,1.0006763044309777,-39.072716871483436
8.041804288,1.0005194456023145,-39.33253992646541
8.050605056,1.0003350611630477,-39.59016810980109
8.059405824,1.0001329848287828,-39.845229499665706
8.068206592,0.9999239055795771,-40.097598131065574
8.077007872,0.9997190423177235,-40.34727502041787
8.08580864,0.9995291475191251,-40.594380852450506
8.094609408,0.9993645249298757,-40.83911322253347
8.103410176,0.9992339473031249,-41.08197083773295
8.112211456,0.9991442459094123,-41.32335416570534
8.121012224,0.9991007075161127,-41.563879230049814
8.129812992,0.9991052972675587,-41.80420403681091
8.13861376,0.9991580192860251,-42.04494442043798
8.147414528,0.9992560199296524,-42.28672222256257
8.156215808,0.9993943306939903,-42.530083342039845
8.165016576,0.9995652713270027,-42.77559571970988
8.173817344,0.9997601224733139,-43.02354418208264
8.182618112,0.9999684036258853,-43.2742234635309
8.191419392,1.0001789000617283,-43.527729626531936
8.20022016,1.0003805722135115,-43.784030361666765
8.209020928,1.000562683476556,-44.04292678959655
8.217821696,1.000715437978536,-44.304099849607205
8.226622464,1.0008305647294387,-44.56707823034575
8.235423744,1.0009021317918374,-44.83133552097069
8.244224512,1.0009260991236775,-45.09632077682551
8.25302528,1.000901386863197,-45.361325038452456
8.261826048,1.0008288923679978,-45.62575023387918
8.270626816,1.0007125915058512,-45.88896039076989
8.279428096,1.0005585234453658,-46.15042558618765
8.288228864,1.0003750357212855,-46.40969218587098
8.297029632,1.000171519625805,-46.66647856875714
8.3058304,0.9999591329059626,-46.92048908745677
8.31463168,0.9997489100639102,-47.171744828571875
8.323432448,0.9995522001718264,-47.42032241735944
8.332233216,0.9993793513825548,-47.66652447039836
8.341033984,0.9992397464151674,-47.9106345965914
8.349834752,0.9991409441980509,-48.153219184688986
8.358636032,0.9990880826761505,-48.39477867194318
8.3674368,0.999084219211807,-48.63604213692763
8.376237568,0.9991296332416908,-48.877594763305325
8.385038336,0.9992217404449495,-49.12012348545203
8.393839616,0.9993558584997578,-49.36417228026427
8.402640384,0.999524893824048,-49.61028894824802
8.411441152,0.9997199327732564,-49.858882189518134
8.42024192,0.9999305196449022,-50.11021761912257
8.429042688,1.0001453821762574,-50.36443048779585
8.437843968,1.000353300271204,-50.621495344209656
8.446644736,1.0005429402616484,-50.88121739024394
8.455445504,1.0007044065712172,-51.14335173482726
8.464246272,1.0008288886126822,-51.40745574619169
8.473047552,1.0009098216831585,-51.67295719214062
8.48184832,1.000942929296927,-51.93923795662635
8.490649088,1.0009262546185467,-52.20569351256739
8.499449856,1.0008606865630654,-52.471679260926
8.508250624,1.0007496390633877,-52.7365573702942
8.517051904,1.0005987926539963,-52.99970731551794
8.525852672,1.0004163983240904,-53.2607055050792
8.53465344,1.0002118809563587,-53.519212543836005
8.543454208,0.9999960851076111,-53.77493820942101
8.552254976,0.9997806188098425,-54.027856355472586
8.561056256,0.9995768601843842,-54.278028714273695
8.569857024,0.9993957029954094,-54.52565248116412
8.578657792,0.9992469498043985,-54.77112668194094
8.58745856,0.9991385470980605,-55.01492001464251
8.59625984,0.999076228776268,-55.257628784276754
8.605060096,0.9990633872217961,-55.49988557032001
8.613861376,0.9991008777279355,-55.74232482791675
8.622662656,0.9991868368156863,-55.98559519164158
8.631462912,0.9993165395627507,-56.23038152820191
8.640264192,0.9994832457566168,-56.477156999458415
8.649064448,0.9996780684481991,-56.72640841778739
8.657865728,0.9998907909410152,-56.97839217171938
8.666667008,1.0001100110454817,-57.23331143401672
8.675467264,1.0003240186130724,-57.4911484308445
8.684268544,1.0005214588240123,-57.751757190105785
8.6930688,1.000691777500753,-58.01490150869094
8.70187008,1.000825994596822,-58.28009446417157
8.71067136,1.0009168421274384,-58.54680911106478
8.719471616,1.000959292976198,-58.81450310404378
8.728272896,1.0009512945833652,-59.08245799427088
8.737074176,1.0008930962573692,-59.35004011590051
8.745874432,1.0007875829620068,-59.616600291880644
8.754675712,1.0006403321740385,-59.881511386878316
8.763475968,1.000459317958836,-60.14431169898469
8.772277248,1.0002537576550197,-60.40461087318146
8.781078528,1.000034911580583,-60.66212868360945
8.789878784,0.9998142431602465,-60.91675363746626
8.798680064,0.9996035694844544,-61.168541802063345
8.80748032,0.999413905546197,-61.41770978815053
8.8162816,0.9992556153139893,-61.6646195383619
8.82508288,0.9991371130809081,-61.909736118763696
8.833883136,0.9990648743757452,-62.15359661022887
8.842684416,0.9990428134801626,-62.39683933536585
8.851484672,0.9990719835320293,-62.64022187283814
8.860285952,0.9991510435974645,-62.884329498135116
8.869087232,0.9992759845107133,-63.12984386440514
8.877887488,0.9994399972760216,-63.37734433099933
8.886688768,0.9996345123877527,-63.62723334671022
8.895490048,0.9998492525702821,-63.87991913885894
8.904290304,1.000072566691557,-64.13555211446729
8.913091584,1.0002927957871162,-64.39420758672246
8.92189184,1.0004981202566179,-64.65570165420004
8.93069312,1.0006776462322773,-64.9198406671695
8.9394944,1.0008217458106854,-65.18617384636363
8.948294656,1.0009227853478513,-65.45418259899719
8.957095936,1.0009752186346423,-65.72328664705417
8.965896192,1.0009763629437622,-65.99277934665396
8.974697472,1.0009257565706446,-66.2619931367136
8.983498752,1.0008264004703795,-66.53032281960905
8.992299008,1.0006832547737818,-66.79704369956501
9.001100288,1.0005039940418516,-67.06168187262499
9.009900544,1.000297919217245,-67.32383769335515
9.018701824,1.000075975648147,-67.58321283349797
9.027503104,0.9998501336455707,-67.83961130015108
9.03630336,0.9996321865022432,-68.09315277634222
9.04510464,0.9994339599950453,-68.34393716994823
9.053904896,0.9992658791076647,-68.59232851900262
9.062706176,0.9991371687820311,-68.83879082422348
9.071507456,0.9990544134961494,-69.08387199662536
9.080307712,0.9990224031172141,-69.32822843604382
9.089108992,0.9990429659886223,-69.57254845065536
9.097910272,0.9991147241991866,-69.81750655294658
9.106710528,0.9992343986240371,-70.0637907637723
9.115511808,0.9993953012796207,-70.31202287761994
9.124312064,0.9995890853938637,-70.56263910884789
9.133113344,0.9998054982967854,-70.81601546145714
9.141914624,1.0000328628332757,-71.07238644137992
9.15071488,1.0002593527906711,-71.33183528848242
9.15951616,1.000472706075768,-71.59427964656689
9.168316416,1.0006616786754252,-71.85942585471638
9.177117696,1.000816083252732,-72.12691208883619
9.185918976,1.0009277306485471,-72.39621027983613
9.194719232,1.0009905562695367,-72.66677000825734
9.203520512,1.0010011735950382,-72.93783978830025
9.212320768,1.0009590219342148,-73.20876111539734
9.221122048,1.00086621762291,-73.47885597845493
9.229923328,1.00072742764004,-73.74747052946016
9.238723584,1.000550167753391,-74.0140629130072
9.247524864,1.0003438242771883,-74.27813127324575
9.256326144,1.0001190828678626,-74.5394108623746
9.2651264,0.9998880676211306,-74.7977210869208
9.27392768,0.9996630958494275,-75.05302746026459
9.282727936,0.9994558746513778,-75.30549597667105
9.291529216,0.999277717226753,-75.5554364540525
9.300330496,0.999138219255646,-75.80333720725835
9.309130752,0.999044764229041,-76.04968511625673
9.317932032,0.9990024217684103,-76.29519395452202
9.326732288,0.9990135555206273,-76.54052468624757
9.335533568,0.9990777117998833,-76.78637075173414
9.344334848,0.9991914408248438,-77.03349382755533
9.353135104,0.9993488847259925,-77.28242973318983
9.361936384,0.9995416125924811,-77.53376605193262
9.37073664,0.9997594424246232,-77.78788527675091
9.37953792,0.9999909221156664,-78.04501439247522
9.3883392,1.0002235009024354,-78.30529776655219
9.397139456,1.000444971474493,-78.56865684186319
9.405940736,1.0006435625617596,-78.83486028469858
9.414740992,1.0008086224768244,-79.10353562147499
9.423542272,1.0009313203663257,-79.37417537168484
9.432343552,1.0010051253260743,-79.64617411817808
9.441143808,1.0010258192302317,-79.91886477051513
9.449945088,1.000992501931776,-80.19155296086322
9.458746368,1.0009067653128991,-80.46347998552687
9.467546624,1.000772998925882,-80.73404150989606
9.476347904,1.0005982583338862,-81.00261487400674
9.48514816,1.0003917662796116,-81.26869502586295
9.49394944,1.0001644781081946,-81.53196338170402
9.50275072,0.9999283528038174,-81.79220060595019
9.511550976,0.9996959996315563,-82.04937473451031
9.520352256,0.9994798321783694,-82.30362424249397
9.529152512,0.9992913831456693,-82.55519373995125
