freq,mag,phase
6.0,1.0002073620727345,32.20848502821538
6.002285568,1.0002423358646917,32.03953825524212
6.004571648,1.000261612515746,31.870122677131608
6.006857216,1.0002640695897511,31.700455796420975
6.009142784,1.0002498227787053,31.530789283296173
6.011428352,1.000219649753055,31.36136990566718
6.013714432,1.0001753872777135,31.192398484131843
6.016,1.000119954052351,31.024058351224944
6.018285568,1.0000565894465976,30.85650273408504
6.020571648,0.9999895010473693,30.689789601490578
6.022857216,0.9999229150357232,30.52398275039375
6.025142784,0.9998608136394695,30.359018071611885
6.027428352,0.9998073349164764,30.194793785042574
6.029714432,0.9997656962388971,30.03117888744664
6.032,0.999738651517261,29.86798180981478
6.034285568,0.9997278923043486,29.7049779672801
6.036571648,0.9997340482624523,29.541915043140435
6.038857216,0.9997567041696273,29.378554941658706
6.041142784,0.9997946399321768,29.214676894755137
6.043428352,0.9998453228604456,29.050081122409424
6.045714432,0.9999055470242342,28.884555676623634
6.048,0.9999715382053962,28.718071286321777
6.050285568,1.000039198019138,28.55051125126372
6.052571648,1.0001043394066884,28.381887732542477
6.054857216,1.0001626726475028,28.212300300357665
6.057142784,1.000210596481583,28.041849039806696
6.059428352,1.0002450604728994,27.87069333361497
6.061714432,1.000263995487481,27.69907166663118
6.064,1.0002660633638172,27.527203445682815
6.066285568,1.0002512895362616,27.35535179238596
6.068571648,1.0002204207403178,27.18373201705199
6.070857216,1.0001755019205512,27.012545636492888
6.073142784,1.0001192970096864,26.84202139440952
6.075428352,1.000055318045711,26.672283043304184
6.077714432,0.9999876388687442,26.50339424150579
6.08,0.9999204287575835,26.335395541158228
6.082285568,0.9998580609991161,26.168231150608335
6.084571648,0.9998043642122161,26.001829573975684
6.086857216,0.9997627801708564,25.836011566578907
6.089142784,0.9997359838282707,25.670614697337708
6.091428352,0.9997255163081643,25.505377726783205
6.093714432,0.9997321838016102,25.340080717164334
6.096,0.9997554163794543,25.17449160683223
6.098285568,0.9997940095457987,25.008326509024517
6.100571648,0.9998453007377708,24.84144643595413
6.102857216,0.9999062338351241,24.673657917214484
6.105142784,0.9999729217792966,24.504837060132793
6.107428352,1.0000411635501723,24.3349467901756
6.109714432,1.0001067336683118,24.163992926678
6.112,1.0001652679354633,23.9920360620177
6.114285568,1.000213348260128,23.81923262131615
6.116571648,1.000247860007012,23.64570387663862
6.118857216,1.000266481552924,23.47171967287811
6.121142784,1.000268310111419,23.297459663570546
6.123428352,1.0002529453812548,23.123210221221257
6.125714432,1.000221498930853,22.949198864602543
6.128,1.000175963972922,22.775657458710697
6.130285568,1.0001190131010673,22.602768654680798
6.132571648,1.0000544394123518,22.430645302216337
6.134857216,0.99998609724947,22.25937882529302
6.137142784,0.999918447880317,22.08900643489605
6.139428352,0.9998557197483717,21.919453985154277
6.141714432,0.9998017692304919,21.750686663826187
6.144,0.9997600964396698,21.582489498595752
6.146285568,0.9997333562636542,21.414688191042046
6.148571648,0.9997231304988708,21.247059788378504
6.150857216,0.9997301996166326,21.07936084388246
6.153142784,0.9997540494954404,20.911328541492477
6.155428352,0.9997931632830709,20.742751940834008
6.157714432,0.9998451545343884,20.573405966079562
6.16,0.9999067359548526,20.403133414033196
6.162285568,0.9999740170727907,20.23183385137939
6.164571648,1.0000429214332447,20.05942128367499
6.166857216,1.0001087970121516,19.885953581538196
6.169142784,1.0001677562702842,19.711467571350422
6.171428352,1.0002159508670507,19.536106824782287
6.173714432,1.000250483282822,19.3600484218125
6.176,1.0002690420926732,19.183476518647108
6.178285568,1.0002704507741684,19.006664094300202
6.180571648,1.0002546385947373,18.829856853658626
6.182857216,1.00022268655476,18.653291539572315
6.185142784,1.0001764055154765,18.477178133036034
6.187428352,1.0001188338583347,18.301698447423018
6.189714432,1.000053612100666,18.12702809273187
6.192,0.9999847514638508,17.953195956399338
6.194285568,0.9999166094077224,17.780263186239456
6.196571648,0.9998533660363786,17.60816262758272
6.198857216,0.999799180396641,17.43682350248107
6.201142784,0.9997574155252026,17.26607428967813
6.203428352,0.9997306558757603,17.095710068991703
6.205714432,0.9997206503112182,16.92549121013421
6.208,0.9997280480564793,16.755197328147965
6.210285568,0.999752330712803,16.584554373880763
6.212571648,0.9997920223536471,16.4133443097129
6.214857216,0.9998446790979519,16.241356195653722
6.217142784,0.9999069142102399,16.068440003713025
6.219428352,0.999974833564798,15.894446907809742
6.221714432,1.0000442305138804,15.719369336377252
6.224,1.0001106303036447,15.543204598135533
6.226285568,1.0001699096390495,15.366006784562872
6.228571648,1.0002183794694002,15.187920863409856
6.230857216,1.000252984485462,15.009112402316607
6.233142784,1.0002714603182326,14.829816866698957
6.235428352,1.0002726390380274,14.650263136737024
6.237714432,1.0002565565386627,14.470684437449068
6.24,1.000224075803246,14.291373403174942
6.242285568,1.000177209711686,14.112494052427058
6.244571648,1.0001191323146532,13.934275813053691
6.246857216,1.0000532059927263,13.756819695274233
6.249142784,0.999983714665154,13.580278499415906
6.251428352,0.9999150100511778,13.404567158291318
6.253714432,0.9998514347413643,13.229716350313414
6.256,0.9997969466649106,13.055635998685686
6.258285568,0.9997548858094383,12.882109599460438
6.260571648,0.9997282056167087,12.708983687670322
6.262857216,0.9997182212099269,12.536006516096913
6.265142784,0.9997258652888551,12.362924854171569
6.267428352,0.9997505942566663,12.189500719577426
6.269714432,0.9997907764221191,12.015484379912806
6.272,0.9998438758489301,11.840662728702936
6.274285568,0.9999068572492532,11.66490588972635
6.276571648,0.9999753207061555,11.488083321093463
6.278857216,1.0000453138836143,11.310128870818785
6.281142784,1.0001122052305527,11.131071870110645
6.283428352,1.0001719611750537,10.950955039280117
6.285714432,1.0002207230574574,10.769964662082604
6.288,1.0002554440945624,10.58824802494564
6.290285568,1.0002739393603928,10.406002268576824
6.292571648,1.0002750410051326,10.223509864656728
6.294857216,1.000258676134952,10.040996398110368
6.297142784,1.00022571872275,9.858737228437592
6.299428352,1.000178510183683,9.676912921763863
6.301714432,1.0001197114297096,9.495746513326921
6.304,1.0000532046454729,9.315358567500143
6.306285568,0.9999830660645901,9.13584371561092
6.308571648,0.9999138249146199,8.957230505185972
6.310857216,0.9998496590959399,8.779444972792652
6.313142784,0.9997948252542717,8.6023940133374
6.315428352,0.9997525766417531,8.425940973931763
6.317714432,0.9997256913081494,8.249846945990068
6.32,0.9997158123561457,8.073906168731304
6.322285568,0.999723613210855,7.897867781717052
6.324571648,0.9997486116534415,7.721452907539416
6.326857216,0.9997893376728323,7.54444892139792
6.329142784,0.9998429437334686,7.366623504515706
6.331428352,0.99990639772676,7.187853399869958
6.333714432,0.9999755246591185,7.007971153042897
6.336,1.0000460394497381,6.826965140720963
6.338285568,1.0001135521843556,6.644826047586359
6.340571648,1.0001737951499903,6.4616620742134625
6.342857216,1.000222891065214,6.277543781004815
6.345142784,1.0002578997513851,6.092728200346134
6.347428352,1.0002764659370431,5.907361531939431
6.349714432,1.0002774852857899,5.721740296307885
6.352,1.000260903648682,5.536113173535644
6.354285568,1.000227635249858,5.350697137242149
6.356571648,1.0001799057271736,5.165738394512606
6.358857216,1.0001206797519628,4.981417931963819
6.361142784,1.0000535746477435,4.797902843690499
6.363428352,0.9999829047172059,4.6152478203901826
6.365714432,0.999913003875109,4.433490099323616
6.368,0.9998482922493352,4.252558420120558
6.370285568,0.9997929414291243,4.072363990706188
6.372571648,0.9997503678782186,3.892771832301977
6.374857216,0.999723239130763,3.7135414721788993
6.377142784,0.9997132752431853,3.5344477100703364
6.379428352,0.9997211588373258,3.3552541882828653
6.381714432,0.9997463720368002,3.175664042604136
6.384,0.999787304479509,2.9954840490424686
6.386285568,0.9998414655362603,2.81448636749416
6.388571648,0.9999054300327441,2.6324765141886117
6.390857216,0.9999752666130426,2.4493986509034134
6.393142784,1.000046367676847,2.2651445746453014
6.395428352,1.0001144933320107,2.0797655482329516
6.397714432,1.00017521064521,1.8933028919919002
6.4,1.0002247963239865,1.7059140033687161
6.402285568,1.000260101111682,1.5177820745337813
6.404571648,1.0002787832860216,1.329124745554878
6.406857216,1.0002798259418766,1.1401701754086684
6.409142784,1.00026313007735,0.9512066426011879
6.411428352,1.0002297095334693,0.7624718676764143
6.413714432,1.0001817098046288,0.5741783523034933
6.416,1.0001219412229536,0.3865355668643457
6.418285568,1.0000542345131302,0.19969263272041998
6.420571648,0.9999829220050436,0.013688435757242164
6.422857216,0.9999123861481708,-0.17142299410073716
6.425142784,0.9998471274422612,-0.3556832641118528
6.427428352,0.9997911906355391,-0.5391988300505065
6.429714432,0.999748181639332,-0.7221346134644062
6.432,0.9997207981069075,-0.9046819208799132
6.434285568,0.9997106188414494,-1.0871209542825517
6.436571648,0.9997184283137709,-1.2696717910202386
6.438857216,0.9997437748514512,-1.45261200318234
6.441142784,0.9997850487204807,-1.6361623797704459
6.443428352,0.9998396160123246,-1.8205422944283287
6.445714432,0.9999041395772869,-2.0059103131534473
6.448,0.9999744166712562,-2.192414984935108
6.450285568,1.0000461933322413,-2.3800884392386576
6.452571648,1.0001149454917846,-2.5689144184227284
6.454857216,1.000176388983733,-2.758813484649692
6.457142784,1.0002265529057577,-2.949679125247529
6.459428352,1.0002622298345818,-3.1412956899980555
6.461714432,1.0002812595622568,-3.3334727807069724
6.464,1.0002825054898319,-3.525905135661995
6.466285568,1.0002658525506671,-3.7184105419192317
6.468571648,1.0002322417733196,-3.9106774641893516
6.470857216,1.0001837925736112,-4.1024872994015436
6.473142784,1.0001235961674702,-4.293671397839586
6.475428352,1.0000554201633833,-4.484057984852209
6.477714432,0.9999835037032,-4.673579543197113
6.48,0.9999123318069094,-4.862220527629561
6.482285568,0.9998464412881344,-5.04999766772285
6.484571648,0.9997899237727262,-5.237054813089195
6.486857216,0.9997464092566951,-5.4235230159392085
6.489142784,0.9997185022854951,-5.609613384266768
6.491428352,0.9997080597805901,-5.795559053463575
6.493714432,0.9997157601402964,-5.981671738839896
6.496,0.9997411803456929,-6.168117416875523
6.498285568,0.9997825151819755,-6.355226072777363
6.500571648,0.9998374943489933,-6.543178226480546
6.502857216,0.9999024016509752,-6.73213257500095
6.505142784,0.9999733572884588,-6.922211982401704
6.507428352,1.0000458048724508,-7.113493524732014
6.509714432,1.000115301856767,-7.305938760958945
6.512,1.0001772407811902,-7.499470478392226
6.514285568,1.0002280073075231,-7.693984526030272
6.516571648,1.0002642275687466,-7.889290159064851
6.518857216,1.0002837262934736,-8.085142759692843
6.521142784,1.0002852975876648,-8.281301329908805
6.523428352,1.0002687222434097,-8.477487637422838
6.525714432,1.0002351218255305,-8.673454508106722
6.528,1.0001864907597915,-8.869008574996357
6.530285568,1.0001258052758817,-9.063912575531669
6.532571648,1.0000571483286864,-9.258038760566183
6.534857216,0.9999846259431833,-9.451274620787887
6.537142784,0.9999127419385377,-9.643647465664701
6.539428352,0.999846063144884,-9.835159720360522
6.541714432,0.999788841311578,-10.025923608877909
6.544,0.9997446711938742,-10.216100297767225
6.546285568,0.9997162070143094,-10.405921055601734
6.548571648,0.9997053337312434,-10.595585755875463
6.550857216,0.9997128179821464,-10.785398591159515
6.553142784,0.9997380540705646,-10.975577407071237
6.555428352,0.9997795875691761,-11.166414189004287
6.557714432,0.9998347138920416,-11.358103036853942
6.56,0.9999001811973609,-11.550826967388092
6.562285568,0.9999716696008658,-11.744666100142396
6.564571648,1.0000447330113924,-11.939730114948466
6.566857216,1.0001148491757952,-12.13597454193361
6.569142784,1.0001776368287516,-12.333333970574344
6.571428352,1.0002290490344181,-12.53167918788789
6.573714432,1.0002660582554896,-12.7308252683502
6.576,1.0002860528050852,-12.93055228185121
6.578285568,1.0002880172497597,-13.13058191186134
6.580571648,1.0002716326282761,-13.330673724973773
6.582857216,1.0002381216093432,-13.530560224970674
6.585142784,1.000189345225167,-13.730008727764732
6.587428352,1.0001283519711253,-13.92883148805264
6.589714432,1.0000591854368277,-14.126865456434768
6.592,0.9999859869194033,-14.324030356635122
6.594285568,0.9999135644747318,-14.520312620952934
6.596571648,0.9998460881043479,-14.715717636165882
6.598857216,0.9997881242372996,-14.910385509828863
6.601142784,0.9997430965430182,-15.10449134312158
6.603428352,0.9997140812405018,-15.29819068602858
6.605714432,0.9997026258312381,-15.491773265848918
6.608,0.9997097389007183,-15.685454016468679
6.610285568,0.9997347425948924,-15.87957129723795
6.612571648,0.9997761991503847,-16.07430895997574
6.614857216,0.9998315334417586,-16.269900155998357
6.617142784,0.9998973921005859,-16.466526450928892
6.619428352,0.9999693941846013,-16.664333351170985
6.621714432,1.0000431869383917,-16.863350418763602
6.624,1.0001140764900711,-17.06356866753243
6.626285568,1.0001777328809114,-17.26491211831577
6.628571648,1.0002299439281903,-17.46726482486233
6.630857216,1.0002678243240821,-17.670443115217775
6.633142784,1.0002885474947694,-17.87420651661631
6.635428352,1.0002909806035658,-18.078305761575447
6.637714432,1.0002749841831,-18.28246901434863
6.64,1.0002415843096892,-18.486431540108768
6.642285568,1.000192780125986,-18.689976055538036
6.644571648,1.0001316219155911,-18.892910594368924
6.646857216,1.0000620342496584,-19.095036748526613
6.649142784,0.9999881737355767,-19.29629188617663
6.651428352,0.999914823936834,-19.4966729737756
6.653714432,0.9998465935812486,-19.69618571566296
6.656,0.9997877030780443,-19.894950980375924
6.658285568,0.999741797327461,-20.093100791648844
6.660571648,0.999711884002901,-20.290896860250157
6.662857216,0.9996997836659169,-20.488543274945453
6.665142784,0.999706302463615,-20.686313193725585
6.667428352,0.9997310059001728,-20.884483935586605
6.669714432,0.9997724636889241,-21.083288886639867
6.672,0.9998278732594624,-21.282977930750135
6.674285568,0.9998939178872643,-21.483700490682452
6.676571648,0.9999664454032215,-21.685593600432842
6.678857216,1.0000409499466232,-21.888723784505128
6.681142784,1.0001127693157412,-22.093063985420287
6.683428352,1.0001772884811444,-22.29857138385122
6.685714432,1.0002304688017165,-22.505100797351485
6.688,1.0002691102041619,-22.712471092636726
6.690285568,1.0002906878888844,-22.920443879777746
6.692571648,1.0002938605916003,-23.12876742460108
6.694857216,1.0002784140616416,-23.33715989283654
6.697142784,1.0002453832829796,-23.545410938361332
6.699428352,1.0001965533336699,-23.75321069264035
6.701714432,1.0001352632531626,-23.960407887282294
6.704,1.0000652466748188,-24.166820373174907
6.706285568,0.9999908670907914,-24.372348328715923
6.708571648,0.9999167186069428,-24.576994190175995
6.710857216,0.9998475376295465,-24.7807659796437
6.713142784,0.999787692612944,-24.983800175225987
6.715428352,0.9997408093329835,-25.18620723907415
6.717714432,0.9997099128621814,-25.388249824760138
6.72,0.9996969686921903,-25.590116774622892
6.722285568,0.9997028134923724,-25.792122776361253
6.724571648,0.9997270025727067,-25.99450769946861
6.726857216,0.9997682128063851,-26.19756484425337
6.729142784,0.9998236556983102,-26.40145687741329
6.731428352,0.9998898930024854,-26.606437300532455
6.733714432,0.9999629510550834,-26.812573111263795
6.736,1.000038225360228,-27.019959323039814
6.738285568,1.0001108234685656,-27.228592686109874
6.740571648,1.0001763451159387,-27.438417205852343
6.742857216,1.0002306772221417,-27.649281143110457
6.745142784,1.0002703242777389,-27.860976011222473
6.747428352,1.0002928973318927,-28.073326803126015
6.749714432,1.0002969206668917,-28.28603226447122
6.752,1.0002820978932379,-28.498846604007017
6.754285568,1.0002494313761205,-28.711489310149066
6.756571648,1.000200837448759,-28.923717922247977
6.758857216,1.0001394833905126,-29.13533227041723
6.761142784,1.0000690677964472,-29.34618891456178
6.763428352,0.9999940710197734,-29.556161652066503
6.765714432,0.9999191411466309,-29.765243661223252
6.768,0.9998490000220744,-29.9734453164511
6.770285568,0.9997879413891062,-30.18086640697259
6.772571648,0.9997399261284409,-30.38769638543152
6.774857216,0.9997079817589594,-30.594126936475824
6.777142784,0.9996941457748955,-30.800380775116047
6.779428352,0.999699062415894,-31.006772735205107
6.781714432,0.9997226007146253,-31.213522977583793
6.784,0.9997634402619704,-31.420931381780562
6.786285568,0.9998187795356099,-31.629225472074438
6.788571648,0.9998852808650729,-31.83854767676912
6.790857216,0.9999588115208985,-32.04908918823681
6.793142784,1.000034752268272,-32.26087428328052
6.795428352,1.0001082909887422,-32.47393854737285
6.797714432,1.0001749291151127,-32.68819704258287
6.8,1.0002304267718531,-32.90350562448078
6.802285568,1.0002713532980325,-33.119704596160766
6.804571648,1.000295040490555,-33.33653354631605
6.806857216,1.000300072350544,-33.553749886209545
6.809142784,1.0002861080406913,-33.771117963592225
6.811428352,1.0002540069281127,-33.98830835113992
6.813714432,1.0002057848911514,-34.20513226048078
6.816,1.0001443813202173,-34.42132354361651
6.818285568,1.0000737285137349,-34.63674971805344
6.820571648,0.9999981020828594,-34.85131791875932
6.822857216,0.9999223247392821,-35.06495439032301
6.825142784,0.999851085138135,-35.27771969719013
6.827428352,0.9997890251842275,-35.48970649653236
6.829714432,0.9997397268370234,-35.701069191376085
6.832,0.999706503153423,-35.91203949755569
6.834285568,0.9996914472233815,-36.12281532647561
6.836571648,0.9996953766704407,-36.33369118506872
6.838857216,0.999718114540977,-36.54494684809623
6.841142784,0.9997583894143481,-36.75685248545285
6.843428352,0.9998134860849319,-36.96963774402666
6.845714432,0.9998801728279132,-37.1834738878096
6.848,0.9999541394790554,-37.398506798395864
6.850285568,1.0000308027689642,-37.614817974350444
6.852571648,1.0001053425577504,-37.832418038664976
6.854857216,1.000173177843266,-38.05121167236386
6.857142784,1.0002298931829845,-38.271077422637624
6.859428352,1.000272177660006,-38.49188104743925
6.861714432,1.0002971842976283,-38.71334157543714
6.864,1.0003034358829554,-38.93522354054247
6.866285568,1.0002905369345725,-39.15724382166766
6.868571648,1.0002592044790921,-39.37911671835945
6.870857216,1.0002113397283652,-39.60061121631677
6.873142784,1.0001500694973944,-39.82150850590046
6.875428352,1.000079121262748,-40.04165319175771
6.877714432,1.0000029464797628,-40.26091190782977
6.88,0.999926325117894,-40.47925064593397
6.882285568,0.9998540624582933,-40.69670151044185
6.884571648,0.9997905282378454,-40.913377721370466
6.886857216,0.9997398590870823,-41.12939735464437
6.889142784,0.9997052480469596,-41.344992363125414
6.891428352,0.9996887670961018,-41.560392722541906
6.893714432,0.9996915131583505,-41.77589343860201
6.896,0.9997133770758788,-41.99176290222075
6.898285568,0.9997529028121008,-42.2082510680874
6.900571648,0.9998076437142381,-42.4256136050266
6.902857216,0.9998743887258832,-42.64403615917016
6.905142784,0.9999487431109124,-42.86366098576131
6.907428352,1.0000260549131983,-43.08456596350911
6.909714432,1.0001016718085778,-43.30679685374956
6.912,1.0001706489422018,-43.5302413834616
6.914285568,1.0002288604208316,-43.75477845717362
6.916571648,1.0002726654441951,-43.98025278594985
6.918857216,1.0002991184106333,-44.20642382964893
6.921142784,1.0003068105352375,-44.433040332596505
6.923428352,1.0002950242375428,-44.65981891599443
6.925714432,1.000264563789205,-44.886462615941674
6.928,1.0002173321118306,-45.112750849636235
6.930285568,1.000156349412299,-45.33846083672153
