freq,mag,phase
6.0,1.0009371891363803,4.932058521581415
6.008130048,1.0009935200347213,4.666913775305526
6.016260096,1.000997090994346,4.4012670216036724
6.024390144,1.0009468763267892,4.13586043990739
6.032520192,1.0008456508939685,3.8714229079440745
6.04065024,1.0006986487420635,3.6085906572688384
6.048780288,1.0005138666534594,3.3478762280148233
6.056910336,1.0003014390118279,3.0897753855027306
6.065040896,1.000072579352658,2.8345669549203407
6.073170944,0.9998398423904233,2.582380936237113
6.081300992,0.9996157050314471,2.3332151757899284
6.08943104,0.9994125831735404,2.086877355660883
6.097561088,0.9992412910170774,1.8429783804631201
6.105691136,0.9991112933439626,1.6010531258909526
6.113821184,0.9990296739663141,1.3604501002374134
6.121951232,0.999000872126358,1.120582563706906
6.13008128,0.9990265822161072,0.8806425427674722
6.138211328,0.9991053121761904,0.6399751961871504
6.146341376,0.9992328962977329,0.39784022316358814
6.154471424,0.9994025378784743,0.15359683855269335
6.162601472,0.9996050098932716,-0.09315450596473768
6.17073152,0.9998291891681972,-0.34282401514868854
6.178861568,1.0000631055137768,-0.5956704907719115
6.186991616,1.0002940962623048,-0.8516993963520001
6.195122176,1.0005095265990842,-1.1107973997425045
6.203252224,1.000697733794377,-1.3726865764794072
6.211382272,1.0008485324057292,-1.6368817759351035
6.21951232,1.0009538260768551,-1.9028691236770143
6.227642368,1.0010076596728406,-2.1700279941357783
6.235772416,1.001007331126493,-2.4375833607741857
6.243902464,1.000952647769739,-2.7048647620033703
6.252032512,1.0008464335413776,-2.9710918596463394
6.26016256,1.000694614639471,-3.235742233674084
6.268292608,1.0005051761399224,-3.4981404773571763
6.276422656,1.0002884873926083,-3.757892077838189
6.284552704,1.0000560811998362,-4.014666377021608
6.292682752,0.9998206946876008,-4.2683868548829
6.3008128,0.9995950133852705,-4.519068822185616
6.308942848,0.9993913155270568,-4.7670016566028846
6.317073408,0.9992206428169617,-5.012413241226519
6.325203456,0.999092356865922,-5.255881150602585
6.333333504,0.9990133923950765,-5.498027343246568
6.341463552,0.9989881669747943,-5.739529427022258
6.3495936,0.9990180079117443,-5.981127107952752
6.357723648,0.9991015535467057,-6.223540777756448
6.365853696,0.9992340200346006,-6.4674706555473565
6.373983744,0.9994084986907831,-6.713533506883912
6.382113792,0.9996152702867883,-6.962238472439121
6.39024384,0.9998434977549285,-7.213930901121223
6.398373888,1.0000805610244485,-7.468819002580879
6.406503936,1.0003137474368327,-7.726925240802758
6.414633984,1.0005302799788913,-7.988128960971432
6.422764032,1.000718508096824,-8.252113986683932
6.43089408,1.000868330206626,-8.518422798641119
6.43902464,1.000971471082572,-8.786513805269292
6.447154688,1.0010222214770332,-9.055713715380028
6.455284736,1.0010179195243212,-9.325296898638529
6.463414784,1.000958795203242,-9.594518393632663
6.471544832,1.000847843988214,-9.862710194881906
6.47967488,1.0006912005969504,-10.12913403232215
6.487804928,1.0004971079766,-10.393324778034891
6.495934976,1.0002760659675374,-10.654802409581706
6.504065024,1.000040147783822,-10.913280900156732
6.512195072,0.9998019379858746,-11.16863423049034
6.52032512,0.9995744930718893,-11.420952351375746
6.528455168,0.999370089361101,-11.670440145992606
6.536585216,0.9991998782424685,-11.917445435019227
6.544715264,0.999073087543074,-12.162509760336865
6.552845312,0.9989966818343277,-12.406295661537134
6.56097536,0.9989748627539072,-12.649497447855788
6.56910592,0.9990089272655427,-12.892836749330025
6.577235968,0.9990969472421792,-13.137059694316488
6.585366016,0.999234367123453,-13.382860549345816
6.593496064,0.9994135833653887,-13.63084733898371
6.601626112,0.9996251003918513,-13.881549987204071
6.60975616,0.9998571602477523,-14.135288729257518
6.617886208,1.0000976183784591,-14.392270428700648
6.626016256,1.0003330957744094,-14.652561966439643
6.634146304,1.0005510274732943,-14.915908490764258
6.642276352,1.0007394371145804,-15.18207844795308
6.6504064,1.0008883358373528,-15.450601139195118
6.658536448,1.000989420443534,-15.720849964904874
6.666666496,1.0010373072337826,-15.992201463380239
6.674796544,1.0010293158482253,-16.2638675202743
6.682926592,1.0009657815023025,-16.535156956080247
6.691057152,1.0008501951141135,-16.8053247743317
6.6991872,1.000688607707932,-17.073680995249475
6.707317248,1.0004897505808117,-17.33972996904735
6.715447296,1.0002643919861542,-17.60302415167254
6.723577344,1.000024633325932,-17.8632879482202
6.731707392,0.9997836792374309,-18.120341169573965
6.73983744,0.9995542729693669,-18.374351853462315
6.747967488,0.9993489446424207,-18.62547123932266
6.756097536,0.9991790021538128,-18.8741520861722
6.764227584,0.9990535916833223,-19.12093466989467
6.772357632,0.9989796669303649,-19.366429137903104
6.78048768,0.9989611149909353,-19.611387367102854
6.788617728,0.9989991526605975,-19.85649950628993
6.796747776,0.9990918174587765,-20.1026092353682
6.804877824,0.9992340484996783,-20.35031770264129
6.813008384,0.9994180836785741,-20.600323705840754
6.821138432,0.9996341316042338,-20.853080461998687
6.82926848,0.9998703870073241,-21.108975638063047
6.837398528,1.000114194980376,-21.3681426929039
6.845528576,1.0003522544094332,-21.630589897408964
6.853658624,1.0005716503077573,-21.89618236567078
6.861788672,1.0007605692790627,-22.164660861125622
6.86991872,1.0009086401420533,-22.435400668683545
6.878048768,1.0010079328613521,-22.707948163598214
6.886178816,1.0010529929117002,-22.981471371553752
6.894308864,1.0010414244516483,-23.25533955490379
6.902438912,1.0009735258887629,-23.528777911986314
6.91056896,1.000853275556067,-23.80099912383388
6.918699008,1.0006868102165227,-24.071404796002557
6.926829056,1.00048319052848,-24.33942030184987
6.934959104,1.0002534661708893,-24.60458506132749
6.943089664,1.0000098486109334,-24.86665240966191
6.951219712,0.999765653847346,-25.125562309479843
6.95934976,0.9995341849018646,-25.381280118202387
6.967479808,0.9993277704901228,-25.634178274243933
6.975609856,0.9991579401999402,-25.884633191292167
6.983739904,0.9990336634428498,-26.13314655867336
6.991869952,0.9989619380863963,-26.38042679593481
7.0,0.9989465568075336,-26.627180583450365
7.008130048,0.9989886035239106,-26.874165393838567
7.016260096,0.999085765801452,-27.122188360977965
7.024390144,0.9992326710865933,-27.371929552587563
7.032520192,0.999421650798835,-27.623975424974848
7.04065024,0.9996424673367447,-27.878854195824854
7.048780288,0.9998829972093035,-28.136919042186598
7.056910336,1.0001303620955355,-28.398298472784745
7.065040896,1.0003709706630646,-28.66306124898063
7.073170944,1.000592124283621,-28.93102001114142
7.081300992,1.000781641920372,-29.20178041767682
7.08943104,1.0009293313397403,-29.47489221130579
7.097561088,1.00102693698204,-29.749741241266403
7.105691136,1.001069362417054,-30.02558657721415
7.113821184,1.0010542384957022,-30.301708549965895
7.121951232,1.0009822896762088,-30.577338748173297
7.13008128,1.000857253787942,-30.851742631930332
7.138211328,1.0006859598706153,-31.12422069356193
7.146341376,1.0004774634062261,-31.394302674928493
7.154471424,1.0002432112956914,-31.661425365428503
7.162601472,0.9999956593460138,-31.925412121186092
7.17073152,0.999748173160732,-32.18621113495152
7.178861568,0.9995143052376059,-32.443805646956115
7.186991616,0.999306712653197,-32.698514540281145
7.195122176,0.9991366466185011,-32.950761429121734
7.203252224,0.9990133572571139,-33.201121043836054
7.211382272,0.9989436616197008,-33.450217509837145
7.21951232,0.9989313167698145,-33.69885061121718
7.227642368,0.9989771681528588,-33.94778602212921
7.235772416,0.9990787327559213,-34.19781574292436
7.243902464,0.9992304788002464,-34.44956078825366
7.252032512,0.999424359401029,-34.70374643804145
7.26016256,0.9996498454535966,-34.96083473827027
7.268292608,0.9998947745223961,-35.2211110644366
7.276422656,1.0001458760785575,-35.48483451582109
7.284552704,1.0003893537035131,-35.75197147581358
7.292682752,1.0006125085035722,-36.02227651420698
7.3008128,1.000802890085973,-36.29546312848451
7.308942848,1.0009500945750425,-36.57097770698076
7.317073408,1.001046478833627,-36.84822559480868
7.325203456,1.001086449013535,-37.12646424029733
7.333333504,1.0010680221111719,-37.404921929500134
7.341463552,1.0009918754324783,-37.682868006980456
7.3495936,1.0008622601656125,-37.95950794852042
7.357723648,1.0006860544934169,-38.23419754955471
7.365853696,1.0004727133779299,-38.50637019955954
7.373983744,1.0002337300115325,-38.77554663466205
7.382113792,0.9999821020665224,-39.04157893067027
7.39024384,0.9997311364851906,-39.304296775469844
7.398373888,0.9994947351854759,-39.56381723790298
7.406503936,0.9992855194685751,-39.82043974451497
7.414633984,0.9991152822307315,-40.07453615774145
7.422764032,0.998992642137506,-40.32679328443329
7.43089408,0.9989247823512403,-40.57783152357447
7.43902464,0.9989151605727717,-40.82839102286635
7.447154688,0.998964828514284,-41.07929511197954
7.455284736,0.9990707284611584,-41.33138121244296
7.463414784,0.9992273084881939,-41.58525942508713
7.471544832,0.9994262126171352,-41.841593307651905
7.47967488,0.9996565998827674,-42.100913170040094
7.487804928,0.9999059153795343,-42.363544438698305
7.495934976,1.0001610704800945,-42.62961837018495
7.504065024,1.0004077373913294,-42.89913015562884
7.512195072,1.0006329384658281,-43.171958187226
7.52032512,1.0008244634241537,-43.4475578663022
7.528455168,1.0009716234243913,-43.72558501506014
7.536585216,1.001066810234853,-44.00531847360763
7.544715264,1.0011045302757395,-44.28603402513834
7.552845312,1.0010827124654547,-44.56694122064971
7.56097536,1.0010027160820796,-44.84723830125615
7.56910592,1.0008686127933895,-45.12620092243025
7.577235968,1.000687391872564,-45.4031874117429
7.585366016,1.0004690609781581,-45.67752329527175
7.593496064,1.0002251618436877,-45.94892810358378
7.601626112,0.9999690046783009,-46.21700641390638
7.60975616,0.9997145122803043,-46.481764360580485
7.617886208,0.9994753573411123,-46.743258548735454
7.626016256,0.9992643018504318,-47.00185942638915
7.634146304,0.9990931832460942,-47.257929334193136
7.642276352,0.9989711366772762,-47.5120970252462
7.6504064,0.9989048276323552,-47.765115764720754
7.658536448,0.9988981170630692,-48.017681131429306
7.666666496,0.9989512596072516,-48.27066934451357
7.674796544,0.9990614131416568,-48.52480328343921
7.682926592,0.9992227142834479,-48.780844651321594
7.691057152,0.9994266775945148,-49.03942653073287
7.6991872,0.9996619618949559,-49.30104317667314
7.707317248,0.9999161201622394,-49.56601196654442
7.715447296,1.0001754261066869,-49.834519607386135
7.723577344,1.0004254108940314,-50.10654153721578
7.731707392,1.0006531392338474,-50.38184069447519
7.73983744,1.0008459486607844,-50.66002607462786
7.747967488,1.0009934922598653,-50.94062021663267
7.756097536,1.0010876917666158,-51.22287653327385
7.764227584,1.001123377999662,-51.50613764587752
7.772357632,1.001098502229992,-51.78956962872685
7.78048768,1.0010145135854582,-52.072367676660555
7.788617728,1.000875884607768,-52.35374191523274
7.796747776,1.0006897931646104,-52.63302705214099
7.804877824,1.0004662861271283,-52.90970421594921
7.813008384,1.0002174989893577,-53.183279527934204
7.821138432,0.9999567707342102,-53.45355756493282
7.82926848,0.9996982782930979,-53.720407635031556
7.837398528,0.9994558633628483,-53.983991782670735
7.845528576,0.9992429072967537,-54.24460425827929
7.853658624,0.9990707425721052,-54.50271048519106
7.861788672,0.9989488803958778,-54.75888966543834
7.86991872,0.9988840430436225,-55.01392607002602
7.878048768,0.9988798793537782,-55.268548507070186
7.886178816,0.9989363425589652,-55.52359283893943
7.894308864,0.9990506910479309,-55.779907299748494
7.902438912,0.9992169681086184,-56.03813746374136
7.91056896,0.9994259909073093,-56.29900809607822
7.918699008,0.9996664480523915,-56.56294989372716
7.926829056,0.9999254381127345,-56.83036400837462
7.934959104,1.0001890568143557,-57.10135800519782
7.943089664,1.0004428863688601,-57.37589617801556
7.951219712,1.0006732992336995,-57.65378589524578
7.95934976,1.000867792861794,-57.93459508317023
7.967479808,1.0010158086502177,-58.21782455388876
7.975609856,1.001109360760849,-58.50271261842965
7.983739904,1.0011432247978902,-58.78859703584221
7.991869952,1.0011155341071278,-59.07459168531833
8.0,1.0010276537813223,-59.35994507878968
8.008130048,1.000884542393585,-59.64379614175823
8.016260096,1.0006935068367242,-59.92556636520341
8.024390144,1.0004647782724543,-60.20458159364201
8.032520192,1.0002109006708804,-60.480486418081625
8.04065024,0.999945471997573,-60.752979216016946
8.048780288,0.999682642919994,-61.02204221971929
8.056910336,0.9994369210923068,-61.28773287726631
8.065040896,0.9992214482610156,-61.550455917811625
8.073170944,0.999048023053118,-61.81060937600276
8.081300992,0.9989261074950594,-62.06888350427224
8.08943104,0.9988623973972527,-62.32597744589635
8.097561088,0.9988602203781631,-62.5827214531025
8.105691136,0.9989202154740894,-62.83992077038724
8.113821184,0.999038733669838,-63.09840257086978
8.121951232,0.9992098640278739,-63.35892045613653
8.13008128,0.9994240440836968,-63.62207654993956
8.138211328,0.9996697900288992,-63.88842805045052
8.146341376,0.9999339083217642,-64.1583066129859
8.154471424,1.000202179384319,-64.43182368270705
8.162601472,1.0004600595608624,-64.7089603067532
8.17073152,1.0006936117021805,-64.98948739291703
8.178861568,1.0008900726182512,-65.27298117932787
8.186991616,1.001038980594735,-65.55889122584715
8.195122176,1.0011320956575733,-65.84651438169544
8.203252224,1.0011644292053468,-66.13506785059053
8.211382272,1.0011340264629822,-66.423724255064
8.21951232,1.001042606345334,-66.71170833124388
8.227642368,1.0008948580063413,-66.99818805834587
8.235772416,1.0006987859972631,-67.28242282174178
8.243902464,1.0004648080604197,-67.56390760731296
8.252032512,1.0002054732490426,-67.84218911834634
8.26016256,0.9999349678682091,-68.11698340465249
8.268292608,0.9996676299313858,-68.38831682399095
8.276422656,0.9994182148040629,-68.65620678334987
8.284552704,0.9991999057745514,-68.92108109306923
8.292682752,0.9990248818926878,-69.18338368531965
8.3008128,0.9989025408483001,-69.44375150638488
8.308942848,0.9988395366602292,-69.70298473212414
8.317073408,0.9988395500961672,-69.96187670424428
8.325203456,0.998902594738958,-70.22124685926195
8.333333504,0.9990253163774663,-70.48192923669032
8.341463552,0.9992011023517037,-70.74474960804436
8.3495936,0.9994204158651153,-71.01028499445397
8.357723648,0.9996717745175019,-71.27907992327907
8.365853696,0.9999412890942257,-71.55144627662227
8.373983744,1.0002144984731232,-71.82754674337768
8.382113792,1.0004767095646856,-72.10732493184959
8.39024384,1.0007137201103375,-72.39053936805512
8.398373888,1.0009126136709292,-72.6767738716595
8.406503936,1.0010628151391503,-72.96540977597691
8.414633984,1.0011558709290405,-73.25582365167837
8.422764032,1.0011869174298589,-73.54714573879309
8.43089408,1.0011540525496423,-73.83858847791791
8.43902464,1.0010589047811076,-74.1292338518064
8.447154688,1.0009068264077856,-74.41836975042348
8.455284736,1.0007056133152947,-74.70520249511401
8.463414784,1.000466183907879,-74.98924183694639
8.471544832,1.0002013403206182,-75.26993872451241
8.47967488,0.9999255004957941,-75.54714893818088
8.487804928,0.999653344547532,-75.82078177476222
8.495934976,0.999399605211213,-76.0909403396967
8.504065024,0.9991783061641949,-76.35802036974287
8.512195072,0.9990012007077487,-76.62251154759859
8.52032512,0.9988780600496849,-76.88505953115065
8.528455168,0.9988156745709386,-77.1464276795322
8.536585216,0.9988174208585212,-77.40749822933198
8.544715264,0.9988833098481198,-77.66908397859997
8.552845312,0.9990100059717256,-77.93205090908279
8.56097536,0.9991905494960357,-78.19717108594683
8.56910592,0.9994153901267477,-78.46511805939211
8.577235968,0.9996723731960926,-78.73635926215746
8.585366016,0.9999475019621095,-79.01126949766987
8.593496064,1.000226071475794,-79.28998169694873
8.6016256,1.0004929949687003,-79.57246279812553
8.60975616,1.0007338430121884,-79.85839132744856
8.617885696,1.0009355787155174,-80.14742999463006
8.626016256,1.0010872289857204,-80.43890886158884
8.634146816,1.0011806331298585,-80.7321620186939
8.642276352,1.0012106219611798,-81.02630294682494
8.650406912,1.0011755747524704,-81.3205592461695
8.658536448,1.0010770791854624,-81.6139728980513
8.666667008,1.0009205130538532,-81.90583006068681
8.674796544,1.0007141280173557,-82.195380837926
8.682927104,1.0004690387570534,-82.48196547119117
8.69105664,1.0001984690433299,-82.76520905758609
8.6991872,0.9999169122564734,-83.04485435592015
8.707316736,0.9996394008629755,-83.3208816297353
8.715447296,0.9993812259593342,-83.59336866157798
8.723576832,0.999156251806385,-83.86270987043754
8.731707392,0.9989766402024822,-84.1294112888858
8.739836928,0.9988524201504657,-84.39416055560376
8.747967488,0.9987901703190344,-84.65772717107455
8.756098048,0.9987934521597878,-84.92101661078388
8.764227584,0.9988622650857393,-85.18483004098361
8.772358144,0.9989927938826989,-85.45006449527338
8.78048768,0.9991781833365531,-85.71756815552675
8.78861824,0.9994085462293664,-85.9878810187509
8.796747776,0.9996714090420314,-86.2616318320035
8.804878336,0.9999525152825801,-86.53910239971488
8.813007872,1.0002367100331808,-86.8204632460714
8.821138432,1.0005087187022095,-87.10565031737416
8.829267968,1.0007539129738119,-87.39439658036257
8.837398528,1.00095896853374,-87.68626391551062
8.845528064,1.001112620275582,-87.98063507052835
8.853658624,1.0012066861878333,-88.27674906589456
8.86178816,1.0012360685925166,-88.57379970237439
8.86991872,1.0011988448255895,-88.8709361853453
8.87804928,1.0010972073447812,-89.16721950326779
8.886178816,1.0009361912305788,-89.46186390607775
8.894309376,1.0007247092261344,-89.75411616557498
8.902438912,1.0004737862593025,-90.04339566807093
8.910569472,1.0001971171568866,-90.32925760269377
8.918699008,0.9999093511221384,-90.61141831706803
8.926829568,0.9996263164204376,-90.8898594461032
8.934959104,0.9993630739553047,-91.16472156583743
8.943089664,0.9991340083910274,-91.43635503127834
8.9512192,0.9989514893792182,-91.70533079792247
8.95934976,0.9988255821235943,-91.97230950266155
8.967479296,0.9987632266680526,-92.23810262971801
8.975609856,0.9987676390358888,-92.50359553119598
8.983739392,0.998839100688511,-92.76966264565274
8.991869952,0.9989734706884332,-93.03724379139278
8.999999488,0.9991637401734115,-93.30702579474799
9.008130048,0.999399731042931,-93.57980902603289
9.016260608,0.9996686669436589,-93.85603836953322
9.024390144,0.999956018490164,-94.13611875699652
9.032520704,1.0002463948536933,-94.42015948623846
9.04065024,1.0005240248991014,-94.70810896445205
9.0487808,1.0007740768042566,-94.9996892206035
9.056910336,1.0009828660156377,-95.2944048465929
9.065040896,1.0011390864130247,-95.59169329964426
9.073170432,1.0012342694668785,-95.89076588755495
9.081300992,1.0012631857130123,-96.19077899066933
9.089430528,1.0012242384387242,-96.49086143682504
9.097561088,1.0011193649624133,-96.79006846901973
9.105690624,1.0009540353158237,-97.08758379735397
9.113821184,1.0007372079144452,-97.38264005551363
9.12195072,1.0004802450431336,-97.67465353129295
9.13008128,1.0001972168209918,-97.96316032396159
9.13821184,0.9999031430402284,-98.24787914404733
9.146341376,0.9996138734064198,-98.52879266727645
9.154471936,0.9993451218860909,-98.80608080426195
9.162601472,0.999111481955973,-99.0800623104402
9.170732032,0.9989255676005796,-99.35131913104004
9.178861568,0.9987975701974232,-99.62055412577145
9.186992128,0.9987345347028442,-99.88855967430622
9.195121664,0.9987399401123647,-100.15630894414042
9.203252224,0.9988137110193063,-100.42465761466718
9.21138176,0.9989519382199081,-100.69449867936797
9.21951232,0.9991470460306907,-100.96668550507307
9.227641856,0.9993888304297808,-101.24186617140822
9.235772416,0.9996640455309186,-101.52063335775932
9.243901952,0.9999581345102555,-101.80329082308113
9.252032512,1.000254976414129,-102.09001673562658
9.260163072,1.0005388091084986,-102.38073009515504
