freq,mag,phase
6.0,0.9999942212754429,95.56062906217322
6.008,0.9999960641766709,95.43061819483835
6.016,0.9999978745847373,95.30053976736231
6.024,0.9999996527799501,95.1703937310815
6.032,1.0,95.04018003754925
6.04,1.0,94.90989863853703
6.048,0.9999999999999999,94.77954948603599
6.056,0.9999999999999998,94.6491325322582
6.064,1.0,94.51864772963812
6.072,1.0,94.38809503083391
6.08,1.0,94.25747438872884
6.088,1.0,94.12678575643271
6.096,1.0,93.99602908728313
6.104,1.0,93.865204334847
6.112,1.0,93.73431145292184
6.12,0.9999999999999999,93.60335039553725
6.128,0.9999999999999999,93.4723211169562
6.136,0.9999999999999998,93.34122357167648
6.144,0.9999999999999999,93.21005771443217
6.152,1.0,93.07882350019487
6.16,1.0,92.94752088417525
6.168,1.0,92.81614982182434
6.176,1.0,92.68471026883508
6.184,1.0,92.55320218114352
6.192,1.0,92.42162551493041
6.2,0.9999999999999999,92.28998022662257
6.208,1.0,92.15826627289418
6.216,1.0,92.02648361066835
6.224,1.0,91.89463219711848
6.232,0.9999999999999999,91.76271198966963
6.24,1.0,91.63072294599996
6.248,1.0,91.49866502404225
6.256,1.0,91.36653818198519
6.264,1.0,91.23434237827482
6.272,0.9999999999999999,91.10207757161605
6.28,1.0,90.96974372097402
6.288,1.0,90.8373407855755
6.296,0.9999999999999999,90.70486872491043
6.304,1.0,90.57232749873319
6.312,1.0,90.43971706706421
6.32,1.0,90.3070373901913
6.328,1.0,90.17428842867109
6.336,1.0,90.04147014333053
6.344,1.0,89.90858249526823
6.352,0.9999999999999998,89.77562544585606
6.36,1.0,89.64259895674044
6.368,1.0,89.50950298984384
6.376,1.0000000000000002,89.37633750736626
6.384,1.0,89.24310247178666
6.392,1.0,89.10979784586438
6.4,0.9999999999999999,88.9764235926406
6.408,0.9999999999999999,88.84297967543989
6.416,1.0,88.70946605787145
6.424,0.9999999999999998,88.57588270383084
6.432,0.9999999999999998,88.44222957750122
6.44,1.0,88.30850664335486
6.448,0.9999999999999999,88.17471386615472
6.456,1.0,88.04085121095571
6.464,1.0,87.90691864310634
6.472,0.9999999999999999,87.77291612825006
6.48,1.0,87.63884363232678
6.4879999999999995,1.0,87.50470112157437
6.496,1.0,87.37048856252996
6.504,1.0,87.23620592203167
6.5120000000000005,0.9999999999999999,87.10185316721986
6.52,0.9999999999999999,86.96743026553871
6.5280000000000005,0.9999999999999998,86.83293718473763
6.536,1.0,86.69837389287287
6.5440000000000005,1.0,86.56374035830869
6.552,0.9999999999999999,86.4290365497193
6.5600000000000005,0.9999999999999999,86.29426243608981
6.568,1.0,86.15941798671817
6.5760000000000005,1.0,86.02450317121631
6.584,0.9999999999999999,85.88951795951186
6.592,1.0,85.75446232184946
6.6,1.0,85.61933622879232
6.608,0.9999999999999999,85.48413965122369
6.616,1.0,85.34887256034835
6.624,1.0000000000000002,85.21353492769407
6.632,1.0,85.07812672511314
6.64,0.9999999999999999,84.94264792478373
6.648,1.0,84.80709849921159
6.656,1.0,84.6714784212313
6.664,1.0,84.53578766400798
6.672,1.0,84.40002620103857
6.68,1.0,84.26419400615343
6.688,1.0,84.12829105351787
6.696,0.9999999999999999,83.99231731763355
6.704,1.0,83.85627277333997
6.712,1.0,83.720157395816
6.72,0.9999999999999998,83.58397116058141
6.728,1.0,83.44771404349827
6.736,1.0,83.31138602077246
6.744,1.0,83.17498706895526
6.752,0.9999999999999999,83.03851716494468
6.76,1.0,82.90197628598709
6.768,1.0,82.76536440967865
6.776,1.0,82.62868151396682
6.784,1.0,82.49192757715184
6.792,0.9999999999999999,82.35510257788822
6.8,0.9999999999999999,82.21820649518622
6.808,1.0,82.08123930841344
6.816,0.9999999999999999,81.94420099729619
6.824,1.0,81.80709154192104
6.832,1.0,81.66991092273629
6.84,1.0,81.5326591205535
6.848,1.0,81.39533611654896
6.856,1.0,81.25794189226522
6.864,1.0,81.1204764296125
6.872,1.0,80.98293971087026
6.88,1.0,80.84533171868866
6.888,1.0,80.70765243609007
6.896,1.0,80.56990184647056
6.904,0.9999999999999999,80.43207993360137
6.912,1.0,80.29418668163044
6.92,0.9999999999999999,80.15622207508385
6.928,0.9999999999999999,80.01818609886737
6.936,1.0,79.88007873826794
6.944,1.0,79.74189997895512
6.952,1.0,79.6036498069826
6.96,1.0,79.46532820878971
6.968,1.0,79.32693517120292
6.976,1.0,79.18847068143727
6.984,1.0,79.04993472709789
6.992,0.9999999999999999,78.91132729618153
7.0,1.0,78.772648377078
7.008,1.0,78.63389795857165
7.016,1.0,78.49507602984288
7.024,0.9999999999999998,78.35618258046962
7.032,0.9999999999999999,78.21721760042882
7.04,1.0,78.07818108009793
7.048,1.0,77.93907301025637
7.056,1.0,77.79989338208702
7.064,1.0,77.66064218717773
7.072,1.0,77.52131941752273
7.08,1.0,77.38192506552421
7.088,1.0,77.2424591239937
7.096,0.9999999999999999,77.10292158615361
7.104,1.0,76.96331244563868
7.112,0.9999999999999998,76.82363169649746
7.12,1.0,76.68387933319381
7.128,1.0,76.54405535060833
7.136,0.9999999999999999,76.40415974403986
7.144,1.0,76.26419250920694
7.152,1.0,76.12415364224927
7.16,0.9999999999999999,75.98404313972925
7.168,1.0,75.8438609986333
7.176,1.0,75.7036072163735
7.184,0.9999999999999999,75.5632817907889
7.192,0.9999999999999998,75.42288472014711
7.2,1.0,75.28241600314568
7.208,0.9999999999999999,75.14187563891358
7.216,0.9999999999999999,75.00126362701263
7.224,1.0,74.8605799674391
7.232,0.9999999999999999,74.71982466062494
7.24,0.9999999999999999,74.57899770743941
7.248,1.0,74.43809910919046
7.256,1.0,74.29712886762617
7.264,1.0,74.1560869849363
7.272,1.0,74.01497346375356
7.28,1.0,73.87378830715522
7.288,1.0,73.7325315186645
7.296,1.0,73.59120310225195
7.304,1.0,73.44980306233701
7.312,0.9999999999999999,73.30833140378932
7.32,0.9999999999999999,73.16678813193028
7.328,0.9999999999999999,73.02517325253434
7.336,1.0,72.88348677183063
7.344,1.0,72.7417286965042
7.352,1.0,72.59989903369753
7.36,1.0,72.457997791012
7.368,1.0,72.31602497650924
7.376,1.0,72.1739805987126
7.384,1.0,72.03186466660854
7.392,1.0,71.88967718964807
7.4,1.0,71.74741817774816
7.4079999999999995,0.9999999999999999,71.60508764129318
7.416,0.9999999999999999,71.46268559113622
7.4239999999999995,1.0,71.3202120386007
7.432,1.0,71.17766699548149
7.4399999999999995,0.9999999999999999,71.03505047404661
7.448,1.0,70.89236248703841
7.4559999999999995,1.0,70.74960304767511
7.464,1.0,70.60677216965212
7.4719999999999995,0.9999999999999999,70.46386986714352
7.48,0.9999999999999999,70.3208961548033
7.4879999999999995,1.0,70.17785104776699
7.496,0.9999999999999999,70.03473456165281
7.504,0.9999999999999999,69.89154671256325
7.5120000000000005,1.0,69.74828751708627
7.52,1.0,69.60495699229689
7.5280000000000005,1.0,69.46155515575839
7.536,1.0,69.31808202552384
7.5440000000000005,1.0,69.17453762013731
7.552,1.0,69.03092195863546
7.5600000000000005,0.9999999999999999,68.88723506054865
7.568,1.0,68.7434769459026
7.5760000000000005,0.9999999999999999,68.59964763521948
7.584,0.9999999999999999,68.45574714951948
7.5920000000000005,1.0,68.3117755103221
7.6,1.0,68.16773273964746
7.6080000000000005,0.9999999999999999,68.02361886001776
7.616,0.9999999999999999,67.8794338944586
7.6240000000000006,1.0,67.73517786650024
7.632,0.9999999999999999,67.59085080017914
7.640000000000001,1.0,67.44645272003913
7.648,1.0,67.30198365113287
7.656000000000001,1.0,67.15744361902316
7.664,0.9999999999999999,67.01283264978427
7.672,0.9999999999999999,66.86815077000334
7.68,1.0,66.72339800678162
7.688,1.0,66.57857438773593
7.696,0.9999999999999998,66.43367994099991
7.704,1.0,66.2887146952254
7.712,0.9999999999999998,66.14367867958372
7.72,1.0,65.99857192376712
7.728,1.0,65.85339445798995
7.736,1.0,65.70814631299014
7.744,1.0,65.56282752003042
7.752,0.9999999999999999,65.41743811089974
7.76,1.0,65.27197811791449
7.768,1.0,65.12644757391993
7.776,1.0,64.98084651229144
7.784,1.0,64.8351749669359
7.792,1.0,64.68943297229299
7.8,0.9999999999999999,64.54362056333648
7.808,0.9999999564601818,64.39773777557564
7.816,0.9999995084682703,64.25178464505646
7.824,0.999999064157498,64.10576120836305
7.832,0.9999986235824356,63.95966750261894
7.84,0.9999981867970233,63.81350356548841
7.848,0.9999977538545786,63.66726943517778
7.856,0.9999973248078057,63.52096515043678
7.864,0.9999968997088036,63.374590750559875
7.872,0.9999964786090758,63.22814627538756
7.88,0.9999960615595405,63.081631765307755
7.888,0.9999956486105376,62.93504726125708
7.896,0.9999952398118418,62.78839280472217
7.904,0.9999948352126707,62.64166843774109
7.912,0.9999944348616954,62.49487420290465
7.92,0.9999940388070518,62.3480101433577
7.928,0.9999936470963519,62.20107630280054
7.936,0.9999932597766932,62.054072725490265
7.944,0.9999928768946722,61.90699945624207
7.952,0.9999924984963965,61.7598565404307
7.96,0.9999921246274953,61.612644023991734
7.968,0.9999917553331333,61.465361953423006
7.976,0.999991390658024,61.31801037578597
7.984,0.9999910306464423,61.170589338707124
7.992,0.9999906753422391,61.02309889037936
8.0,0.9999903247888546,60.875539079563396
8.008,0.9999899790293343,60.72790995558918
8.016,0.9999896381063431,60.58021156835729
8.024000000000001,0.999989302062182,60.43244396834048
8.032,0.9999889709388036,60.28460720658501
8.04,0.9999886447778285,60.13670133471211
8.048,0.9999883236205639,59.98872640491947
8.056000000000001,0.9999880075080211,59.840682469982845
8.064,0.999987696480933,59.69256958325745
8.072,0.999987390579775,59.54438779867943
8.08,0.9999870898447831,59.39613717076743
8.088000000000001,0.9999867943159765,59.24781775462431
8.096,0.9999865040331772,59.099429605938546
8.104,0.9999862190360336,58.95097278098585
8.112,0.999985939364042,58.80244733663085
8.120000000000001,0.9999856650565723,58.653853330328744
8.128,0.9999853961528908,58.505190820127005
8.136,0.9999851326921887,58.356459864666924
8.144,0.9999848747136056,58.20766052318548
8.152000000000001,0.9999846222562601,58.0587928555172
8.16,0.9999843753592774,57.90985692209576
8.168,0.9999841340618202,57.760852783955976
8.176,0.9999838984031197,57.61178050273556
8.184000000000001,0.9999836684225087,57.4626401406772
8.192,0.999983444159456,57.31343176063046
8.2,0.9999832256536015,57.16415542605377
8.208,0.9999830129447939,57.01481120101646
8.216000000000001,0.9999828060731296,56.86539915020107
8.224,0.9999826050789937,56.715919338905415
8.232,0.9999824100031008,56.5663718330448
8.24,0.9999822208865426,56.41675669915435
8.248000000000001,0.9999820377708316,56.26707400439157
8.256,0.9999818606979501,56.117323816538665
8.264,0.9999816897104038,55.967506204005055
8.272,0.9999815248512719,55.817621235830124
8.280000000000001,0.9999813661642656,55.66766898168596
8.288,0.9999812136937858,55.51764951188018
8.296,0.9999810674849855,55.36756289735883
8.304,0.9999809275838349,55.217409209709466
8.312,0.9999807940371893,55.06718852116448
8.32,0.9999806668928604,54.916900904604205
8.328,0.9999805461996935,54.76654643356065
8.336,0.9999804320076447,54.61612518222081
8.344,0.9999803243678682,54.46563722543083
8.352,0.9999802233328008,54.315082638699614
8.36,0.9999801289562581,54.164461498203295
8.368,0.9999800412935316,54.01377388078934
8.376,0.999979960401493,53.86301986398137
8.384,0.9999798863387038,53.712199525983756
8.392,0.9999798191655321,53.561312945686964
8.4,0.9999797589442755,53.41036020267259
8.408,0.9999797057392903,53.259341377219364
8.416,0.9999796596171311,53.108256550308774
8.424,0.9999796206466962,52.95710580363168
8.432,0.999979588899382,52.80588921959472
8.44,0.99997956444925,52.65460688132773
8.448,0.9999795473731998,52.50325887269085
8.456,0.9999795377511569,52.35184527828296
8.464,0.9999795356662697,52.20036618344974
8.472,0.999979541205121,52.04882167429312
8.48,0.999979554457953,51.89721183768058
8.488,0.9999795755189066,51.74553676125572
8.496,0.9999796044862772,51.593796533449
8.504,0.9999796414627893,51.44199124348976
8.512,0.9999796865558865,51.29012098141854
8.52,0.9999797398780462,51.13818583810084
8.528,0.9999798015471124,50.98618590524132
8.536,0.9999798716866556,50.834121275399625
8.544,0.9999799504263563,50.68199204200684
8.552,0.9999800379024195,50.52979829938386
8.56,0.9999801342580161,50.377540142760395
8.568,0.999980239643762,50.225217668296246
8.576,0.9999803542182295,50.072830973103756
8.584,0.9999804781485023,49.92038015527253
8.592,0.9999806116107712,49.76786531389567
8.6,0.9999807547909786,49.61528654909887
8.608,0.9999809078855145,49.462643962071404
8.616,0.9999810711019693,49.30993765510037
8.624,0.9999812446599496,49.15716773160741
8.632,0.999981428791962,49.004334296189306
8.64,0.999981623744373,48.85143745466179
8.648,0.999981829778452,48.698477314107905
8.656,0.9999820471715046,48.54545398293038
8.664,0.999982276218109,48.39236757090983
8.672,0.9999825172314634,48.239218189267696
8.68,0.9999827705448568,48.08600595073639
8.688,0.999983036513279,47.93273096963575
8.696,0.9999833155151802,47.779393361958114
8.704,0.9999836079544032,47.62599324546157
8.712,0.9999839142623045,47.47253073977384
8.72,0.9999842349000841,47.31900596650695
8.728,0.9999845703613539,47.16541904938493
8.736,0.9999849211749687,47.011770114385705
8.744,0.9999852879081548,46.85805928989943
8.752,0.9999856711699723,46.704286706905236
8.76,0.9999860716151487,46.550452499169296
8.768,0.999986489948343,46.39655680346671
8.776,0.9999869269288817,46.24259975983132
8.784,0.9999873833760408,46.08858151183685
8.792,0.9999878601749431,45.93450220691481
8.8,0.9999883582831574,45.78036199671403
8.808,0.9999888787380954,45.62616103750942
8.815999999999999,0.9999894226653238,45.47189949066638
8.824,0.9999899912879268,45.317577523171636
8.832,0.9999905859370686,45.16319530824039
8.84,0.9999912080639493,45.00875302601353
8.847999999999999,0.9999918592533595,44.85425086436045
8.856,0.9999925412390973,44.69968901980682
8.864,0.9999932559215423,44.545067698610225
8.872,0.9999940053877486,44.39038711801167
8.879999999999999,0.999994791934481,44.23564750769717
8.888,0.999995618094703,44.08084911151178
8.896,0.9999964866681328,43.92599218947763
8.904,0.9999974007565953,43.77107702018027
8.911999999999999,0.9999983638050681,43.61610390360354
8.92,0.9999993796494938,43.461073164513834
8.928,1.0,43.30598515652067
8.936,1.0,43.15084026697473
8.943999999999999,0.9999999999999999,42.99563892291043
8.952,0.9999999999999999,42.8403815982992
8.96,0.9999999999999999,42.68506882295987
8.968,1.0,42.529701193579186
8.975999999999999,1.0,42.374279387442094
8.984,1.0,42.21880417967172
8.992,0.9999999999999999,42.0632764650559
9.0,1.0,41.90769728592775
9.008,1.0,41.752067868120555
9.016,1.0,41.596389667814734
9.024000000000001,0.9999999999999999,41.44066443325374
9.032,1.0000000000000002,41.28489428702645
9.04,1.0,41.129081837195606
9.048,1.0,40.973230329499835
9.056000000000001,1.0,40.817343859006044
9.064,0.9999999999999999,40.661427669325086
9.072,1.0,40.505488583269134
9.08,1.0,40.34953563485165
9.088000000000001,1.0,40.1935810163901
9.096,1.0,40.037641529912555
9.104,0.9999999999999999,39.88174086393185
9.112,1.0,39.725913249015576
9.120000000000001,1.0,39.57020944954748
9.128,0.9999999999999998,39.414706701815206
9.136,1.0,39.25952498053369
9.144,0.9999999999999999,39.104851288052636
9.152000000000001,0.9999999999999999,38.95096213684243
9.16,1.0,38.79816637404545
9.168,1.0,38.64630718656059
9.176,0.9998974409079081,38.49305549123216
9.184000000000001,0.9997228175456905,38.33349169240346
9.192,0.9996307012317392,38.16828842937463
9.2,0.9996379035567633,38.00385683184976
9.208,0.9996810381555016,37.84229467383745
9.216000000000001,0.9997254090478314,37.68272549830519
9.224,0.9997623728743505,37.524215816227105
9.232,0.9997917051192995,37.366234283367234
9.24,0.9998149000600268,37.20850891197653
9.248000000000001,0.9998334412072035,37.050900180479346
9.256,0.9998484855736198,36.893334264545025
9.264,0.999860882538581,36.73577065538978
9.272,0.9998712482629601,36.578186358014015
9.280000000000001,0.9998800321235356,36.42056793756481
9.288,0.9998875657838637,36.26290736468001
9.296,0.9998940975207322,36.105199764023936
9.304,0.999899815914431,35.947442151832114
9.312000000000001,0.9999048662395558,35.78963270586678
9.32,0.9999093619121877,35.63177033149845
9.328,0.9999133925833262,35.47385439747291
9.336,0.9999170299379916,35.31588457154455
9.344,0.9999203319067042,35.15786071632042
9.352,0.999923345764408,34.999782822191555
9.36,0.9999261104395551,34.841650963556546
9.368,0.9999286582552721,34.6834652699202
9.376,0.9999310162570669,34.52522590664119
9.384,0.9999332072359697,34.36693306201968
9.392,0.9999352505247853,34.20858693860243
9.4,0.9999371626235162,34.05018774731844
9.408,0.9999389576948873,33.89173570353411
9.416,0.9999406479601411,33.73323102441416
9.424,0.9999422440175932,33.57467392718095
9.432,0.9999437551008704,33.41606462798902
9.44,0.9999451892896595,33.257403341224475
9.448,0.9999465536827905,33.098690279095734
9.456,0.9999478545412487,32.939925651424936
9.464,0.9999490974069929,32.78110966557361
9.472,0.9999502872022178,32.62224252646064
9.48,0.9999514283126869,32.4633244366387
9.488,0.9999525246580274,32.304355596408776
9.496,0.9999535797513082,32.14533620395639
9.504,0.9999545967497364,31.98626645550015
9.512,0.9999555784979904,31.827146545444002
9.52,0.9999565275653887,31.667976666529597
9.528,0.9999574462779006,31.508757009983928
9.536,0.9999583367458091,31.349487765662012
9.544,0.9999592008876975,31.1901691221816
9.552,0.999960040451312,31.030801267050677
9.56,0.9999608570317723,30.871384386786165
9.568,0.9999616520875072,30.711918667025362
9.576,0.9999624269542418,30.552404292628438
9.584,0.9999631828573059,30.392841447774497
9.592,0.9999639209224981,30.23323031604929
9.6,0.9999646421856937,30.073571080527
9.608,0.9999653476013662,29.913863923845067
9.616,0.9999660380501629,29.75410902827361
9.624,0.9999667143456482,29.59430657577876
9.632,0.9999673772403311,29.434456748081576
9.64,0.9999680274310522,29.274559726711637
9.648,0.9999686655638137,29.11461569305702
9.656,0.9999692922381194,28.9546248284095
9.664,0.9999699080108774,28.79458731400683
9.672,0.9999705133999209,28.63450333107125
9.68,0.9999711088871854,28.47437306084499
9.688,0.9999716949215842,28.314196684623077
9.696,0.9999722719216136,28.153974383783467
9.704,0.9999728402777156,27.99370633981458
9.712,0.9999734003544282,27.833392734341135
9.72,0.9999739524923408,27.673033749147468
9.728,0.9999744970098763,27.512629566199376
9.736,0.9999750342049205,27.352180367663873
9.744,0.9999755643563086,27.191686335927923
9.752,0.9999760877251871,27.031147653615086
9.76,0.9999766045562629,26.870564503601493
9.768,0.999977115078949,26.709937069029912
9.776,0.9999776195084157,26.549265533323396
9.784,0.9999781180465594,26.38855008019728
9.792,0.9999786108828955,26.227790893670626
9.8,0.9999790981953781,26.06698815807649
9.808,0.9999795801511613,25.90614205807167
9.816,0.9999800569072982,25.745252778645273
9.824,0.9999805286113914,25.58432050512716
9.832,0.9999809954021925,25.42334542319504
9.84,0.9999814574101586,25.26232771888164
9.847999999999999,0.9999819147579693,25.101267578580728
9.856,0.9999823675610052,24.94016518905301
9.864,0.9999828159277953,24.779020737431374
9.872,0.99998325996043,24.6178344112258
9.879999999999999,0.9999836997549483,24.456606398327548
9.888,0.9999841354016972,24.295336887013267
9.896,0.9999845669856675,24.13402606594875
9.904,0.9999849945868067,23.972674124192093
9.911999999999999,0.9999854182803131,23.81128125119661
9.92,0.9999858381369073,23.649847636813625
9.928,0.9999862542230918,23.48837347129486
9.936,0.9999866666013865,23.326858945294543
9.943999999999999,0.9999870753305576,23.165304249871216
9.952,0.9999874804658258,23.003709576489435
9.96,0.9999878820590657,22.842075117021313
9.968,0.999988280158991,22.680401063747638
9.975999999999999,0.9999886748113287,22.518687609358885
9.984,0.9999890660589856,22.356934946956105
9.992,0.9999894539421997,22.19514327005175
10.0,0.9999898384986884,22.033312772570074
10.008,0.9999902197637849,21.871443648847457
10.016,0.9999905977705673,21.709536093632746
10.024000000000001,0.9999909725499808,21.547590302087396
10.032,0.9999913441309539,21.385606469785408
10.04,0.9999917125405057,21.223584792713073
10.048,0.9999920778038502,21.061525467268833
10.056000000000001,0.9999924399444927,20.899428690262972
10.064,0.999992798984323,20.73729465891706
10.072,0.999993154943701,20.575123570863354
