freq,mag,phase
6.0,0.9986677383458682,173.08156221751273
6.002286592,0.9986196430071145,172.95072154630148
6.004572672,0.9986589858267787,172.8200393383602
6.006859264,0.998783492668592,172.68819249539976
6.009145344,0.9989852488206957,172.55400090244285
6.011431936,0.9992513758693548,172.41648570232272
6.013718016,0.9995650759905387,172.27481749294026
6.016004608,0.9999065866420955,172.128382140329
6.018290688,1.0002541114312316,171.97704406608864
6.02057728,1.0005856434453753,171.8208061998686
6.022863872,1.0008802367451974,171.66009877205948
6.025149952,1.0011192892070948,171.49554560423383
6.027436544,1.001287721286481,171.3281123127412
6.029722624,1.0013748007812135,171.158880720586
6.032009216,1.0013750077909578,170.98905345278797
6.034295296,1.0012883099797358,170.81991294599226
6.036581888,1.0011201840756105,170.6526444555422
6.03886848,1.0008811671151048,170.48838120279723
6.04115456,1.0005864242053062,170.3280775663056
6.043441152,1.0002544772852617,170.17233160283
6.045727232,0.9999063164695879,170.02158927565128
6.048013824,0.9995639563657915,169.87594264191
6.050299904,0.9992490676083998,169.73512863590304
6.052586496,0.9989818655441335,169.59857639883842
6.054872576,0.9987790343615877,169.46552139799297
6.057159168,0.9986537112563832,169.33490627973185
6.05944576,0.9986138999360019,169.20556079607474
6.06173184,0.9986619587815267,169.076229818578
6.064018432,0.9987950033912345,168.94563508805766
6.066304512,0.9990045957811732,168.81256503826225
6.068591104,0.9992773859722044,168.6760692392731
6.070877184,0.9995961942724436,168.53529123090655
6.073163776,0.9999406959891645,168.3897639547758
6.075450368,1.0002889248501536,168.2392558548799
6.077736448,1.0006190918526836,168.0838727703955
6.08002304,1.0009103768265977,167.92400254064503
6.08230912,1.001144048600424,167.76040169319782
6.084595712,1.0013055321261077,167.59399737419037
6.086881792,1.00138447138062,167.4258764726079
6.089168384,1.001376047755028,167.257330083619
6.091454464,1.0012805986996027,167.08955837343717
6.093741056,1.0011041574393018,166.92383525300193
6.096027648,1.0008577229177318,166.76121188575098
6.098313728,1.0005571707386753,166.6026024396815
6.10060032,1.0002210572586006,166.44866482415327
6.1028864,0.9998710715541655,166.29977039322577
6.105172992,0.9995290522582816,166.15594507247997
6.107459072,0.9992167441062844,166.01695652579923
6.109745664,0.9989541029020651,165.88217899188112
6.112032256,0.9987577182752501,165.75083922134988
6.114318336,0.9986401776452914,165.62184435088577
6.116604928,0.9986088571035162,165.4939778156816
6.118891008,0.998665815459775,165.3659646412042
6.1211776,0.9988076251977747,165.23657506379766
6.12346368,0.9990251976688964,165.1046184821657
6.125750272,0.9993046601747142,164.9691220376897
6.128036352,0.9996283017933031,164.82925059832723
6.130322944,0.9999757158391199,164.68455202180144
6.132609536,1.0003248026034868,164.53488414138147
6.134895616,1.0006533211898434,164.38030849442939
6.137182208,1.000940670763113,164.22133286385272
6.139468288,1.0011687180133786,164.05866035126263
6.14175488,1.0013228472905937,163.89330308341164
6.14404096,1.0013934518510101,163.7263484477491
6.146327552,1.0013760157277014,163.55905106200146
6.148614144,1.001271504923819,163.39269426422413
6.150900224,1.001086580413244,163.22847141033012
6.153186816,1.0008329174775488,163.06750771280642
6.155472896,1.0005263859901565,162.91061608476411
6.157759488,1.000186529588762,162.75846987052876
6.160045568,0.9998347323168268,162.61142277044414
6.16233216,0.9994933274282042,162.46946969127293
6.16461824,0.9991838704689047,162.33228981143097
6.166904832,0.9989261467479053,162.1993327586417
6.169191424,0.9987365041929146,162.06967503058988
6.171477504,0.998626984680788,161.94224784392614
6.173764096,0.9986045718838508,161.81583803085877
6.176050176,0.9986708503459385,161.68919211562715
6.178336768,0.9988215880104344,161.56098956717196
6.180622848,0.9990471193857614,161.43009962502381
6.18290944,0.999333250272117,161.2955585344147
6.18519552,0.9996617880046732,161.15657917089106
6.187482112,1.0000118514731713,161.0127239405627
6.189768704,1.000361355814607,160.8638221285963
6.192054784,1.0006880215715601,160.71007199699213
6.194341376,1.0009713467120818,160.55196115663702
6.196627456,1.0011933157745732,160.39023201290973
6.198914048,1.0013399259402906,160.2258706431337
6.201200128,1.0014018945983,160.06007723111006
6.20348672,1.0013751348613589,159.89404762775405
6.205773312,1.0012613380437807,159.72909472566187
6.208059392,1.0010678326621465,159.5664372765197
6.210345984,1.0008067301307497,159.40705884891037
6.212632064,1.000494506689933,159.25195877187036
6.214918656,1.000150889275877,159.10165410192573
6.217204736,0.9997973812533875,158.956456703541
6.219491328,0.9994568270415078,158.81634698462835
6.221777408,0.9991505640165633,158.68104534897225
6.224064,0.9988981483620533,158.54985174670668
6.226350592,0.9987155993845225,158.42185354155268
6.228636672,0.9986144725571984,158.29601502891214
6.230923264,0.9986013343196429,158.17105927448628
6.233209344,0.9986769614675146,158.04571359889042
6.235495936,0.9988367525873114,157.91866677999298
6.237782016,0.9990704768411386,157.7888115976656
6.240068608,0.9993632222405818,157.6552037875078
6.2423552,0.999696493071889,157.51710024104406
6.24464128,1.0000492024540195,157.37401918116163
6.246927872,1.0003988351979733,157.22590686980595
6.249213952,1.0007234030928425,157.07297126288134
6.251500544,1.0010022002359522,156.91571014086824
6.253786624,1.0012178132432348,156.75487490970715
6.256073216,1.001356432069619,156.5915508068812
6.258359296,1.00140922462097,156.42688206157845
6.260645888,1.0013730691018037,156.2621478936174
6.26293248,1.0012498904111007,156.0986218697131
6.26521856,1.0010476413157607,155.93746025631276
6.267505152,1.0007790663799883,155.77979475237703
6.269791232,1.0004611504389365,155.62644476746104
6.272077824,1.000113933387903,155.47795646443547
6.274363904,0.9997592013029245,155.33461277484193
6.276650496,0.9994197236555157,155.19640566390683
6.278937088,0.9991170430127643,155.06291043848412
6.281223168,0.9988702355450462,154.93345350121345
6.28350976,0.99869503392423,154.8071737647267
6.28579584,0.9986026551570171,154.68287789257644
6.288082432,0.998599043312289,154.55935070835568
6.290368512,0.9986845335530447,154.43525828069423
6.292655104,0.9988534670623556,154.30936763825787
6.294941184,0.9990954035338231,154.18054757379312
6.297227776,0.9993947502517011,154.04783967895025
6.299514368,0.9997326563479156,153.91054100228953
6.301800448,1.0000877732578926,153.76823890377176
6.30408704,1.0004374296021423,153.62088095903226
6.30637312,1.0007593512092823,153.46868060812656
6.308659712,1.0010334712658653,153.31224430974132
6.310945792,1.001242318763758,153.15230512188845
6.313232384,1.0013724586630224,152.99000867584084
6.315518464,1.0014160217311674,152.8264720801015
6.317805056,1.0013700073419236,152.66302974929172
6.320091648,1.0012371997595433,152.50090992572768
6.322377728,1.001026218973117,152.34133362701198
6.32466432,1.0007501143564772,152.18535211585817
6.3269504,1.0004265213946737,152.03373019669294
6.329236992,1.00007577520198,151.8870729679666
6.331523072,0.999720056610736,151.7456343727047
6.333809664,0.9993820106828079,151.6092423730108
6.336096256,0.9990831421677456,151.47759083469575
6.338382336,0.998842307299914,151.34992068100695
6.340668928,0.9986748804961239,151.22524762324406
6.342955008,0.9985916543637844,151.10249177887206
6.3452416,0.9985979026274621,150.9803688189608
6.34752768,0.9986931874936416,150.85752311808992
6.349814272,0.9988715760405701,150.73274940989643
6.352100352,0.9991216424442944,150.60488314161523
6.354386944,0.999427655076394,150.47306577619418
6.356673536,0.9997700975136503,150.33654600948358
6.358959616,1.000127321569571,150.19499091989192
6.361246208,1.0004764254378669,150.048366786343
6.363532288,1.0007957071873874,149.8968919055521
6.36581888,1.0010645585075026,149.74127738654659
6.36810496,1.0012662764883993,149.5822517439498
6.370391552,1.0013878519794,149.4209314084129
6.372678144,1.0014217011629833,149.25854700933584
6.374964224,1.001365618243845,149.09637669199594
6.377250816,1.0012230803994409,148.935675059513
6.379536896,1.001003238020503,148.77765433520165
6.381823488,1.0007195543474106,148.62331770178
6.384109568,1.0003904102989363,148.47350998747083
6.38639616,1.0000364637086663,148.3286895051866
6.38868224,0.9996799851299968,148.1891023506704
6.390968832,0.9993435926131381,148.05460616074228
6.393255424,0.9990489037973027,147.92475432927534
6.395541504,0.998814362330257,147.79879819036566
6.397828096,0.998655385457257,147.67579685082302
6.400114176,0.9985815293881767,147.55452286759743
6.402400768,0.9985977245213593,147.43374616770564
6.404686848,0.9987032356915712,147.3121412065905
6.40697344,0.9988910835876562,147.18840086968726
6.409260032,0.9991494663664033,147.06151029719138
6.411546112,0.9994619330296385,146.93051167998058
6.413832704,0.9998087892990323,146.7947335388151
6.416118784,1.000167869151869,146.65388384432993
6.418405376,1.0005163874074057,146.50793549512832
6.420691456,1.0008325202262343,146.35722353423634
6.422978048,1.0010958666928271,146.20235440338234
6.425264128,1.0012899222392393,146.0442094724776
6.42755072,1.0014026197638168,145.8839015611851
6.429837312,1.0014263836549366,145.72265966059342
6.432123392,1.0013601154084797,145.56174319901362
6.434409984,1.0012076172554853,145.40249431907822
6.436696064,1.000978648160277,145.24604512498573
6.438982656,1.0006876855007565,145.0933877429488
6.441268736,1.0003530962138485,144.94533053081847
6.443555328,0.9999959069761344,144.8023441224262
6.44584192,0.9996389844666775,144.66461743256653
6.448128,0.9993047297914449,144.5319772734372
6.450414592,0.9990144664239129,144.4039295606226
6.452700672,0.9987868955188512,144.27970897887093
6.454987264,0.9986361642479217,144.1582874345268
6.457273344,0.9985721585669061,144.03850839529105
6.459559936,0.9985988680070157,143.9190581201394
6.461846016,0.9987145865400293,143.79862303896618
6.464132608,0.9989120440444157,143.67595231714532
6.4664192,0.9991787932690579,143.5499399267905
6.46870528,0.9994976643579028,143.41970565157385
6.470991872,0.9998487842481152,143.2846452804375
6.473277952,1.000209446373913,143.14446255142073
6.475564544,1.0005570298858892,142.99920013215788
6.477850624,1.0008693833772502,142.84918071906
6.480137216,1.0011268721271342,142.69505525196774
6.482423296,1.0013132481919886,142.5377940673634
6.484709888,1.001416377158765,142.37846671420064
6.48699648,1.0014299742656505,142.218354353467
6.48928256,1.0013531383814764,142.05870796432606
6.491569152,1.0011905173237168,141.90086935550474
6.493855232,1.0009525604900928,141.74597617150405
6.496141824,1.0006541854295992,141.59503456540347
6.498427904,1.0003142371121585,141.4487345894248
6.500714496,0.9999542570411137,141.30758454566416
6.503001088,0.9995970990035953,141.17173601525408
6.505287168,0.9992653144930249,141.0408912416595
6.50757376,0.9989801158064459,140.91466255679515
6.50985984,0.9987595711078424,140.7921411562171
6.512146432,0.9986178299823121,140.67230001626834
6.514432512,0.9985639096856953,140.55394254255552
6.516719104,0.9986012914098605,140.4357996093352
6.519005184,0.9987275166055218,140.31648092346578
6.521291776,0.9989346767855142,140.19479309441337
6.523578368,0.9992096623083334,140.06964342846697
6.525864448,0.9995349682947807,139.94015664495745
6.52815104,0.999890040093556,139.80577402970832
6.53043712,1.0002520693999954,139.66622440510304
6.532723712,1.0005983526009874,139.5215851077817
6.535009792,1.000906842001939,139.37221219307068
6.537296384,1.0011580290861204,139.21887632983353
6.539582976,1.0013360120695942,139.06241552364784
6.541869056,1.0014293812978252,138.90407746116324
6.544155648,1.0014324384066033,138.7450592801297
6.546441728,1.0013446955960426,138.5867058459104
6.54872832,1.0011720133807125,138.43030574200912
6.5510144,1.000925018779107,138.2769745551604
6.553300992,1.000619112782209,138.1277027918499
6.555587072,1.0002740390775557,137.98316515374103
6.557873664,0.9999114817189443,137.8438749915786
6.560160256,0.9995543738945063,137.70985518370898
6.562446336,0.999225450256981,137.5808611465994
6.564732928,0.9989455196089543,137.4563689712213
6.567019008,0.9987325490667148,137.33552194656187
6.5693056,0.9986001112203682,137.21724779994585
6.57159168,0.9985566933484716,137.1003157196455
6.573878272,0.9986047868690496,136.98339638688182
6.576164864,0.9987418163647235,136.86518362711863
6.578450944,0.9989588642586308,136.74445520038256
6.580737536,0.9992421623980582,136.62011810137835
6.583023616,0.9995735523143545,136.49132108492608
6.585310208,0.9999323453994902,136.35755017417193
6.587596288,1.0002954661198007,136.21860368204196
6.58988288,1.0006400749638285,136.0745474010499
6.59216896,1.0009442165572564,135.9258282740412
6.594455552,1.001188641586423,135.77316583935826
6.596742144,1.0013580037681984,135.6175815417552
6.599028224,1.0014414199238368,135.46017456583226
6.601314816,1.001433469069271,135.3022943982316
6.603600896,1.0013349541538406,135.14519397699829
6.605887488,1.0011517022772698,134.99021186629113
6.608173568,1.0008956208063984,134.8384373705283
6.61046016,1.0005825200986755,134.69083803124184
6.612746752,1.0002325506191458,134.5481347599253
6.615032832,0.9998675627585244,134.41062140577844
6.617319424,0.9995107642397403,134.27844665406883
6.619605504,0.9991851950122067,134.1512858671886
6.621892096,0.998911063208802,134.02853462948224
6.624178176,0.998706168630589,133.9093134432738
6.626464768,0.9985832462608085,133.79258092952392
6.628750848,0.9985505802664572,133.67701807593622
6.63103744,0.9986099964358771,133.56127984203422
6.633324032,0.9987578212245316,133.44411012783772
6.635610112,0.998984528211644,133.32426403736267
6.637896704,0.9992760863016645,133.2006720224109
6.640182784,0.9996137336265264,133.0725697781197
6.642469376,0.9999759801327561,132.9393851277573
6.644755456,1.0003399420204144,132.80096516934935
6.647042048,1.0006824323660308,132.65746507431638
6.649328128,1.0009819393360442,132.50937297129576
6.65161472,1.001219095364863,132.35740251611003
6.653901312,1.0013793751512157,132.2026221583963
6.656187392,1.0014523314492578,132.04617179187892
6.658473984,1.0014332221167637,131.88939248698875
6.660760064,1.0013234930503068,131.73354878631923
6.663046656,1.001129814046191,131.58000779189285
6.665332736,1.0008645497390665,131.42979652528953
6.667619328,1.0005443647453705,131.28387187804816
6.66990592,1.0001895929416784,131.14293005544937
6.672192,0.9998226053119962,131.00724409651042
6.674478592,0.9994667358021863,130.87688884482742
6.676764672,0.9991446724298839,130.75151486719045
6.679051264,0.9988767541988739,130.6304790336401
6.681337344,0.9986800345471245,130.51291265361886
6.683623936,0.9985674336671445,130.39762277126758
6.685910016,0.9985456563126963,130.28339529025894
6.688196608,0.9986165229458789,130.16883367865066
6.6904832,0.9987753905507266,130.05266727261028
6.69276928,0.999012068736334,129.93363680235834
6.695055872,0.9993117349871469,129.81077323374424
6.697341952,0.9996553552623013,129.68323956632605
6.699628544,1.000020839901282,129.55059115295148
6.701914624,1.0003851477654002,129.41271396700668
6.704201216,1.0007253237301355,129.26974848955322
6.706487808,1.0010194924046756,129.12221073772497
6.708773888,1.0012493004945309,128.97090499527235
6.71106048,1.001400063313492,128.8169197946964
6.71334656,1.0014622229317118,128.66140756009852
6.715633152,1.0014316445984455,128.5057054625854
6.717919232,1.0013104614355819,128.35115251081947
6.720205824,1.0011063713280428,128.19900586817027
6.722491904,1.0008320161501953,128.05037111551437
6.724778496,1.0005047234657567,127.9061118073617
6.727065088,1.0001453523617434,127.76692398697222
6.729351168,0.9997767625934477,127.63305821969519
6.73163776,0.9994220175379123,127.50449734809263
6.73392384,0.9991037773316203,127.38091084043783
6.736210432,0.9988425579673208,127.26156813979252
6.738496512,0.9986547098349589,127.14560273341509
6.740783104,0.9985524671758503,127.03173371649409
6.743069696,0.9985422310935017,126.91877675499978
6.745355776,0.9986246726512812,126.80533731900451
6.747642368,0.9987946337694442,126.69009582623781
6.749928448,0.9990413844574757,126.57190045145533
6.75221504,0.9993490794234261,126.44966342830136
6.75450112,0.9996983253720376,126.32268210323335
6.756787712,1.0000669078261346,126.1905644641977
6.759073792,1.0004312999577099,126.05312261697061
6.761360384,1.0007684631456257,125.91064374546205
6.763646976,1.0010571187990496,125.76365931425542
6.765933056,1.001278934936909,125.61301559502589
6.768219648,1.001419706635036,125.45979437149829
6.770505728,1.001470816440653,125.3051916596528
6.77279232,1.0014285386986572,125.15059944584779
6.7750784,1.0012959425055492,124.99728266952333
6.777364992,1.0010810269097885,124.8465401995939
6.779651584,1.0007976895693529,124.69947203723176
6.781937664,1.000463513783831,124.55690360405245
6.784224256,1.000099888781145,124.41945228765542
6.786510336,0.9997297081399816,124.28738552370562
6.788796928,0.9993766596206407,124.16065080328619
6.791083008,0.9990628848349927,124.0387984215189
6.7933696,0.9988087297013966,123.92112303281084
6.79565568,0.9986302214526732,123.80668178471377
6.797942272,0.99853875415067,123.6942430998773
6.800228864,0.9985401470809119,123.58251480822598
6.802514944,0.9986344360358375,123.47012960361107
6.804801536,0.9988156696066147,123.35582309934749
6.807087616,0.9990722418656227,123.23832440670061
6.809374208,0.9993880176221799,123.116695402859
6.811660288,0.9997428135380302,122.99024272333857
6.81394688,1.0001140454533826,122.85852517915193
6.81623296,1.0004782072862544,122.72151792266521
6.818519552,1.0008121457738879,122.57950343019417
6.820806144,1.0010946644603467,122.4330172694469
6.823092224,1.0013080196087885,122.28298958510982
6.825378816,1.001438587933595,122.13052201290928
6.827664896,1.0014779725347898,121.9768296354328
6.829951488,1.0014239811769978,121.8233262664817
6.832237568,1.0012795822665743,121.671284901613
6.83452416,1.0010541050695294,121.5219580542853
6.836810752,1.0007615632959774,121.37639867425463
6.839096832,1.0004208001451118,121.23554458627576
6.841383424,1.0000531085991011,121.09982664268598
6.843669504,0.999681929453521,120.96951387890735
6.845956096,0.9993307903411374,120.8445585312057
6.848242176,0.9990219808766938,120.72442686222621
6.850528768,0.9987752041101787,120.60840747475811
6.852814848,0.998606456457942,120.49545708537444
6.85510144,0.9985261097555042,120.38439110442967
6.857388032,0.9985395020193872,120.27386965920321
6.859674112,0.9986459703504352,120.1624683366885
6.861960704,0.9988384734307394,120.04898538734263
6.864246784,0.9991049848963802,119.93216308644402
6.866533376,0.9994285738823019,119.81111086771648
6.868819456,0.9997885435376198,119.68509771627689
6.871106048,1.0001621420194449,119.55379304303588
6.87339264,1.0005256590843707,119.41718076456455
6.87567872,1.0008558371793101,119.27553297402531
6.877965312,1.0011319027277241,119.12958188737421
6.880251392,1.0013364706429373,118.98016054852067
6.882537984,1.0014563130041907,118.8284016304892
6.884824064,1.001483975335113,118.67561968706293
6.887110656,1.0014176446881866,118.52317931472668
6.889396736,1.0012614341216772,118.37238882122901
6.891683328,1.0010251405808195,118.22444226295816
6.89396992,1.0007238660787612,118.08048161053424
6.896256,1.0003765562516844,117.94123650445592
6.898542592,1.000005144782481,117.80728085086047
6.900828672,0.999633342977704,117.67875705537782
6.903115264,0.9992844800176912,117.55555630632426
6.905401344,0.9989810578711401,117.4371137124095
6.907687936,0.9987422787062858,117.32267412436991
6.909974528,0.9985834007068622,117.21120727069197
6.912260608,0.9985147702223913,117.10145024353919
6.9145472,0.9985404974531173,116.9920389939936
6.91683328,0.9986590690077513,116.8816419223528
6.919119872,0.9988631545494799,116.76891364576615
6.921405952,0.9991395022903028,116.65272360994291
6.923692544,0.9994706843815683,116.53216524576577
