freq,mag,phase
6.0,0.9999999999999999,27.55062119148933
6.008,0.9999999999999999,27.333137388562474
6.016,0.9999999999999999,27.11561823653672
6.024,1.0,26.898063839035228
6.032,1.0,26.680474299880192
6.04,1.0,26.462849723093136
6.048,1.0,26.245190212894936
6.056,1.0,26.027495873706076
6.064,1.0,25.809766810146723
6.072,0.9999999999999999,25.592003127036943
6.08,1.0,25.374204929396765
6.088,0.9999999999999999,25.156372322446323
6.096,0.9999999999999999,24.938505411605973
6.104,1.0,24.72060430249639
6.112,1.0,24.50266910093867
6.12,1.0,24.284699912954434
6.128,1.0,24.066696844765836
6.136,0.9999999999999999,23.84866000279573
6.144,0.9999996537647244,23.630589493667664
6.152,0.9999992166309949,23.41248542420595
6.16,0.9999987861253179,23.19434790143574
6.168,0.9999983621951893,22.976177032582985
6.176,0.9999979447882684,22.75797292507453
6.184,0.9999975338523798,22.53973568653811
6.192,0.999997129335513,22.321465424802355
6.2,0.9999967311858249,22.1031622478968
6.208,0.9999963393516385,21.88482626405185
6.216,0.999995953781445,21.6664575816988
6.224,0.9999955744239033,21.448056309469766
6.232,0.9999952012278418,21.22962255619769
6.24,0.9999948341422584,21.011156430916266
6.248,0.9999944731163213,20.7926580428599
6.256,0.99999411809937,20.574127501463632
6.264,0.9999937690409149,20.35556491636309
6.272,0.9999934258906392,20.136970397394386
6.28,0.9999930885983992,19.91834405459401
6.288,0.9999927571142242,19.699685998198802
6.296,0.999992431388318,19.48099633864574
6.304,0.9999921113710586,19.262275186571912
6.312,0.9999917970130002,19.043522652814346
6.32,0.9999914882648724,18.824738848409865
6.328,0.9999911850775811,18.605923884594965
6.336,0.9999908874022102,18.387077872805666
6.344,0.9999905951900204,18.16820092467728
6.352,0.9999903083924515,17.94929315204436
6.36,0.9999900269611216,17.73035466694041
6.368,0.9999897508478284,17.511385581597708
6.376,0.9999894800045496,17.292386008447163
6.384,0.9999892143834432,17.07335606011803
6.392,0.9999889539368487,16.85429584943775
6.4,0.9999886986172869,16.635205489431687
6.408,0.999988448377461,16.41608509332288
6.416,0.9999882031702564,16.196934774531798
6.424,0.9999879629487418,15.977754646676136
6.432,0.9999877276661697,15.758544823570459
6.44,0.999987497275977,15.539305419225961
6.448,0.9999872717317848,15.320036547850213
6.456,0.9999870509873999,15.100738323846798
6.464,0.9999868349968142,14.881410861815057
6.472,0.9999866237142057,14.662054276549764
6.48,0.9999864170939393,14.44266868304076
6.4879999999999995,0.9999862150905673,14.223254196472682
6.496,0.9999860176588283,14.003810932224503
6.504,0.9999858247536504,13.784339005869398
6.5120000000000005,0.9999856363301485,13.564838533174044
6.52,0.9999854523436276,13.345309630098631
6.5280000000000005,0.9999852727495814,13.125752412796107
6.536,0.999985097503693,12.906166997612118
6.5440000000000005,0.9999849265618362,12.686553501084262
6.552,0.999984759880075,12.466912039942066
6.5600000000000005,0.9999845974146638,12.247242731106123
6.568,0.9999844391220495,12.02754569168811
6.5760000000000005,0.9999842849588697,11.807821038989909
6.584,0.999984134881954,11.588068890503564
6.592,0.9999839888483247,11.368289363910444
6.6,0.9999838468151975,11.148482577081042
6.608,0.9999837087399798,10.928648648074375
6.616,0.9999835745802741,10.708787695137488
6.624,0.9999834442938755,10.488899836704997
6.632,0.9999833178387745,10.268985191398523
6.64,0.9999831951731548,10.049043878026213
6.648,0.9999830762553957,9.82907601558219
6.656,0.999982961044072,9.609081723245994
6.664,0.9999828494979531,9.389061120382065
6.672,0.9999827415760051,9.169014326539147
6.68,0.9999826372373892,8.94894146144973
6.688,0.9999825364414638,8.728842645029468
6.696,0.9999824391477838,8.50871799737658
6.704,0.9999823453161011,8.288567638771253
6.712,0.999982254906364,8.068391689675035
6.72,0.9999821678787196,7.848190270730199
6.728,0.9999820841935118,7.627963502759106
6.736,0.9999820038112828,7.407711506763591
6.744,0.999981926692773,7.187434403924282
6.752,0.9999818527989214,6.967132315599948
6.76,0.9999817820908653,6.746805363326833
6.768,0.9999817145299418,6.52645366881796
6.776,0.9999816500776859,6.306077353962452
6.784,0.9999815886958334,6.085676540824816
6.792,0.9999815303463183,5.865251351644245
6.8,0.9999814749912753,5.644801908833886
6.808,0.9999814225930382,5.424328334980107
6.816,0.999981373114142,5.203830752841765
6.824,0.9999813265173213,4.983309285349439
6.832,0.9999812827655112,4.762764055604685
6.84,0.9999812418218477,4.542195186879243
6.848,0.9999812036496675,4.321602802614278
6.856,0.9999811682125082,4.100987026419563
6.864,0.9999811354741086,3.880347982072707
6.872,0.9999811053984083,3.6596857935183187
6.88,0.9999810779495493,3.4390005848671823
6.888,0.9999810530918736,3.218292480395453
6.896,0.9999810307899261,2.9975616045437845
6.904,0.9999810110084527,2.7768080819165015
6.912,0.9999809937124013,2.55603203728072
6.92,0.9999809788669217,2.3352335955654886
6.928,0.9999809664373657,2.1144128818608987
6.936,0.9999809563892873,1.893570021417199
6.944,0.9999809486884419,1.6727051396438921
6.952,0.9999809433007889,1.4518183621088234
6.96,0.9999809401924878,1.2309098145372679
6.968,0.9999809393299017,1.0099796228109814
6.976,0.999980940679596,0.7890279129672774
6.984,0.999980944208338,0.5680548111980741
6.992,0.9999809498830985,0.34706044384892726
7.0,0.9999809576710493,0.12604493741807038
7.008,0.9999809675395658,-0.09499158144457305
7.016,0.9999809794562262,-0.3160489859383811
7.024,0.9999809933888099,-0.5371271491130151
7.032,0.9999810093052994,-0.7582259438694453
7.04,0.9999810271738815,-0.9793452429609695
7.048,0.9999810469629423,-1.2004849189942208
7.056,0.9999810686410731,-1.4216448444302292
7.064,0.9999810921770662,-1.642824891585467
7.072,0.9999811175399173,-1.8640249326328717
7.08,0.9999811446988233,-2.085244839602968
7.088,0.9999811736231843,-2.3064844843848973
7.096,0.9999812042826032,-2.527743738727517
7.104,0.9999812366468841,-2.7490224742405145
7.112,0.9999812706860343,-2.9703205623954747
7.12,0.9999813063702621,-3.191637874527034
7.128,0.9999813436699789,-3.412974281833976
7.136,0.9999813825557976,-3.6343296553803786
7.144,0.9999814229985328,-3.855703866096742
7.152,0.9999814649692012,-4.077096784781162
7.16,0.9999815084390209,-4.298508282100471
7.168,0.9999815533794124,-4.519938228591421
7.176,0.9999815997619964,-4.74138649466185
7.184,0.9999816475585956,-4.962852950591906
7.192,0.9999816967412345,-5.184337466535188
7.2,0.9999817472821371,-5.405839912520009
7.208,0.99998179915373,-5.627360158450578
7.216,0.9999818523286398,-5.84889807410824
7.224,0.9999819067796937,-6.0704535291527195
7.232,0.9999819624799194,-6.292026393123342
7.24,0.9999820194025454,-6.513616535440298
7.248,0.9999820775209994,-6.735223825405921
7.256,0.9999821368089102,-6.956848132205952
7.264,0.9999821972401055,-7.178489324910787
7.272,0.9999822587886131,-7.4001472724768185
7.28,0.9999823214286598,-7.621821843747704
7.288,0.9999823851346717,-7.843512907455682
7.296,0.9999824498812743,-8.065220332222868
7.304,0.9999825156432911,-8.286943986562633
7.312,0.999982582395745,-8.508683738880865
7.32,0.9999826501138567,-8.730439457477381
7.328,0.9999827187730452,-8.95221101054723
7.336,0.9999827883489268,-9.173998266182084
7.344,0.9999828588173163,-9.395801092371567
7.352,0.9999829301542251,-9.617619357004692
7.36,0.9999830023358622,-9.83945292787121
7.368,0.9999830753386334,-10.061301672662989
7.376,0.9999831491391403,-10.28316545897548
7.384,0.9999832237141819,-10.505044154309036
7.392,0.9999832990407526,-10.72693762607043
7.4,0.9999833750960423,-10.948845741574216
7.4079999999999995,0.9999834518574368,-11.170768368044172
7.416,0.9999835293025171,-11.392705372614852
7.4239999999999995,0.9999836074090586,-11.614656622332804
7.432,0.9999836861550314,-11.836621984158343
7.4399999999999995,0.9999837655185997,-12.058601324966688
7.448,0.9999838454781218,-12.280594511549802
7.4559999999999995,0.9999839260121495,-12.502601410617478
7.464,0.9999840070994277,-12.72462188879926
7.4719999999999995,0.999984088718894,-12.946655812645513
7.48,0.9999841708496792,-13.16870304862937
7.4879999999999995,0.9999842534711058,-13.390763463147804
7.496,0.9999843365626877,-13.612836922523625
7.504,0.9999844201041314,-13.834923293006534
7.5120000000000005,0.9999845040753331,-14.057022440775125
7.52,0.9999845884563814,-14.279134231938007
7.5280000000000005,0.9999846732275538,-14.501258532535774
7.536,0.9999847583693184,-14.723395208542176
7.5440000000000005,0.999984843862333,-14.945544125866066
7.552,0.999984929687444,-15.167705150352619
7.5600000000000005,0.9999850158256873,-15.389878147785282
7.568,0.9999851022582865,-15.612062983887009
7.5760000000000005,0.9999851889666543,-15.834259524322238
7.584,0.9999852759323896,-16.056467634698095
7.5920000000000005,0.9999853631372793,-16.27868718056645
7.6,0.9999854505632966,-16.50091802742512
7.6080000000000005,0.9999855381926013,-16.72316004071987
7.616,0.9999856260075387,-16.94541308584573
7.6240000000000006,0.9999857139906398,-17.16767702814897
7.632,0.9999858021246206,-17.389951732928395
7.640000000000001,0.9999858903923813,-17.61223706543739
7.648,0.9999859787770066,-17.834532890885185
7.656000000000001,0.9999860672617645,-18.056839074438972
7.664,0.9999861558301056,-18.279155481225118
7.672,0.9999862444656644,-18.501481976331295
7.68,0.9999863331522567,-18.72381842480784
7.688,0.9999864218738798,-18.946164691669658
7.696,0.9999865106147131,-19.16852064189783
7.704,0.9999865993591162,-19.39088614044137
7.712,0.9999866880916283,-19.613261052218977
7.72,0.9999867767969699,-19.83564524212069
7.728,0.9999868654600388,-20.05803857500967
7.736,0.9999869540659134,-20.28044091572395
7.744,0.9999870425998485,-20.502852129078175
7.752,0.9999871310472781,-20.72527207986532
7.76,0.9999872193938124,-20.94770063285852
7.768,0.9999873076252389,-21.170137652812777
7.776,0.9999873957275205,-21.392583004466776
7.784,0.9999874836867956,-21.615036552544638
7.792,0.9999875714893788,-21.837498161757694
7.8,0.9999876591217572,-22.05996769680634
7.808,0.9999877465705942,-22.282445022381747
7.816,0.9999878338227244,-22.504930003167743
7.824,0.9999879208651565,-22.727422503842558
7.832,0.9999880076850707,-22.9499223890807
7.84,0.9999880942698195,-23.172429523554726
7.848,0.9999881806069257,-23.394943771937086
7.856,0.9999882666840838,-23.617464998901955
7.864,0.9999883524891563,-23.839993069127082
7.872,0.9999884380101779,-24.062527847295602
7.88,0.9999885232353485,-24.28506919809792
7.888,0.9999886081530395,-24.507616986233547
7.896,0.9999886927517876,-24.730171076412926
7.904,0.9999887770202981,-24.952731333359385
7.912,0.9999888609474407,-25.175297621810895
7.92,0.9999889445222526,-25.397869806522024
7.928,0.9999890277339355,-25.62044775226578
7.936,0.9999891105718555,-25.8430313238355
7.944,0.9999891930255429,-26.06562038604675
7.952,0.9999892750846907,-26.288214803739212
7.96,0.9999893567391555,-26.51081444177856
7.968,0.9999894379789546,-26.733419165058404
7.976,0.9999895187942677,-26.956028838502167
7.984,0.999989599175435,-27.178643327064986
7.992,0.9999896791129564,-27.40126249573567
8.0,0.9999897585974922,-27.623886209538576
8.008,0.9999898376198602,-27.846514333535556
8.016,0.9999899161710373,-28.06914673282795
8.024000000000001,0.9999899942421571,-28.291783272558362
8.032,0.9999900718245109,-28.51442381791265
8.04,0.9999901489095454,-28.737068234122038
8.048,0.9999902254888634,-28.9597163864649
8.056000000000001,0.999990301554222,-29.182368140268654
8.064,0.9999903770975328,-29.405023360911787
8.072,0.9999904521108604,-29.627681913825946
8.08,0.9999905265864227,-29.85034366449772
8.088000000000001,0.9999906005165893,-30.07300847847063
8.096,0.9999906738938822,-30.29567622134704
8.104,0.9999907467109719,-30.518346758790404
8.112,0.9999908189606819,-30.741019956526973
8.120000000000001,0.9999908906359821,-30.96369568034775
8.128,0.9999909617299934,-31.186373796110644
8.136,0.9999910322359832,-31.409054169742387
8.144,0.9999911021473664,-31.63173666724058
8.152000000000001,0.9999911714577051,-31.854421154675467
8.16,0.9999912401607062,-32.077107498192106
8.168,0.9999913082502228,-32.29979556401241
8.176,0.9999913757202509,-32.522485218437104
8.184000000000001,0.9999914425649318,-32.74517632784755
8.192,0.9999915087785489,-32.967868758707944
8.2,0.9999915743555274,-33.19056237756733
8.208,0.9999916392904351,-33.413257051061585
8.216000000000001,0.9999917035779796,-33.63595264591529
8.224,0.9999917672130092,-33.85864902894383
8.232,0.9999918301905107,-34.08134606705557
8.24,0.9999918925056106,-34.30404362725371
8.248000000000001,0.9999919541535723,-34.52674157663827
8.256,0.9999920151297964,-34.74943978240811
8.264,0.9999920754298204,-34.972138111863174
8.272,0.9999921350493168,-35.19483643240637
8.280000000000001,0.999992193984093,-35.41753461154546
8.288,0.9999922522300914,-35.64023251689526
8.296,0.9999923097833862,-35.8629300161797
8.304,0.9999923666401858,-36.08562697723382
8.312,0.9999924227968291,-36.308323268005616
8.32,0.9999924782497872,-36.53101875655845
8.328,0.9999925329956607,-36.7537133110727
8.336,0.9999925870311803,-36.976406799848135
8.344,0.9999926403532053,-37.19909909130563
8.352,0.999992692958723,-37.4217900539896
8.36,0.9999927448448481,-37.64447955656957
8.368,0.9999927960088218,-37.86716746784271
8.376,0.9999928464480109,-38.08985365673545
8.384,0.9999928961599076,-38.31253799230589
8.392,0.9999929451421276,-38.535220343745515
8.4,0.9999929933924107,-38.75790058038159
8.408,0.999993040908619,-38.98057857167877
8.416,0.9999930876887366,-39.20325418724172
8.424,0.9999931337308687,-39.425927296816525
8.432,0.9999931790332405,-39.64859777029336
8.44,0.9999932235941978,-39.87126547770797
8.448,0.9999932674122037,-40.09393028924427
8.456,0.99999331048584,-40.31659207523586
8.464,0.9999933528138063,-40.539250706168566
8.472,0.9999933943949176,-40.76190605268204
8.48,0.9999934352281051,-40.984557985572266
8.488,0.9999934753124143,-41.207206375793156
8.496,0.9999935146470056,-41.429851094459025
8.504,0.9999935532311521,-41.652492012846295
8.512,0.9999935910642392,-41.87512900239578
8.52,0.9999936281457645,-42.097761934714555
8.528,0.9999936644753366,-42.32039068157826
8.536,0.9999937000526733,-42.543015114932764
8.544,0.9999937348776027,-42.76563510689668
8.552,0.9999937689500606,-42.98825052976292
8.56,0.9999938022700915,-43.210861256001245
8.568,0.9999938348378462,-43.43346715825984
8.576,0.9999938666535813,-43.656068109367745
8.584,0.9999938977176596,-43.87866398233657
8.592,0.9999939280305479,-44.10125465036288
8.6,0.9999939575928166,-44.32383998682989
8.608,0.9999939864051399,-44.5464198653098
8.616,0.9999940144682935,-44.76899415956558
8.624,0.9999940417831543,-44.99156274355329
8.632,0.9999940683507,-45.214125491423786
8.64,0.999994094172009,-45.43668227752511
8.648,0.9999941192482571,-45.659232976404155
8.656,0.9999941435807191,-45.88177746280909
8.664,0.9999941671707673,-46.10431561169097
8.672,0.9999941900198702,-46.3268472982062
8.68,0.9999942121295926,-46.54937239771808
8.688,0.9999942335015941,-46.77189078579937
8.696,0.9999942541376281,-46.99440233823378
8.704,0.999994274039542,-47.21690693101847
8.712,0.9999942932092754,-47.43940444036559
8.72,0.9999943116488603,-47.661894742704796
8.728,0.9999943293604191,-47.88437771468479
8.736,0.9999943463461646,-48.10685323317573
8.744,0.9999943626083997,-48.32932117527091
8.752,0.9999943781495145,-48.55178141828904
8.76,0.9999943929719882,-48.77423383977599
8.768,0.9999944070783874,-48.99667831750711
8.776,0.9999944204713639,-49.2191147294888
8.784,0.9999944331536551,-49.44154295396098
8.792,0.999994445128084,-49.66396286939864
8.8,0.9999944563975567,-49.886374354514224
8.808,0.9999944669650627,-50.108777288259226
8.815999999999999,0.9999944768336738,-50.33117154982652
8.824,0.9999944860065437,-50.55355701865219
8.832,0.9999944944869064,-50.77593357441744
8.84,0.9999945022780761,-50.99830109705053
8.847999999999999,0.9999945093834465,-51.22065946672904
8.856,0.9999945158064895,-51.44300856388162
8.864,0.999994521550754,-51.66534826918983
8.872,0.999994526619867,-51.88767846359028
8.879999999999999,0.9999945310175309,-52.1099990282766
8.888,0.9999945347475239,-52.33230984470136
8.896,0.9999945378136978,-52.5546107945779
8.904,0.9999945402199796,-52.77690175988229
8.911999999999999,0.9999945419703677,-52.99918262285552
8.92,0.9999945430689346,-53.22145326600518
8.928,0.9999945435198226,-53.44371357210739
8.936,0.9999945433272457,-53.6659634242088
8.943999999999999,0.9999945424954876,-53.88820270562858
8.952,0.9999945410289012,-54.110431299960254
8.96,0.9999945389319078,-54.33264909107356
8.968,0.9999945362089967,-54.55485596311639
8.975999999999999,0.9999945328647235,-54.777051800516794
8.984,0.9999945289037107,-54.99923648798483
8.992,0.999994524330646,-55.22140991051431
9.0,0.9999945191502809,-55.44357195338482
9.008,0.9999945133674326,-55.66572250216369
9.016,0.9999945069869802,-55.88786144270776
9.024000000000001,0.9999945000138649,-56.10998866116514
9.032,0.9999944924530912,-56.33210404397726
9.04,0.9999944843097233,-56.55420747788071
9.048,0.9999944755888858,-56.77629884990912
9.056000000000001,0.9999944662957629,-56.99837804739481
9.064,0.9999944564355986,-57.22044495797081
9.072,0.999994446013693,-57.44249946957278
9.08,0.9999944350354052,-57.66454147044066
9.088000000000001,0.9999944235061499,-57.886570849120574
9.096,0.9999944114313981,-58.10858749446661
9.104,0.9999943988166764,-58.33059129564278
9.112,0.9999943856675649,-58.55258214212479
9.120000000000001,0.9999943719896982,-58.77455992370163
9.128,0.9999943577887639,-58.99652453047759
9.136,0.9999943430705014,-59.21847585287405
9.144,0.9999943278407025,-59.44041378163131
9.152000000000001,0.9999943121052094,-59.66233820781014
9.16,0.9999942958699144,-59.88424902279366
9.168,0.9999942791407603,-60.10614611828935
9.176,0.9999942619237379,-60.328029386330535
9.184000000000001,0.9999942442248861,-60.54989871927818
9.192,0.9999942260502925,-60.771754009822644
9.2,0.9999942074060904,-60.99359515098563
9.208,0.9999941882984592,-61.215422036121694
9.216000000000001,0.9999941687336246,-61.43723455891999
9.224,0.9999941487178569,-61.65903261340602
9.232,0.99999412825747,-61.880816093943494
9.24,0.9999941073588221,-62.10258489523592
9.248000000000001,0.9999940860283139,-62.32433891232825
9.256,0.9999940642723878,-62.54607804060856
9.264,0.999994042097529,-62.76780217581003
9.272,0.9999940195102622,-62.98951121401231
9.280000000000001,0.9999939965171538,-63.21120505164331
9.288,0.9999939731248089,-63.432883585480795
9.296,0.9999939493398718,-63.65454671265422
9.304,0.9999939251690255,-63.87619433064634
9.312000000000001,0.9999939006189903,-64.09782633729462
9.32,0.9999938756965245,-64.31944263079309
9.328,0.9999938504084218,-64.54104310969404
9.336,0.9999938247615129,-64.76262767290956
9.344,0.9999937987626636,-64.98419621971294
9.352,0.9999937724187737,-65.20574864974071
9.36,0.9999937457367785,-65.42728486299384
9.368,0.9999937187236455,-65.64880475983966
9.376,0.9999936913863764,-65.87030824101309
9.384,0.9999936637320044,-66.09179520761865
9.392,0.999993635767595,-66.31326556113157
9.4,0.9999936075002452,-66.5347192033998
9.408,0.9999935789370822,-66.75615603664512
9.416,0.9999935500852639,-66.97757596346517
9.424,0.9999935209519774,-67.19897888683447
9.432,0.9999934915444388,-67.42036471010641
9.44,0.9999934618698931,-67.6417333370144
9.448,0.9999934319356135,-67.86308467167375
9.456,0.9999934017489001,-68.08441861858275
9.464,0.9999933713170799,-68.30573508262462
9.472,0.9999933406475076,-68.52703396906858
9.48,0.9999933097475618,-68.74831518357166
9.488,0.9999932786246482,-68.96957863217996
9.496,0.9999932472861968,-69.19082422133025
9.504,0.9999932157396623,-69.41205185785121
9.512,0.9999931839925227,-69.63326144896524
9.52,0.9999931520522802,-69.8544529022895
9.528,0.9999931199264601,-70.07562612583766
9.536,0.9999930876226092,-70.296781028021
9.544,0.9999930551482975,-70.51791751765022
9.552,0.9999930225111162,-70.73903550393638
9.56,0.9999929897186779,-70.96013489649275
9.568,0.9999929567786154,-71.18121560533578
