freq,mag,phase
6.0,0.9999926631728222,-19.221412295619555
6.008,0.9999943550206357,-19.51699818088273
6.016,0.999995981878111,-19.81253363208018
6.024,0.9999975449560078,-20.10801782468718
6.032,0.9999990454531593,-20.403449936628274
6.04,1.0000000000000002,-20.69882914830157
6.048,1.0000000000000002,-20.994154642602847
6.056,1.0,-21.28942560494956
6.064,1.0,-21.584641223304615
6.072,1.0,-21.87980068820012
6.08,1.0,-22.174903192760805
6.088,1.0,-22.469947932727425
6.096,1.0,-22.76493410647996
6.104,0.9999999999999999,-23.05986091506061
6.112,1.0,-23.35472756219671
6.12,0.9999999999999999,-23.649533254323416
6.128,1.0,-23.94427720060622
6.136,0.9999999999999999,-24.238958612963376
6.144,1.0,-24.53357670608806
6.152,0.9999999999999999,-24.828130697470446
6.16,1.0,-25.12261980741956
6.168,0.9999999999999999,-25.417043259084945
6.176,1.0,-25.711400278478227
6.184,0.9999999999999999,-26.005690094494454
6.192,1.0,-26.299911938933242
6.2,1.0,-26.594065046519837
6.208,1.0,-26.88814865492584
6.216,0.9999999999999999,-27.182162004789912
6.224,1.0,-27.476104339738253
6.232,1.0,-27.76997490640482
6.24,1.0,-28.063772954451448
6.248,1.0,-28.357497736587824
6.256,0.9999999999999999,-28.65114850859114
6.264,1.0,-28.94472452932564
6.272,1.0,-29.23822506076208
6.28,0.9999999999999999,-29.5316493679968
6.288,0.9999999999999999,-29.82499671927071
6.296,1.0,-30.118266385988182
6.304,0.9999999999999999,-30.411457642735577
6.312,1.0,-30.704569767299727
6.32,0.9999999999999999,-30.997602040686033
6.328,1.0,-31.290553747136695
6.336,0.9999999999999999,-31.583424174148405
6.344,0.9999999999999999,-31.876212612490043
6.352,1.0000000000000002,-32.16891835622017
6.36,1.0,-32.46154070270424
6.368,1.0,-32.754078952631694
6.376,1.0,-33.0465324100328
6.384,0.9999999999999998,-33.33890038229538
6.392,1.0,-33.631182180181234
6.4,1.0,-33.92337711784247
6.408,1.0,-34.21548451283752
6.416,1.0,-34.50750368614708
6.424,1.0,-34.799433962189795
6.432,0.9999999999999998,-35.0912746688377
6.44,0.9999999999999999,-35.38302513743147
6.448,0.9999999999999999,-35.674684702795666
6.456,1.0,-35.96625270325341
6.464,1.0,-36.257728480641184
6.472,0.9999999999999999,-36.549111380323296
6.48,1.0,-36.84040075120616
6.4879999999999995,1.0,-37.13159594575225
6.496,1.0000000000000002,-37.422696319994266
6.504,0.9999999999999999,-37.71370123354834
6.5120000000000005,1.0,-38.00461004962805
6.52,0.9999999999999999,-38.2954221350571
6.5280000000000005,1.0,-38.58613686028298
6.536,1.0,-38.8767535993892
6.5440000000000005,1.0,-39.167271730108546
6.552,1.0000000000000002,-39.457690633834936
6.5600000000000005,1.0,-39.74800969563618
6.568,1.0,-40.03822830426562
6.5760000000000005,1.0,-40.32834585217425
6.584,1.0,-40.61836173552209
6.592,1.0,-40.90827535418986
6.6,0.9999999999999999,-41.19808611178997
6.608,1.0,-41.48779341567766
6.616,1.0,-41.77739667696176
6.624,1.0,-42.06689531051536
6.632,1.0,-42.35628873498612
6.64,1.0,-42.645576372806474
6.648,1.0,-42.9347576502037
6.656,1.0,-43.22383199720962
6.664,1.0,-43.51279884767021
6.672,1.0,-43.801657639255005
6.68,1.0,-44.090407813466236
6.688,1.0,-44.37904881564781
6.696,0.9999998805901005,-44.66758009499408
6.704,0.9999992700516821,-44.956001104558425
6.712,0.9999986596313896,-45.24431130126159
6.72,0.9999980496718399,-45.53251014589985
6.728,0.9999974405082421,-45.82059710315299
6.736,0.9999968324684612,-46.10857164159203
6.744,0.9999962258730842,-46.396433233686814
6.752,0.9999956210354878,-46.68418135581333
6.76,0.9999950182619025,-46.97181548826088
6.768,0.9999944178514807,-47.25933511523903
6.776,0.9999938200963617,-47.54673972488441
6.784,0.9999932252817387,-47.83402880926717
6.792,0.9999926336859254,-48.12120186439744
6.8,0.9999920455804213,-48.408258390231424
6.808,0.9999914612299783,-48.69519789067738
6.816,0.999990880892668,-48.982019873601416
6.824,0.9999903048199472,-49.268723850832956
6.832,0.9999897332567244,-49.55530933817028
6.84,0.9999891664414259,-49.84177585538549
6.848,0.9999886046060616,-50.1281229262297
6.856,0.9999880479762929,-50.414350078437664
6.864,0.999987496771497,-50.70045684373243
6.872,0.999986951204834,-50.986442757829764
6.88,0.9999864114833126,-51.27230736044233
6.888,0.9999858778078561,-51.55805019528369
6.896,0.9999853503733686,-51.84367081007214
6.904,0.9999848293688002,-52.12916875653436
6.912,0.9999843149772129,-52.41454359040886
6.92,0.9999838073758471,-52.699794871449214
6.928,0.9999833067361862,-52.98492216342714
6.936,0.9999828132240223,-53.26992503413538
6.944,0.9999823269995204,-53.55480305539037
6.952,0.9999818482172864,-53.8395558030348
6.96,0.9999813770264294,-54.124182856939896
6.968,0.9999809135706279,-54.408683801007555
6.976,0.9999804579881936,-54.69305822317235
6.984,0.9999800104121378,-54.97730571540323
6.992,0.9999795709702345,-55.26142587370521
7.0,0.9999791397850845,-55.54541829812064
7.008,0.9999787169741806,-55.82928259273058
7.016,0.999978302649971,-56.11301836565576
7.024,0.9999778969199232,-56.396625229057506
7.032,0.9999774998865878,-56.6801027991384
7.04,0.9999771116476613,-56.96345069614283
7.048,0.9999767322960506,-57.24666854435727
7.056,0.9999763619199346,-57.529755972110564
7.064,0.9999760006028282,-57.812712611773854
7.072,0.9999756484236443,-58.09553809976036
7.08,0.9999753054567562,-58.37823207652515
7.088,0.9999749717720607,-58.66079418656451
7.096,0.9999746474350386,-58.94322407841534
7.104,0.9999743325068184,-59.225521404654216
7.112,0.9999740270442357,-59.507685821896516
7.12,0.9999737310998958,-59.789716990795036
7.128,0.9999734447222345,-60.07161457603877
7.136,0.999973167955579,-60.3533782463514
7.144,0.9999729008402082,-60.63500767448953
7.152,0.9999726434124125,-60.91650253724089
7.16,0.9999723957045554,-61.19786251542232
7.168,0.999972157745132,-61.47908729387769
7.176,0.9999719295588276,-61.7601765614754
7.184,0.9999717111665798,-62.0411300111061
7.192,0.9999715025856346,-62.32194733967989
7.2,0.9999713038296062,-62.60262824812366
7.208,0.9999711149085354,-62.88317244137798
7.216,0.9999709358289481,-63.16357962839425
7.224,0.9999707665939116,-63.44384952213117
7.232,0.9999706072030937,-63.72398183955158
7.24,0.9999704576528191,-64.00397630161869
7.248,0.9999703179361262,-64.28383263329256
7.256,0.9999701880428239,-64.56355056352619
7.264,0.999970067959548,-64.84312982526147
7.272,0.9999699576698167,-65.1225701554251
7.28,0.9999698571540862,-65.40187129492432
7.288,0.9999697663898068,-65.68103298864244
7.296,0.9999696853514769,-65.96005498543433
7.304,0.9999696140106984,-66.23893703812163
7.312,0.9999695523362302,-66.51767890348798
7.32,0.9999695002940421,-66.79628034227402
7.328,0.9999694578473707,-67.07474111917224
7.336,0.9999694249567689,-67.35306100282175
7.344,0.9999694015801619,-67.6312397658029
7.352,0.999969387672899,-67.90927718463175
7.36,0.9999693831878048,-68.18717303975434
7.368,0.9999693880752324,-68.46492711554106
7.376,0.9999694022831143,-68.7425392002806
7.384,0.9999694257570141,-69.02000908617403
7.392,0.9999694584401759,-69.29733656932844
7.4,0.9999695002735774,-69.57452144975088
7.4079999999999995,0.9999695511959774,-69.85156353134174
7.416,0.9999696111439665,-70.12846262188846
7.4239999999999995,0.9999696800520173,-70.40521853305849
7.432,0.9999697578525318,-70.68183108039293
7.4399999999999995,0.9999698444758917,-70.9583000832992
7.448,0.9999699398505054,-71.23462536504452
7.4559999999999995,0.9999700439028563,-71.51080675274821
7.464,0.9999701565575507,-71.786844077375
7.4719999999999995,0.9999702777373644,-72.06273717372709
7.48,0.9999704073632893,-72.3384858804373
7.4879999999999995,0.9999705453545804,-72.61409003996083
7.496,0.9999706916288021,-72.88954949856816
7.504,0.9999708461018724,-73.16486410633671
7.5120000000000005,0.9999710086881088,-73.44003371714342
7.52,0.999971179300274,-73.71505818865622
7.5280000000000005,0.9999713578496192,-73.98993738232639
7.536,0.9999715442459287,-74.26467116337989
7.5440000000000005,0.9999717383975633,-74.53925940080944
7.552,0.9999719402115037,-74.81370196736565
7.5600000000000005,0.9999721495933936,-75.08799873954892
7.568,0.999972366447582,-75.36214959760035
7.5760000000000005,0.9999725906771652,-75.63615442549352
7.584,0.9999728221840285,-75.91001311092509
7.5920000000000005,0.9999730608688882,-76.18372554530642
7.6,0.9999733066313308,-76.45729162375406
7.6080000000000005,0.9999735593698564,-76.73071124508114
7.616,0.9999738189819152,-77.00398431178759
7.6240000000000006,0.9999740853639508,-77.27711073005146
7.632,0.9999743584114364,-77.55009040971895
7.640000000000001,0.9999746380189167,-77.82292326429551
7.648,0.9999749240800438,-78.09560921093568
7.656000000000001,0.999975216487617,-78.36814817043404
7.664,0.9999755151336196,-78.64054006721501
7.672,0.9999758199092574,-78.91278482932337
7.68,0.9999761307049945,-79.18488238841415
7.688,0.9999764474105901,-79.4568326797428
7.696,0.999976769915135,-79.72863564215504
7.704,0.9999770981070873,-80.00029121807681
7.712,0.9999774318743078,-80.27179935350404
7.72,0.9999777711040942,-80.54315999799233
7.728,0.999978115683217,-80.8143731046467
7.736,0.9999784654979518,-81.08543863011103
7.744,0.9999788204341156,-81.35635653455766
7.752,0.9999791803770981,-81.62712678167682
7.76,0.9999795452118949,-81.8977493386659
7.768,0.999979914823141,-82.16822417621887
7.776,0.9999802890951428,-82.43855126851545
7.784,0.9999806679119085,-82.7087305932102
7.792,0.9999810511571824,-82.97876213142177
7.8,0.9999814387144716,-83.2486458677218
7.808,0.9999818304670816,-83.51838179012397
7.816,0.9999822262981428,-83.78796989007287
7.824,0.9999826260906409,-84.05741016243287
7.832,0.9999830297274487,-84.32670260547694
7.84,0.9999834370913516,-84.59584722087529
7.848,0.99998384806508,-84.86484401368415
7.856,0.999984262531334,-85.13369299233439
7.864,0.9999846803728137,-85.40239416862
7.872,0.9999851014722462,-85.67094755768669
7.88,0.999985525712412,-85.93935317802031
7.888,0.9999859529761725,-86.20761105143532
7.896,0.9999863831464962,-86.47572120306307
7.904,0.9999868161064841,-86.74368366134021
7.912,0.9999872517393967,-87.01149845799685
7.92,0.9999876899286773,-87.27916562804488
7.928,0.9999881305579779,-87.54668520976612
7.936,0.9999885735111845,-87.81405724470045
7.944,0.9999890186724393,-88.08128177763385
7.952,0.999989465926166,-88.3483588565865
7.96,0.9999899151570918,-88.61528853280082
7.968,0.9999903662502724,-88.88207086072939
7.976,0.9999908190911122,-89.14870589802283
7.984,0.999991273565388,-89.41519370551781
7.992,0.999991729559271,-89.68153434722481
8.0,0.9999921869593476,-89.94772789031599
8.008,0.9999926456526405,-90.21377440511291
8.016,0.99999310552663,-90.47967396507444
8.024000000000001,0.9999935664692751,-90.74542664678422
8.032,0.9999940283690314,-91.0110325299385
8.04,0.9999944911148729,-91.27649169733394
8.048,0.9999949545963107,-91.541804234855
8.056000000000001,0.9999954187034119,-91.80697023146156
8.064,0.9999958833268184,-92.07198977917656
8.072,0.9999963483577645,-92.33686297307362
8.08,0.9999968136880962,-92.60158991126451
8.088000000000001,0.999997279210288,-92.86617069488648
8.096,0.9999977448174607,-93.13060542808985
8.104,0.9999982104033968,-93.3948942180256
8.112,0.9999986758625595,-93.65903717483265
8.120000000000001,0.9999991410901072,-93.92303441162517
8.128,0.9999996059819106,-94.18688604448009
8.136,0.9999999999999999,-94.45059219242454
8.144,0.9999999999999999,-94.71415297742311
8.152000000000001,1.0,-94.97756852436507
8.16,0.9999999999999998,-95.24083896105181
8.168,0.9999999999999998,-95.5039644181842
8.176,0.9999999999999999,-95.76694502934983
8.184000000000001,1.0,-96.02978093101012
8.192,1.0,-96.2924722624877
8.2,0.9999999999999999,-96.5550191659538
8.208,1.0,-96.8174217864153
8.216000000000001,1.0,-97.07968027170193
8.224,1.0,-97.34179477245355
8.232,0.9999999999999999,-97.60376544210749
8.24,0.9999999999999999,-97.86559243688558
8.248000000000001,1.0,-98.12727591578131
8.256,0.9999999999999999,-98.3888160405471
8.264,0.9999999999999999,-98.65021297568155
8.272,1.0,-98.9114668884166
8.280000000000001,0.9999999999999999,-99.17257794870447
8.288,1.0,-99.43354632920506
8.296,0.9999999999999999,-99.69437220527311
8.304,0.9999999999999998,-99.95505575494538
8.312,1.0,-100.21559715892757
8.32,0.9999999999999999,-100.47599660058187
8.328,1.0,-100.73625426591371
8.336,0.9999999999999999,-100.99637034355942
8.344,1.0,-101.25634502477283
8.352,0.9999999999999999,-101.51617850341302
8.36,0.9999999999999998,-101.77587097593096
8.368,1.0,-102.03542264135721
8.376,1.0,-102.29483370128858
8.384,1.0,-102.55410435987586
8.392,0.9999999999999998,-102.81323482381048
8.4,0.9999999999999998,-103.07222530231226
8.408,0.9999999999999999,-103.33107600711607
8.416,1.0,-103.58978715245962
8.424,1.0,-103.84835895507017
8.432,0.9999999999999999,-104.10679163415217
8.44,1.0,-104.36508541137421
8.448,1.0,-104.62324051085659
8.456,1.0,-104.88125715915825
8.464,1.0,-105.13913558526444
8.472,1.0,-105.39687602057359
8.48,0.9999999999999998,-105.6544786988851
8.488,0.9999999999999999,-105.91194385638617
8.496,0.9999999999999999,-106.16927173163961
8.504,1.0,-106.42646256557077
8.512,0.9999999999999999,-106.68351660145541
8.52,0.9999999999999999,-106.94043408490647
8.528,0.9999999999999999,-107.19721526386212
8.536,1.0,-107.4538603885726
8.544,1.0,-107.71036971158819
8.552,1.0,-107.9667434877462
8.56,0.9999999999999999,-108.2229819741589
8.568,1.0,-108.47908543020053
8.576,1.0,-108.73505411749535
8.584,1.0,-108.99088829990467
8.592,0.9999999999999999,-109.24658824351485
8.6,0.9999999999999999,-109.50215421662453
8.608,1.0,-109.75758648973252
8.616,0.9999999999999998,-110.01288533552518
8.624,1.0,-110.2680510288643
8.632,1.0,-110.52308384677458
8.64,1.0,-110.77798406843151
8.648,0.9999999999999999,-111.03275197514884
8.656,0.9999999999999999,-111.28738785036668
8.664,1.0000000000000002,-111.54189197963888
8.672,1.0,-111.79626465062121
8.68,1.0,-112.05050615305882
8.688,1.0,-112.30461677877446
8.696,1.0,-112.55859682165597
8.704,0.9999999999999999,-112.81244657764455
8.712,1.0,-113.0661663447224
8.72,1.0,-113.31975642290095
8.728,0.9999999999999999,-113.57321711420855
8.736,0.9999999999999999,-113.82654872267877
8.744,0.9999999999999999,-114.07975155433823
8.752,0.9999999999999998,-114.33282591719487
8.76,0.9999999999999999,-114.58577212122584
8.768,1.0,-114.83859047836592
8.776,0.9999999999999999,-115.09128130249528
8.784,0.9999999999999999,-115.34384490942823
8.792,1.0,-115.59628161690081
8.8,1.0,-115.8485917445597
8.808,0.9999999999999998,-116.10077561394993
8.815999999999999,0.9999999999999999,-116.3528335485037
8.824,1.0,-116.6047658735284
8.832,1.0,-116.8565729161951
8.84,1.0,-117.10825500552698
8.847999999999999,1.0,-117.35981247238783
8.856,1.0,-117.61124564947063
8.864,1.0,-117.86255487128575
8.872,0.9999999999999999,-118.11374047414975
8.879999999999999,0.9999999999999999,-118.36480279617403
8.888,0.9999999999999999,-118.6157421772534
8.896,0.9999999999999999,-118.86655895905453
8.904,1.0,-119.11725348500492
8.911999999999999,1.0,-119.3678261002816
8.92,1.0,-119.61827715179989
8.928,0.9999999999999999,-119.86860698820196
8.936,0.9999999999999999,-120.11881595984596
8.943999999999999,0.9999999999999999,-120.36890441879491
8.952,0.9999999999999999,-120.61887271880546
8.96,1.0,-120.86872121531685
8.968,1.0,-121.1184502654399
8.975999999999999,1.0,-121.36806022794627
8.984,1.0,-121.61755146325723
8.992,0.9999999999999999,-121.86692433343283
9.0,1.0000000000000002,-122.11617920216106
9.008,0.9999999999999999,-122.36531643474717
9.016,0.9999999999999998,-122.61433639810271
9.024000000000001,0.9999999999999999,-122.86323946073475
9.032,0.9999999999999999,-123.11202599273525
9.04,1.0,-123.3606963657705
9.048,1.0,-123.60925095307037
9.056000000000001,1.0,-123.85769012941766
9.064,0.9999999999999999,-124.10601427113751
9.072,0.9999999999999999,-124.3542237560872
9.08,0.9999999999999999,-124.60231896364539
9.088000000000001,0.9999999999999999,-124.8503002747017
9.096,1.0000000000000002,-125.09816807164631
9.104,1.0,-125.34592273835982
9.112,1.0000000000000002,-125.59356466020274
9.120000000000001,0.9999999999999999,-125.84109422400513
9.128,1.0,-126.08851181805649
9.136,1.0,-126.3358178320956
9.144,1.0,-126.58301265730042
9.152000000000001,0.9999999999999999,-126.83009668627761
9.16,1.0,-127.07707031305284
9.168,1.0,-127.32393393306054
9.176,1.0,-127.5706879431342
9.184000000000001,0.9999999999999999,-127.81733274149586
9.192,0.9999999999999999,-128.0638687277467
9.2,1.0,-128.3102963028569
9.208,1.0,-128.55661586915605
9.216000000000001,1.0,-128.80282783032303
9.224,1.0,-129.04893259137637
9.232,1.0,-129.2949305586647
9.24,1.0,-129.54082213985706
9.248000000000001,1.0,-129.78660774393293
9.256,0.9999999999999999,-130.03228778117293
9.264,0.9999999999999999,-130.2778626631493
9.272,0.9999999999999999,-130.5233328027163
9.280000000000001,1.0,-130.76869861400073
9.288,0.9999999999999999,-131.01396051239232
9.296,1.0,-131.25911891453478
9.304,1.0,-131.5041742383162
9.312000000000001,1.0,-131.74912690285964
9.32,1.0,-131.99397732851392
9.328,1.0,-132.23872593684465
9.336,0.9999999999999999,-132.48337315062477
9.344,0.9999999999999999,-132.72791939382535
9.352,0.9999999999999999,-132.97236509160683
9.36,1.0,-133.21671067030957
9.368,1.0,-133.46095655744523
9.376,1.0,-133.7051031816873
9.384,1.0,-133.9491509728627
9.392,0.9999999999999999,-134.19310036194236
9.4,1.0,-134.4369517810329
9.408,1.0,-134.68070566336723
9.416,0.9999999999999999,-134.92436244329633
9.424,1.0,-135.16792255628005
9.432,1.0,-135.41138643887882
9.44,1.0,-135.65475452874458
9.448,1.0,-135.8980272646126
9.456,0.9999999999999999,-136.14120508629247
9.464,1.0,-136.38428843466002
9.472,1.0,-136.6272777516483
9.48,0.9999999999999999,-136.87017348023966
9.488,1.0,-137.11297606445694
9.496,1.0,-137.35568594935538
9.504,1.0,-137.59830358101397
9.512,0.9999999999999999,-137.84082940652746
9.52,1.0,-138.08326387399788
9.528,1.0,-138.32560743252657
9.536,1.0,-138.56786053220563
9.544,1.0,-138.81002362411033
9.552,1.0,-139.05209716029032
9.56,0.9999999999999999,-139.29408159376223
9.568,1.0,-139.53597737850117
9.576,1.0,-139.7777849694331
9.584,1.0,-140.01950482242654
9.592,1.0,-140.26113739428513
9.6,0.9999999999999999,-140.50268314273916
9.608,1.0,-140.74414252643837
9.616,0.9999999999999999,-140.98551600494363
9.624,1.0,-141.22680403871968
9.632,1.0,-141.4680070891269
9.64,1.0,-141.70912561841413
9.648,0.9999999999999999,-141.95016008971066
9.656,0.9999999999999999,-142.19111096701897
9.664,1.0,-142.4319787152067
9.672,0.9999999999999999,-142.67276379999973
9.68,0.9999999999999999,-142.9134666879741
9.688,1.0,-143.1540878465491
9.696,1.0,-143.39462774397933
9.704,1.0,-143.6350868493479
9.712,1.0,-143.87546563255856
9.72,0.9999999999999999,-144.11576456432874
9.728,1.0,-144.35598411618213
9.736,0.9999999999999999,-144.5961247604416
9.744,1.0,-144.83618697022177
9.752,0.9999999999999999,-145.0761712194222
9.76,1.0,-145.31607798271986
9.768,1.0,-145.5559077355624
9.776,1.0,-145.79566095416092
9.784,1.0,-146.03533811548309
9.792,1.0,-146.27493969724588
9.8,1.0,-146.51446617790907
9.808,0.9999999999999999,-146.7539180366679
9.816,1.0,-146.99329575344666
9.824,1.0,-147.23259980889125
9.832,1.0,-147.47183068436306
9.84,1.0,-147.71098886193155
9.847999999999999,1.0,-147.95007482436813
9.856,1.0,-148.18908905513902
9.864,1.0,-148.42803203839873
9.872,1.0,-148.66690425898338
9.879999999999999,0.9999999999999999,-148.90570620240422
9.888,1.0,-149.14443835484104
9.896,1.0,-149.38310120313554
9.904,0.9999999999999999,-149.6216952347847
9.911999999999999,0.9999999999999999,-149.86022093793486
9.92,1.0,-150.09867880137466
9.928,1.0,-150.33706931452895
9.936,1.0,-150.57539296745233
9.943999999999999,1.0,-150.81365025082295
9.952,1.0,-151.05184165593607
9.96,0.9999999999999999,-151.28996767469778
9.968,0.9999999999999999,-151.52802879961877
9.975999999999999,0.9999999999999999,-151.76602552380822
9.984,1.0,-152.00395834096759
9.992,0.9999999564974023,-152.24182774538423
10.0,0.9999995601470367,-152.4796342319256
10.008,0.9999991638081995,-152.7173782960329
10.016,0.9999987675378536,-152.9550604337154
