freq,mag,phase
6.0,0.9999981258998761,48.59852556549788
6.008,0.9999964457574105,48.382495851285675
6.016,0.9999947928492823,48.166350653744786
6.024,0.9999931669624063,47.950090259600145
6.032,0.9999915678842369,47.73371495769444
6.04,0.9999899954027727,47.51722503898852
6.048,0.9999884493065588,47.30062079656159
6.056,0.9999869293846919,47.08390252561141
6.064,0.9999854354268227,46.86707052345439
6.072,0.99998396722316,46.650125089525595
6.08,0.9999825245644746,46.4330665253787
6.088,0.9999811072421025,46.21589513468579
6.096,0.9999797150479486,45.99861122323716
6.104,0.9999783477744906,45.781215098941054
6.112,0.9999770052147818,45.56370707182321
6.12,0.9999756871624566,45.34608745402634
6.128,0.999974393411731,45.12835655980973
6.136,0.9999731237574091,44.91051470554846
6.144,0.9999718779948852,44.69256220973269
6.152,0.9999706559201472,44.47449939296697
6.16,0.9999694573297815,44.25632657796921
6.168,0.9999682820209743,44.038044089569766
6.176,0.9999671297915181,43.81965225471042
6.184,0.999966000439812,43.60115140244315
6.192,0.9999648937648674,43.38254186392895
6.2,0.9999638095663115,43.16382397243653
6.208,0.9999627476443889,42.944998063340876
6.216,0.9999617077999673,42.72606447412176
6.224,0.9999606898345397,42.50702354436224
6.232,0.9999596935502277,42.28787561574683
6.24,0.9999587187497866,42.06862103205996
6.248,0.9999577652366065,41.84926013918402
6.256,0.9999568328147173,41.62979328509742
6.264,0.9999559212887914,41.41022081987266
6.272,0.9999550304641476,41.1905430956741
6.28,0.9999541601467538,40.97076046675594
6.288,0.9999533101432315,40.75087328945981
6.296,0.9999524802608583,40.5308819222124
6.304,0.9999516703075702,40.31078672552314
6.312,0.9999508800919675,40.090588061981435
6.32,0.9999501094233162,39.87028629625426
6.328,0.9999493581115518,39.649881795083246
6.336,0.9999486259672825,39.42937492728196
6.344,0.9999479128017924,39.20876606373295
6.352,0.9999472184270451,38.98805557738477
6.36,0.9999465426556866,38.76724384324887
6.368,0.9999458853010486,38.54633123839645
6.376,0.9999452461771515,38.32531814195514
6.384,0.9999446250987084,38.104204935105635
6.392,0.9999440218811271,37.88299200107824
6.4,0.9999434363405136,37.66167972514936
6.408,0.9999428682936761,37.44026849463784
6.416,0.9999423175581266,37.21875869890111
6.424,0.9999417839520852,36.99715072933155
6.432,0.9999412672944831,36.77544497935244
6.44,0.9999407674049644,36.55364184441399
6.448,0.9999402841038907,36.33174172198917
6.456,0.9999398172123433,36.1097450115696
6.464,0.999939366552126,35.887652114661186
6.472,0.999938931945769,35.665463434779745
6.48,0.9999385132165303,35.44317937744656
6.4879999999999995,0.9999381101884005,35.22080035018374
6.496,0.999937722686104,34.99832676250948
6.504,0.9999373505351029,34.775759025933596
6.5120000000000005,0.9999369935615997,34.553097553952234
6.52,0.9999366515925401,34.33034276204335
6.5280000000000005,0.9999363244556148,34.10749506766124
6.536,0.9999360119792643,33.88455489023176
6.5440000000000005,0.9999357139926801,33.661522651146804
6.552,0.9999354303258078,33.438398773759225
6.5600000000000005,0.99993516080935,33.21518368337713
6.568,0.9999349052747687,32.99187780725863
6.5760000000000005,0.9999346635542888,32.76848157460596
6.584,0.9999344354808996,32.54499541656008
6.592,0.9999342208883573,32.32141976619447
6.6,0.9999340196111898,32.09775505850956
6.608,0.9999338314846962,31.874001730426635
6.616,0.9999336563449517,31.65016022078164
6.624,0.9999334940288084,31.426230970319114
6.632,0.9999333443738992,31.20221442168585
6.64,0.9999332072186402,30.978111019424524
6.648,0.9999330824022307,30.753921209967242
6.656,0.9999329697646595,30.529645441628915
6.664,0.9999328691467041,30.30528416460068
6.672,0.9999327803899347,30.08083783094307
6.68,0.9999327033367156,29.856306894579195
6.688,0.999932637830208,29.631691811287798
6.696,0.9999325837143722,29.40699303869619
6.704,0.9999325408339707,29.182211036273113
6.712,0.9999325090345674,28.957346265321554
6.72,0.9999324881625339,28.732399188971367
6.728,0.9999324780650481,28.50737027217188
6.736,0.9999324785900989,28.28225998168436
6.744,0.9999324895864864,28.057068786074428
6.752,0.9999325109038248,27.831797155704383
6.76,0.9999325423925449,27.6064455627253
6.768,0.9999325839038947,27.38101448106928
6.776,0.999932635289943,27.155504386441347
6.784,0.9999326964035793,26.929915756311484
6.792,0.9999327670985183,26.704249069906346
6.8,0.999932847229299,26.478504808201112
6.808,0.9999329366512882,26.252683453911022
6.816,0.9999330352206826,26.026785491483032
6.824,0.9999331427945091,25.80081140708718
6.832,0.9999332592306276,25.574761688608053
6.84,0.9999333843877319,25.34863682563595
6.848,0.9999335181253526,25.122437309458174
6.856,0.9999336603038571,24.896163633050065
6.864,0.9999338107844526,24.669816291066
6.872,0.9999339694291868,24.443395779830343
6.88,0.9999341361009496,24.216902597328218
6.888,0.9999343106634748,23.990337243196286
6.896,0.9999344929813415,23.763700218713325
6.904,0.9999346829199748,23.536992026790855
6.912,0.9999348803456486,23.310213171963547
6.92,0.9999350851254852,23.083364160379574
6.928,0.9999352971274581,22.856445499790972
6.936,0.9999355162203922,22.629457699543753
6.944,0.9999357422739659,22.40240127056806
6.952,0.9999359751587116,22.175276725368157
6.96,0.9999362147460168,21.948084578012377
6.968,0.9999364609081264,21.72082534412294
6.976,0.9999367135181415,21.493499540865734
6.984,0.999936972450023,21.266107686940003
6.992,0.999937237578591,21.038650302567827
7.0,0.9999375087795258,20.811127909483766
7.008,0.9999377859293694,20.583541030924156
7.016,0.9999380689055266,20.35589019161649
7.024,0.9999383575862647,20.128175917768633
7.032,0.9999386518507154,19.90039873705803
7.04,0.9999389515788752,19.67255917862067
7.048,0.9999392566516058,19.444657773040237
7.056,0.999939566950635,19.216695052336878
7.064,0.9999398823585575,18.988671549956084
7.072,0.9999402027588362,18.760587800757445
7.08,0.9999405280358008,18.53244434100327
7.088,0.9999408580746497,18.304241708347238
7.096,0.999941192761451,18.075980441822843
7.104,0.9999415319831416,17.847661081831784
7.112,0.9999418756275288,17.619284170132403
7.12,0.9999422235832895,17.39085024982786
7.128,0.9999425757399711,17.16235986535438
7.136,0.9999429319879928,16.933813562469297
7.144,0.9999432922186434,16.70521188823912
7.152,0.9999436563240839,16.47655539102752
7.16,0.9999440241973464,16.247844620483082
7.168,0.9999443957323345,16.01908012752727
7.176,0.9999447708238237,15.790262464342002
7.184,0.9999451493674606,15.561392184357395
7.192,0.999945531259764,15.332469842239306
7.2,0.9999459163981237,15.103495993876821
7.208,0.9999463046808014,14.874471196369718
7.216,0.9999466960069299,14.645396008015787
7.224,0.9999470902765134,14.416270988298136
7.232,0.9999474873904264,14.187096697872436
7.24,0.9999478872504153,13.95787369855397
7.248,0.9999482897590958,13.728602553304798
7.256,0.9999486948199541,13.499283826220747
7.264,0.9999491023373461,13.269918082518283
7.272,0.9999495122164967,13.040505888521471
7.28,0.9999499243634994,12.8110478116487
7.288,0.9999503386853171,12.581544420399467
7.296,0.9999507550897787,12.351996284341016
7.304,0.9999511734855816,12.122403974094949
7.312,0.9999515937822887,11.89276806132378
7.32,0.9999520158903294,11.663089118717378
7.328,0.9999524397209978,11.43336771997942
7.336,0.9999528651864521,11.203604439813684
7.344,0.9999532921997142,10.973799853910423
7.352,0.9999537206746689,10.743954538932492
7.36,0.9999541505260621,10.514069072501577
7.368,0.9999545816695008,10.284144033184303
7.376,0.9999550140214524,10.054180000478237
7.384,0.9999554474992424,9.824177554797934
7.392,0.9999558820210535,9.594137277460842
7.4,0.9999563175059261,9.364059750673173
7.4079999999999995,0.9999567538737554,9.13394555751574
7.416,0.9999571910452917,8.90379528192965
7.4239999999999995,0.999957628942137,8.673609508702219
7.432,0.9999580674867463,8.443388823452322
7.4399999999999995,0.9999585066024244,8.213133812616352
7.448,0.9999589462133252,7.982845063433381
7.4559999999999995,0.9999593862444507,7.752523163931092
7.464,0.9999598266216487,7.522168702910804
7.4719999999999995,0.9999602672716118,7.291782269933271
7.48,0.999960708121876,7.061364455303648
7.4879999999999995,0.999961149100819,6.830915850057231
7.496,0.9999615901376581,6.600437045944236
7.504,0.9999620311624494,6.369928635415496
7.5120000000000005,0.9999624721060858,6.139391211607172
7.52,0.9999629129002946,5.9088253683263146
7.5280000000000005,0.9999633534776369,5.678231700035517
7.536,0.9999637937715044,5.4476108018383815
7.5440000000000005,0.9999642337161191,5.216963269464081
7.552,0.99996467324653,4.986289699252737
7.5600000000000005,0.9999651122986122,4.7555906881399315
7.568,0.999965550809064,4.524866833641983
7.5760000000000005,0.9999659887154057,4.294118733840382
7.584,0.9999664259559767,4.063346987366978
7.5920000000000005,0.999966862469935,3.832552193388361
7.6,0.9999672981972525,3.60173495159099
7.6080000000000005,0.9999677330787148,3.370895862165464
7.616,0.9999681670559186,3.1400355257915975
7.6240000000000006,0.9999686000712695,2.9091545436226474
7.632,0.9999690320679784,2.6782535172702944
7.640000000000001,0.9999694629900615,2.447333048788806
7.648,0.9999698927823357,2.2163937406599934
7.656000000000001,0.9999703213904174,1.9854361957772682
7.664,0.9999707487607199,1.7544610174305566
7.672,0.9999711748404502,1.5234688092903508
7.68,0.9999715995776077,1.2924601753924068
7.688,0.9999720229209804,1.0614357201220146
7.696,0.999972444820143,0.830396048198392
7.704,0.9999728652254541,0.5993417646590213
7.712,0.9999732840880534,0.36827347484398704
7.72,0.9999737013598587,0.1371917843802597
7.728,0.9999741169935644,-0.09390270083400977
7.736,0.9999745309426371,-0.32500937464525365
7.744,0.9999749431613127,-0.5561276306602259
7.752,0.999975353604596,-0.7872568622617856
7.76,0.9999757622282547,-1.01839646262471
7.768,0.9999761689888184,-1.2495458247314828
7.776,0.9999765738435745,-1.480704341388139
7.784,0.9999769767505662,-1.711871405240106
7.792,0.9999773776685887,-1.9430464087880497
7.8,0.9999777765571864,-2.1742287444037527
7.808,0.99997817337665,-2.4054178043459897
7.816,0.9999785680880124,-2.6366129807764227
7.824,0.9999789606530468,-2.8678136657754947
7.832,0.9999793510342625,-3.0990192513583508
7.84,0.9999797391949022,-3.3302291294907347
7.848,0.9999801250989382,-3.5614426921049374
7.856,0.9999805087110698,-3.792659331115707
7.864,0.9999808899967192,-4.023878438436194
7.872,0.9999812689220284,-4.255099405993887
7.88,0.999981645453856,-4.486321625746552
7.888,0.9999820195597733,-4.717544489698183
7.896,0.9999823912080608,-4.948767389914933
7.904,0.9999827603677058,-5.179989718541071
7.912,0.999983127008397,-5.411210867814918
7.92,0.9999834911005225,-5.642430230084798
7.928,0.9999838526151652,-5.873647197824965
7.936,0.9999842115240998,-6.104861163651542
7.944,0.999984567799789,-6.336071520338461
7.952,0.9999849214153785,-6.567277660833373
7.96,0.9999852723446964,-6.798478978273567
7.968,0.9999856205622458,-7.029674866001897
7.976,0.999985966043203,-7.260864717582668
7.984,0.999986308763414,-7.49204792681753
7.992,0.9999866486993899,-7.723223887761353
8.0,0.999986985828302,-7.954391994738132
8.008,0.9999873201279806,-8.185551642356758
8.016,0.9999876515769086,-8.416702225527047
8.024000000000001,0.9999879801542181,-8.647843139475315
8.032,0.9999883058396881,-8.878973779760306
8.04,0.9999886286137379,-9.110093542289132
8.048,0.999988948457425,-9.341201823332915
8.056000000000001,0.9999892653524401,-9.572298019542458
8.064,0.9999895792811041,-9.803381527964095
8.072,0.9999898902263615,-10.034451746055531
8.08,0.9999901981717798,-10.265508071701412
8.088000000000001,0.9999905031015422,-10.49654990322892
8.096,0.9999908050004458,-10.727576639423528
8.104,0.9999911038538954,-10.958587679544769
8.112,0.9999913996479011,-11.18958242334167
8.120000000000001,0.9999916923690725,-11.420560271068318
8.128,0.9999919820046158,-11.651520623499449
8.136,0.9999922685423278,-11.882462881946136
8.144,0.999992551970594,-12.11338644827115
8.152000000000001,0.9999928322783818,-12.344290724904347
8.16,0.9999931094552378,-12.575175114858206
8.168,0.9999933834912829,-12.806039021743338
8.176,0.9999936543772077,-13.036881849783782
8.184000000000001,0.9999939221042684,-13.267703003832228
8.192,0.9999941866642826,-13.49850188938543
8.2,0.9999944480496242,-13.729277912599612
8.208,0.9999947062532195,-13.96003048030557
8.216000000000001,0.999994961268542,-14.190759000023808
8.224,0.9999952130896096,-14.421462879979778
8.232,0.9999954617109774,-14.652141529119161
8.24,0.999995707127736,-14.88279435712277
8.248000000000001,0.9999959493355052,-15.113420774421597
8.256,0.9999961883304296,-15.344020192211843
8.264,0.9999964241091748,-15.574592022470044
8.272,0.999996656668922,-15.805135677967865
8.280000000000001,0.9999968860073647,-16.035650572286894
8.288,0.9999971121227013,-16.266136119833554
8.296,0.999997335013634,-16.496591735854032
8.304,0.9999975546793619,-16.72701683644892
8.312,0.9999977711195768,-16.957410838587723
8.32,0.9999979843344589,-17.18777316012393
8.328,0.9999981943246721,-17.41810321980913
8.336,0.9999984010913585,-17.64840043730807
8.344,0.9999986046361347,-17.878664233212668
8.352,0.9999988049610871,-18.108894029056913
8.36,0.9999990020687658,-18.339089247330865
8.368,0.9999991959621823,-18.569249311495387
8.376,0.9999993866448021,-18.79937364599606
8.384,0.9999995741205421,-19.029461676277787
8.392,0.9999997583937639,-19.259512828798663
8.4,0.9999999394692713,-19.4895265310444
8.408,1.0,-19.719502211542093
8.416,1.0,-19.94943929987459
8.424,1.0,-20.179337226694035
8.432,1.0,-20.409195423736236
8.44,0.9999999999999999,-20.639013323834067
8.448,0.9999999999999999,-20.86879036093163
8.456,1.0,-21.098525970097633
8.464,0.9999999999999999,-21.328219587539387
8.472,1.0,-21.557870650616053
8.48,1.0,-21.78747859785255
8.488,1.0,-22.01704286895265
8.496,0.9999999999999999,-22.246562904812762
8.504,0.9999999999999999,-22.476038147534904
8.512,1.0,-22.705468040440323
8.52,0.9999999999999999,-22.934852028082382
8.528,1.0,-23.16418955626003
8.536,1.0,-23.39348007203054
8.544,0.9999999999999999,-23.62272302372289
8.552,1.0,-23.85191786095027
8.56,0.9999999999999998,-24.081064034623402
8.568,1.0,-24.31016099696294
8.576,1.0,-24.539208201512526
8.584,0.9999999999999999,-24.768205103151136
8.592,1.0,-24.99715115810604
8.6,1.0,-25.22604582396484
8.608,1.0,-25.45488855968842
8.616,1.0,-25.68367882562284
8.624,1.0,-25.912416083512042
8.632,0.9999999999999998,-26.141099796509693
8.64,1.0,-26.369729429191665
8.648,1.0,-26.59830444756776
8.656,0.9999999999999999,-26.826824319094065
8.664,1.0,-27.055288512684466
8.672,1.0,-27.283696498722893
8.68,1.0,-27.512047749074668
8.688,0.9999999999999998,-27.740341737098547
8.696,0.9999999999999998,-27.968577937657972
8.704,1.0,-28.196755827132975
8.712,0.9999999999999999,-28.424874883431162
8.72,1.0,-28.652934585999553
8.728,1.0,-28.88093441583537
8.736,0.9999999999999999,-29.108873855497684
8.744,1.0,-29.336752389118143
8.752,0.9999999999999999,-29.564569502412333
8.76,0.9999999999999999,-29.79232468269036
8.768,1.0,-30.02001741886813
8.776,1.0,-30.247647201477697
8.784,0.9999999999999999,-30.47521352267839
8.792,1.0,-30.702715876266957
8.8,1.0,-30.930153757688586
8.808,1.0,-31.157526664046813
8.815999999999999,0.9999999999999998,-31.384834094114414
8.824,0.9999999999999999,-31.612075548343284
8.832,0.9999999999999999,-31.839250528874715
8.84,1.0,-32.06635853954949
8.847999999999999,0.9999999999999999,-32.29339908591804
8.856,1.0,-32.520371675250196
8.864,1.0,-32.747275816544985
8.872,0.9999999999999999,-32.97411102054042
8.879999999999999,1.0,-33.2008767997233
8.888,1.0,-33.427572668338634
8.896,1.0,-33.65419814239904
8.904,0.9999999999999998,-33.88075273969421
8.911999999999999,1.0000000000000002,-34.107235979800365
8.92,1.0,-34.33364738408926
8.928,1.0,-34.559986475737254
8.936,0.9999999999999999,-34.78625277973447
8.943999999999999,1.0,-35.01244582289376
8.952,0.9999999999999999,-35.238565133859474
8.96,1.0,-35.46461024311617
8.968,0.9999999999999999,-35.690580682997236
8.975999999999999,1.0,-35.91647598769372
8.984,1.0,-36.14229569326257
8.992,1.0,-36.36803933763499
9.0,0.9999999999999999,-36.593706460624844
9.008,1.0,-36.819296603936905
9.016,1.0,-37.04480931117485
9.024000000000001,1.0,-37.27024412784926
9.032,0.9999999999999999,-37.49560060138556
9.04,0.9999999999999999,-37.720878281131974
9.048,1.0,-37.94607671836714
9.056000000000001,1.0,-38.17119546630772
9.064,1.0,-38.3962340801159
9.072,1.0,-38.62119211690713
9.08,1.0,-38.84606913575721
9.088000000000001,0.9999999999999999,-39.0708646977096
9.096,0.9999999999999999,-39.29557836578256
9.104,1.0,-39.52020970497644
9.112,1.0000000000000002,-39.744758282280486
9.120000000000001,0.9999999999999999,-39.96922366667966
9.128,0.9999999999999998,-40.193605429161515
9.136,1.0,-40.41790314272301
9.144,1.0,-40.64211638237707
9.152000000000001,1.0000000000000002,-40.86624472515886
9.16,1.0,-41.090287750132404
9.168,0.9999999999999999,-41.314245038397004
9.176,1.0,-41.53811617309336
9.184000000000001,1.0,-41.76190073940949
9.192,1.0,-41.985598324587095
9.2,0.9999999999999999,-42.209208517927394
9.208,0.9999999999999999,-42.432730910796984
9.216000000000001,1.0,-42.65616509663345
9.224,1.0,-42.879510670951134
9.232,0.9999999999999999,-43.10276723134682
9.24,1.0,-43.32593437750507
9.248000000000001,1.0,-43.54901171120353
9.256,0.9999999999999999,-43.77199883631831
9.264,1.0,-43.994895358829254
9.272,1.0,-44.21770088682493
9.280000000000001,1.0,-44.44041503050755
9.288,1.0,-44.66303740219802
9.296,0.9999999999999998,-44.885567616340744
9.304,1.0,-45.10800528950832
9.312000000000001,1.0,-45.330350040406046
9.32,0.9999999999999999,-45.55260148987654
9.328,1.0,-45.774759260904304
9.336,1.0,-45.99682297861997
9.344,1.0,-46.218792270304334
9.352,1.0,-46.440666765392955
9.36,0.9999999999999999,-46.662446095479766
9.368,0.9999999999999999,-46.88412989432149
9.376,1.0,-47.105717797841045
9.384,1.0,-47.327209444131796
9.392,1.0,-47.54860447346085
9.4,1.0,-47.76990252827302
9.408,0.9999999999999999,-47.99110325319399
9.416,1.0,-48.21220629503406
9.424,1.0,-48.43321130279117
9.432,0.9999999999999999,-48.654117927654454
9.44,1.0,-48.87492582300706
9.448,0.9999999999999999,-49.095634644429495
9.456,1.0,-49.316244049702306
9.464,1.0,-49.53675369880935
9.472,1.0,-49.757163253940085
9.48,0.9999999999999999,-49.97747237949272
9.488,1.0,-50.19768074207645
9.496,1.0,-50.41778801051435
9.504,1.0,-50.63779385584536
9.512,1.0,-50.85769795132706
9.52,1.0,-51.07749997243758
9.528,1.0,-51.29719959687803
9.536,1.0,-51.51679650457427
9.544,0.9999999999999998,-51.73629037767931
9.552,0.9999999999999999,-51.95568090057472
9.56,1.0,-52.17496775987287
9.568,1.0,-52.394150644418396
9.576,1.0,-52.61322924528999
9.584,1.0,-52.83220325580174
9.592,1.0000000000000002,-53.051072371504944
9.6,0.9999999999999999,-53.26983629018906
9.608,0.9999999999999999,-53.488494711883476
9.616,0.999999944880669,-53.7070473388582
9.624,0.9999998510287418,-53.92549387562555
9.632,0.9999997571481627,-54.14383402894062
9.64,0.9999996632593231,-54.362067507802806
9.648,0.9999995693824547,-54.58019402345615
9.656,0.9999994755376265,-54.798213289390596
9.664,0.9999993817447442,-55.016125021342305
9.672,0.9999992880235474,-55.23392893729464
9.68,0.9999991943936075,-55.45162475747836
9.688,0.9999991008743283,-55.669212204372435
9.696,0.9999990074849405,-55.88669100270411
9.704,0.9999989142445033,-56.104060879449484
9.712,0.9999988211719008,-56.321321563833436
9.72,0.9999987282858414,-56.53847278733013
9.728,0.9999986356048554,-56.75551428366269
9.736,0.9999985431472938,-56.972445788803505
9.744,0.9999984509313268,-57.189267040973895
9.752,0.9999983589749423,-57.40597778064416
9.76,0.9999982672959441,-57.62257775053303
9.768,0.9999981759119506,-57.83906669560774
9.776,0.999998084840394,-58.05544436308314
9.784,0.9999979940985168,-58.27171050242172
9.792,0.9999979037033738,-58.48786486533256
9.8,0.9999978136718278,-58.70390720577112
9.808,0.9999977240205496,-58.91983727993819
