freq,mag,phase
6.0,0.9999969414784308,-35.717371832243934
6.008,0.9999978694275833,-36.076521692766654
6.016,0.9999987596380566,-36.4353968753718
6.024,0.9999996129059592,-36.7939949127257
6.032,1.0,-37.152313357497405
6.04,1.0,-37.5103497824546
6.048,1.0,-37.86810178055675
6.056,1.0,-38.22556696504538
6.064,1.0,-38.582742969531466
6.072,0.9999999999999999,-38.939627448079804
6.08,0.9999999999999999,-39.296218075290795
6.088,1.0,-39.652512546379064
6.096,1.0,-40.00850857724946
6.104,0.9999999999999999,-40.36420390457
6.112,1.0,-40.719596285842165
6.12,1.0,-41.07468349946822
6.128,0.9999999999999999,-41.42946334481578
6.136,0.9999999999999999,-41.7839336422795
6.144,0.9999999999999998,-42.138092233340075
6.152,1.0,-42.491936980620274
6.16,1.0,-42.84546576793833
6.168,0.9999999999999999,-43.198676500358545
6.176,0.9999999999999999,-43.55156710423904
6.184,1.0,-43.90413552727691
6.192,1.0,-44.25637973855048
6.2,1.0,-44.60829772855903
6.208,1.0,-44.95988750925961
6.216,1.0,-45.31114711410131
6.224,1.0,-45.66207459805691
6.232,0.9999999999999999,-46.0126680376517
6.24,0.9999999999999999,-46.362925530989784
6.248,1.0,-46.712845197777774
6.256,0.9999999999999998,-47.06242517934575
6.264,0.9999999999999999,-47.41166363866585
6.272,1.0,-47.760558760368156
6.28,1.0,-48.10910875075396
6.288,1.0,-48.457311837806685
6.296,1.0,-48.80516627120023
6.304,1.0,-49.15267032230478
6.312,1.0,-49.49982228419022
6.32,1.0,-49.84662047162701
6.328,1.0,-50.193063221084756
6.336,1.0,-50.53914889072834
6.344,1.0,-50.88487586041161
6.352,1.0,-51.230242531668836
6.36,0.9999999999999999,-51.57524732770367
6.368,1.0,-51.91988869337601
6.376,1.0,-52.26416509518634
6.384,1.0,-52.60807502125804
6.392,1.0,-52.95161698131722
6.4,1.0,-53.294789506670625
6.408,1.0,-53.63759115018106
6.416,1.0,-53.98002048624087
6.424,0.9999999999999999,-54.32207611074315
6.432,1.0,-54.66375664105096
6.44,0.9999999999999999,-55.00506071596432
6.448,0.9999999999999999,-55.34598699568518
6.456,1.0,-55.68653416178053
6.464,1.0,-56.02670091714319
6.472,1.0,-56.36648598595087
6.48,1.0,-56.70588811362314
6.4879999999999995,0.9999999999999999,-57.044906066776555
6.496,1.0,-57.383538633177906
6.504,0.9999999999999999,-57.7217846216952
6.5120000000000005,1.0,-58.05964286224766
6.52,1.0,-58.39711220575273
6.5280000000000005,1.0,-58.73419152407253
6.536,1.0,-59.07087970995737
6.5440000000000005,0.9999999999999999,-59.407175676988565
6.552,1.0,-59.74307835951857
6.5600000000000005,1.0,-60.07858671261047
6.568,1.0,-60.41369971197462
6.5760000000000005,1.0,-60.74841635390494
6.584,1.0,-61.08273565521231
6.592,1.0,-61.416656653157645
6.6,1.0,-61.750178405382336
6.608,1.0,-62.08329998983791
6.616,1.0,-62.41602050471386
6.624,1.0,-62.748339068364075
6.632,1.0,-63.080254819231904
6.64,0.9999999999999999,-63.411766915773676
6.648,1.0,-63.74287453638095
6.656,0.9999999999999999,-64.07357687930144
6.664,1.0,-64.40387316255847
6.672,1.0,-64.7337626238692
6.68,1.0,-65.06324452056168
6.688,1.0,-65.39231812949055
6.696,1.0,-65.72098274695144
6.704,1.0,-66.04923768859447
6.712,1.0,-66.37708228933626
6.72,0.9999999953070654,-66.70451590327103
6.728,0.9999996942044634,-67.03153790358044
6.736,0.9999993939761045,-67.35814768244255
6.744,0.9999990947604354,-67.68434465093944
6.752,0.9999987966915896,-68.01012823896407
6.76,0.9999984998994548,-68.33549789512598
6.768,0.9999982045097376,-68.66045308665613
6.776,0.9999979106440301,-68.9849932993106
6.784,0.9999976184198734,-69.30911803727358
6.792,0.9999973279508243,-69.63282682305939
6.8,0.999997039346518,-69.95611919741351
6.808,0.9999967527127328,-70.27899471921299
6.816,0.9999964681514547,-70.60145296536581
6.824,0.9999961857609387,-70.92349353070965
6.832,0.9999959056357742,-71.24511602790967
6.84,0.9999956278669442,-71.56632008735578
6.848,0.9999953525418906,-71.88710535705896
6.856,0.9999950797445741,-72.20747150254712
6.864,0.9999948095555359,-72.52741820676007
6.872,0.9999945420519583,-72.846945169944
6.88,0.9999942773077249,-73.16605210954516
6.888,0.9999940153934821,-73.48473876010327
6.896,0.9999937563766955,-73.80300487314388
6.904,0.9999935003217121,-74.12085021707065
6.912,0.9999932472898168,-74.43827457705676
6.92,0.9999929973392914,-74.7552777549359
6.928,0.9999927505254721,-75.07185956909304
6.936,0.9999925069008063,-75.38801985435417
6.944,0.9999922665149099,-75.70375846187626
6.952,0.9999920294146225,-76.01907525903627
6.96,0.9999917956440645,-76.33397012932008
6.968,0.9999915652446904,-76.64844297221089
6.976,0.9999913382553455,-76.96249370307737
6.984,0.999991114712319,-77.27612225306137
6.992,0.9999908946493973,-77.58932856896546
7.0,0.999990678097918,-77.90211261313992
7.008,0.9999904650868225,-78.21447436336986
7.016,0.9999902556427077,-78.52641381276173
7.024,0.9999900497898779,-78.83793096962974
7.032,0.9999898475503953,-79.1490258573821
7.04,0.9999896489441328,-79.45969851440701
7.048,0.9999894539888201,-79.7699489939585
7.056,0.9999892627000969,-80.07977736404216
7.064,0.9999890750915603,-80.38918370730063
7.072,0.9999888911748134,-80.69816812089907
7.08,0.9999887109595131,-81.00673071641049
7.088,0.9999885344534178,-81.31487161970104
7.096,0.9999883616624344,-81.62259097081512
7.104,0.9999881925906642,-81.92988892386069
7.112,0.9999880272404484,-82.23676564689421
7.12,0.9999878656124145,-82.54322132180587
7.128,0.9999877077055196,-82.84925614420472
7.136,0.9999875535170963,-83.15487032330373
7.144,0.9999874030428941,-83.46006408180502
7.152,0.9999872562771245,-83.76483765578512
7.16,0.9999871132125022,-84.0691912945802
7.168,0.9999869738402879,-84.37312526067156
7.176,0.9999868381503295,-84.676639829571
7.184,0.9999867061311031,-84.97973528970655
7.192,0.9999865777697534,-85.28241194230819
7.2,0.9999864530521321,-85.58467010129354
7.208,0.9999863319628414,-85.88651009315419
7.216,0.9999862144852668,-86.18793225684176
7.224,0.9999861006016209,-86.48893694365425
7.232,0.9999859902929772,-86.78952451712277
7.24,0.9999858835393093,-87.08969535289826
7.248,0.9999857803195273,-87.38944983863854
7.256,0.9999856806115139,-87.68878837389562
7.264,0.9999855843921585,-87.98771137000321
7.272,0.9999854916373945,-88.28621924996447
7.28,0.9999854023222328,-88.58431244834019
7.288,0.9999853164207948,-88.88199141113698
7.296,0.9999852339063489,-89.17925659569609
7.304,0.9999851547513393,-89.4761084705822
7.312,0.9999850789274223,-89.77254751547288
7.32,0.999985006405496,-90.06857422104805
7.328,0.9999849371557332,-90.36418908888002
7.336,0.9999848711476095,-90.6593926313238
7.344,0.9999848083499376,-90.95418537140766
7.352,0.999984748730895,-91.24856784272437
7.36,0.9999846922580534,-91.54254058932241
7.368,0.9999846388984076,-91.83610416559799
7.376,0.9999845886184056,-92.12925913618704
7.384,0.9999845413839742,-92.42200607585805
7.392,0.9999844971605482,-92.71434556940503
7.4,0.9999844559130957,-93.00627821154086
7.4079999999999995,0.9999844176061466,-93.29780460679139
7.416,0.9999843822038176,-93.58892536938981
7.4239999999999995,0.9999843496698363,-93.87964112317111
7.432,0.9999843199675693,-94.16995250146782
7.4399999999999995,0.9999842930600443,-94.45986014700527
7.448,0.999984268909975,-94.74936471179826
7.4559999999999995,0.9999842474797854,-95.03846685704725
7.464,0.999984228731632,-95.32716725303602
7.4719999999999995,0.9999842126274265,-95.61546657902883
7.48,0.9999841991288602,-95.90336552316911
7.4879999999999995,0.9999841881974219,-96.19086478237763
7.496,0.9999841797944236,-96.47796506225212
7.504,0.9999841738810186,-96.7646670769666
7.5120000000000005,0.9999841704182223,-97.05097154917198
7.52,0.9999841693669345,-97.3368792098964
7.5280000000000005,0.999984170687956,-97.622390798447
7.536,0.9999841743420103,-97.90750706231125
7.5440000000000005,0.9999841802897605,-98.19222875705991
7.552,0.9999841884918297,-98.47655664624929
7.5600000000000005,0.9999841989088171,-98.76049150132546
7.568,0.9999842115013164,-99.04403410152764
7.5760000000000005,0.9999842262299339,-99.3271852337934
7.584,0.9999842430553035,-99.60994569266327
7.5920000000000005,0.9999842619381041,-99.89231628018709
7.6,0.9999842828390757,-100.17429780582981
7.6080000000000005,0.9999843057190345,-100.45589108637884
7.616,0.9999843305388886,-100.73709694585114
7.6240000000000006,0.9999843572596524,-101.01791621540175
7.632,0.9999843858424615,-101.29834973323199
7.640000000000001,0.999984416248586,-101.57839834449922
7.648,0.9999844484394455,-101.8580629012262
7.656000000000001,0.9999844823766214,-102.1373442622121
7.664,0.9999845180218697,-102.41624329294295
7.672,0.9999845553371354,-102.69476086550392
7.68,0.9999845942845622,-102.97289785849118
7.688,0.9999846348265066,-103.2506551569249
7.696,0.9999846769255484,-103.52803365216285
7.704,0.9999847205445024,-103.80503424181433
7.712,0.9999847656464295,-104.08165782965501
7.72,0.9999848121946463,-104.35790532554229
7.728,0.9999848601527361,-104.63377764533114
7.736,0.9999849094845599,-104.90927571079078
7.744,0.9999849601542633,-105.18440044952179
7.752,0.9999850121262887,-105.45915279487404
7.76,0.9999850653653827,-105.73353368586498
7.768,0.9999851198366051,-106.00754406709882
7.776,0.999985175505337,-106.28118488868616
7.784,0.9999852323372898,-106.5544571061643
7.792,0.9999852902985122,-106.82736168041822
7.8,0.9999853493553984,-107.09989957760205
7.808,0.9999854094746943,-107.37207176906136
7.816,0.9999854706235053,-107.64387923125588
7.824,0.9999855327693027,-107.91532294568302
7.832,0.9999855958799306,-108.18640389880186
7.84,0.9999856599236109,-108.45712308195786
7.848,0.9999857248689509,-108.72748149130828
7.856,0.9999857906849461,-108.99748012774792
7.864,0.999985857340989,-109.26711999683589
7.872,0.9999859248068718,-109.53640210872265
7.88,0.9999859930527917,-109.80532747807797
7.888,0.9999860620493564,-110.07389712401924
7.896,0.9999861317675873,-110.3421120700406
7.904,0.9999862021789242,-110.60997334394261
7.912,0.9999862732552293,-110.8774819777626
7.92,0.9999863449687904,-111.14463900770555
7.928,0.999986417292325,-111.41144547407566
7.936,0.9999864901989823,-111.67790242120853
7.944,0.9999865636623483,-111.94401089740387
7.952,0.9999866376564457,-112.20977195485905
7.96,0.9999867121557392,-112.47518664960296
7.968,0.9999867871351362,-112.74025604143074
7.976,0.9999868625699896,-113.00498119383896
7.984,0.9999869384360986,-113.26936317396155
7.992,0.9999870147097133,-113.53340305250613
8.0,0.9999870913675323,-113.79710190369123
8.008,0.9999871683867074,-114.06046080518381
8.016,0.9999872457448431,-114.32348083803777
8.024000000000001,0.9999873234199981,-114.58616308663247
8.032,0.9999874013906855,-114.84850863861247
8.04,0.9999874796358748,-115.1105185848276
8.048,0.9999875581349904,-115.37219401927365
8.056000000000001,0.9999876368679137,-115.63353603903334
8.064,0.9999877158149824,-115.89454574421848
8.072,0.9999877949569904,-116.1552242379124
8.08,0.9999878742751874,-116.41557262611296
8.088000000000001,0.9999879537512797,-116.67559201767591
8.096,0.9999880333674279,-116.9352835242594
8.104,0.999988113106248,-117.19464826026875
8.112,0.9999881929508097,-117.45368734280169
8.120000000000001,0.9999882728846349,-117.7124018915942
8.128,0.9999883528916975,-117.97079302896717
8.136,0.9999884329564224,-118.22886187977353
8.144,0.9999885130636831,-118.4866095713459
8.152000000000001,0.9999885931988008,-118.74403723344444
8.16,0.9999886733475426,-119.00114599820607
8.168,0.9999887534961198,-119.25793700009358
8.176,0.9999888336311865,-119.5144113758457
8.184000000000001,0.9999889137398364,-119.77057026442719
8.192,0.9999889938096019,-120.02641480698014
8.2,0.9999890738284509,-120.28194614677548
8.208,0.9999891537847857,-120.53716542916509
8.216000000000001,0.9999892336674383,-120.7920738015342
8.224,0.9999893134656709,-121.04667241325475
8.232,0.9999893931691701,-121.30096241563926
8.24,0.9999894727680467,-121.55494496189482
8.248000000000001,0.9999895522528307,-121.80862120707788
8.256,0.9999896316144707,-122.06199230804962
8.264,0.999989710844328,-122.31505942343196
8.272,0.9999897899341755,-122.56782371356363
8.280000000000001,0.999989868876194,-122.82028634045722
8.288,0.9999899476629683,-123.07244846775637
8.296,0.9999900262874849,-123.32431126069405
8.304,0.9999901047431269,-123.57587588605068
8.312,0.9999901830236718,-123.82714351211297
8.32,0.9999902611232867,-124.0781153086338
8.328,0.9999903390365261,-124.32879244679154
8.336,0.9999904167583265,-124.57917609915106
8.344,0.9999904942840032,-124.8292674396241
8.352,0.9999905716092465,-125.07906764343133
8.36,0.9999906487301174,-125.32857788706353
8.368,0.9999907256430438,-125.57779934824461
8.376,0.9999908023448156,-125.82673320589399
8.384,0.9999908788325818,-126.07538064009042
8.392,0.9999909551038448,-126.32374283203526
8.4,0.9999910311564575,-126.5718209640173
8.408,0.9999911069886177,-126.8196162193772
8.416,0.9999911825988639,-127.06712978247279
8.424,0.9999912579860718,-127.31436283864485
8.432,0.9999913331494484,-127.56131657418324
8.44,0.9999914080885289,-127.80799217629333
8.448,0.9999914828031704,-128.05439083306337
8.456,0.9999915572935485,-128.30051373343176
8.464,0.9999916315601524,-128.54636206715517
8.472,0.9999917056037795,-128.7919370247768
8.48,0.9999917794255317,-129.03723979759533
8.488,0.9999918530268096,-129.2822715776341
8.496,0.9999919264093082,-129.52703355761116
8.504,0.9999919995750115,-129.77152693090872
8.512,0.9999920725261887,-130.01575289154454
8.52,0.999992145265388,-130.25971263414223
8.528,0.9999922177954323,-130.50340735390333
8.536,0.9999922901194137,-130.7468382465784
8.544,0.9999923622406895,-130.99000650844
8.552,0.9999924341628768,-131.23291333625474
8.56,0.9999925058898458,-131.47555992725682
8.568,0.9999925774257173,-131.71794747912116
8.576,0.999992648774856,-131.9600771899376
8.584,0.9999927199418661,-132.20195025818464
8.592,0.9999927909315852,-132.44356788270494
8.6,0.9999928617490808,-132.6849312626794
8.608,0.999992932399643,-132.92604159760353
8.616,0.9999930028887818,-133.16690008726246
8.624,0.9999930732222196,-133.4075079317079
8.632,0.9999931434058879,-133.64786633123413
8.64,0.9999932134459206,-133.8879764863554
8.648,0.9999932833486497,-134.1278395977829
8.656,0.9999933531206003,-134.3674568664029
8.664,0.9999934227684845,-134.6068294932544
8.672,0.999993492299197,-134.8459586795079
8.68,0.999993561719809,-135.084845626444
8.688,0.9999936310375647,-135.32349153543268
8.696,0.999993700259874,-135.5618976079127
8.704,0.9999937693943085,-135.8000650453717
8.712,0.9999938384485969,-136.03799504932599
8.72,0.9999939074306174,-136.27568882130166
8.728,0.9999939763483955,-136.51314756281485
8.736,0.999994045210097,-136.7503724753537
8.744,0.999994114024023,-136.98736476035927
8.752,0.9999941827986052,-137.22412561920788
8.76,0.9999942515424012,-137.4606562531931
8.768,0.9999943202640873,-137.69695786350854
8.776,0.9999943889724558,-137.9330316512305
8.784,0.999994457676409,-138.16887881730142
8.792,0.9999945263849531,-138.40450056251305
8.8,0.9999945951071948,-138.63989808749088
8.808,0.9999946638523347,-138.87507259267767
8.815999999999999,0.9999947326296639,-139.11002527831826
8.824,0.9999948014485566,-139.34475734444436
8.832,0.9999948703184677,-139.57926999085953
8.84,0.9999949392489258,-139.81356441712435
8.847999999999999,0.99999500824953,-140.04764182254266
8.856,0.9999950773299424,-140.281503406147
8.864,0.9999951464998861,-140.51515036668505
8.872,0.9999952157691377,-140.74858390260619
8.879999999999999,0.9999952851475248,-140.9818052120484
8.888,0.9999953546449186,-141.2148154928254
8.896,0.9999954242712309,-141.44761594241382
8.904,0.9999954940364095,-141.68020775794105
8.911999999999999,0.9999955639504308,-141.91259213617334
8.92,0.9999956340232985,-142.14477027350384
8.928,0.9999957042650363,-142.37674336594114
8.936,0.9999957746856843,-142.60851260909794
8.943999999999999,0.9999958452952942,-142.84007919818038
8.952,0.9999959161039241,-143.07144432797722
8.96,0.9999959871216342,-143.3026091928491
8.968,0.999996058358483,-143.53357498671872
8.975999999999999,0.9999961298245212,-143.76434290306082
8.984,0.9999962015297885,-143.99491413489258
8.992,0.9999962734843083,-144.22528987476392
9.0,0.9999963456980828,-144.4554713147485
9.008,0.9999964181810903,-144.68545964643494
9.016,0.9999964909432789,-144.91525606091793
9.024000000000001,0.9999965639945633,-145.14486174878968
9.032,0.9999966373448195,-145.37427790013203
9.04,0.9999967110038814,-145.6035057045081
9.048,0.9999967849815363,-145.8325463509551
9.056000000000001,0.9999968592875202,-146.06140102797602
9.064,0.9999969339315139,-146.29007092353297
9.072,0.9999970089231388,-146.51855722503993
9.08,0.999997084271953,-146.74686111935594
9.088000000000001,0.9999971599874468,-146.97498379277835
9.096,0.9999972360790385,-147.20292643103645
9.104,0.9999973125560715,-147.4306902192855
9.112,0.9999973894278089,-147.65827634210058
9.120000000000001,0.99999746670343,-147.88568598347072
9.128,0.9999975443920269,-148.11292032679353
9.136,0.9999976225026006,-148.3399805548699
9.144,0.9999977010440559,-148.5668678498987
9.152000000000001,0.9999977800251995,-148.7935833934719
9.16,0.9999978594547347,-149.0201283665697
9.168,0.9999979393412588,-149.24650394955637
9.176,0.9999980196932583,-149.4727113221756
9.184000000000001,0.9999981005191066,-149.69875166354635
9.192,0.9999981818270592,-149.92462615215885
9.2,0.9999982636252511,-150.1503359658712
9.208,0.9999983459216925,-150.3758822819054
9.216000000000001,0.999998428724266,-150.60126627684397
9.224,0.9999985120407228,-150.82648912662694
9.232,0.9999985958786791,-151.05155200654875
9.24,0.999998680245614,-151.27645609125537
9.248000000000001,0.9999987651488648,-151.50120255474155
9.256,0.9999988505956239,-151.72579257034837
9.264,0.9999989365929361,-151.950227310761
9.272,0.9999990231476964,-152.17450794800655
9.280000000000001,0.9999991102666443,-152.39863565345183
9.288,0.9999991979563635,-152.62261159780175
9.296,0.9999992862232766,-152.84643695109767
9.304,0.9999993750736437,-153.07011288271588
9.312000000000001,0.9999994645135591,-153.29364056136617
9.32,0.9999995545489481,-153.51702115509065
9.328,0.999999645185564,-153.740255831263
9.336,0.9999997364289858,-153.9633457565874
9.344,0.999999828284615,-154.1862920970976
9.352,0.999999920757674,-154.409096018157
9.36,1.0,-154.6317586844575
9.368,1.0,-154.85428126001992
9.376,1.0,-155.07666490819332
9.384,1.0,-155.29891079165552
9.392,0.9999999999999998,-155.52102007241288
9.4,1.0,-155.74299391180094
9.408,1.0,-155.9648334704846
9.416,1.0,-156.18653990845903
9.424,1.0,-156.40811438505003
9.432,1.0,-156.62955805891536
9.44,0.9999999999999999,-156.85087208804526
9.448,0.9999999999999999,-157.072057629764
9.456,1.0,-157.29311584073074
9.464,0.9999999999999999,-157.51404787694142
9.472,1.0,-157.7348548937297
9.48,1.0,-157.95553804576917
9.488,0.9999999999999999,-158.1760984870746
9.496,1.0,-158.39653737100429
9.504,1.0,-158.6168558502617
9.512,0.9999999999999999,-158.83705507689785
9.52,0.9999999999999999,-159.05713620231333
9.528,1.0,-159.27710037726092
9.536,1.0,-159.4969487518478
9.544,0.9999999999999999,-159.71668247553833
9.552,1.0,-159.93630269715658
9.56,1.0,-160.15581056488932
9.568,1.0,-160.37520722628872
9.576,1.0,-160.5944938282757
9.584,1.0,-160.81367151714247
9.592,1.0,-161.03274143855654
9.6,1.0,-161.25170473756327
9.608,1.0,-161.47056255858993
9.616,0.9999999999999999,-161.68931604544878
9.624,1.0,-161.907966341341
9.632,0.9999999999999999,-162.12651458886018
9.64,0.9999999999999999,-162.34496192999637
9.648,1.0,-162.56330950613977
9.656,1.0,-162.78155845808493
9.664,1.0,-162.99970992603463
9.672,0.9999999999999999,-163.21776504960437
9.68,1.0,-163.4357249678262
9.688,0.9999999999999999,-163.65359081915366
9.696,0.9999999999999999,-163.87136374146564
9.704,0.9999999999999999,-164.08904487207147
9.712,1.0,-164.30663534771486
9.72,1.0,-164.5241363045794
9.728,1.0,-164.74154887829266
9.736,1.0,-164.95887420393143
9.744,1.0,-165.1761134160265
9.752,0.9999999999999999,-165.3932676485678
9.76,0.9999999999999999,-165.61033803500916
9.768,0.9999999999999999,-165.82732570827415
9.776,0.9999999999999999,-166.0442318007604
