freq,mag,phase
6.0,0.9999958842769483,92.32070601543616
6.008,0.9999957504791867,92.20078252973292
6.016,0.9999956199472877,92.08084816525405
6.024,0.9999954926424989,91.96090291270852
6.032,0.9999953685259311,91.8409467629144
6.04,0.9999952475585725,91.72097970679825
6.048,0.9999951297013009,91.60100173539443
6.056,0.9999950149148972,91.48101283984454
6.064,0.9999949031600581,91.36101301139655
6.072,0.9999947943974081,91.2410022414044
6.08,0.9999946885875121,91.12098052132707
6.088,0.9999945856908874,91.00094784272812
6.096,0.9999944856680162,90.88090419727487
6.104,0.999994388479356,90.76084957673787
6.112,0.999994294085352,90.64078397299001
6.12,0.9999942024464494,90.52070737800607
6.128,0.9999941135231027,90.40061978386186
6.136,0.9999940272757872,90.28052118273362
6.144,0.9999939436650119,90.16041156689735
6.152,0.9999938626513261,90.04029092872804
6.16,0.9999937841953348,89.92015926069905
6.168,0.9999937082577037,89.80001655538138
6.176,0.9999936347991736,89.679862805443
6.184,0.9999935637805678,89.55969800364812
6.192,0.9999934951628036,89.43952214285657
6.2,0.9999934289068995,89.31933521602299
6.208,0.9999933649739868,89.19913721619623
6.216,0.9999933033253176,89.07892813651858
6.224,0.9999932439222746,88.95870797022515
6.232,0.9999931867263784,88.83847671064309
6.24,0.9999931316992983,88.71823435119093
6.248,0.9999930788028588,88.59798088537786
6.256,0.9999930279990489,88.4777163068031
6.264,0.9999929792500303,88.35744060915508
6.272,0.9999929325181452,88.23715378621081
6.28,0.9999928877659238,88.11685583183518
6.288,0.9999928449560926,87.99654673998026
6.296,0.9999928040515803,87.87622650468458
6.304,0.9999927650155273,87.75589512007245
6.312,0.9999927278112907,87.63555258035323
6.32,0.9999926924024533,87.51519887982067
6.328,0.9999926587528281,87.3948340128522
6.336,0.9999926268264668,87.27445797390823
6.344,0.9999925965876655,87.15407075753143
6.352,0.9999925680009709,87.03367235834612
6.36,0.9999925410311861,86.91326277105746
6.368,0.9999925156433779,86.79284199045084
6.376,0.9999924918028811,86.67241001139118
6.384,0.9999924694753046,86.55196682882219
6.392,0.9999924486265378,86.4315124377658
6.4,0.9999924292227544,86.31104683332131
6.408,0.999992411230419,86.19057001066484
6.416,0.9999923946162911,86.0700819650486
6.424,0.9999923793474302,85.94958269180022
6.432,0.9999923653912013,85.82907218632205
6.44,0.9999923527152784,85.70855044409049
6.448,0.9999923412876495,85.58801746065538
6.456,0.9999923310766209,85.46747323163923
6.464,0.9999923220508213,85.3469177527366
6.472,0.9999923141792052,85.22635101971349
6.48,0.9999923074310582,85.10577302840655
6.4879999999999995,0.9999923017759988,84.98518377472253
6.496,0.9999922971839831,84.86458325463755
6.504,0.9999922936253088,84.74397146419659
6.5120000000000005,0.9999922910706172,84.62334839951255
6.52,0.9999922894908967,84.50271405676594
6.5280000000000005,0.9999922888574868,84.38206843220395
6.536,0.9999922891420792,84.26141152214004
6.5440000000000005,0.9999922903167224,84.14074332295307
6.552,0.9999922923538229,84.02006383108692
6.5600000000000005,0.999992295226149,83.89937304304956
6.568,0.9999922989068317,83.77867095541278
6.5760000000000005,0.999992303369368,83.65795756481114
6.584,0.9999923085876232,83.53723286794177
6.592,0.9999923145358314,83.4164968615634
6.6,0.9999923211885992,83.295749542496
6.608,0.9999923285209058,83.17499090762001
6.616,0.9999923365081065,83.0542209538758
6.624,0.9999923451259324,82.93343967826304
6.632,0.9999923543504923,82.81264707784014
6.64,0.9999923641582752,82.6918431497236
6.648,0.9999923745261492,82.57102789108744
6.656,0.9999923854313653,82.45020129916261
6.664,0.9999923968515553,82.32936337123641
6.672,0.9999924087647354,82.20851410465191
6.68,0.999992421149305,82.08765349680735
6.688,0.9999924339840482,81.96678154515561
6.696,0.9999924472481346,81.84589824720359
6.704,0.9999924609211187,81.7250036005117
6.712,0.9999924749829403,81.60409760269324
6.72,0.9999924894139265,81.4831802514139
6.728,0.9999925041947891,81.36225154439119
6.736,0.9999925193066267,81.24131147939383
6.744,0.9999925347309235,81.12036005424135
6.752,0.9999925504495495,80.99939726680341
6.76,0.9999925664447608,80.87842311499934
6.768,0.9999925826991971,80.75743759679759
6.776,0.9999925991958848,80.6364407102152
6.784,0.9999926159182323,80.51543245331732
6.792,0.9999926328500328,80.39441282421663
6.8,0.9999926499754617,80.27338182107286
6.808,0.9999926672790764,80.15233944209233
6.816,0.9999926847458153,80.03128568552735
6.824,0.9999927023609967,79.91022054967583
6.832,0.9999927201103183,79.78914403288067
6.84,0.9999927379798541,79.6680561335294
6.848,0.9999927559560565,79.54695685005363
6.856,0.9999927740257525,79.42584618092853
6.864,0.9999927921761423,79.30472412467245
6.872,0.9999928103947997,79.18359067984638
6.88,0.9999928286696683,79.06244584505352
6.888,0.9999928469890622,78.94128961893882
6.896,0.9999928653416615,78.82012200018855
6.904,0.999992883716514,78.69894298752975
6.912,0.9999929021030307,78.57775257972992
6.92,0.9999929204909851,78.45655077559651
6.928,0.9999929388705106,78.33533757397645
6.936,0.9999929572320989,78.21411297375582
6.944,0.9999929755665992,78.09287697385935
6.952,0.9999929938652132,77.97162957325
6.96,0.9999930121194957,77.8503707709286
6.968,0.9999930303213503,77.72910056593342
6.976,0.9999930484630292,77.60781895733972
6.984,0.9999930665371286,77.48652594425936
6.992,0.9999930845365876,77.36522152584048
7.0,0.9999931024546864,77.24390570126707
7.008,0.9999931202850421,77.12257846975851
7.016,0.9999931380216064,77.00123983056932
7.024,0.9999931556586648,76.87988978298866
7.032,0.9999931731908319,76.75852832634004
7.04,0.9999931906130499,76.63715545998097
7.048,0.9999932079205848,76.51577118330255
7.056,0.9999932251090253,76.39437549572911
7.064,0.9999932421742775,76.27296839671784
7.072,0.9999932591125645,76.1515498857586
7.08,0.9999932759204222,76.03011996237335
7.088,0.9999932925946959,75.90867862611599
7.096,0.9999933091325388,75.78722587657191
7.104,0.999993325531407,75.66576171335781
7.112,0.9999933417890591,75.54428613612123
7.12,0.9999933579035496,75.4227991445403
7.128,0.9999933738732294,75.30130073832343
7.136,0.9999933896967395,75.179790917209
7.144,0.9999934053730103,75.05826968096507
7.152,0.9999934209012562,74.93673702938901
7.16,0.9999934362809744,74.81519296230735
7.168,0.9999934515119394,74.69363747957536
7.176,0.9999934665942021,74.57207058107684
7.184,0.9999934815280838,74.45049226672381
7.192,0.9999934963141754,74.32890253645624
7.2,0.9999935109533323,74.2073013902418
7.208,0.9999935254466717,74.08568882807562
7.216,0.9999935397955685,73.96406484997993
7.224,0.9999935540016522,73.84242945600396
7.232,0.9999935680668044,73.72078264622351
7.24,0.9999935819931531,73.59912442074088
7.248,0.9999935957830716,73.47745477968454
7.256,0.999993609439173,73.35577372320884
7.264,0.9999936229643075,73.23408125149396
7.272,0.999993636361559,73.11237736474543
7.28,0.9999936496342414,72.99066206319418
7.288,0.9999936627858942,72.8689353470961
7.296,0.99999367582028,72.74719721673199
7.304,0.9999936887413803,72.6254476724072
7.312,0.9999937015533918,72.50368671445158
7.32,0.9999937142607233,72.38191434321914
7.328,0.9999937268679915,72.260130559088
7.336,0.9999937393800165,72.13833536246003
7.344,0.9999937518018207,72.01652875376085
7.352,0.9999937641386224,71.89471073343947
7.36,0.9999937763958334,71.77288130196827
7.368,0.9999937885790553,71.65104045984269
7.376,0.9999938006940755,71.52918820758117
7.384,0.9999938127468636,71.40732454572489
7.392,0.9999938247435676,71.28544947483773
7.4,0.9999938366905103,71.16356299550597
7.4079999999999995,0.9999938485941858,71.0416651083383
7.416,0.9999938604612556,70.91975581396544
7.4239999999999995,0.9999938722985439,70.79783511304028
7.432,0.9999938841130365,70.6759030062375
7.4399999999999995,0.999993895911874,70.55395949425363
7.448,0.99999390770235,70.43200457780671
7.4559999999999995,0.9999939194919073,70.31003825763635
7.464,0.9999939312881329,70.18806053450349
7.4719999999999995,0.9999939430987564,70.06607140919037
7.48,0.9999939549316439,69.94407088250027
7.4879999999999995,0.9999939667947967,69.82205895525756
7.496,0.9999939786963459,69.7000356283075
7.504,0.9999939906445491,69.57800090251621
7.5120000000000005,0.9999940026477869,69.45595477877038
7.52,0.9999940147145602,69.33389725797744
7.5280000000000005,0.9999940268534846,69.21182834106527
7.536,0.9999940390732884,69.0897480289822
7.5440000000000005,0.9999940513828078,68.96765632269687
7.552,0.9999940637909843,68.84555322319821
7.5600000000000005,0.9999940763068609,68.7234387314953
7.568,0.9999940889395773,68.60131284861734
7.5760000000000005,0.9999941016983687,68.47917557561351
7.584,0.9999941145925589,68.35702691355304
7.5920000000000005,0.9999941276315605,68.23486686352493
7.6,0.9999941408248687,68.11269542663817
7.6080000000000005,0.9999941541820582,67.99051260402136
7.616,0.9999941677127807,67.86831839682296
7.6240000000000006,0.9999941814267606,67.74611280621095
7.632,0.9999941953337916,67.62389583337313
7.640000000000001,0.9999942094437333,67.50166747951663
7.648,0.9999942237665078,67.37942774586836
7.656000000000001,0.9999942383120966,67.2571766336745
7.664,0.9999942530905362,67.13491414420089
7.672,0.9999942681119158,67.01264027873263
7.68,0.9999942833863734,66.8903550385743
7.688,0.9999942989240926,66.76805842504982
7.696,0.9999943147352988,66.64575043950248
7.704,0.9999943308302564,66.52343108329491
7.712,0.9999943472192657,66.401100357809
7.72,0.9999943639126587,66.27875826444593
7.728,0.999994380920797,66.15640480462623
7.736,0.999994398254068,66.03403997978968
7.744,0.9999944159228809,65.9116637913953
7.752,0.9999944339376646,65.78927624092134
7.76,0.9999944523088654,65.66687732986541
7.768,0.9999944710469408,65.54446705974435
7.776,0.9999944901623593,65.42204543209422
7.784,0.9999945096655963,65.29961244847047
7.792,0.9999945295671304,65.1771681104477
7.8,0.9999945498774417,65.0547124196199
7.808,0.9999945706070074,64.93224537760042
7.816,0.9999945917662991,64.80976698602186
7.824,0.999994613365781,64.68727724653618
7.832,0.9999946354159053,64.5647761608148
7.84,0.9999946579271105,64.44226373054849
7.848,0.9999946809098179,64.31973995744744
7.856,0.9999947043744286,64.19720484324134
7.864,0.9999947283313213,64.07465838967939
7.872,0.9999947527908485,63.952100598530265
7.88,0.9999947777633348,63.82953147158223
7.888,0.9999948032590732,63.706951010643216
7.896,0.9999948292883233,63.584359217540715
7.904,0.9999948558613072,63.46175609412198
7.912,0.9999948829882084,63.33914164225396
7.92,0.9999949106791681,63.216515863823446
7.928,0.9999949389442827,63.093878760737
7.936,0.9999949677936016,62.97123033492114
7.944,0.9999949972371243,62.84857058832227
7.952,0.9999950272847977,62.725899522906836
7.96,0.9999950579465138,62.60321714066133
7.968,0.9999950892321073,62.48052344359235
7.976,0.9999951211513531,62.357818433726706
7.984,0.999995153713964,62.23510211311143
7.992,0.9999951869295873,62.112374483813866
8.0,0.9999952208078039,61.98963554792174
8.008,0.9999952553581251,61.86688530754324
8.016,0.99999529058999,61.744123764807036
8.024000000000001,0.9999953265127643,61.621350921862415
8.032,0.9999953631357369,61.49856678087937
8.04,0.9999954004681183,61.37577134404856
8.048,0.9999954385190383,61.252964613581476
8.056000000000001,0.9999954772975435,61.13014659171054
8.064,0.9999955168125956,61.0073172806892
8.072,0.9999955570730693,60.88447668279187
8.08,0.9999955980877496,60.7616248003141
8.088000000000001,0.9999956398653307,60.63876163557278
8.096,0.9999956824144127,60.51588719090608
8.104,0.9999957257435012,60.39300146867352
8.112,0.9999957698610039,60.27010447125614
8.120000000000001,0.9999958147752291,60.147196201056595
8.128,0.9999958604943849,60.02427666049923
8.136,0.9999959070265754,59.901345852030154
8.144,0.9999959543798002,59.778403778117266
8.152000000000001,0.9999960025619521,59.655450441250515
8.16,0.9999960515808156,59.532485843941956
8.168,0.9999961014440657,59.40950998872569
8.176,0.9999961521592634,59.28652287815811
8.184000000000001,0.9999962037338587,59.16352451481803
8.192,0.9999962561751837,59.04051490130669
8.2,0.9999963094904561,58.917494040247895
8.208,0.9999963636867735,58.794461934288094
8.216000000000001,0.9999964187711136,58.67141858609657
8.224,0.9999964747503329,58.5483639983655
8.232,0.9999965316311645,58.425298173809985
8.24,0.9999965894202172,58.302221115168216
8.248000000000001,0.9999966481239732,58.17913282520166
8.256,0.9999967077487878,58.05603330669511
8.264,0.999996768300887,57.93292256245673
8.272,0.9999968297863672,57.80980059531822
8.280000000000001,0.9999968922111925,57.68666740813501
8.288,0.9999969555811943,57.56352300378624
8.296,0.9999970199020705,57.44036738517497
8.304,0.9999970851793828,57.317200555228155
8.312,0.9999971514185573,57.194022516897014
8.32,0.9999972186248814,57.07083327315687
8.328,0.9999972868035047,56.94763282700754
8.336,0.9999973559594354,56.8244211814731
8.344,0.9999974260975419,56.70119833960242
8.352,0.9999974972225495,56.57796430446892
8.36,0.9999975693390414,56.45471907917096
8.368,0.9999976424514553,56.331462666831705
8.376,0.9999977165640849,56.20819507059955
8.384,0.9999977916810769,56.08491629364794
8.392,0.999997867806432,55.96162633917574
8.4,0.999997944944002,55.83832521040711
8.408,0.9999980230974901,55.71501291059194
8.416,0.9999981022704508,55.591689443005606
8.424,0.9999981824662874,55.468354810949485
8.432,0.9999982636882523,55.345009017750705
8.44,0.9999983459394459,55.221652066762566
8.448,0.999998429222816,55.09828396136447
8.456,0.9999985135411574,54.974904704962164
8.464,0.9999985988971107,54.85151430098781
8.472,0.999998685293162,54.728112752900145
8.48,0.9999987727316425,54.60470006418451
8.488,0.9999988612147269,54.48127623835321
8.496,0.9999989507444345,54.357841278945266
8.504,0.9999990413226271,54.23439518952697
8.512,0.9999991329510096,54.11093797369167
8.52,0.9999992256311292,53.98746963506011
8.528,0.9999993193643747,53.863990177280385
8.536,0.9999994141519759,53.740499604028265
8.544,0.9999995099950048,53.61699791900716
8.552,0.9999996068943726,53.49348512594836
8.56,0.9999997048508321,53.36996122861102
8.568,0.999999803864975,53.2464262307825
8.576,0.9999999039372335,53.12288013627825
8.584,0.9999999999999999,52.99932294894216
8.592,1.0,52.875754672646536
8.6,1.0,52.75217531129235
8.608,0.9999999999999999,52.628584868809206
8.616,1.0,52.50498334915565
8.624,0.9999999999999999,52.38137075631913
8.632,0.9999999999999999,52.25774709431633
8.64,1.0,52.13411236719303
8.648,1.0,52.010466579024516
8.656,1.0,51.88680973391544
8.664,1.0,51.76314183600022
8.672,0.9999999999999999,51.639462889442925
8.68,0.9999999999999999,51.515772898437575
8.688,1.0,51.3920718672081
8.696,1.0,51.268359800008724
8.704,1.0,51.14463670112375
8.712,1.0,51.02090257486806
8.72,1.0,50.89715742558691
8.728,1.0,50.773401257656296
8.736,1.0,50.64963407548291
8.744,1.0,50.52585588350443
8.752,1.0,50.40206668618945
8.76,0.9999999999999999,50.27826648803783
8.768,1.0,50.154455293580604
8.776,1.0,50.03063310738028
8.784,0.9999999999999999,49.90679993403085
8.792,1.0,49.78295577815798
8.8,0.9999999999999999,49.659100644419055
8.808,1.0,49.53523453750346
8.815999999999999,1.0,49.411357462132514
8.824,0.9999999999999999,49.28746942305966
8.832,1.0,49.16357042507069
8.84,0.9999999999999999,49.03966047298375
8.847999999999999,1.0,48.91573957164947
8.856,0.9999999999999999,48.791807725951095
8.864,1.0,48.667864940804684
8.872,1.0,48.54391122115915
8.879999999999999,0.9999999999999999,48.41994657199638
8.888,1.0,48.295970998331306
8.896,1.0,48.17198450521221
8.904,1.0,48.047987097720686
8.911999999999999,0.9999999999999998,47.92397878097172
8.92,1.0,47.79995956011394
8.928,0.9999999999999999,47.67592944032966
8.936,1.0,47.55188842683506
8.943999999999999,1.0,47.42783652488018
8.952,1.0000000000000002,47.30377373974908
8.96,0.9999999999999999,47.17970007676004
8.968,1.0,47.05561554126569
8.975999999999999,1.0,46.931520138652864
8.984,1.0,46.80741387434299
8.992,1.0,46.68329675379212
9.0,0.9999999999999999,46.55916878249109
9.008,1.0,46.43502996596541
9.016,1.0,46.31088030977561
9.024000000000001,1.0,46.18671981951732
9.032,1.0,46.06254850082135
9.04,1.0,45.93836635935364
9.048,0.9999999999999999,45.8141734008156
9.056000000000001,1.0,45.68996963094414
9.064,1.0,45.56575505551178
9.072,0.9999999999999999,45.44152968032666
9.08,1.0,45.31729351123273
9.088000000000001,1.0,45.19304655410991
9.096,1.0,45.068788814874104
9.104,1.0,44.944520299477325
9.112,1.0,44.82024101390774
9.120000000000001,1.0,44.69595096418991
9.128,1.0,44.571650156384834
9.136,1.0,44.44733859658988
9.144,1.0000000000000002,44.32301629093917
9.152000000000001,0.9999999999999999,44.19868324560351
9.16,1.0,44.074339466790484
9.168,0.9999999999999999,43.949984960744594
9.176,1.0,43.82561973374733
9.184000000000001,1.0,43.70124379211731
9.192,1.0,43.57685714221034
9.2,1.0,43.45245979041949
9.208,1.0,43.32805174317516
9.216000000000001,1.0,43.20363300694531
9.224,0.9999999999999999,43.07920358823545
9.232,1.0000000000000002,42.954763493588686
9.24,1.0,42.83031272958584
9.248000000000001,0.9999999999999999,42.70585130284567
9.256,1.0,42.581379220024765
9.264,1.0,42.45689648781776
9.272,1.0,42.33240311295731
9.280000000000001,0.9999999999999999,42.20789910221429
9.288,0.9999999999999998,42.0833844623979
9.296,1.0,41.95885920035555
9.304,0.9999999999999999,41.83432332297311
9.312000000000001,0.9999999999999999,41.709776837175035
9.32,0.9999999999999999,41.58521974992432
9.328,0.9999999999999999,41.46065206822256
9.336,0.9999999999999998,41.33607379911015
9.344,0.9999999999999999,41.21148494966637
9.352,1.0,41.08688552700924
9.36,1.0,40.962275538295934
9.368,0.9999999999999999,40.83765499072254
9.376,1.0,40.713023891524365
9.384,1.0,40.58838224797585
9.392,0.9999999999999999,40.46373006739075
9.4,1.0,40.33906735712212
9.408,1.0,40.21439412456251
9.416,0.9999999999999999,40.08971037714385
9.424,0.9999999999999999,39.96501612233771
9.432,1.0,39.84031136765521
9.44,1.0000000000000002,39.715596120647284
9.448,0.9999999999999999,39.59087038890442
9.456,0.9999999999999999,39.46613418005714
9.464,0.9999999999999999,39.341387501775685
9.472,0.9999999999999999,39.216630361770356
9.48,1.0,39.09186276779141
9.488,1.0,38.96708472762919
9.496,1.0,38.842296249114135
9.504,1.0,38.717497340116964
9.512,1.0,38.592688008548585
9.52,0.9999999999999999,38.467868262360206
9.528,1.0,38.34303810954342
9.536,0.9999999999999998,38.21819755813031
9.544,1.0,38.093346616193266
9.552,1.0,37.96848529184541
9.56,1.0,37.84361359324027
9.568,0.9999999999999999,37.71873152857218
9.576,1.0,37.593839106075976
9.584,1.0,37.46893633402742
9.592,0.9999999999999999,37.34402322074291
9.6,1.0,37.21909977457978
9.608,1.0,37.094166003936145
9.616,1.0000000000000002,36.96922191725119
9.624,0.9999999999999999,36.84426752300491
9.632,1.0,36.71930282971847
9.64,0.9999999999999999,36.59432784595397
9.648,0.9999999999999999,36.46934258031472
9.656,1.0,36.34434704144505
9.664,0.9999999999999999,36.21934123803064
9.672,1.0,36.094325178798236
9.68,1.0,35.96929887251597
9.688,1.0,35.84426232799315
9.696,0.9999999999999999,35.719215554080584
9.704,1.0,35.59415855967028
9.712,1.0,35.4690913536958
9.72,1.0,35.34401394513203
9.728,0.9999999999999999,35.21892634299544
9.736,1.0,35.09382855634387
9.744,0.9999999999999998,34.96872059427687
9.752,1.0,34.843602465935376
9.76,0.9999999999999998,34.718474180502085
9.768,1.0,34.59333574720116
9.776,0.9999999999999999,34.468187175298546
9.784,0.9999999999999999,34.34302847410176
9.792,1.0,34.21785965296012
9.8,0.9999999999999999,34.09268072126454
9.808,1.0,33.967491688447865
9.816,0.9999999999999999,33.842292563984465
9.824,1.0,33.71708335739075
9.832,1.0000000000000002,33.59186407822473
9.84,1.0,33.46663473608643
9.847999999999999,0.9999999999999999,33.341395340617545
9.856,1.0,33.21614590150175
9.864,1.0,33.090886428464565
9.872,0.9999999999999999,32.96561693127343
9.879999999999999,1.0,32.840337419737644
9.888,1.0,32.71504790370847
9.896,0.9999999999999999,32.58974839307905
