freq,mag,phase
6.0,1.000061350954247,-103.66236644467374
6.003933184,1.0000800723101337,-103.87138688893462
6.007866368,1.0000953876658143,-104.08066331740795
6.011799552,1.0001051672937036,-104.2901945606708
6.015732736,1.0001089326867239,-104.49982893234026
6.01966592,1.000106578427814,-104.70950518141093
6.023598592,1.0000980251941831,-104.91911821988597
6.027531776,1.0000837805249487,-105.12862779759709
6.03146496,1.0000648990682242,-105.33794196827262
6.035398144,1.000042444843915,-105.54696203484023
6.039331328,1.000017687308495,-105.75569819448171
6.043264512,0.9999921679464929,-105.96410185217111
6.047197696,0.9999674390686648,-106.17222583066898
6.05113088,0.99994492860032,-106.38001004282073
6.055064064,0.9999260321941004,-106.58755740997945
6.058997248,0.9999119089715819,-106.79487254345234
6.062930432,0.9999033745046475,-107.00205798220972
6.066863104,0.9999010988960494,-107.20919538081388
6.070796288,0.9999050003128539,-107.4163958284561
6.074729472,0.9999149043044342,-107.6237260884435
6.078662656,0.9999302028525014,-107.83129545649611
6.08259584,0.9999502274415345,-108.03908786890973
6.086529024,0.999973317409445,-108.24723236342156
6.090462208,0.9999984760432442,-108.45577348722007
6.094395392,1.0000240726520164,-108.66468982856253
6.098328576,1.0000484577670388,-108.87400133386122
6.10226176,1.0000703067507366,-109.08367785521557
6.106194944,1.0000882069345307,-109.29363592594855
6.110127616,1.000101016116724,-109.50385077914436
6.1140608,1.0001081422559155,-109.71427632615543
6.117993984,1.0001090541910265,-109.9247583389458
6.121927168,1.000103686065259,-110.13528156312456
6.125860352,1.0000924009303325,-110.34565224399014
6.129793536,1.000075741678739,-110.55591572445712
6.13372672,1.0000549995174477,-110.76592007529543
6.137659904,1.0000310301647952,-110.9756343362292
6.141593088,1.0000057102020008,-111.18502775175016
6.145526272,0.9999801830754397,-111.39411174653719
6.149458944,0.9999562056271805,-111.6028645398828
6.153392128,0.9999351086013842,-111.81132216210734
6.157325312,0.9999182926514232,-112.01960099820275
6.161258496,0.9999065898457844,-112.22764208999472
6.16519168,0.9999009283665808,-112.43561594688441
6.169124864,0.9999014581069846,-112.64355280280532
6.173058048,0.9999082682476609,-112.85161414122769
6.176991232,0.9999207863990637,-113.05983187867807
6.180924416,0.9999384650611961,-113.26827518258752
6.1848576,0.9999602513929637,-113.47707324108782
6.188790784,0.9999846486776192,-113.68620028997888
6.192723456,1.0000104250462345,-113.89569219447102
6.19665664,1.0000356871996703,-114.10560867756512
6.200589824,1.0000591491123707,-114.31588707959061
6.204523008,1.0000794231009884,-114.52649625562756
6.208456192,1.0000951753906193,-114.73743846776487
6.212389376,1.0001054970811625,-114.94855894164682
6.21632256,1.0001097925423845,-115.15984322097148
6.220255744,1.0001077427945901,-115.37112802008966
6.224188928,1.0000996324813618,-115.5824067664783
6.228122112,1.0000856468711907,-115.79357482618364
6.232055296,1.0000667315101126,-116.0045186808666
6.235987968,1.0000442760494495,-116.21517914060814
6.239921152,1.0000193050071489,-116.42556296667796
6.243854336,0.9999935492147715,-116.63561183493428
6.24778752,0.9999685019686708,-116.84531640215708
6.251720704,0.999945530980041,-117.0547348389595
6.255653888,0.9999261455008945,-117.26389351026454
6.259587072,0.9999114257851709,-117.47278428960418
6.263520256,0.999902495188439,-117.68160890788216
6.26745344,0.999899692393816,-117.89034618609445
6.271386624,0.9999031661074972,-118.09909259773623
6.275319808,0.9999127044693709,-118.30799710995443
6.27925248,0.9999279746522272,-118.51712052510423
6.283185664,0.9999477359203057,-118.72649841003972
6.287118848,0.9999710398576981,-118.9361896358246
6.291052032,0.9999962861299524,-119.14630452194201
6.294985216,1.0000222260517393,-119.35678563951613
6.2989184,1.0000469782639363,-119.56765956087288
6.302851584,1.0000692368062238,-119.77888075414954
6.306784768,1.0000876263580762,-119.99042644831239
6.310717952,1.000101055741939,-120.20223576160393
6.314651136,1.0001086925815874,-120.41425536943972
6.31858432,1.0001101563077903,-120.62632362295099
6.322516992,1.000105120972017,-120.83841509955793
6.326450176,1.0000941099849883,-121.05042728145149
6.33038336,1.000077672300075,-121.26227534508108
6.334316544,1.0000570065648626,-121.47385841713981
6.338249728,1.0000330186331245,-121.68521241870344
6.342182912,1.000007279595758,-121.8962002413332
6.346116096,0.9999814447155827,-122.10688069878385
6.35004928,0.9999570608000221,-122.31721057979458
6.353982464,0.9999354552351103,-122.52726637467218
6.357915648,0.9999180823605838,-122.73703827602992
6.36184832,0.9999057752130613,-122.94669288039029
6.365781504,0.9998996391865191,-123.15620388907526
6.369714688,0.9998996828361605,-123.36570380973757
6.373647872,0.9999060665999695,-123.5752673598284
6.377581056,0.9999184096943955,-123.78501937367
6.38151424,0.9999360418551575,-123.99500268266311
6.385447424,0.9999576494537146,-124.20530270163653
6.389380608,0.9999821942822574,-124.41595461568336
6.393313792,1.0000081616132313,-124.62697221956142
6.397246976,1.00003380449793,-124.83840498445248
6.40118016,1.00005778795453,-125.05022944279453
6.405112832,1.0000785752839032,-125.26236012603509
6.409046016,1.0000949171597955,-125.47482606948803
6.4129792,1.0001057781906497,-125.68748072448194
6.416912384,1.000110535305802,-125.90030731740785
6.420845568,1.0001089914276906,-126.11317862441078
6.424778752,1.0001011629579766,-126.32598686780919
6.428711936,1.000087506198607,-126.53870637016063
6.43264512,1.000068830420321,-126.75123597284733
6.436578304,1.000046203777782,-126.96346149190478
6.440511488,1.0000211650312278,-127.17539606080044
6.444444672,0.9999950418073263,-127.38697918656464
6.448377344,0.9999695175619034,-127.59826644252911
6.452310528,0.9999460989212643,-127.80918643456526
6.456243712,0.9999262152421917,-128.01987286782384
6.460176896,0.9999110693254614,-128.23031782550694
6.46411008,0.999901445684841,-128.44061415395396
6.468043264,0.9998980690582246,-128.65085349223278
6.471976448,0.9999011746929728,-128.8611066934824
6.475909632,0.9999103913559108,-129.07150867224462
6.479842816,0.999925387232655,-129.28207088803356
6.483776,0.9999450442215971,-129.4929220317489
6.487709184,0.999968332945333,-129.70413139152433
6.491641856,0.9999938887175982,-129.91569702335167
6.49557504,1.000020041924576,-130.1276239443998
6.499508224,1.0000452420071646,-130.33998457644392
6.503441408,1.000068075798393,-130.55270304681284
6.507374592,1.0000870481459327,-130.76575289524965
6.511307776,1.000101064072827,-130.97905252201036
6.51524096,1.000109259313481,-131.1925222657618
6.519174144,1.0001111161419403,-131.40613294544426
6.523107328,1.0001066486137895,-131.61974156890028
6.527040512,1.0000959546127601,-131.83325389906747
6.530973696,1.0000797229480314,-132.04659435773974
6.534906368,1.0000590226916244,-132.25976280304505
6.538839552,1.0000349643902016,-132.47259390595647
6.542772736,1.000009112394845,-132.68511343809107
6.54670592,0.9999829090482315,-132.8972827116918
6.550639104,0.9999580632106514,-133.109093719267
6.554572288,0.9999359384577782,-133.32063062625082
6.558505472,0.9999179545868687,-133.53189916794082
6.562438656,0.999905158860589,-133.74300001871583
6.56637184,0.999898390225977,-133.95397473771118
6.570305024,0.9998979328814671,-134.16493373926906
6.574238208,0.999903935720389,-134.37596293211868
6.57817088,0.9999159424215891,-134.5871116062168
6.582104064,0.9999333348970737,-134.79853083042465
6.586037248,0.9999549860949644,-135.01026351734856
6.589970432,0.999979651187668,-135.2223125185908
6.593903616,1.0000057169823315,-135.43475678287865
6.5978368,1.0000318769192227,-135.6476305729107
6.601769984,1.0000563363345318,-135.86084172543173
6.605703168,1.0000775784582088,-136.07444906767944
6.609636352,1.0000945315015795,-136.28831897940935
6.613569536,1.0001059907135041,-136.5024735437339
6.617502208,1.0001114013218968,-136.71671738917902
6.621435392,1.0001103576395691,-136.9310533784726
6.625368576,1.0001029021680914,-137.14533154578325
6.62930176,1.000089487656895,-137.3594999171474
6.633234944,1.000070994884114,-137.57347839424946
6.637168128,1.000048383638839,-137.78720516704254
6.641101312,1.0000232263177562,-138.00056732725224
6.645034496,0.9999969131271909,-138.21363973412406
6.64896768,0.9999709150991273,-138.42635308768908
6.652900864,0.9999470425098853,-138.63876859550223
6.656834048,0.9999265035164898,-138.85085146777067
6.66076672,0.9999107003840527,-139.0627296795653
6.664699904,0.9999004899655106,-139.27444287130112
6.668633088,0.9998965467788576,-139.48607441859343
6.672566272,0.9998990659098813,-139.69774097708387
6.676499456,0.9999079894578169,-139.90948285456597
6.68043264,0.9999227102939466,-140.12146936601224
6.684365824,0.9999422758919162,-140.33368322265264
6.688299008,0.9999656437214951,-140.5462321771647
6.692232192,0.9999912871001192,-140.75917443167734
6.696165376,1.0000177859340187,-140.9725034010316
6.70009856,1.0000434581126112,-141.18621050240563
6.704031232,1.0000667407150088,-141.40030728369302
6.707964416,1.0000862806320319,-141.61472021331028
6.7118976,1.00010090928257,-141.82943393233083
6.715830784,1.0001097281993288,-142.04432512933522
6.719763968,1.0001122516059078,-142.25929969757644
6.723697152,1.00010815823184,-142.474328296606
6.727630336,1.0000978501444215,-142.68925925990553
6.73156352,1.000081920756295,-142.9040362443987
6.735496704,1.0000612819272605,-143.11856550553236
6.739429888,1.000037159246051,-143.332835065925
6.743363072,1.0000110846750287,-143.54673884893361
6.747295744,0.9999845883237592,-143.7603060300744
6.751228928,0.999959260186811,-143.9735370780309
6.755162112,0.9999365213217529,-144.18646199976382
6.759095296,0.9999179459240434,-144.39911553412827
6.76302848,0.9999045854011188,-144.61156806662686
6.766961664,0.9998970543537111,-144.82390829755298
6.770894848,0.9998961610006533,-145.03616870735243
6.774828032,0.9999016640796852,-145.24853439139432
6.778761216,0.9999133443923499,-145.46103619011183
6.7826944,0.9999304689165901,-145.6737550066065
6.786627584,0.9999521094870222,-145.88678458740912
6.790560256,0.9999768354504869,-146.10019094263237
6.79449344,1.0000032170063253,-146.31393807190167
6.798426624,1.0000297062845818,-146.52809354567873
6.802359808,1.000054649850089,-146.74266855582647
6.806292992,1.0000765577546031,-146.9575676681658
6.810226176,1.000094073277731,-147.17279610001404
6.81415936,1.0001062160124263,-147.3882443031599
6.818092544,1.0001121651060356,-147.60386305493165
6.822025728,1.0001116649604118,-147.81953193986632
6.825958912,1.0001047439655277,-148.03516624379807
6.829891584,1.0000916922938423,-148.25068731299174
6.833824768,1.0000733179164234,-148.4660311849353
6.837757952,1.0000508340096603,-148.68109995080465
6.841691136,1.0000254767946826,-148.8958362202281
6.84562432,0.9999988167838295,-149.1102810479673
6.849557504,0.9999725138135751,-149.32432590649822
6.853490688,0.9999480422318506,-149.53803778506574
6.857423872,0.9999270009476288,-149.75145829281973
6.861357056,0.9999104949485488,-149.96465038292115
6.86529024,0.9998996160541358,-150.17767901330961
6.869223424,0.9998951321866731,-150.39058727525497
6.873156096,0.9998970664181538,-150.60353626803382
6.87708928,0.9999055631111105,-150.81658787720278
6.881022464,0.9999199431004756,-151.02978502381853
6.884955648,0.9999393855184991,-151.24330079360317
6.888888832,0.9999627058643817,-151.4570804414092
6.892822016,0.9999886072672235,-151.67125344946203
6.8967552,1.0000154042288059,-151.88582905807522
6.900688384,1.0000414619343763,-152.1007981876768
6.904621568,1.0000653768843673,-152.31617179123685
6.908554752,1.0000855133728697,-152.53184730466535
6.912487936,1.0001008797878383,-152.7478279401482
6.916420608,1.00011027548027,-152.9639985832838
6.920353792,1.000113360979042,-153.18025764334337
6.924286976,1.0001098486274316,-153.3965634087919
6.92822016,1.0001000085872125,-153.61280865981013
6.932153344,1.0000843231757235,-153.82889654035375
6.936086528,1.0000638626532543,-154.0447354992813
6.940019712,1.00003964520608,-154.26028346252141
6.943952896,1.0000134255866608,-154.47550277872904
6.94788608,0.999986517133666,-154.6903425733439
6.951819264,0.9999606739963491,-154.9048723678201
6.955752448,0.999937455158666,-155.11905660495165
6.95968512,0.9999181932276278,-155.3329672846032
6.963618304,0.9999041015470465,-155.54666789622135
6.967551488,0.9998959998193216,-155.7602065449586
6.971484672,0.9998944096137626,-155.97374608450662
6.975417856,0.9998993805855042,-156.18731269784843
6.97935104,0.999910722726812,-156.40099902317985
6.983284224,0.9999276066229001,-156.61494279939595
6.987217408,0.9999490502265476,-156.82915152364748
6.991150592,0.9999739730372751,-157.04369971691992
6.995083776,1.000000612239734,-157.25867929803897
6.99901696,1.0000274894561691,-157.47405864658802
7.002949632,1.000052918797134,-157.68980830475658
7.006882816,1.000075384354222,-157.90589338623204
7.010816,1.0000935588426396,-158.12233458732948
7.014749184,1.0001064348232342,-158.3390066326451
7.018682368,1.0001130991731535,-158.55584124159884
7.022615552,1.00011317848621,-158.77273575841866
7.026548736,1.000106663216378,-158.98960563589057
7.03048192,1.0000939502575943,-159.2063592488247
7.034415104,1.0000758889925396,-159.422967779693
7.038348288,1.00005335554623,-159.63922938720108
7.042281472,1.0000279372321204,-159.85522851355353
7.046214144,1.0000009903762146,-160.07085768705224
7.050147328,0.9999743131028167,-160.28615574632465
7.054080512,0.9999493610471837,-160.50108396383894
7.058013696,0.9999275249315018,-160.71570435942027
7.06194688,0.9999104328640827,-160.93010379928253
7.065880064,0.9998988965550134,-161.14429717801258
7.069813248,0.9998936610587786,-161.35837481306916
7.073746432,0.9998951373208064,-161.57250953826164
7.077679616,0.9999030489778291,-161.78662988844823
7.0816128,0.999917109005272,-162.00100594208203
7.085545472,0.9999363372720893,-162.21561956792448
7.089478656,0.9999596641352461,-162.43055941650329
7.09341184,0.9999857110668691,-162.64585006955875
7.097345024,1.000012790384335,-162.8615528304522
7.101278208,1.0000393669903065,-163.07765789167044
7.105211392,1.0000638490176583,-163.29417905076792
7.109144576,1.0000846962239391,-163.5109898845017
7.11307776,1.0001006715559253,-163.72811861948443
7.117010944,1.0001108129132303,-163.9454177856642
7.120944128,1.0001146054262158,-164.16285518895666
7.124877312,1.0001116657589053,-164.38033221894
7.128809984,1.0001022512718738,-164.5977275028344
7.132743168,1.0000868329178376,-164.81495866205591
7.136676352,1.0000664537036206,-165.03198735015025
7.140609536,1.0000423416169564,-165.24870485502265
7.14454272,1.00001581072203,-165.4650983372977
7.148475904,0.9999886049365139,-165.68111166609006
7.152409088,0.9999622558460467,-165.89678820968217
7.156342272,0.999938409332759,-166.11213186755353
7.160275456,0.9999184660773185,-166.3271741789044
7.16420864,0.9999037171772578,-166.5419736914256
7.168141824,0.9998948889400542,-166.75666947493818
7.172074496,0.999892621891956,-166.9712484687334
7.17600768,0.9998971241336811,-167.18591300709704
7.179940864,0.9999079240563162,-167.40067735408405
7.183874048,0.9999245558311588,-167.61566722295865
7.187807232,0.9999459928294603,-167.83095595756257
7.191740416,0.9999708880991514,-168.04657788284928
7.1956736,0.9999977676465429,-168.26260611568517
7.199606784,1.0000249787463438,-168.47901690054667
7.203539968,1.000050976581585,-168.6958075373449
7.207473152,1.0000741755188216,-168.91298842947472
7.211406336,1.0000930890476256,-169.13050639015415
7.215339008,1.000106649639098,-169.3482699417073
7.219272192,1.0001139416287506,-169.56617134805566
7.223205376,1.0001147525478926,-169.7841789262366
7.22713856,1.0001087525601473,-170.00215868266892
7.231071744,1.0000964677214588,-170.22002211698307
7.235004928,1.0000785655796316,-170.4377061038693
7.238938112,1.000056161114534,-170.65513226742712
7.242871296,1.0000305832647693,-170.8722234021227
7.24680448,1.0000033455883233,-171.0889582696482
7.250737664,0.9999762096786107,-171.30533205733525
7.254670848,0.9999506931813078,-171.52133891483652
7.25860352,0.9999282480307249,-171.73704445552093
7.262536704,0.9999104393598031,-171.9524741269228
7.266469888,0.9998981593987395,-172.16770957127622
7.270403072,0.9998922018699516,-172.38283158833366
7.274336256,0.9998929831371632,-172.5979371178942
7.27826944,0.9999004759346753,-172.81311761791034
7.282202624,0.9999141642472568,-173.02847989055854
7.286135808,0.9999331982773166,-173.2440741185108
7.290068992,0.9999565391752963,-173.46002250885036
7.294002176,0.9999826615970145,-173.67631343753806
7.297934848,1.000010079721502,-173.89301029789095
7.301868032,1.00003712491908,-174.1100890633312
7.305801216,1.0000621496200635,-174.3275805406639
7.3097344,1.0000837077335143,-174.5454010001692
7.313667584,1.0001004457589013,-174.76354578183705
7.317600768,1.0001112778162775,-174.98187482773122
7.321533952,1.0001157970559502,-175.20033133713832
7.325467136,1.0001134698194292,-175.41880999251057
7.32940032,1.0001045565684366,-175.63726135309912
7.333333504,1.000089589825634,-175.85555134592573
7.337266688,1.0000693551092008,-176.07360303837288
7.34119936,1.0000451845885063,-176.29136485119346
7.345132544,1.0000185262144947,-176.50877399029392
7.349065728,0.9999909076354665,-176.72584878086258
7.352998912,0.9999641156506259,-176.9425251004806
7.356932096,0.999939689885534,-177.15886503555382
7.36086528,0.9999189854729189,-177.37488198919624
7.364798464,0.9999034542837776,-177.59070505061908
7.368731648,0.9998938935253596,-177.80633235322398
7.372664832,0.9998909038726624,-178.02188910051734
7.376598016,0.9998948714846625,-178.23751703905583
7.3805312,0.9999052066909648,-178.45323054530056
7.384463872,0.9999214808448177,-178.6690988418953
7.388397056,0.999942816498776,-178.88533894929228
7.39233024,0.999967702676314,-179.10186220038835
7.396263424,0.9999947436738228,-179.31877657534062
7.400196608,1.0000225231163709,-179.536119582333
7.404129792,1.0000490440373924,-179.75385882080843
7.408062976,1.0000728371750531,-179.97198948563354
7.41199616,1.0000924255085966,179.8096015249588
7.415929344,1.0001067945875781,179.5908965943149
7.419862528,1.0001149016892492,179.3720470579228
7.423795712,1.000116292203813,179.15307557699998
7.427728384,1.0001109366874665,178.93414288256542
7.431661568,1.0000991024484145,178.7153015251657
7.435594752,1.0000815509631433,178.49666462800866
7.439527936,1.0000592343680366,178.27826465261418
7.44346112,1.0000336385272153,178.06022513343137
7.447394304,1.0000060174594851,177.84251917823477
7.451327488,0.9999784118500378,177.6251973251445
7.455260672,0.9999523155783007,177.40823147949556
7.459193856,0.9999292175999587,177.19160915686314
7.46312704,0.9999105314156953,176.97527512873424
7.467060224,0.9998975725760716,176.75910812288913
7.470992896,0.9998908788794677,176.54307653347968
7.47492608,0.9998909782980078,176.3271123690398
7.478859264,0.9998979413459628,176.1110454774068
7.482792448,0.9999111603648001,175.89485390192561
7.486725632,0.9999299362298617,175.67840791570097
7.490658816,0.9999531930915393,175.46161515288952
7.494592,0.9999795169110355,175.2444675419625
7.498525184,1.0000071998734354,175.02695385621553
7.502458368,1.0000347531677125,174.80900075842027
7.506391552,1.000060398899644,174.5906841312633
7.510324736,1.000082766348594,174.37200388981904
7.514257408,1.000100154834022,174.15300912456803
7.518190592,1.000111978176724,173.93378559263456
7.522123776,1.0001171038107666,173.71444095976867
7.52605696,1.00011542546241,173.49506384566627
7.529990144,1.0001069682753712,173.2757253330012
7.533923328,1.0000923404078799,173.05655190036487
7.537856512,1.0000724507666845,172.8375998490097
7.541789696,1.0000482456278241,172.61895596389755
7.54572288,1.0000214580146511,172.40064388832872
7.549656064,0.9999935363689464,172.18270429570413
7.553588736,0.9999660790534901,171.96513820973018
7.55752192,0.999940960523941,171.74793398406123
7.561455104,0.9999195868836477,171.53105429977055
