freq,mag,phase
6.0,0.9999860307285457,-153.08384743190865
6.008,0.9999824118108958,-153.550774632521
6.016,0.9999789147058652,-154.01757840561405
6.024,0.9999755374010265,-154.48425843687247
6.032,0.9999722778990024,-154.95081442753093
6.04,0.9999691342175545,-155.41724609428204
6.048,0.9999661043896652,-155.8835531691834
6.056,0.9999631864636206,-156.3497353995641
6.064,0.999960378503086,-156.8157925479306
6.072,0.9999576785871818,-157.28172439187128
6.08,0.9999550848105501,-157.747530723961
6.088,0.9999525952834277,-158.21321135166465
6.096,0.9999502081317052,-158.67876609724001
6.104,0.999947921496991,-159.14419479764024
6.112,0.9999457335366685,-159.60949730441544
6.12,0.9999436424239488,-160.07467348361376
6.128,0.9999416463479254,-160.53972321568213
6.136,0.9999397435136209,-161.004646395366
6.144,0.9999379321420306,-161.46944293160894
6.152,0.999936210470169,-161.93411274745162
6.16,0.999934576751104,-162.39865577993024
6.168,0.9999330292539976,-162.8630719799743
6.176,0.9999315662641391,-163.32736131230462
6.184,0.99993018608297,-163.7915237553298
6.192,0.9999288870281199,-164.25555930104318
6.2,0.9999276674334225,-164.71946795491934
6.208,0.9999265256489444,-165.1832497358095
6.216,0.9999254600410014,-165.64690467583748
6.224,0.9999244689921729,-166.11043282029433
6.232,0.9999235509013218,-166.57383422753375
6.24,0.9999227041835945,-167.0371089688662
6.248,0.9999219272704403,-167.50025712845326
6.256,0.999921218609611,-167.96327880320146
6.264,0.9999205766651641,-168.42617410265615
6.272,0.999919999917463,-168.8889431488948
6.28,0.999919486863178,-169.35158607642018
6.288,0.9999190360152781,-169.81410303205328
6.296,0.9999186459030244,-170.27649417482638
6.304,0.9999183150719608,-170.73875967587531
6.312,0.9999180420839017,-171.200899718332
6.32,0.9999178255169209,-171.66291449721686
6.328,0.9999176639653267,-172.12480421933074
6.336,0.9999175560396509,-172.58656910314716
6.344,0.9999175003666221,-173.04820937870403
6.352,0.9999174955891466,-173.50972528749557
6.36,0.9999175403662779,-173.97111708236403
6.368,0.9999176333731896,-174.43238502739132
6.376,0.9999177733011501,-174.8935293977907
6.384,0.9999179588574811,-175.3545504797983
6.392,0.9999181887655331,-175.8154485705647
6.4,0.9999184617646403,-176.27622397804657
6.408,0.9999187766100853,-176.7368770208981
6.416,0.9999191320730637,-177.1974080283626
6.424,0.9999195269406312,-177.65781734016412
6.432,0.9999199600156684,-178.11810530639903
6.44,0.9999204301168304,-178.57827228742786
6.448,0.9999209360784984,-179.03831865376685
6.456,0.9999214767507307,-179.49824478597998
6.464,0.9999220509992088,-179.9580510745706
6.472,0.9999226577051903,179.58226208012616
6.48,0.9999232957654439,179.12269426805156
6.4879999999999995,0.9999239640921993,178.66324506953092
6.496,0.9999246616130878,178.2039140553811
6.504,0.9999253872710792,177.74470078701827
6.5120000000000005,0.9999261400244224,177.28560481656487
6.52,0.9999269188465817,176.8266256869571
6.5280000000000005,0.9999277227261686,176.36776293205148
6.536,0.9999285506668818,175.90901607673229
6.5440000000000005,0.9999294016874306,175.45038463701727
6.552,0.9999302748214743,174.99186812016504
6.5600000000000005,0.999931169117545,174.5334660247803
6.568,0.9999320836389779,174.07517784092065
6.5760000000000005,0.9999330174638363,173.61700305020148
6.584,0.9999339696848405,173.15894112590234
6.592,0.9999349394092866,172.7009915330714
6.6,0.9999359257589705,172.2431537286308
6.608,0.9999369278701115,171.78542716148152
6.616,0.99993794489327,171.32781127260742
6.624,0.9999389759932672,170.87030549517965
6.632,0.9999400203491029,170.41290925466055
6.64,0.9999410771538723,169.955621968907
6.648,0.9999421456146809,169.49844304827397
6.656,0.9999432249525588,169.0413718957173
6.664,0.9999443144023762,168.5844079068963
6.672,0.9999454132127533,168.12755047027628
6.68,0.9999465206459733,167.67079896723024
6.688,0.9999476359778915,167.21415277214084
6.696,0.9999487584978466,166.75761125250133
6.704,0.999949887508569,166.3011737690169
6.712,0.9999510223260875,165.84483967570495
6.72,0.9999521622796378,165.3886083199954
6.728,0.9999533067115671,164.93247904283066
6.736,0.9999544549772409,164.476451178765
6.744,0.9999556064449466,164.02052405606364
6.752,0.9999567604957983,163.56469699680162
6.76,0.9999579165236391,163.10896931696195
6.768,0.9999590739349438,162.65334032653362
6.776,0.9999602321487205,162.1978093296092
6.784,0.9999613905964132,161.74237562448192
6.792,0.9999625487218008,161.28703850374225
6.8,0.9999637059808962,160.8317972543745
6.808,0.9999648618418485,160.37665115785236
6.816,0.9999660157848405,159.9215994902348
6.824,0.999967167301985,159.46664152226066
6.832,0.9999683158972257,159.0117765194436
6.84,0.9999694610862339,158.55700374216613
6.848,0.999970602396303,158.1023224457734
6.856,0.9999717393662483,157.64773188066647
6.864,0.999972871546301,157.1932312923952
6.872,0.9999739984980036,156.73881992175063
6.88,0.9999751197941066,156.28449700485703
6.888,0.9999762350184628,155.83026177326337
6.896,0.9999773437659215,155.37611345403428
6.904,0.9999784456422236,154.92205126984086
6.912,0.9999795402638944,154.4680744390506
6.92,0.9999806272581387,154.01418217581724
6.928,0.9999817062627342,153.56037369016985
6.936,0.9999827769259232,153.10664818810167
6.944,0.9999838389063078,152.6530048716583
6.952,0.9999848918727415,152.19944293902566
6.96,0.9999859355042217,151.7459615846171
6.968,0.9999869694897835,151.29255999916043
6.976,0.9999879935283915,150.83923736978426
6.984,0.9999890073288311,150.38599288010388
6.992,0.9999900106096027,149.9328257103067
7.0,0.9999910030988126,149.4797350372372
7.008,0.9999919845340646,149.02672003448131
7.016,0.9999929546623535,148.57377987245061
7.024,0.9999939132399561,148.12091371846552
7.032,0.9999948600323233,147.66812073683855
7.04,0.9999957948139733,147.2154000889567
7.048,0.9999967173683799,146.76275093336358
7.056,0.9999976274878707,146.31017242584082
7.064,0.9999985249735124,145.85766371948935
7.072,0.9999994096350087,145.4052239648097
7.08,1.0,144.95285230978226
7.088,1.0,144.5005478999469
7.096,1.0,144.04830987848194
7.104,1.0,143.59613738628286
7.112,1.0,143.14402956204032
7.12,0.9999999999999999,142.69198554231804
7.128,1.0,142.24000446162947
7.136,0.9999999999999999,141.78808545251502
7.144,1.0,141.33622764561778
7.152,1.0,140.88443016975936
7.16,1.0,140.4326921520151
7.168,0.9999999999999999,139.9810127177887
7.176,1.0,139.5293909908864
7.184,1.0,139.07782609359086
7.192,0.9999999999999998,138.62631714673407
7.2,1.0,138.1748632697705
7.208,0.9999999999999998,137.723463580849
7.216,1.0,137.27211719688478
7.224,0.9999999999999998,136.82082323363062
7.232,0.9999999999999999,136.3695808057476
7.24,1.0,135.91838902687562
7.248,1.0,135.46724700970302
7.256,1.0,135.01615386603598
7.264,1.0,134.5651087068676
7.272,1.0,134.11411064244592
7.28,0.9999999999999999,133.66315878234212
7.288,0.9999999999999999,133.21225223551798
7.296,1.0,132.76139011039257
7.304,1.0,132.31057151490896
7.312,1.0,131.85979555660032
7.32,1.0,131.40906134265515
7.328,0.9999999999999999,130.95836797998263
7.336,1.0,130.50771457527705
7.344,0.9999999999999999,130.0571002350821
7.352,0.9999999999999999,129.60652406585442
7.36,1.0,129.15598517402677
7.368,0.9999999999999999,128.705482666071
7.376,0.9999999999999999,128.25501564856006
7.384,0.9999999999999999,127.80458322822999
7.392,1.0,127.35418451204119
7.4,0.9999999999999999,126.90381860723939
7.4079999999999995,0.9999999999999999,126.45348462141612
7.416,1.0,126.00318166256845
7.4239999999999995,1.0,125.55290883915914
7.432,1.0,125.1026652601749
7.4399999999999995,1.0,124.6524500351859
7.448,1.0,124.20226227440311
7.4559999999999995,1.0000000000000002,123.75210108873704
7.464,1.0,123.30196558985396
7.4719999999999995,1.0,122.85185489023381
7.48,1.0,122.40176810322575
7.4879999999999995,1.0,121.95170434310495
7.496,1.0,121.50166272512742
7.504,0.9999999999999999,121.0516423655858
7.5120000000000005,0.9999999999999999,120.60164238186351
7.52,0.9999999999999999,120.15166189248946
7.5280000000000005,1.0,119.70170001719144
7.536,1.0,119.25175587695017
7.5440000000000005,0.9999999999999999,118.80182859405147
7.552,0.9999999999999998,118.35191729213976
7.5600000000000005,1.0,117.90202109626931
7.568,1.0,117.45213913295673
7.5760000000000005,0.9999999999999999,117.00227053023168
7.584,1.0,116.55241441768841
7.5920000000000005,0.9999999999999999,116.10256992653554
7.6,1.0,115.65273618964687
7.6080000000000005,0.9999999999999999,115.20291234161043
7.616,0.9999999999999999,114.7530975187783
7.6240000000000006,0.9999999999999999,114.30329085931496
7.632,0.9999999999999999,113.85349150324632
7.640000000000001,1.0,113.40369859250715
7.648,0.9999999999999999,112.95391127098958
7.656000000000001,1.0,112.50412868458938
7.664,1.0,112.05434998125386
7.672,1.0,111.60457431102752
7.68,1.0,111.15480082609875
7.688,1.0,110.7050286808453
7.696,1.0,110.25525703187958
7.704,0.9999999999999998,109.80548503809376
7.712,0.9999999999999999,109.35571186070428
7.72,1.0,108.90593666329593
7.728,1.0,108.45615861186596
7.736,1.0,108.00637687486717
7.744,1.0,107.55659062325131
7.752,1.0,107.10679903051154
7.76,0.9999999999999999,106.65700127272488
7.768,0.9999999999999999,106.20719652859421
7.776,0.9999999999999999,105.75738397948975
7.784,1.0,105.30756280949039
7.792,1.0,104.85773220542457
7.8,1.0,104.40789135691077
7.808,0.9999999999999999,103.95803945639769
7.816,0.9999999999999999,103.50817569920406
7.824,1.0,103.05829928355809
7.832,1.0,102.60840941063655
7.84,0.9999999999999999,102.1585052846036
7.848,1.0,101.70858611264913
7.856,0.9999999999999998,101.25865110502684
7.864,1.0,100.80869947509198
7.872,0.9999999999999998,100.35873043933869
7.88,1.0,99.90874321743708
7.888,1.0,99.4587370322699
7.896,0.9999999999999999,99.0087111099689
7.904,1.0,98.55866467995091
7.912,0.9999999999999999,98.10859697495347
7.92,1.0,97.65850723107019
7.928,0.9999999999999999,97.20839468778587
7.936,1.0,96.75825858801112
7.944,0.9999999999999998,96.30809817811675
7.952,1.0,95.85791270796788
7.96,1.0,95.40770143095766
7.968,1.0,94.95746360404057
7.976,1.0,94.50719848776569
7.984,0.9999999999999999,94.05690534630936
7.992,0.9999999999999998,93.60658344750767
8.0,1.0,93.15623206288859
8.008,1.0,92.70585046770385
8.016,1.0,92.25543794096025
8.024000000000001,0.9999999999999999,91.80499376545121
8.032,1.0,91.35451722778758
8.04,1.0,90.9040076184279
8.048,0.9999999999999999,90.45346423170892
8.056000000000001,1.0,90.0028863658758
8.064,0.9999999999999999,89.55227332311155
8.072,1.0,89.10162440956628
8.08,0.9999999999999998,88.65093893538639
8.088000000000001,1.0,88.20021621474358
8.096,0.9999999999999999,87.74945556586316
8.104,1.0,87.29865631105196
8.112,0.9999999999999999,86.84781777672647
8.120000000000001,1.0,86.39693929344067
8.128,1.0,85.94602019591298
8.136,1.0,85.49505982305327
8.144,0.9999999999999999,85.04405751798961
8.152000000000001,1.0,84.593012628095
8.16,1.0,84.14192450501324
8.168,0.9999999999999999,83.69079250468461
8.176,0.9999999999999999,83.2396159873717
8.184000000000001,0.9999999999999999,82.7883943176848
8.192,0.9999999999999999,82.33712686460672
8.2,1.0,81.88581300151733
8.208,1.0,81.43445210621819
8.216000000000001,1.0,80.9830435609569
8.224,0.9999999999999999,80.53158675245078
8.232,0.9999999999999999,80.0800810719102
8.24,0.9999999999999999,79.62852591506221
8.248000000000001,0.9999999999999999,79.1769206821737
8.256,1.0,78.72526477807398
8.264,1.0,78.27355761217707
8.272,0.9999997879729651,77.8217985985041
8.280000000000001,0.9999994159807247,77.36998715570547
8.288,0.9999990470650604,76.91812270708235
8.296,0.9999986813465825,76.46620468060775
8.304,0.9999983189437904,76.01423250894798
8.312,0.9999979599730519,75.56220562948373
8.32,0.9999976045485881,75.11012348432997
8.328,0.9999972527824545,74.65798552035703
8.336,0.9999969047845259,74.20579118920993
8.344,0.9999965606624791,73.75353994732882
8.352,0.9999962205217786,73.30123125596779
8.36,0.9999958844656633,72.84886458121495
8.368,0.9999955525951304,72.39643939401041
8.376,0.9999952250089243,71.94395517016598
8.384,0.9999949018035231,71.49141139038274
8.392,0.9999945830731267,71.03880754027003
8.4,0.9999942689096464,70.58614311036249
8.408,0.9999939594026934,70.13341759613866
8.416,0.9999936546395692,69.68063049803739
8.424,0.9999933547052564,69.22778132147587
8.432,0.9999930596824104,68.77486957686568
8.44,0.9999927696513506,68.32189477963018
8.448,0.9999924846900534,67.86885645021997
8.456,0.9999922048741454,67.41575411412985
8.464,0.9999919302768974,66.96258730191383
8.472,0.9999916609692174,66.50935554920139
8.48,0.9999913970196487,66.05605839671207
8.488,0.9999911384943623,65.60269539027125
8.496,0.9999908854571549,65.14926608082406
8.504,0.9999906379694452,64.69577002445082
8.512,0.999990396090272,64.24220678238032
8.52,0.9999901598762921,63.788575921004785
8.528,0.9999899293817777,63.3348770118926
8.536,0.999989704658617,62.88110963180279
8.544,0.9999894857563137,62.427273362697164
8.552,0.9999892727219876,61.97336779175435
8.56,0.9999890656003741,61.519392511381426
8.568,0.9999888644338284,61.06534711922735
8.576,0.9999886692623252,60.61123121819412
8.584,0.9999884801234625,60.15704441644969
8.592,0.9999882970524652,59.702786327438666
8.6,0.9999881200821873,59.24845656989456
8.608,0.9999879492431178,58.79405476785003
8.616,0.9999877845633859,58.3395805506487
8.624,0.9999876260687645,57.885033552954845
8.632,0.9999874737826778,57.4304134147645
8.64,0.9999873277262076,56.97571978141498
8.648,0.9999871879181006,56.52095230359516
8.656,0.999987054374774,56.066110637354534
8.664,0.9999869271103272,55.611194444113146
8.672,0.9999868061365467,55.15620339066993
8.68,0.9999866914629184,54.701137149212244
8.688,0.999986583096635,54.24599539732356
8.696,0.9999864810426069,53.79077781799263
8.704,0.9999863853034742,53.335484099620565
8.712,0.9999862958796158,52.88011393602944
8.72,0.9999862127691619,52.42466702646893
8.728,0.9999861359680068,51.96914307562436
8.736,0.9999860654698209,51.51354179362282
8.744,0.9999860012660636,51.05786289604064
8.752,0.999985943345998,50.60210610390905
8.76,0.9999858916967035,50.146271143721094
8.768,0.9999858463030913,49.69035774743674
8.776,0.9999858071479196,49.23436565248931
8.784,0.9999857742118086,48.77829460179007
8.792,0.9999857474732555,48.322144343734
8.8,0.9999857269086535,47.865914632204024
8.808,0.9999857124923055,47.40960522657621
8.815999999999999,0.9999857041964435,46.953215891723424
8.824,0.9999857019912456,46.49674639801965
8.832,0.9999857058448537,46.04019652134403
8.84,0.9999857157233926,45.58356604308396
8.847999999999999,0.9999857315909881,45.12685475013838
8.856,0.9999857534097877,44.6700624349207
8.864,0.9999857811399793,44.21318889536181
8.872,0.9999858147398112,43.75623393491225
8.879999999999999,0.9999858541656133,43.29919736254424
8.888,0.9999858993718178,42.842078992753585
8.896,0.9999859503109803,42.38487864556163
8.904,0.9999860069338014,41.92759614651635
8.911999999999999,0.9999860691891491,41.47023132669318
8.92,0.9999861370240815,41.01278402269604
8.928,0.999986210383868,40.55525407665798
8.936,0.9999862892120147,40.0976413362413
8.943999999999999,0.9999863734502861,39.639945654637295
8.952,0.9999864630387294,39.18216689056606
8.96,0.9999865579156987,38.72430490827618
8.968,0.9999866580178799,38.266359577543696
8.975999999999999,0.9999867632803146,37.80833077367066
8.984,0.999986873636426,37.350218377484
8.992,0.9999869890180442,36.89202227533393
9.0,0.9999871093554312,36.43374235909192
9.008,0.9999872345773081,35.97537852614809
9.016,0.9999873646108799,35.51693067940895
9.024000000000001,0.9999874993818638,35.05839872729477
9.032,0.9999876388145149,34.59978258373626
9.04,0.999987782831654,34.14108216817104
9.048,0.9999879313546941,33.68229740554009
9.056000000000001,0.9999880843036691,33.223428226284135
9.064,0.9999882415972615,32.76447456633907
9.072,0.9999884031528304,32.305436367131364
9.08,0.9999885688864398,31.846313575573397
9.088000000000001,0.9999887387128871,31.387106144058603
9.096,0.9999889125457329,30.927814030455888
9.104,0.9999890902973289,30.46843719810377
9.112,0.9999892718788483,30.008975615804687
9.120000000000001,0.9999894572003148,29.549429257818854
9.128,0.9999896461706324,29.08979810385773
9.136,0.9999898386976148,28.630082139076798
9.144,0.9999900346880164,28.170281354068827
9.152000000000001,0.9999902340475626,27.71039574485661
9.16,0.9999904366809792,27.250425312885117
9.168,0.9999906424920242,26.79037006501335
9.176,0.9999908513835175,26.330230013506217
9.184000000000001,0.9999910632573735,25.870005176026222
9.192,0.999991278014631,25.40969557562449
9.2,0.9999914955554831,24.949301240731277
9.208,0.9999917157793116,24.488822205146906
9.216000000000001,0.9999919385847169,24.02825850803211
9.224,0.9999921638695491,23.567610193897924
9.232,0.9999923915309408,23.106877312595106
9.24,0.9999926214653384,22.64605991930371
9.248000000000001,0.9999928535685336,22.185158074522512
9.256,0.9999930877356965,21.72417184405743
9.264,0.9999933238614068,21.26310129900999
9.272,0.9999935618396868,20.801946515765607
9.280000000000001,0.999993801564032,20.340707575981792
9.288,0.9999940429274462,19.879384566575528
9.296,0.9999942858224714,19.417977579710335
9.304,0.9999945301412207,18.956486712783576
9.312000000000001,0.999994775775412,18.494912068413317
9.32,0.9999950226163989,18.03325375442453
9.328,0.9999952705552044,17.571511883835072
9.336,0.999995519482553,17.109686574841636
9.344,0.9999957692889032,16.647777950805597
9.352,0.9999960198644797,16.185786140237564
9.36,0.9999962710993073,15.723711276783007
9.368,0.999996522883242,15.261553499206158
9.376,0.999996775106004,14.799312951375125
9.384,0.9999970276572108,14.336989782244974
9.392,0.9999972804264085,13.874584145842421
9.4,0.999997533303105,13.412096201248326
9.408,0.9999977861768038,12.949526112581612
9.416,0.9999980389370329,12.486874048981303
9.424,0.9999982914733796,12.024140184589792
9.432,0.9999985436755238,11.561324698534257
9.44,0.9999987954332664,11.098427774909362
9.448,0.9999990466365649,10.635449602758042
9.456,0.9999992971755637,10.172390376053578
9.464,0.9999995469406264,9.709250293679812
9.472,0.9999997958223675,9.246029559412644
9.48,1.0,8.782728381899556
9.488,0.9999999999999999,8.31934697464055
9.496,1.0,7.855885555967119
9.504,0.9999999999999999,7.392344349022503
9.512,0.9999999999999999,6.92872358174003
9.52,1.0,6.465023486822888
9.528,0.9999999999999999,6.001244301721799
9.536,1.0,5.537386268614128
9.544,0.9999999999999999,5.073449634381
9.552,0.9999999999999999,4.609434650585885
9.56,1.0,4.1453415734509855
9.568,1.0,3.68117066383527
9.576,1.0,3.2169221872103018
9.584,1.0,2.7525964136375665
9.592,1.0,2.28819361774384
9.6,1.0,1.8237140786978001
9.608,0.9999999999999998,1.3591580801848442
9.616,1.0,0.8945259103831138
9.624,1.0,0.42981786193766275
9.632,0.9999999999999999,-0.034965768064033
9.64,1.0000000000000002,-0.49982467811858056
9.648,1.0,-0.9647585623317046
9.656,0.9999999999999999,-1.429767110445363
9.664,0.9999999999999998,-1.8948500078633683
9.672,1.0,-2.3600069356790883
9.68,0.9999999999999999,-2.8252375707017006
9.688,1.0,-3.2905415854843953
9.696,1.0,-3.7559186483512934
9.704,0.9999999999999999,-4.221368423426201
9.712,1.0,-4.686890570660101
9.72,0.9999999999999999,-5.152484745860523
9.728,0.9999999999999999,-5.618150600719581
9.736,1.0,-6.083887782843922
9.744,1.0,-6.549695935783366
9.752,1.0,-7.015574699061421
9.76,0.9999999999999999,-7.48152370820448
9.768,0.9999999999999999,-7.94754259477292
9.776,1.0,-8.413630986390844
9.784,1.0,-8.879788506777778
9.792,1.0,-9.346014775778972
9.8,1.0,-9.812309409397635
9.808,0.9999999999999999,-10.278672019825809
9.816,0.9999999999999999,-10.745102215477168
9.824,0.9999999999999999,-11.211599601018438
9.832,0.9999999999999999,-11.678163777402753
9.84,0.9999999999999999,-12.14479434190163
9.847999999999999,1.0,-12.611490888138723
9.856,0.9999999999999999,-13.078253006122926
9.864,1.0,-13.545080282281718
9.872,1.0,-14.011972299495277
9.879999999999999,1.0,-14.478928637130814
9.888,0.9999999999999999,-14.9459488710768
