freq,mag,phase
6.0,0.9999960755450613,-144.91851747866443
6.008,0.9999926537867441,-145.30642266521286
6.016,0.9999893481193258,-145.69410110277244
6.024,0.9999861562457297,-146.08155487753595
6.032,0.9999830758977689,-146.46878608377534
6.04,0.999980104835959,-146.85579682371642
6.048,0.9999772408493257,-147.24258920741522
6.056,0.9999744817552171,-147.6291653526348
6.064,0.9999718253991119,-148.01552738472378
6.072,0.9999692696544255,-148.40167743649593
6.08,0.999966812422319,-148.78761764811068
6.088,0.9999644516315035,-149.17335016695515
6.096,0.9999621852380466,-149.55887714752686
6.104,0.9999600112251756,-149.94420075131808
6.112,0.9999579276030838,-150.3293231467009
6.12,0.999955932408731,-150.71424650881366
6.128,0.9999540237056499,-151.09897301944844
6.136,0.9999521995837434,-151.48350486693948
6.144,0.9999504581590923,-151.86784424605304
6.152,0.9999487975737529,-152.25199335787815
6.16,0.9999472159955581,-152.63595440971818
6.168,0.9999457116179197,-153.01972961498421
6.176,0.9999442826596299,-153.4033211930885
6.184,0.9999429273646585,-153.78673136934
6.192,0.9999416440019534,-154.16996237484017
6.2,0.9999404308652444,-154.55301644638013
6.208,0.9999392862728357,-154.9358958263389
6.216,0.9999382085674141,-155.31860276258251
6.224,0.9999371961158413,-155.70113950836424
6.232,0.9999362473089575,-156.08350832222584
6.24,0.9999353605613811,-156.46571146789955
6.248,0.9999345343113047,-156.84775121421154
6.256,0.9999337670202972,-157.22962983498584
6.264,0.9999330571731079,-157.61134960894958
6.272,0.9999324032774558,-157.99291281963903
6.28,0.9999318038638414,-158.37432175530654
6.288,0.9999312574853384,-158.75557870882864
6.296,0.9999307627174003,-159.13668597761486
6.304,0.9999303181576592,-159.5176458635173
6.312,0.9999299224257194,-159.8984606727419
6.32,0.9999295741629773,-160.27913271575926
6.328,0.9999292720324023,-160.65966430721778
6.336,0.999929014718354,-161.04005776585691
6.344,0.9999288009263768,-161.42031541442083
6.352,0.9999286293830068,-161.80043957957412
6.36,0.9999284988355746,-162.1804325918176
6.368,0.9999284080520042,-162.5602967854048
6.376,0.9999283558206298,-162.94003449825968
6.384,0.9999283409499863,-163.31964807189513
6.392,0.9999283622686255,-163.69913985133186
6.4,0.9999284186249155,-164.0785121850187
6.408,0.9999285088868538,-164.45776742475311
6.416,0.999928631941865,-164.83690792560276
6.424,0.9999287866966208,-165.2159360458279
6.432,0.9999289720768383,-165.5948541468042
6.44,0.9999291870270948,-165.97366459294668
6.448,0.9999294305106377,-166.35236975163392
6.456,0.9999297015091888,-166.73097199313358
6.464,0.9999299990227667,-167.10947369052803
6.472,0.9999303220694868,-167.48787721964112
6.48,0.9999306696853825,-167.86618495896502
6.4879999999999995,0.9999310409242156,-168.24439928958876
6.496,0.9999314348572907,-168.6225225951263
6.504,0.9999318505732713,-169.0005572616459
6.5120000000000005,0.9999322871779929,-169.37850567760006
6.52,0.9999327437942831,-169.75637023375572
6.5280000000000005,0.999933219561777,-170.13415332312576
6.536,0.9999337136367368,-170.51185734090015
6.5440000000000005,0.9999342251918694,-170.88948468437871
6.552,0.9999347534161487,-171.26703775290346
6.5600000000000005,0.9999352975146347,-171.64451894779265
6.568,0.9999358567082942,-172.02193067227373
6.5760000000000005,0.9999364302338286,-172.39927533141895
6.584,0.9999370173434892,-172.7765553320796
6.592,0.9999376173049119,-173.15377308282171
6.6,0.9999382294009329,-173.53093099386234
6.608,0.9999388529294203,-173.90803147700575
6.616,0.9999394872031031,-174.28507694558064
6.624,0.9999401315493922,-174.6620698143775
6.632,0.999940785310217,-175.03901249958668
6.64,0.9999414478418525,-175.4159074187366
6.648,0.9999421185147495,-175.79275699063265
6.656,0.9999427967133679,-176.1695636352965
6.664,0.999943481836009,-176.54632977390563
6.672,0.9999441732946501,-176.9230578287334
6.68,0.9999448705147788,-177.29975022308946
6.688,0.9999455729352307,-177.6764093812608
6.696,0.9999462800080237,-178.05303772845255
6.704,0.9999469911981969,-178.42963769072972
6.712,0.9999477059836513,-178.8062116949591
6.72,0.9999484238549867,-179.18276216875137
6.728,0.9999491443153457,-179.5592915404036
6.736,0.999949866880253,-179.93580223884217
6.744,0.9999505910774609,179.6877033064342
6.752,0.9999513164467904,179.31122266541098
6.76,0.9999520425399794,178.9347534076143
6.768,0.9999527689205253,178.55829310216674
6.776,0.9999534951635355,178.1818393178436
6.784,0.9999542208555731,177.80538962312798
6.792,0.9999549455945064,177.42894158626655
6.8,0.9999556689893595,177.05249277532448
6.808,0.9999563906601634,176.67604075824048
6.816,0.999957110237808,176.29958310288154
6.824,0.9999578273638948,175.92311737709747
6.832,0.9999585416905923,175.5466411487754
6.84,0.99995925288049,175.170151985894
6.848,0.9999599606064554,174.79364745657756
6.856,0.9999606645514908,174.41712512915012
6.864,0.9999613644085921,174.04058257218912
6.872,0.9999620598806083,173.66401735457933
6.88,0.9999627506801004,173.28742704556646
6.888,0.9999634365292054,172.9108092148108
6.896,0.9999641171594964,172.53416143244056
6.904,0.9999647923118462,172.15748126910546
6.912,0.9999654617362932,171.78076629603007
6.92,0.9999661251919059,171.40401408506716
6.928,0.999966782446649,171.02722220875103
6.936,0.9999674332772521,170.65038824035085
6.944,0.9999680774690768,170.27350975392386
6.952,0.999968714815987,169.89658432436872
6.96,0.9999693451202196,169.51960952747888
6.968,0.9999699681922555,169.14258293999595
6.976,0.9999705838506912,168.76550213966289
6.984,0.9999711919221156,168.38836470527767
6.992,0.99997179224098,168.01116821674677
7.0,0.9999723846494777,167.63391025513855
7.008,0.999972968997417,167.25658840273712
7.016,0.9999735451421019,166.879200243096
7.024,0.9999741129482077,166.50174336109197
7.032,0.9999746722876616,166.12421534297908
7.04,0.9999752230395242,165.74661377644276
7.048,0.9999757650898696,165.36893625065414
7.056,0.9999762983316668,164.99118035632424
7.064,0.9999768226646649,164.61334368575868
7.072,0.9999773379952777,164.23542383291252
7.08,0.9999778442364654,163.85741839344493
7.088,0.9999783413076254,163.47932496477446
7.096,0.9999788291344762,163.10114114613432
7.104,0.9999793076489458,162.72286453862793
7.112,0.999979776789063,162.34449274528464
7.12,0.9999802364988445,161.96602337111577
7.128,0.999980686728187,161.58745402317092
7.136,0.999981127432759,161.2087823105942
7.144,0.9999815585738935,160.83000584468138
7.152,0.9999819801184822,160.45112223893676
7.16,0.9999823920388676,160.07212910913043
7.168,0.9999827943127422,159.6930240733562
7.176,0.9999831869230421,159.3138047520892
7.184,0.9999835698578454,158.93446876824444
7.192,0.9999839431102688,158.55501374723536
7.2,0.9999843066783694,158.1754373170327
7.208,0.9999846605650428,157.79573710822407
7.216,0.999985004777923,157.4159107540732
7.224,0.9999853393292869,157.03595589058042
7.232,0.9999856642359548,156.65587015654293
7.24,0.9999859795191931,156.2756511936156
7.248,0.9999862852046217,155.89529664637223
7.256,0.9999865813221163,155.51480416236726
7.264,0.999986867905715,155.1341713921978
7.272,0.9999871449935263,154.7533959895662
7.28,0.9999874126276355,154.3724756113429
7.288,0.9999876708540146,153.99140791763008
7.296,0.9999879197224294,153.61019057182517
7.304,0.9999881592863523,153.22882124068568
7.312,0.9999883896028724,152.84729759439358
7.32,0.999988610732606,152.46561730662097
7.328,0.999988822739612,152.08377805459577
7.336,0.9999890256913021,151.70177751916805
7.344,0.9999892196583586,151.31961338487707
7.352,0.9999894047146463,150.9372833400185
7.36,0.9999895809371299,150.55478507671245
7.368,0.9999897484057919,150.17211629097199
7.376,0.9999899072035482,149.7892746827723
7.384,0.9999900574161656,149.40625795612002
7.392,0.9999901991321839,149.0230638191237
7.4,0.9999903324428334,148.63968998406466
7.4079999999999995,0.9999904574419562,148.25613416746816
7.416,0.9999905742259272,147.87239409017542
7.4239999999999995,0.9999906828935765,147.4884674774165
7.432,0.9999907835461131,147.10435205888322
7.4399999999999995,0.9999908762870459,146.7200455688033
7.448,0.9999909612221112,146.33554574601453
7.4559999999999995,0.9999910384591961,145.95085033404047
7.464,0.9999911081082653,145.5659570811655
7.4719999999999995,0.9999911702812864,145.1808637405121
7.48,0.9999912250921574,144.79556807011738
7.4879999999999995,0.9999912726566368,144.41006783301142
7.496,0.9999913130922699,144.0243607972953
7.504,0.999991346518319,143.63844473622072
7.5120000000000005,0.9999913730556954,143.25231742826975
7.52,0.9999913928268869,142.8659766572356
7.5280000000000005,0.9999914059558922,142.4794202123036
7.536,0.9999914125681527,142.09264588813403
7.5440000000000005,0.9999914127904848,141.70565148494398
7.552,0.9999914067510142,141.31843480859197
7.5600000000000005,0.9999913945791101,140.93099367066125
7.568,0.9999913764053201,140.5433258885459
7.5760000000000005,0.9999913523613064,140.15542928553555
7.584,0.9999913225797832,139.76730169090322
7.5920000000000005,0.9999912871944506,139.37894093999154
7.6,0.9999912463399366,138.99034487430197
7.6080000000000005,0.9999912001517325,138.6015113415828
7.616,0.9999911487661332,138.21243819591984
7.6240000000000006,0.9999910923201778,137.82312329782627
7.632,0.9999910309515883,137.43356451433448
7.640000000000001,0.9999909647987127,137.0437597190879
7.648,0.9999908940004645,136.6537067924345
7.656000000000001,0.9999908186962675,136.26340362151996
7.664,0.9999907390259973,135.8728481003832
7.672,0.9999906551299261,135.48203813005114
7.68,0.9999905671486662,135.09097161863545
7.688,0.9999904752231149,134.69964648142968
7.696,0.9999903794944014,134.30806064100736
7.704,0.9999902801038323,133.91621202732088
7.712,0.9999901771928372,133.52409857780128
7.72,0.9999900709029195,133.13171823745884
7.728,0.9999899613756009,132.73906895898492
7.736,0.9999898487523734,132.34614870285384
7.744,0.9999897331746458,131.95295543742662
7.752,0.9999896147836959,131.55948713905497
7.76,0.9999894937206197,131.16574179218625
7.768,0.9999893701262842,130.77171738946964
7.776,0.9999892441412784,130.3774119318627
7.784,0.9999891159058647,129.98282342873938
7.792,0.9999889855599335,129.58794989799847
7.8,0.9999888532429567,129.19278936617317
7.808,0.9999887190939415,128.7973398685416
7.816,0.9999885832513852,128.40159944923795
7.824,0.9999884458532309,128.00556616136512
7.832,0.9999883070368236,127.60923806710738
7.84,0.9999881669388676,127.21261323784486
7.848,0.9999880256953817,126.81568975426829
7.856,0.9999878834416596,126.41846570649504
7.864,0.9999877403122259,126.02093919418584
7.872,0.9999875964407973,125.62310832666253
7.88,0.999987451960241,125.22497122302678
7.888,0.9999873070025344,124.82652601227953
7.896,0.9999871616987275,124.42777083344161
7.904,0.999987016178903,124.02870383567497
7.912,0.9999868705721383,123.62932317840506
7.92,0.9999867250064695,123.22962703144408
7.928,0.9999865796088515,122.82961357511509
7.936,0.999986434505125,122.429281000377
7.944,0.9999862898199786,122.02862750895059
7.952,0.9999861456769149,121.62765131344523
7.96,0.9999860021982144,121.22635063748687
7.968,0.9999858595049032,120.82472371584655
7.976,0.9999857177167182,120.4227687945698
7.984,0.9999855769520752,120.02048413110747
7.992,0.9999854373280359,119.61786799444681
8.0,0.9999852989602768,119.21491866524374
8.008,0.9999851619630573,118.81163443595607
8.016,0.99998502644919,118.40801361097719
8.024000000000001,0.9999848925300097,118.00405450677151
8.032,0.9999847603153447,117.59975545200976
8.04,0.999984629913488,117.19511478770559
8.048,0.9999845014311679,116.79013086735313
8.056000000000001,0.9999843749735221,116.3848020570655
8.064,0.9999842506440688,115.97912673571382
8.072,0.9999841285446812,115.573103295067
8.08,0.9999840087755609,115.16673013993277
8.088000000000001,0.999983891435212,114.76000568829951
8.096,0.9999837766204183,114.35292837147863
8.104,0.9999836644262163,113.94549663424746
8.112,0.9999835549458732,113.53770893499377
8.120000000000001,0.9999834482708632,113.12956374586068
8.128,0.9999833444908447,112.72105955289219
8.136,0.9999832436936381,112.31219485617935
8.144,0.9999831459652063,111.90296817000777
8.152000000000001,0.9999830513896303,111.4933780230056
8.16,0.9999829600490918,111.08342295829216
8.168,0.9999828720238524,110.6731015336271
8.176,0.9999827873922338,110.26241232156072
8.184000000000001,0.999982706230601,109.851353909585
8.192,0.999982628613342,109.43992490028498
8.2,0.999982554612852,109.02812391149071
8.208,0.9999824842995165,108.61594957643044
8.216000000000001,0.999982417741693,108.20340054388419
8.224,0.9999823550056988,107.79047547833783
8.232,0.999982296155791,107.37717306013771
8.24,0.9999822412541581,106.96349198564613
8.248000000000001,0.9999821903609002,106.54943096739774
8.256,0.9999821435340185,106.13498873425567
8.264,0.9999821008294023,105.72016403156871
8.272,0.999982062300816,105.30495562132909
8.280000000000001,0.9999820279998887,104.88936228233082
8.288,0.9999819979761011,104.47338281032842
8.296,0.9999819722767763,104.05701601819571
8.304,0.99998195094707,103.64026073608588
8.312,0.9999819340299612,103.2231158115918
8.32,0.999981921566242,102.8055801099061
8.328,0.9999819135945115,102.3876525139827
8.336,0.9999819101511662,101.96933192469761
8.344,0.9999819112703952,101.55061726101144
8.352,0.9999819169841709,101.13150746013069
8.36,0.9999819273222461,100.71200147767104
8.368,0.9999819423121474,100.29209828781926
8.376,0.99998196197917,99.8717968834971
8.384,0.9999819863463747,99.45109627652383
8.392,0.9999820154345843,99.02999549778048
8.4,0.9999820492623793,98.60849359737286
8.408,0.9999820878460981,98.18658964479634
8.416,0.9999821311998335,97.76428272909912
8.424,0.9999821793354314,97.34157195904727
8.432,0.9999822322624919,96.9184564632884
8.44,0.9999822899883681,96.49493539051667
8.448,0.9999823525181668,96.07100790963682
8.456,0.9999824198547513,95.64667320992923
8.464,0.9999824919987403,95.22193050121385
8.472,0.9999825689485146,94.79677901401536
8.48,0.9999826507002153,94.37121799972697
8.488,0.9999827372477516,93.94524673077551
8.496,0.9999828285828035,93.5188645007849
8.504,0.999982924694826,93.09207062474104
8.512,0.9999830255710551,92.66486443915505
8.52,0.9999831311965147,92.23724530222766
8.528,0.9999832415540219,91.80921259401198
8.536,0.9999833566241956,91.38076571657749
8.544,0.9999834763854634,90.95190409417208
8.552,0.9999836008140698,90.52262717338556
8.56,0.9999837298840871,90.09293442331091
8.568,0.9999838635674227,89.66282533570691
8.576,0.999984001833831,89.23229942515874
8.584,0.9999841446509239,88.8013562292395
8.592,0.9999842919841817,88.36999530866989
8.6,0.9999844437969653,87.93821624747869
8.608,0.9999846000505301,87.50601865316123
8.616,0.9999847607040371,87.07340215683875
8.624,0.9999849257145685,86.64036641341552
8.632,0.9999850950371421,86.2069111017368
8.64,0.9999852686247235,85.77303592474453
8.648,0.9999854464282464,85.33874060963386
8.656,0.999985628396625,84.9040249080072
8.664,0.9999858144767725,84.46888859602896
8.672,0.9999860046136178,84.03333147457798
8.68,0.9999861987501234,83.59735336940035
8.688,0.9999863968273051,83.16095413125996
8.696,0.9999865987842497,82.72413363608929
8.704,0.9999868045581349,82.28689178513791
8.712,0.9999870140842504,81.849228505121
8.72,0.999987227296018,81.4111437483657
8.728,0.999987444125013,80.97263749295726
8.736,0.9999876645009871,80.53370974288283
8.744,0.9999878883518889,80.09436052817534
8.752,0.99998811560389,79.65458990505448
8.76,0.9999883461814053,79.2143979560679
8.768,0.9999885800071202,78.7737847902295
8.776,0.999988817002013,78.33275054315772
8.784,0.9999890570853817,77.89129537721078
8.792,0.9999893001748692,77.44941948162204
8.8,0.9999895461864905,77.00712307263203
8.808,0.9999897950346581,76.56440639362053
8.815999999999999,0.9999900466322106,76.1212697152354
8.824,0.9999903008904413,75.67771333552079
8.832,0.9999905577191248,75.23373758004324
8.84,0.9999908170265474,74.78934280201581
8.847999999999999,0.9999910787195366,74.34452938242015
8.856,0.9999913427034907,73.8992977301271
8.864,0.9999916088824091,73.45364828201531
8.872,0.9999918771589252,73.00758150308748
8.879999999999999,0.999992147434335,72.56109788658446
8.888,0.9999924196086313,72.11419795409763
8.896,0.9999926935805358,71.6668822556792
8.904,0.9999929692475316,71.21915136994977
8.911999999999999,0.9999932465058967,70.77100590420372
8.92,0.999993525250739,70.32244649451269
8.928,0.9999938053760289,69.87347380582656
8.936,0.9999940867746352,69.42408853207183
8.943999999999999,0.9999943693383604,68.97429139624737
8.952,0.9999946529579765,68.52408315051804
8.96,0.99999493752326,68.07346457630598
8.968,0.9999952229230296,67.62243648437864
8.975999999999999,0.9999955090451826,67.17099971493425
8.984,0.9999957957767331,66.71915513768505
8.992,0.999996083003848,66.26690365193757
9.0,0.9999963706118867,65.81424618667005
9.008,0.9999966584854388,65.36118370060653
9.016,0.9999969465083635,64.90771718228896
9.024000000000001,0.9999972345638282,64.45384765014595
9.032,0.9999975225343486,63.9995761525583
9.04,0.999997810301828,63.544903767921575
9.048,0.9999980977475984,63.08983160470572
9.056000000000001,0.9999983847524602,62.63436080151184
9.064,0.9999986711967235,62.178492527125165
9.072,0.9999989569602489,61.722227980564924
9.08,0.9999992419224902,61.265568391131254
9.088000000000001,0.9999995259625338,60.80851501844882
9.096,0.9999998089591425,60.35106915250667
9.104,1.0,59.89323211369465
9.112,1.0000000000000002,59.43500525283677
9.120000000000001,1.0,58.97638995122107
9.128,1.0000000000000002,58.517387620625534
9.136,1.0,58.05799970334041
9.144,1.0,57.598227672187235
9.152000000000001,0.9999999999999999,57.13807303053432
9.16,1.0,56.677537312307926
9.168,0.9999999999999999,56.216622081999816
9.176,1.0,55.75532893467141
9.184000000000001,0.9999999999999999,55.29365949595393
9.192,1.0,54.8316154220445
9.2,0.9999999999999999,54.36919839969804
9.208,0.9999999999999999,53.906410146215904
9.216000000000001,1.0,53.44325240943024
9.224,0.9999999999999998,52.97972696768409
9.232,1.0,52.515835629807306
9.24,1.0,52.05158023508892
9.248000000000001,1.0,51.58696265324506
9.256,1.0,51.121984784382654
9.264,1.0,50.65664855895862
9.272,1.0,50.19095593773543
9.280000000000001,1.0,49.72490891173223
9.288,1.0,49.258509502171336
9.296,1.0,48.79175976042036
9.304,0.9999999999999999,48.324661767930436
9.312000000000001,0.9999999999999998,47.857217636169985
9.32,1.0,47.38942950655359
9.328,1.0,46.921299550366655
9.336,1.0000000000000002,46.45282996868569
9.344,1.0,45.98402299229449
9.352,0.9999999999999998,45.51488088159454
9.36,1.0,45.0454059265126
9.368,1.0,44.57560044640195
9.376,0.9999999999999998,44.105466789940756
9.384,1.0,43.635007335024255
9.392,1.0,43.1642244886538
9.4,1.0,42.69312068681985
9.408,1.0,42.22169839438179
9.416,1.0,41.749960104941415
9.424,1.0,41.277908340713616
9.432,1.0,40.805545652390556
9.44,0.9999999999999999,40.33287461900281
9.448,1.0,39.85989784777415
9.456,1.0,39.3866179739734
9.464,0.9999999999999999,38.913037660759805
9.472,1.0,38.4391595990253
9.48,0.9999999999999999,37.96498650723058
9.488,1.0,37.490521131237976
9.496,1.0000000000000002,37.01576624413785
9.504,1.0,36.540724646072256
9.512,0.9999999999999999,36.065399164051854
9.52,1.0,35.589792651770026
9.528,1.0,35.11390798941052
9.536,0.9999999999999999,34.63774808345202
9.544,0.9999999999999999,34.16131586646651
9.552,0.9999999999999999,33.68461429691442
9.56,1.0,33.20764635893365
9.568,1.0,32.73041506212536
9.576,1.0,32.2529234413337
9.584,1.0,31.775174556422435
9.592,1.0,31.297171492045223
9.6,1.0000000000000002,30.818917357413252
9.608,1.0,30.3404152860563
9.616,0.9999999999999999,29.861668435581098
9.624,1.0,29.38267998742353
9.632,1.0000000000000002,28.90345314659794
9.64,1.0,28.423991141440215
9.648,1.0,27.94429722334833
9.656,1.0,27.464374666516502
9.664,1.0,26.98422676766689
9.672,0.9999999999999999,26.503856845775175
9.68,0.9999999999999999,26.02326824179343
9.688,0.9999999999999999,25.542464318367195
9.696,0.9999999999999999,25.06144845954977
9.704,1.0,24.58022407051085
