freq,mag,phase
6.0,1.0,4.951845086973388
6.008,1.0,4.691815600881778
6.016,1.0,4.431767254803612
6.024,1.0,4.171700561291022
6.032,1.0,3.911616032828347
6.04,0.9999998325903606,3.651514181821173
6.048,0.9999993810610421,3.391395520585288
6.056,0.9999989334692763,3.131260561335661
6.064,0.9999984898241222,2.8711098161754127
6.072,0.9999980501342033,2.6109437970847837
6.08,0.9999976144077106,2.350763015910089
6.088,0.999997182652401,2.090567984352664
6.096,0.999996754875604,1.8303592139578253
6.104,0.9999963310842194,1.5701372161037914
6.112,0.9999959112847222,1.3099025019906656
6.12,0.9999954954831636,1.0496555826293252
6.128,0.9999950836851731,0.7893969688303913
6.136,0.99999467589596,0.5291271711931578
6.144,0.9999942721203172,0.26884670009450723
6.152,0.9999938723626213,0.008556065677864412
6.16,0.9999934766268374,-0.25174422215787756
6.168,0.9999930849165177,-0.512053653769427
6.176,0.9999926972348075,-0.7723717197801604
6.184,0.9999923135844448,-1.032697911091179
6.192,0.9999919339677639,-1.2930317188923837
6.2,0.9999915583866967,-1.5533726346735046
6.208,0.9999911868427761,-1.8137201502351983
6.216,0.9999908193371383,-2.074073757700044
6.224,0.9999904558705233,-2.334432949523671
6.232,0.99999009644328,-2.594797218505705
6.24,0.9999897410553662,-2.8551660578008726
6.248,0.999989389706354,-3.115538960930009
6.256,0.9999890423954275,-3.375915421791084
6.264,0.9999886991213905,-3.6362949346702247
6.272,0.9999883598826657,-3.8966769942526818
6.28,0.9999880246772979,-4.157061095633915
6.288,0.9999876935029574,-4.4174467343304755
6.296,0.9999873663569415,-4.677833406291096
6.304,0.9999870432361776,-4.938220607907572
6.312,0.9999867241372252,-5.198607836025781
6.32,0.9999864090562794,-5.4589945879566075
6.328,0.9999860979891739,-5.7193803614868886
6.336,0.9999857909313807,-5.979764654890341
6.344,0.9999854878780164,-6.2401469669384495
6.352,0.9999851888238437,-6.500526796911429
6.36,0.999984893763273,-6.760903644609018
6.368,0.9999846026903657,-7.021277010361464
6.376,0.9999843155988376,-7.281646395040257
6.384,0.9999840324820606,-7.542011300069093
6.392,0.9999837533330671,-7.802371227434578
6.4,0.9999834781445504,-8.062725679697161
6.408,0.9999832069088697,-8.323074160001813
6.416,0.9999829396180511,-8.583416172088887
6.424,0.999982676263793,-8.843751220304817
6.432,0.9999824168374656,-9.10407880961288
6.44,0.9999821613301156,-9.36439844560393
6.448,0.9999819097324704,-9.624709634507065
6.456,0.9999816620349374,-9.88501188320032
6.464,0.9999814182276107,-10.145304699221331
6.472,0.9999811783002714,-10.405587590777953
6.48,0.9999809422423919,-10.665860066758906
6.4879999999999995,0.9999807100431378,-10.926121636744313
6.496,0.9999804816913721,-11.186371811016398
6.504,0.9999802571756571,-11.446610100569778
6.5120000000000005,0.999980036484258,-11.706836017122342
6.52,0.9999798196051455,-11.96704907312534
6.5280000000000005,0.999979606525999,-12.227248781774303
6.536,0.9999793972342094,-12.487434657019023
6.5440000000000005,0.9999791917168827,-12.747606213574446
6.552,0.9999789899608428,-13.007762966930596
6.5600000000000005,0.9999787919526335,-13.267904433363404
6.568,0.9999785976785237,-13.528030129944618
6.5760000000000005,0.999978407124508,-13.788139574552536
6.584,0.9999782202763117,-14.048232285881866
6.592,0.9999780371193933,-14.308307783454389
6.6,0.999977857638947,-14.568365587628868
6.608,0.9999776818199065,-14.82840521961143
6.616,0.9999775096469481,-15.08842620146564
6.624,0.9999773411044935,-15.348428056122714
6.632,0.9999771761767129,-15.608410307391548
6.64,0.9999770148475284,-15.868372479968846
6.648,0.9999768571006167,-16.128314099449142
6.656,0.9999767029194135,-16.38823469233479
6.664,0.9999765522871147,-16.64813378604601
6.672,0.9999764051866813,-16.90801090893072
6.68,0.9999762616008415,-17.16786559027454
6.688,0.9999761215120947,-17.42769736031063
6.696,0.9999759849027133,-17.687505750229533
6.704,0.9999758517547481,-17.947290292188953
6.712,0.999975722050029,-18.207050519323563
6.72,0.9999755957701708,-18.466785965754735
6.728,0.9999754728965735,-18.726496166600192
6.736,0.999975353410428,-18.986180657983716
6.744,0.9999752372927179,-19.24583897704473
6.752,0.9999751245242232,-19.50547066194793
6.76,0.9999750150855237,-19.76507525189275
6.768,0.9999749089570023,-20.024652287122965
6.776,0.9999748061188466,-20.28420130893608
6.784,0.9999747065510546,-20.543721859692777
6.792,0.9999746102334366,-20.80321348282635
6.8,0.9999745171456179,-21.062675722851957
6.808,0.9999744272670433,-21.322108125376015
6.816,0.99997434057698,-21.58151023710543
6.824,0.9999742570545197,-21.8408816058568
6.832,0.9999741766785837,-22.10022178056563
6.84,0.9999740994279239,-22.359530311295437
6.848,0.9999740252811282,-22.618806749246897
6.856,0.9999739542166225,-22.878050646766837
6.864,0.9999738862126744,-23.137261557357267
6.872,0.9999738212473956,-23.396439035684363
6.88,0.9999737592987469,-23.65558263758738
6.888,0.999973700344539,-23.914691920087503
6.896,0.9999736443624383,-24.173766441396694
6.904,0.9999735913299679,-24.432805760926517
6.912,0.9999735412245118,-24.691809439296797
6.92,0.9999734940233188,-24.950777038344395
6.928,0.9999734497035043,-25.20970812113179
6.936,0.9999734082420544,-25.468602251955726
6.944,0.9999733696158296,-25.72745899635574
6.952,0.9999733338015658,-25.986277921122696
6.96,0.9999733007758801,-26.24505859430719
6.968,0.9999732705152732,-26.50380058522803
6.976,0.9999732429961316,-26.76250346448054
6.984,0.9999732181947316,-27.0211668039449
6.992,0.9999731960872427,-27.27979017679442
7.0,0.9999731766497301,-27.53837315750374
7.008,0.999973159858158,-27.79691532185698
7.016,0.999973145688394,-28.055416246955893
7.024,0.9999731341162104,-28.313875511227888
7.032,0.9999731251172879,-28.5722926944341
7.04,0.9999731186672196,-28.83066737767728
7.048,0.999973114741514,-29.088999143409783
7.056,0.9999731133155965,-29.347287575441364
7.064,0.9999731143648147,-29.605532258947076
7.072,0.99997311786444,-29.863732780474887
7.08,0.9999731237896713,-30.121888727953536
7.088,0.9999731321156387,-30.379999690700103
7.096,0.9999731428174048,-30.638065259427595
7.104,0.9999731558699695,-30.896085026252585
7.112,0.9999731712482729,-31.154058584702593
7.12,0.9999731889271967,-31.411985529723605
7.128,0.9999732088815699,-31.66986545768744
7.136,0.9999732310861698,-31.92769796639904
7.144,0.9999732555157249,-32.18548265510386
7.152,0.9999732821449203,-32.44321912449495
7.16,0.9999733109483978,-32.70090697672024
7.168,0.9999733419007606,-32.95854581538963
7.176,0.9999733749765756,-33.21613524558191
7.184,0.9999734101503772,-33.47367487385206
7.192,0.9999734473966695,-33.73116430823793
7.2,0.999973486689929,-33.988603158267225
7.208,0.9999735280046088,-34.24599103496438
7.216,0.9999735713151402,-34.50332755085732
7.224,0.9999736165959361,-34.760612319984155
7.232,0.9999736638213947,-35.01784495789985
7.24,0.9999737129659003,-35.27502508168292
7.248,0.999973764003829,-35.5321523099419
7.256,0.999973816909549,-35.789226262821835
7.264,0.9999738716574254,-36.04624656201079
7.272,0.9999739282218213,-36.303212830746226
7.28,0.9999739865771025,-36.56012469382128
7.288,0.999974046697638,-36.81698177759105
7.296,0.9999741085578057,-37.07378370997884
7.304,0.9999741721319919,-37.33053012048228
7.312,0.9999742373945977,-37.58722064017939
7.32,0.9999743043200372,-37.84385490173476
7.328,0.9999743728827456,-38.100432539405354
7.336,0.9999744430571775,-38.35695318904654
7.344,0.9999745148178115,-38.61341648811791
7.352,0.9999745881391526,-38.86982207568913
7.36,0.9999746629957357,-39.126169592445635
7.368,0.999974739362126,-39.38245868069429
7.376,0.9999748172129245,-39.63868898436914
7.384,0.9999748965227686,-39.89486014903688
7.392,0.9999749772663352,-40.15097182190233
7.4,0.9999750594183439,-40.40702365181405
7.4079999999999995,0.9999751429535583,-40.663015289269524
7.416,0.9999752278467899,-40.918946386420686
7.4239999999999995,0.9999753140729005,-41.17481659707897
7.432,0.9999754016068031,-41.43062557672086
7.4399999999999995,0.9999754904234667,-41.686372982492585
7.448,0.9999755804979173,-41.942058473215695
7.4559999999999995,0.9999756718052403,-42.197681709391695
7.464,0.9999757643205839,-42.45324235320734
7.4719999999999995,0.9999758580191609,-42.708740068539214
7.48,0.9999759528762507,-42.96417452095899
7.4879999999999995,0.9999760488672033,-43.219545377737795
7.496,0.9999761459674392,-43.47485230785134
7.504,0.9999762441524545,-43.73009498198428
7.5120000000000005,0.999976343397821,-43.985273072535044
7.52,0.9999764436791894,-44.2403862536202
7.5280000000000005,0.9999765449722915,-44.49543420107922
7.536,0.9999766472529429,-44.75041659247855
7.5440000000000005,0.9999767504970447,-45.00533310711639
7.552,0.999976854680586,-45.26018342602663
7.5600000000000005,0.9999769597796457,-45.51496723198343
7.568,0.9999770657703951,-45.76968420950509
7.5760000000000005,0.9999771726291004,-46.02433404485854
7.584,0.9999772803321242,-46.27891642606307
7.5920000000000005,0.9999773888559274,-46.53343104289467
7.6,0.999977498177072,-46.78787758688965
7.6080000000000005,0.9999776082722239,-47.04225575134886
7.616,0.9999777191181528,-47.29656523134119
7.6240000000000006,0.9999778306917358,-47.550805723707754
7.632,0.9999779429699595,-47.80497692706511
7.640000000000001,0.999978055929921,-48.05907854180944
7.648,0.9999781695488307,-48.31311027011964
7.656000000000001,0.9999782838040148,-48.56707181596128
7.664,0.9999783986729153,-48.82096288508973
7.672,0.9999785141330934,-49.07478318505391
7.68,0.9999786301622319,-49.32853242519935
7.688,0.9999787467381347,-49.58221031667166
7.696,0.9999788638387322,-49.835816572419695
7.704,0.9999789814420798,-50.089350907198735
7.712,0.9999790995263609,-50.34281303757367
7.72,0.9999792180698892,-50.59620268192195
7.728,0.9999793370511111,-50.84951956043667
7.736,0.9999794564486045,-51.102763395129486
7.744,0.9999795762410839,-51.35593390983342
7.752,0.9999796964074,-51.60903083020584
7.76,0.999979816926542,-51.862053883731036
7.768,0.9999799377776399,-52.11500279972312
7.776,0.9999800589399646,-52.36787730932846
7.784,0.9999801803929307,-52.62067714552843
7.792,0.9999803021160979,-52.87340204314187
7.8,0.9999804240891726,-53.126051738827556
7.808,0.9999805462920088,-53.37862597108662
7.816,0.9999806687046099,-53.63112448026488
7.824,0.9999807913071311,-53.883547008555176
7.832,0.9999809140798791,-54.13589329999958
7.84,0.999981037003316,-54.38816310049153
7.848,0.9999811600580573,-54.64035615777807
7.856,0.9999812832248769,-54.89247222146179
7.864,0.9999814064847058,-55.144511043002865
7.872,0.9999815298186351,-55.39647237572106
7.88,0.9999816532079164,-55.64835597479753
7.888,0.9999817766339633,-55.900161597276735
7.896,0.9999819000783526,-56.15188900206815
7.904,0.9999820235228263,-56.40353794994806
7.912,0.9999821469492914,-56.65510820356112
7.92,0.9999822703398226,-56.90659952742208
7.928,0.9999823936766626,-57.158011687917195
7.936,0.9999825169422228,-57.40934445330589
7.944,0.9999826401190869,-57.66059759372204
7.952,0.9999827631900077,-57.91177088117545
7.96,0.9999828861379121,-58.16286408955313
7.968,0.999983008945901,-58.41387699462058
7.976,0.9999831315972494,-58.664809374023065
7.984,0.9999832540754082,-58.91566100728663
7.992,0.9999833763640049,-59.16643167581938
8.0,0.9999834984468455,-59.41712116291241
8.008,0.9999836203079134,-59.6677292537408
8.016,0.9999837419313728,-59.91825573536476
8.024000000000001,0.9999838633015679,-60.168700396730124
8.032,0.9999839844030233,-60.4190630286695
8.04,0.999984105220447,-60.66934342390301
8.048,0.9999842257387299,-60.919541377039025
8.056000000000001,0.9999843459429459,-61.1696566845746
8.064,0.9999844658183542,-61.41968914489634
8.072,0.9999845853503987,-61.66963855828097
8.08,0.9999847045247097,-61.919504726895774
8.088000000000001,0.9999848233271039,-62.16928745479897
8.096,0.9999849417435861,-62.41898654794019
8.104,0.999985059760348,-62.66860181416101
8.112,0.9999851773637707,-62.918133063195
8.120000000000001,0.9999852945404244,-63.16758010666807
8.128,0.9999854112770695,-63.41694275809862
8.136,0.9999855275606557,-63.66622083289784
8.144,0.999985643378325,-63.915414148369784
8.152000000000001,0.9999857587174098,-64.16452252371114
8.16,0.9999858735654349,-64.41354578001148
8.168,0.9999859879101171,-64.6624837402533
8.176,0.9999861017393663,-64.91133622931173
8.184000000000001,0.9999862150412856,-65.16010307395432
8.192,0.9999863278041715,-65.40878410284097
8.2,0.9999864400165145,-65.6573791465237
8.208,0.9999865516669997,-65.90588803744637
8.216000000000001,0.9999866627445062,-66.15431060994413
8.224,0.9999867732381089,-66.4026467002431
8.232,0.9999868831370766,-66.65089614646008
8.24,0.9999869924308747,-66.899058788602
8.248000000000001,0.9999871011091639,-67.14713446856518
8.256,0.9999872091618001,-67.39512303013483
8.264,0.9999873165788361,-67.64302431898457
8.272,0.9999874233505203,-67.89083818267571
8.280000000000001,0.9999875294672976,-68.13856447065619
8.288,0.9999876349198094,-68.38620303426013
8.296,0.9999877396988933,-68.63375372670703
8.304,0.9999878437955839,-68.88121640310068
8.312,0.9999879472011115,-69.12859092042825
8.32,0.9999880499069036,-69.37587713755961
8.328,0.9999881519045848,-69.62307491524594
8.336,0.9999882531859752,-69.87018411611895
8.344,0.9999883537430917,-70.11720460468962
8.352,0.9999884535681479,-70.36413624734718
8.36,0.9999885526535537,-70.61097891235775
8.368,0.9999886509919149,-70.85773246986341
8.376,0.9999887485760336,-71.1043967918804
8.384,0.9999888453989074,-71.35097175229846
8.392,0.99998894145373,-71.59745722687887
8.4,0.9999890367338902,-71.84385309325343
8.408,0.9999891312329725,-72.09015923092278
8.416,0.9999892249447561,-72.33637552125508
8.424,0.9999893178632141,-72.58250184748427
8.432,0.9999894099825161,-72.82853809470879
8.44,0.9999895012970232,-73.07448414988957
8.448,0.9999895918012923,-73.32033990184878
8.456,0.9999896814900723,-73.56610524126772
8.464,0.9999897703583059,-73.81178006068552
8.472,0.9999898584011279,-74.05736425449683
8.48,0.9999899456138653,-74.30285771895059
8.488,0.9999900319920368,-74.54826035214755
8.496,0.9999901175313526,-74.79357205403895
8.504,0.9999902022277131,-75.03879272642405
8.512,0.999990286077209,-75.28392227294863
8.52,0.9999903690761209,-75.5289605991025
8.528,0.9999904512209181,-75.7739076122179
8.536,0.9999905325082591,-76.01876322146691
8.544,0.9999906129349893,-76.26352733785987
8.552,0.999990692498142,-76.5081998742426
8.56,0.9999907711949373,-76.7527807452948
8.568,0.9999908490227807,-76.9972698675272
8.576,0.9999909259792634,-77.2416671592798
8.584,0.9999910020621611,-77.48597254071916
8.592,0.9999910772694331,-77.73018593383632
8.6,0.9999911515992225,-77.97430726244414
8.608,0.999991225049854,-78.21833645217512
8.616,0.9999912976198341,-78.46227343047873
8.624,0.9999913693078499,-78.70611812661913
8.632,0.9999914401127691,-78.94987047167224
8.64,0.9999915100336377,-79.19353039852375
8.648,0.9999915790696805,-79.43709784186588
8.656,0.999991647220299,-79.6805727381953
8.664,0.9999917144850717,-79.92395502580996
8.672,0.9999917808637527,-80.1672446448069
8.68,0.9999918463562699,-80.41044153707891
8.688,0.9999919109627255,-80.6535456463124
8.696,0.9999919746833944,-80.89655691798396
8.704,0.9999920375187227,-81.13947529935811
8.712,0.999992099469327,-81.3823007394839
8.72,0.999992160535994,-81.62503318919248
8.728,0.999992220719679,-81.86767260109369
8.736,0.999992280021504,-82.11021892957363
8.744,0.9999923384427576,-82.35267213079109
8.752,0.9999923959848943,-82.59503216267501
8.76,0.9999924526495323,-82.8372989849211
8.768,0.9999925084384521,-83.07947255898897
8.776,0.9999925633535974,-83.32155284809878
8.784,0.9999926173970715,-83.56353981722836
8.792,0.9999926705711368,-83.80543343310977
8.8,0.9999927228782152,-84.04723366422635
8.808,0.9999927743208847,-84.28894048080919
8.815999999999999,0.9999928249018789,-84.5305538548342
8.824,0.9999928746240866,-84.77207376001859
8.832,0.9999929234905487,-85.01350017181755
8.84,0.9999929715044588,-85.25483306742099
8.847999999999999,0.9999930186691608,-85.4960724257502
8.856,0.9999930649881479,-85.73721822745436
8.864,0.9999931104650607,-85.97827045490713
8.872,0.9999931551036869,-86.21922909220311
8.879999999999999,0.9999931989079588,-86.46009412515463
8.888,0.9999932418819527,-86.70086554128802
8.896,0.9999932840298865,-86.94154332984009
8.904,0.99999332535612,-87.18212748175452
8.911999999999999,0.9999933658651512,-87.42261798967853
8.92,0.9999934055616172,-87.6630148479591
8.928,0.9999934444502906,-87.90331805263926
8.936,0.9999934825360789,-88.1435276014545
8.943999999999999,0.9999935198240237,-88.38364349382921
8.952,0.9999935563192976,-88.62366573087293
8.96,0.9999935920272047,-88.86359431537639
8.968,0.9999936269531763,-89.10342925180801
8.975999999999999,0.9999936611027719,-89.34317054631015
8.984,0.9999936944816765,-89.5828182066952
8.992,0.9999937270956988,-89.82237224244167
9.0,0.99999375895077,-90.06183266469054
9.008,0.999993790052942,-90.30119948624133
9.016,0.9999938204083856,-90.5404727215483
9.024000000000001,0.9999938500233888,-90.77965238671626
9.032,0.9999938789043563,-91.01873849949693
9.04,0.9999939070578058,-91.25773107928494
9.048,0.9999939344903676,-91.49663014711385
9.056000000000001,0.9999939612087823,-91.73543572565204
9.064,0.9999939872199002,-91.97414783919876
9.072,0.9999940125306775,-92.21276651368034
9.08,0.9999940371481767,-92.4512917766458
9.088000000000001,0.9999940610795635,-92.68972365726297
9.096,0.9999940843321048,-92.9280621863143
9.104,0.9999941069131689,-93.1663073961929
9.112,0.9999941288302207,-93.4044593208984
9.120000000000001,0.9999941500908217,-93.64251799603261
9.128,0.9999941707026286,-93.88048345879548
9.136,0.9999941906733901,-94.1183557479811
9.144,0.999994210010945,-94.35613490397333
9.152000000000001,0.9999942287232231,-94.59382096874147
9.16,0.9999942468182382,-94.83141398583624
9.168,0.9999942643040917,-95.06891400038552
9.176,0.9999942811889659,-95.30632105909005
9.184000000000001,0.9999942974811261,-95.54363521021907
9.192,0.9999943131889161,-95.78085650360602
9.2,0.9999943283207566,-96.0179849906445
9.208,0.999994342885144,-96.25502072428371
9.216000000000001,0.9999943568906484,-96.49196375902403
9.224,0.9999943703459101,-96.72881415091285
9.232,0.9999943832596395,-96.96557195754016
9.24,0.9999943956406145,-97.20223723803421
9.248000000000001,0.9999944074976774,-97.43881005305694
9.256,0.9999944188397349,-97.67529046479964
9.264,0.9999944296757539,-97.91167853697868
9.272,0.9999944400147609,-98.14797433483093
9.280000000000001,0.9999944498658395,-98.38417792510923
9.288,0.9999944592381271,-98.62028937607803
9.296,0.9999944681408163,-98.85630875750898
9.304,0.9999944765831478,-99.09223614067636
9.312000000000001,0.9999944845744132,-99.32807159835244
9.32,0.9999944921239495,-99.5638152048031
9.328,0.9999944992411383,-99.79946703578344
9.336,0.999994505935403,-100.035027168533
9.344,0.9999945122162079,-100.27049568177121
9.352,0.9999945180930548,-100.50587265569307
9.36,0.9999945235754814,-100.74115817196424
9.368,0.9999945286730586,-100.97635231371677
9.376,0.9999945333953894,-101.21145516554425
9.384,0.9999945377521048,-101.44646681349742
9.392,0.9999945417528638,-101.68138734507927
9.4,0.9999945454073503,-101.91621684924078
9.408,0.9999945487252698,-102.15095541637587
9.416,0.9999945517163484,-102.38560313831714
9.424,0.9999945543903302,-102.6201601083309
9.432,0.9999945567569755,-102.8546264211127
9.44,0.9999945588260579,-103.08900217278253
9.448,0.9999945606073618,-103.32328746088028
9.456,0.9999945621106808,-103.55748238436078
9.464,0.999994563345815,-103.79158704358952
9.472,0.9999945643225696,-104.02560154033736
9.48,0.9999945650507509,-104.25952597777645
9.488,0.9999945655401653,-104.4933604604749
9.496,0.9999945658006166,-104.7271050943926
9.504,0.9999945658419037,-104.96075998687589
9.512,0.9999945656738183,-105.19432524665342
9.52,0.9999945653061424,-105.42780098383082
9.528,0.9999945647486461,-105.66118730988643
9.536,0.9999945640110848,-105.89448433766611
9.544,0.9999945631031975,-106.12769218137882
