freq,mag,phase
6.0,0.9999956286635006,-152.29525052836829
6.008,0.9999954901422714,-152.64548822198836
6.016,0.9999953597311448,-152.99534922332796
6.024,0.9999952372592361,-153.3448375035557
6.032,0.9999951225576617,-153.6939570417357
6.04,0.9999950154595278,-154.0427118246622
6.048,0.9999949157999171,-154.39110584669777
6.056,0.9999948234158778,-154.73914310961538
6.064,0.9999947381464104,-155.08682762244385
6.072,0.9999946598324563,-155.4341634013169
6.08,0.9999945883168836,-155.78115446932574
6.088,0.9999945234444765,-156.1278048563751
6.096,0.9999944650619222,-156.47411859904275
6.104,0.9999944130177963,-156.82009974044243
6.112,0.9999943671625525,-157.16575233009002
6.12,0.9999943273485086,-157.51108042377305
6.128,0.9999942934298339,-157.85608808342377
6.136,0.9999942652625357,-158.20077937699511
6.144,0.9999942427044467,-158.54515837834003
6.152,0.9999942256152126,-158.88922916709402
6.16,0.9999942138562774,-159.2329958285608
6.168,0.9999942072908723,-159.57646245360095
6.176,0.9999942057840007,-159.9196331385238
6.184,0.9999942092024265,-160.26251198498215
6.192,0.9999942174146602,-160.60510309987035
6.2,0.9999942302909449,-160.9474105952247
6.208,0.9999942477032451,-161.28943858812744
6.216,0.9999942695252322,-161.63119120061324
6.224,0.9999942956322706,-161.9726725595785
6.232,0.9999943259014064,-162.31388679669374
6.24,0.9999943602113516,-162.65483804831848
6.248,0.9999943984424734,-162.99553045541901
6.256,0.9999944404767799,-163.3359681634888
6.264,0.9999944861979058,-163.6761553224716
6.272,0.9999945354911013,-164.01609608668716
6.28,0.999994588243218,-164.35579461475953
6.288,0.9999946443426945,-164.6952550695479
6.296,0.9999947036795448,-165.03448161808006
6.304,0.9999947661453444,-165.37347843148817
6.312,0.9999948316332186,-165.71224968494718
6.32,0.9999949000378271,-166.05079955761545
6.328,0.9999949712553524,-166.38913223257802
6.336,0.9999950451834869,-166.72725189679193
6.344,0.9999951217214199,-167.0651627410341
6.352,0.9999952007698228,-167.4028689598513
6.36,0.99999528223084,-167.7403747515126
6.368,0.9999953660080718,-168.07768431796364
6.376,0.9999954520065643,-168.41480186478353
6.384,0.9999955401327966,-168.7517316011436
6.392,0.9999956302946663,-169.0884777397683
6.4,0.9999957224014788,-169.4250444968983
6.408,0.9999958163639329,-169.7614360922555
6.416,0.9999959120941103,-170.09765674901007
6.424,0.9999960095054613,-170.4337106937495
6.432,0.9999961085127922,-170.76960215644968
6.44,0.9999962090322554,-171.1053353704477
6.448,0.9999963109813339,-171.44091457241663
6.456,0.9999964142788312,-171.77634400234228
6.464,0.9999965188448585,-172.1116279035015
6.472,0.9999966246008213,-172.4467705224424
6.48,0.99999673146941,-172.78177610896654
6.4879999999999995,0.999996839374585,-173.1166489161123
6.496,0.9999969482415666,-173.4513932001407
6.504,0.9999970579968223,-173.7860132205219
6.5120000000000005,0.9999971685680554,-174.12051323992455
6.52,0.9999972798841934,-174.45489752420534
6.5280000000000005,0.9999973918753753,-174.78917034240155
6.536,0.9999975044729404,-175.1233359667237
6.5440000000000005,0.9999976176094182,-175.4573986725512
6.552,0.9999977312185148,-175.7913627384279
6.5600000000000005,0.9999978452351029,-176.1252324460607
6.568,0.9999979595952094,-176.459012080318
6.5760000000000005,0.9999980742360057,-176.7927059292309
6.584,0.9999981890957945,-177.12631828399466
6.592,0.9999983041140006,-177.45985343897243
6.6,0.9999984192311588,-177.79331569169943
6.608,0.9999985343889033,-178.12670934288897
6.616,0.9999986495299563,-178.46003869643943
6.624,0.9999987645981184,-178.79330805944267
6.632,0.9999988795382573,-179.1265217421932
6.64,0.9999989942962948,-179.45968405819914
6.648,0.9999991088192011,-179.79279932419362
6.656,0.9999992230549802,179.87412813985233
6.664,0.999999336952662,179.54109401071582
6.672,0.9999994504622891,179.20809396190737
6.68,0.9999995635349107,178.87512366365493
6.688,0.9999996761225678,178.542178782887
6.696,0.9999997881782872,178.20925498321486
6.704,0.9999998996560687,177.87634792491386
6.712,1.0,177.54345326490375
6.72,1.0,177.21056665672833
6.728,1.0,176.87768375053392
6.736,1.0,176.54480019304754
6.744,1.0,176.2119116275538
6.752,0.9999999999999999,175.87901369387137
6.76,0.9999999999999999,175.54610202832873
6.768,0.9999999999999999,175.21317226373895
6.776,1.0,174.88022002937416
6.784,1.0,174.54724095093914
6.792,1.0,174.21423065054447
6.8,1.0,173.8811847466789
6.808,0.9999999999999999,173.54809885418163
6.816,0.9999999999999999,173.21496858421327
6.824,1.0,172.88178954422713
6.832,1.0,172.54855733793968
6.84,0.9999999999999999,172.21526756530045
6.848,1.0,171.88191582246182
6.856,0.9999999999999999,171.54849770174826
6.864,1.0,171.21500879162517
6.872,1.0,170.88144467666768
6.88,0.9999999999999999,170.5478009375288
6.888,1.0,170.2140731509076
6.896,0.9999999999999999,169.88025688951683
6.904,1.0,169.54634772205094
6.912,1.0,169.21234121315308
6.92,1.0,168.87823292338282
6.928,0.9999999999999999,168.54401840918297
6.936,0.9999999999999999,168.20969322284705
6.944,1.0,167.87525291248608
6.952,1.0,167.54069302199574
6.96,0.9999999999999999,167.20600909102333
6.968,0.9999999999999999,166.87119665493503
6.976,0.9999999999999999,166.53625124478276
6.984,0.9999999999999998,166.2011683872716
6.992,1.0,165.86594360472708
7.0,1.0,165.5305724150627
7.008,1.0,165.19505033174764
7.016,1.0,164.85937286377464
7.024,0.9999999999999999,164.52353551562825
7.032,1.0,164.1875337872532
7.04,0.9999999999999999,163.85136317402313
7.048,0.9999999999999999,163.51501916670986
7.056,1.0,163.17849725145257
7.064,0.9999999999999999,162.8417929097281
7.072,0.9999999999999998,162.50490161832084
7.08,0.9999999999999999,162.16781884929387
7.088,1.0,161.83054006996014
7.096,1.0,161.49306074285414
7.104,1.0,161.15537632570474
7.112,0.9999999999999999,160.81748227140787
7.12,0.9999999999999999,160.47937402800028
7.128,1.0,160.14104703863399
7.136,0.9999999999999999,159.80249674155112
7.144,1.0,159.46371857006002
7.152,1.0,159.12470795251156
7.16,0.9999999999999999,158.7854603122767
7.168,1.0,158.44597106772463
7.176,1.0,158.10623563220196
7.184,0.9999999999999999,157.76624941401295
7.192,0.9999999999999998,157.42600781640016
7.2,0.9999999999999999,157.08550623752686
7.208,1.0,156.74474007045987
7.216,1.0,156.4037047031538
7.224,0.9999999999999999,156.06239551843623
7.232,1.0,155.7208078939942
7.24,0.9999999999999999,155.37893720236175
7.248,0.9999999999999999,155.03677881090877
7.256,0.9999999999999999,154.6943280818311
7.264,1.0000000000000002,154.3515803721419
7.272,1.0,154.00853103366447
7.28,1.0,153.66517541302642
7.288,0.9999999999999999,153.3215088516552
7.296,0.9999999999999998,152.97752668577522
7.304,1.0,152.63322424640634
7.312,0.9999999999999999,152.2885968593643
7.32,1.0,151.94363984526206
7.328,1.0,151.59834851951354
7.336,0.9999999999999999,151.2527181923387
7.344,1.0000000000000002,150.90674416877016
7.352,0.9999999999999999,150.56042174866204
7.36,1.0,150.21374622670038
7.368,1.0,149.8667128924155
7.376,0.9999999999999999,149.5193170301961
7.384,1.0,149.17155391930575
7.392,1.0,148.82341883390094
7.4,0.9999999999999999,148.4749070430515
7.4079999999999995,0.9999999999999999,148.12601381076308
7.416,0.9999999999999999,147.77673439600161
7.4239999999999995,0.9999999999999999,147.42706405272034
7.432,1.0,147.07699802988867
7.4399999999999995,1.0,146.72653157152396
7.448,1.0,146.37565991672474
7.4559999999999995,1.0000000000000002,146.02437829970765
7.464,1.0,145.67268194984533
7.4719999999999995,1.0,145.32056609170837
7.48,1.0,144.9680259451085
7.4879999999999995,0.9999999999999999,144.61505672514562
7.496,1.0,144.2616536422562
7.504,1.0,143.90781190226608
7.5120000000000005,1.0,143.55352670644416
7.52,1.0,143.1987932515609
7.5280000000000005,1.0,142.843606729948
7.536,1.0,142.4879623295625
7.5440000000000005,1.0,142.13185523405267
7.552,1.0,141.77528062282823
7.5600000000000005,1.0,141.41823367113247
7.568,1.0,141.06070955011884
7.5760000000000005,0.9999999999999999,140.70270342692956
7.584,1.0,140.34421046477885
7.5920000000000005,1.0,139.98522582303832
7.6,1.0,139.62574465732698
7.6080000000000005,1.0,139.26576211960375
7.616,1.0,138.90527335826448
7.6240000000000006,0.9999999999999999,138.54427351824185
7.632,1.0,138.18275774110973
7.640000000000001,1.0,137.82072116519038
7.648,0.9999999999999999,137.4581589256669
7.656000000000001,1.0,137.0950661546979
7.664,0.9999999999999999,136.7314379815378
7.672,0.9999999999999999,136.3672695326601
7.68,1.0,136.00255593188507
7.688,1.0,135.63729230051197
7.696,0.9999999999999999,135.27147375745523
7.704,1.0,134.90509541938485
7.712,0.9999999999999999,134.53815240087167
7.72,1.0,134.17063981453666
7.728,0.9999999999999999,133.80255277120517
7.736,1.0,133.4338863800654
7.744,0.9999999999999999,133.0646357488321
7.752,0.9999999999999999,132.6947959839146
7.76,0.9999999999999999,132.32436219058977
7.768,1.0,131.95332947318036
7.776,1.0,131.58169293523767
7.784,1.0,131.20944767972983
7.792,0.9999999999999999,130.83658880923508
7.8,0.9999999999999999,130.4631114261402
7.808,1.0,130.08901063284446
7.816,1.0,129.71428153196877
7.824,1.0,129.33891922657048
7.832,1.0,128.9629188203636
7.84,1.0,128.58627541794485
7.848,1.0,128.20898412502518
7.856,1.0,127.83104004866735
7.864,1.0,127.45243829752914
7.872,1.0,127.07317398211273
7.88,0.9999999103267743,126.69324221502005
7.888,0.9999998037595953,126.31263811121428
7.896,0.9999996965156895,125.93135678828747
7.904,0.999999588619703,125.54939336673453
7.912,0.9999994800964142,125.16674297023377
7.92,0.9999993709707318,124.78340072593338
7.928,0.9999992612676885,124.3993617647451
7.936,0.999999151012441,124.01462122164408
7.944,0.9999990402302621,123.62917423597554
7.952,0.9999989289465403,123.24301595176833
7.96,0.9999988171867736,122.85614151805525
7.968,0.9999987049765672,122.46854608920036
7.976,0.9999985923416288,122.08022482523334
7.984,0.9999984793077653,121.69117289219108
7.992,0.9999983659008785,121.30138546246619
8.0,0.9999982521469619,120.91085771516305
8.008,0.9999981380720956,120.51958483646138
8.016,0.9999980237024427,120.12756201998651
8.024000000000001,0.9999979090642465,119.73478446718849
8.032,0.999997794183825,119.34124738772748
8.04,0.9999976790875675,118.94694599986755
8.048,0.9999975638019307,118.55187553087808
8.056000000000001,0.9999974483534341,118.15603121744341
8.064,0.999997332768656,117.75940830607989
8.072,0.99999721707423,117.3620020535609
8.08,0.9999971012968396,116.96380772735051
8.088000000000001,0.9999969854632156,116.56482060604516
8.096,0.9999968696001298,116.16503597982334
8.104,0.9999967537343929,115.76444915090352
8.112,0.9999966378928481,115.36305543401096
8.120000000000001,0.9999965221023689,114.96085015685283
8.128,0.9999964063898528,114.55782866060171
8.136,0.9999962907822174,114.15398630038766
8.144,0.9999961753063973,113.74931844579923
8.152000000000001,0.9999960599893367,113.34382048139342
8.16,0.9999959448579887,112.93748780721403
8.168,0.999995829939307,112.53031583931892
8.176,0.9999957152602439,112.12230001031665
8.184000000000001,0.9999956008477445,111.71343576991202
8.192,0.9999954867287418,111.30371858546063
8.2,0.9999953729301531,110.89314394253223
8.208,0.9999952594788736,110.48170734548401
8.216000000000001,0.9999951464017728,110.06940431804293
8.224,0.9999950337256898,109.65623040389708
8.232,0.9999949214774274,109.24218116729661
8.24,0.9999948096837474,108.82725219366405
8.248000000000001,0.9999946983713668,108.41143909021463
8.256,0.999994587566951,107.99473748658542
8.264,0.9999944772971094,107.5771430354741
8.272,0.999994367588391,107.15865141328791
8.280000000000001,0.9999942584672792,106.73925832080204
8.288,0.9999941499601843,106.31895948382741
8.296,0.9999940420934419,105.89775065388837
8.304,0.9999939348933045,105.47562760891023
8.312,0.9999938283859381,105.05258615391696
8.32,0.999993722597415,104.62862212173755
8.328,0.9999936175537104,104.2037313737238
8.336,0.9999935132806962,103.77790980047632
8.344,0.999993409804134,103.35115332258208
8.352,0.9999933071496719,102.92345789136009
8.36,0.9999932053428372,102.49481948961873
8.368,0.9999931044090314,102.06523413242137
8.376,0.9999930043735245,101.63469786786334
8.384,0.9999929052614487,101.20320677785735
8.392,0.9999928070977936,100.77075697893032
8.4,0.9999927099073993,100.3373446230285
8.408,0.9999926137149515,99.902965898334
8.416,0.9999925185449748,99.46761703008968
8.424,0.9999924244218262,99.03129428143525
8.432,0.9999923313696922,98.59399395425174
8.44,0.9999922394125778,98.1557123900171
8.448,0.9999921485743049,97.71644597067015
8.456,0.9999920588785031,97.27619111948559
8.464,0.9999919703486057,96.83494430195692
8.472,0.9999918830078425,96.39270202669088
8.48,0.9999917968792327,95.94946084630931
8.488,0.9999917119855799,95.50521735836226
8.496,0.9999916283494661,95.0599682062489
8.504,0.9999915459932439,94.61371008014903
8.512,0.9999914649390311,94.16643971796232
8.52,0.9999913852087035,93.71815390625825
8.528,0.9999913068238897,93.26884948123327
8.536,0.999991229805963,92.8185233296785
8.544,0.999991154176037,92.3671723899546
8.552,0.9999910799549565,91.91479365297683
8.56,0.9999910071632927,91.46138416320689
8.568,0.9999909358213365,91.006941019655
8.576,0.999990865949091,90.55146137688833
8.584,0.9999907975662657,90.09494244604916
8.592,0.9999907306922691,89.63738149587947
8.6,0.9999906653462034,89.17877585375467
8.608,0.999990601546855,88.71912290672348
8.616,0.9999905393126921,88.25842010255676
8.624,0.9999904786618532,87.79666495080173
8.632,0.9999904196121446,87.33385502384516
8.64,0.9999903621810299,86.86998795798138
8.648,0.9999903063856272,86.4050614544888
8.656,0.999990252242698,85.93907328071086
8.664,0.9999901997686448,85.47202127114495
8.672,0.9999901489795016,85.00390332853549
8.68,0.9999900998909269,84.5347174249743
8.688,0.9999900525181994,84.06446160300464
8.696,0.9999900068762089,83.59313397673215
8.704,0.999989962979451,83.12073273293866
8.712,0.9999899208420194,82.64725613220261
8.72,0.9999898804776007,82.1727025100217
8.728,0.999989841899466,81.69707027794124
8.736,0.9999898051204659,81.22035792468454
8.744,0.9999897701530223,80.74256401728822
8.752,0.9999897370091227,80.26368720223867
8.76,0.999989705700315,79.783726206613
8.768,0.9999896762376985,79.30267983922042
8.776,0.999989648631919,78.82054699174726
8.784,0.9999896228931621,78.33732663990183
8.792,0.9999895990311469,77.85301784456199
8.8,0.9999895770551196,77.36761975292193
8.808,0.9999895569738477,76.88113159964087
8.815999999999999,0.9999895387956134,76.39355270799008
8.824,0.9999895225282073,75.90488249100048
8.832,0.9999895081789231,75.41512045260923
8.84,0.9999894957545515,74.92426618880442
8.847999999999999,0.9999894852613734,74.43231938876795
8.856,0.9999894767051556,73.93927983601648
8.864,0.999989470091144,73.44514740953977
8.872,0.9999894654240588,72.94992208493511
8.879999999999999,0.9999894627080881,72.453603935538
8.888,0.9999894619468833,71.95619313354919
8.896,0.9999894631435535,71.45768995115667
8.904,0.9999894663006607,70.9580947616521
8.911999999999999,0.9999894714202142,70.4574080405414
8.92,0.9999894785036654,69.95563036664915
8.928,0.9999894875519042,69.45276242321644
8.936,0.9999894985652538,68.94880499899041
8.943999999999999,0.9999895115434654,68.443758989306
8.952,0.9999895264857148,67.93762539715931
8.96,0.9999895433905979,67.43040533427181
8.968,0.9999895622561266,66.9221000221443
8.975999999999999,0.9999895830797243,66.41271079310035
8.984,0.9999896058582233,65.9022390913192
8.992,0.9999896305878604,65.39068647385707
9.0,0.9999896572642731,64.87805461165553
9.008,0.9999896858824981,64.36434529053716
9.016,0.9999897164369659,63.84956041218799
9.024000000000001,0.9999897489214999,63.33370199512575
9.032,0.9999897833293124,62.81677217565278
9.04,0.9999898196530033,62.298773208793506
9.048,0.9999898578845564,61.77970746921606
9.056000000000001,0.9999898980153393,61.25957745213719
9.064,0.9999899400360999,60.73838577420901
9.072,0.9999899839369646,60.216135174387695
9.08,0.9999900297074392,59.69282851478374
9.088000000000001,0.9999900773364052,59.16846878149244
9.096,0.9999901268121203,58.64305908540396
9.104,0.9999901781222171,58.11660266299216
9.112,0.9999902312537031,57.58910287708232
9.120000000000001,0.9999902861929604,57.06056321759674
9.128,0.9999903429257458,56.53098730227635
9.136,0.9999904014371911,56.00037887737905
9.144,0.9999904617118032,55.46874181835381
9.152000000000001,0.9999905237334666,54.93608013048964
9.16,0.9999905874854426,54.40239794953832
9.168,0.9999906529503712,53.8676995423106
9.176,0.9999907201102747,53.33198930724552
9.184000000000001,0.9999907889465569,52.79527177495193
9.192,0.9999908594400077,52.25755160872085
9.2,0.9999909315708038,51.71883360500856
9.208,0.9999910053185131,51.17912269389012
9.216000000000001,0.9999910806620974,50.63842393948233
9.224,0.9999911575799161,50.0967425403348
9.232,0.9999912360497287,49.55408382978903
9.24,0.9999913160487007,49.01045327630536
9.248000000000001,0.9999913975534075,48.46585648375657
9.256,0.9999914805398388,47.920299191687064
9.264,0.9999915649834039,47.37378727553751
9.272,0.9999916508589368,46.82632674683465
9.280000000000001,0.9999917381407023,46.27792375334547
9.288,0.9999918268024021,45.728584579194234
9.296,0.999991916817181,45.178315644942735
9.304,0.9999920081576334,44.62712350763322
9.312000000000001,0.9999921007958107,44.07501486079342
9.32,0.999992194703229,43.52199653440205
9.328,0.9999922898508752,42.96807549481539
9.336,0.9999923862092168,42.41325884465436
9.344,0.9999924837482101,41.85755382265149
9.352,0.9999925824373077,41.30096780345601
9.36,0.9999926822454682,40.743508297399345
9.368,0.9999927831411662,40.18518295021709
9.376,0.9999928850924008,39.625999542730824
9.384,0.9999929880667064,39.06596599048529
9.392,0.9999930920311625,38.50509034334473
9.4,0.9999931969524054,37.94338078504382
9.408,0.9999933027966378,37.38084563269695
9.416,0.999993409529641,36.817493336261535
9.424,0.9999935171167862,36.253332477958956
9.432,0.9999936255230467,35.688371771648896
9.44,0.9999937347130095,35.12262006216084
9.448,0.9999938446508895,34.556086324578395
9.456,0.9999939553005395,33.98877966348035
9.464,0.999994066625466,33.42070931213426
9.472,0.9999941785888414,32.851884631646186
9.48,0.9999942911535187,32.28231511006288
9.488,0.9999944042820437,31.712010361429762
9.496,0.999994517936671,31.14098012480126
9.504,0.999994632079378,30.569234263206607
9.512,0.9999947466718796,29.996782762568177
9.52,0.9999948616756433,29.42363573057521
9.528,0.9999949770519043,28.849803395509827
9.536,0.9999950927616827,28.275296105028993
9.544,0.9999952087657965,27.700124324898542
9.552,0.99999532502488,27.124298637683673
9.56,0.9999954414993991,26.54782974139154
9.568,0.9999955581496678,25.970728448070723
9.576,0.9999956749358652,25.393005682363416
9.584,0.9999957918180526,24.814672480014686
9.592,0.999995908756189,24.235739986335073
9.6,0.9999960257101504,23.65621945462092
9.608,0.9999961426397465,23.07612224452866
9.616,0.9999962595047371,22.495459820407525
9.624,0.9999963762648523,21.914243749587055
9.632,0.999996492879807,21.33248570062387
9.64,0.9999966093093224,20.75019744150412
9.648,0.9999967255131411,20.167390837806252
9.656,0.9999968414510475,19.58407785082041
9.664,0.9999969570828845,19.000270535629255
9.672,0.999997072368573,18.415981039146757
9.68,0.9999971872681296,17.831221598119445
9.688,0.9999973017416851,17.24600453708695
9.696,0.9999974157495032,16.66034226630648
9.704,0.9999975292519999,16.074247279637923
9.712,0.9999976422097603,15.487732152394337
9.72,0.9999977545835583,14.9008095391546
9.728,0.9999978663343755,14.313492171543162
9.736,0.9999979774234187,13.7257928559735
9.744,0.9999980878121391,13.137724471360322
9.752,0.9999981974622504,12.549299966797433
9.76,0.9999983063357485,11.960532359206
9.768,0.9999984143949274,11.37143473095041
9.776,0.9999985216023993,10.782020227426488
9.784,0.9999986279211134,10.192302054619171
9.792,0.999998733314371,9.602293476634705
9.8,0.9999988377458465,9.012007813204264
9.808,0.9999989411796046,8.421458437164246
