freq,mag,phase
6.0,0.999967047479331,53.25072564463716
6.008,0.9999669102222024,53.04756770649944
6.016,0.9999667798376503,52.844307846965755
6.024,0.9999666562271284,52.64094619783655
6.032,0.9999665392928373,52.437482892513444
6.04,0.9999664289377229,52.23391806600105
6.048,0.9999663250654733,52.030251854908855
6.056,0.9999662275805196,51.82648439745291
6.064,0.9999661363880329,51.622615833457736
6.072,0.9999660513939227,51.418646304357935
6.08,0.9999659725048367,51.214575953199926
6.088,0.9999658996281574,51.0104049246435
6.096,0.9999658326720018,50.80613336496346
6.104,0.9999657715452199,50.601761422051155
6.112,0.9999657161573918,50.39728924541594
6.12,0.999965666418828,50.19271698618674
6.128,0.9999656222405655,49.988044797113325
6.136,0.9999655835343682,49.78327283256775
6.144,0.9999655502127242,49.57840124854565
6.152,0.9999655221888444,49.37343020266756
6.16,0.9999654993766605,49.1683598541801
6.168,0.9999654816908236,48.96319036395717
6.176,0.9999654690467025,48.757921894501116
6.184,0.9999654613603819,48.55255460994381
6.192,0.9999654585486603,48.34708867604764
6.2,0.999965460529049,48.14152426020664
6.208,0.9999654672197695,47.93586153144728
6.216,0.9999654785397524,47.73010066042956
6.224,0.9999654944086345,47.52424181944769
6.232,0.999965514746759,47.31828518243104
6.24,0.9999655394751712,47.112230924944754
6.248,0.9999655685156187,46.906079224190655
6.256,0.9999656017905477,46.69983025900778
6.264,0.9999656392231031,46.49348420987298
6.272,0.9999656807371253,46.28704125890161
6.28,0.9999657262571479,46.0805015898479
6.288,0.9999657757083971,45.87386538810558
6.296,0.9999658290167894,45.66713284070815
6.304,0.999965886108928,45.46030413632936
6.312,0.9999659469121033,45.25337946528347
6.32,0.9999660113542893,45.04635901952557
6.328,0.999966079364143,44.83924299265169
6.336,0.9999661508709992,44.63203157989912
6.344,0.9999662258048728,44.424724978146415
6.352,0.9999663040964539,44.21732338591349
6.36,0.9999663856771064,44.0098270033616
6.368,0.9999664704788656,43.802236032293386
6.376,0.9999665584344372,43.59455067615271
6.384,0.9999666494771942,43.38677114002449
6.392,0.9999667435411745,43.178897630634594
6.4,0.9999668405610804,42.97093035634948
6.408,0.9999669404722743,42.762869527176
6.416,0.999967043210778,42.554715354760916
6.424,0.9999671487132699,42.346468052390634
6.432,0.9999672569170829,42.138127834990605
6.44,0.9999673677602027,41.92969491912493
6.448,0.9999674811812646,41.72116952299562
6.456,0.9999675971195519,41.51255186644219
6.464,0.999967715514993,41.30384217094075
6.472,0.9999678363081609,41.0950406596034
6.48,0.9999679594402682,40.88614755717743
6.4879999999999995,0.999968084853167,40.67716309004446
6.496,0.9999682124893456,40.4680874862194
6.504,0.9999683422919261,40.25892097534984
6.5120000000000005,0.999968474204662,40.04966378871453
6.52,0.9999686081719372,39.840316159222844
6.5280000000000005,0.9999687441387614,39.63087832141314
6.536,0.9999688820507694,39.42135051145209
6.5440000000000005,0.9999690218542175,39.21173296713289
6.552,0.9999691634959823,39.002025927874506
6.5600000000000005,0.9999693069235575,38.79222963471982
6.568,0.9999694520850511,38.58234433033466
6.5760000000000005,0.9999695989291837,38.37237025900592
6.584,0.9999697474052857,38.162307666640416
6.592,0.9999698974632945,37.95215680076296
6.6,0.999970049053753,37.74191791051496
6.608,0.9999702021278052,37.53159124665256
6.616,0.9999703566371955,37.321177061545036
6.624,0.9999705125342655,37.110675609172795
6.632,0.9999706697719508,36.90008714512561
6.64,0.9999708283037794,36.689411926600684
6.648,0.9999709880838683,36.47865021240062
6.656,0.9999711490669214,36.26780226293136
6.664,0.9999713112082267,36.056868340200076
6.672,0.9999714744636538,35.84584870781307
6.68,0.9999716387896505,35.63474363097341
6.688,0.9999718041432408,35.42355337647875
6.696,0.9999719704820228,35.212278212718914
6.704,0.9999721377641644,35.000918409673524
6.712,0.9999723059484024,34.78947423890946
6.72,0.9999724749940376,34.57794597357844
6.728,0.9999726448609344,34.36633388841435
6.736,0.9999728155095166,34.15463825973056
6.744,0.9999729869007645,33.94285936541734
6.752,0.999973158996213,33.73099748493893
6.76,0.9999733317579487,33.51905289933084
6.768,0.9999735051486061,33.30702589119686
6.776,0.9999736791313655,33.09491674470616
6.784,0.9999738536699506,32.882725745590285
6.792,0.999974028728625,32.67045318114
6.8,0.9999742042721886,32.458099340202246
6.808,0.999974380265977,32.24566451317686
6.816,0.999974556675856,32.03314899201341
6.824,0.9999747334682205,31.82055307020778
6.832,0.9999749106099909,31.607877042798822
6.84,0.9999750880686102,31.395121206364962
6.848,0.9999752658120413,31.1822858590206
6.856,0.9999754438087631,30.96937130041262
6.864,0.9999756220277695,30.756377831716748
6.872,0.9999758004385643,30.543305755633856
6.88,0.9999759790111592,30.330155376386152
6.888,0.9999761577160711,30.1169269997135
6.896,0.9999763365243183,29.903620932869423
6.904,0.9999765154074183,29.690237484617224
6.912,0.999976694337384,29.476776965225987
6.92,0.999976873286721,29.263239686466516
6.928,0.9999770522284249,29.0496259616072
6.936,0.9999772311359776,28.835936105409846
6.944,0.9999774099833441,28.622170434125426
6.952,0.9999775887449704,28.408329265489776
6.96,0.9999777673957799,28.19441291871923
6.968,0.9999779459111692,27.98042171450622
6.976,0.9999781242670072,27.766355975014697
6.984,0.9999783024396294,27.552216023875697
6.992,0.9999784804058373,27.33800218618263
7.0,0.9999786581428931,27.12371478848667
7.008,0.9999788356285179,26.909354158791984
7.016,0.9999790128408882,26.69492062655092
7.024,0.9999791897586319,26.48041452265921
7.032,0.9999793663608266,26.26583617945099
7.04,0.9999795426269952,26.05118593069384
7.048,0.9999797185371028,25.836464111583712
7.056,0.9999798940715539,25.621671058739903
7.064,0.9999800692111899,25.406807110199782
7.072,0.9999802439372834,25.191872605413657
7.08,0.9999804182315378,24.9768678852394
7.088,0.9999805920760824,24.761793291937202
7.096,0.9999807654534691,24.546649169164056
7.104,0.99998093834667,24.331435861968366
7.112,0.9999811107390733,24.116153716784368
7.12,0.9999812826144808,23.900803081426563
7.128,0.9999814539571035,23.68538430508403
7.136,0.9999816247515597,23.469897738314767
7.144,0.9999817949828701,23.25434373303988
7.152,0.9999819646364565,23.038722642537728
7.16,0.9999821336981359,22.82303482143809
7.168,0.9999823021541198,22.60728062571618
7.176,0.9999824699910083,22.391460412686598
7.184,0.9999826371957893,22.17557454099731
7.192,0.999982803755833,21.959623370623518
7.2,0.9999829696588901,21.743607262861378
7.208,0.9999831348930877,21.527526580321872
7.216,0.999983299446925,21.311381686924413
7.224,0.9999834633092726,21.09517294789051
7.232,0.9999836264693659,20.87890072973732
7.24,0.9999837889168041,20.662565400271173
7.248,0.9999839506415461,20.44616732858102
7.256,0.9999841116339061,20.22970688503184
7.264,0.9999842718845516,20.013184441257945
7.272,0.9999844313844996,19.796600370156295
7.28,0.9999845901251129,19.57995504587973
7.288,0.9999847480980961,19.36324884383007
7.296,0.9999849052954942,19.146482140651287
7.304,0.9999850617096867,18.929655314222526
7.312,0.9999852173333862,18.7127687436511
7.32,0.9999853721596331,18.495822809265427
7.328,0.999985526181794,18.27881789260791
7.336,0.9999856793935571,18.06175437642774
7.344,0.9999858317889292,17.84463264467371
7.352,0.9999859833622315,17.627453082486895
7.36,0.999986134108098,17.41021607619329
7.368,0.9999862840214695,17.19292201329644
7.376,0.9999864330975926,16.97557128246998
7.384,0.999986581332014,16.758164273550094
7.392,0.9999867287205793,16.54070137752801
7.4,0.9999868752594276,16.323182986542317
7.4079999999999995,0.9999870209449889,16.10560949387134
7.416,0.999987165773981,15.887981293925323
7.4239999999999995,0.9999873097434057,15.670298782238863
7.432,0.9999874528505445,15.452562355462739
7.4399999999999995,0.9999875950929564,15.234772411356415
7.448,0.9999877364684739,15.016929348779698
7.4559999999999995,0.9999878769751994,14.799033567685143
7.464,0.9999880166115022,14.581085469109636
7.4719999999999995,0.9999881553760147,14.363085455166619
7.48,0.999988293267629,14.145033929037647
7.4879999999999995,0.9999884302854926,13.926931294964517
7.496,0.9999885664290072,13.708777958240642
7.504,0.9999887016978224,13.490574325203141
7.5120000000000005,0.9999888360918353,13.272320803224085
7.52,0.999988969611183,13.054017800702521
7.5280000000000005,0.9999891022562439,12.83566572705558
7.536,0.9999892340276308,12.617264992710409
7.5440000000000005,0.9999893649261883,12.398816009095215
7.552,0.9999894949529899,12.180319188631053
7.5600000000000005,0.9999896241093346,11.961774944722796
7.568,0.9999897523967426,11.74318369175082
7.5760000000000005,0.9999898798169525,11.52454584506189
7.584,0.9999900063719177,11.305861820960759
7.5920000000000005,0.9999901320638029,11.087132036700902
7.6,0.9999902568949816,10.868356910476091
7.6080000000000005,0.9999903808680305,10.649536861411015
7.616,0.999990503985728,10.430672309552738
7.6240000000000006,0.9999906262510507,10.21176367586125
7.632,0.9999907476671693,9.992811382200838
7.640000000000001,0.9999908682374449,9.773815851330543
7.648,0.9999909879654262,9.554777506895432
7.656000000000001,0.9999911068548467,9.335696773416966
7.664,0.9999912249096201,9.116574076284204
7.672,0.9999913421338372,8.89740984174412
7.68,0.9999914585317635,8.678204496892532
7.688,0.9999915741078345,8.458958469664651
7.696,0.9999916888666527,8.239672188825674
7.704,0.9999918028129853,8.020346083961313
7.712,0.9999919159517594,7.80098058546833
7.72,0.9999920282880598,7.581576124544997
7.728,0.9999921398271246,7.362133133181518
7.736,0.9999922505743426,7.142652044150418
7.744,0.9999923605352503,6.923133290996889
7.752,0.9999924697155271,6.703577308029105
7.76,0.9999925781209942,6.48398453030848
7.768,0.999992685757609,6.264355393639918
7.776,0.9999927926314636,6.0446903345619925
7.784,0.9999928987487807,5.824989790337121
7.792,0.9999930041159104,5.605254198941674
7.8,0.9999931087393269,5.385483999056057
7.808,0.9999932126256257,5.165679630054784
7.816,0.9999933157815198,4.9458415319964715
7.824,0.9999934182138368,4.725970145613824
7.832,0.9999935199295156,4.506065912303589
7.84,0.9999936209356032,4.286129274116455
7.848,0.9999937212392516,4.066160673746951
7.856,0.999993820847714,3.846160554523275
7.864,0.999993919768343,3.626129360397122
7.872,0.9999940180085857,3.4060675359334613
7.88,0.9999941155759822,3.1859755263002882
7.888,0.9999942124781613,2.9658537772583493
7.896,0.9999943087228376,2.7457027351508314
7.904,0.9999944043178088,2.5255228468930224
7.912,0.9999944992709527,2.3053145599619453
7.92,0.9999945935902232,2.0850783223859617
7.928,0.9999946872836483,1.864814582734346
7.936,0.9999947803593261,1.6445237901068341
7.944,0.999994872825422,1.4242063941231473
7.952,0.9999949646901671,1.203862844912478
7.96,0.9999950559618526,0.9834935931029688
7.968,0.9999951466488288,0.7630990898111473
7.976,0.9999952367595014,0.5426797866313458
7.984,0.9999953263023282,0.3222361356250949
7.992,0.9999954152858174,0.10176858931049207
8.0,0.9999955037185224,-0.1187223993484525
8.008,0.9999955916090416,-0.3392363769524689
8.016,0.999995678966014,-0.5597728896778493
8.024000000000001,0.9999957657981151,-0.7803314832869499
8.032,0.999995852114057,-1.0009117031390535
8.04,0.9999959379225827,-1.2215130942012342
8.048,0.9999960232324651,-1.4421352010590416
8.056000000000001,0.9999961080525036,-1.6627775679272023
8.064,0.9999961923915204,-1.883439738660548
8.072,0.9999962762583591,-2.104121256764949
8.08,0.9999963596618818,-2.324821665408072
8.088000000000001,0.9999964426109643,-2.5455405074301667
8.096,0.9999965251144963,-2.7662773253550488
8.104,0.9999966071813772,-2.9870316614011108
8.112,0.9999966888205121,-3.2078030574921517
8.120000000000001,0.9999967700408118,-3.4285910552682104
8.128,0.9999968508511885,-3.6493951960966298
8.136,0.9999969312605531,-3.8702150210831094
8.144,0.9999970112778133,-4.091050071082609
8.152000000000001,0.9999970909118703,-4.3118998867102265
8.16,0.999997170171616,-4.532764008352308
8.168,0.9999972490659321,-4.753641976177577
8.176,0.9999973276036849,-4.974533330148055
8.184000000000001,0.9999974057937254,-5.195437610029998
8.192,0.9999974836448844,-5.416354355405066
8.2,0.9999975611659722,-5.637283105681465
8.208,0.9999976383657746,-5.85822340010492
8.216000000000001,0.9999977152530511,-6.07917477776966
8.224,0.9999977918365316,-6.300136777629599
8.232,0.9999978681249156,-6.521108938509517
8.24,0.9999979441268683,-6.742090799116086
8.248000000000001,0.9999980198510183,-6.963081898048844
8.256,0.9999980953059571,-7.184081773811423
8.264,0.999998170500234,-7.405089964822763
8.272,0.999998245442356,-7.626106009428124
8.280000000000001,0.9999983201407843,-7.847129445910116
8.288,0.9999983946039321,-8.068159812499914
8.296,0.9999984688401634,-8.289196647388508
8.304,0.9999985428577893,-8.510239488737705
8.312,0.999998616665067,-8.731287874691136
8.32,0.9999986902701967,-8.952341343385715
8.328,0.9999987636813207,-9.17339943296239
8.336,0.9999988369065193,-9.394461681577667
8.344,0.9999989099538102,-9.615527627414345
8.352,0.9999989828311466,-9.836596808693033
8.36,0.9999990555464143,-10.057668763682885
8.368,0.9999991281074296,-10.278743030713134
8.376,0.9999992005219377,-10.499819148183803
8.384,0.9999992727976107,-10.72089665457721
8.392,0.9999993449420455,-10.941975088468705
8.4,0.9999994169627622,-11.16305398853816
8.408,0.9999994888672008,-11.384132893580668
8.416,0.9999995606627217,-11.605211342518057
8.424,0.9999996323566019,-11.826288874409554
8.432,0.9999997039560335,-12.04736502846329
8.44,0.9999997754681225,-12.268439344046953
8.448,0.9999998468998859,-12.489511360699256
8.456,0.9999999182582519,-12.710580618140602
8.464,0.9999999895500553,-12.931646656284522
8.472,0.9999999999999999,-13.152709015248305
8.48,1.0,-13.37376723536444
8.488,0.9999999999999999,-13.594820857191197
8.496,1.0,-13.81586942152405
8.504,0.9999999999999999,-14.036912469406277
8.512,1.0,-14.257949542140299
8.52,1.0,-14.47898018129827
8.528,1.0,-14.700003928733398
8.536,1.0,-14.921020326590513
8.544,1.0,-15.142028917317344
8.552,0.9999999999999999,-15.363029243675033
8.56,1.0,-15.584020848749429
8.568,1.0,-15.805003275961552
8.576,0.9999999999999999,-16.025976069078823
8.584,1.0,-16.246938772225505
8.592,1.0,-16.467890929893905
8.6,1.0,-16.688832086954818
8.608,1.0,-16.90976178866861
8.616,0.9999999999999999,-17.130679580695634
8.624,1.0,-17.35158500910734
8.632,0.9999999999999999,-17.572477620396576
8.64,1.0,-17.7933569614887
8.648,0.9999999999999998,-18.014222579751824
8.656,0.9999999999999999,-18.23507402300784
8.664,1.0,-18.45591083954267
8.672,1.0,-18.676732578117246
8.68,1.0,-18.89753878797767
8.688,0.9999999999999999,-19.11832901886614
8.696,1.0,-19.33910282103113
8.704,1.0,-19.559859745238192
8.712,1.0,-19.780599342780086
8.72,1.0,-20.001321165487596
8.728,1.0,-20.22202476573953
8.736,1.0,-20.442709696473496
8.744,1.0,-20.663375511195873
8.752,0.9999999999999999,-20.884021763992497
8.76,1.0,-21.1046480095386
8.768,0.9999999999999999,-21.325253803109423
8.776,0.9999999999999999,-21.54583870059007
8.784,1.0,-21.766402258486096
8.792,1.0,-21.986944033933277
8.8,0.9999999999999998,-22.20746358470814
8.808,0.9999999999999998,-22.427960469237675
8.815999999999999,1.0,-22.64843424660972
8.824,1.0,-22.868884476582878
8.832,1.0,-23.089310719596394
8.84,1.0,-23.30971253678022
8.847999999999999,1.0,-23.530089489965075
8.856,1.0,-23.750441141692153
8.864,1.0,-23.970767055222975
8.872,1.0,-24.191066794549254
8.879999999999999,1.0,-24.41133992440279
8.888,1.0,-24.631586010265092
8.896,1.0000000000000002,-24.851804618377027
8.904,0.9999999999999998,-25.071995315748545
8.911999999999999,0.9999999999999998,-25.292157670168425
8.92,1.0,-25.512291250213746
8.928,1.0,-25.73239562525938
8.936,1.0,-25.95247036548753
8.943999999999999,0.9999999999999999,-26.172515041897356
8.952,0.9999999999999999,-26.392529226314284
8.96,1.0,-26.612512491399276
8.968,0.9999999999999998,-26.832464410658243
8.975999999999999,0.9999999999999999,-27.052384558451564
8.984,0.9999999999999999,-27.272272510003056
8.992,1.0,-27.49212784140927
9.0,1.0,-27.711950129648635
9.008,1.0,-27.93173895259074
9.016,1.0,-28.15149388900531
9.024000000000001,1.0,-28.371214518571097
9.032,0.9999999999999998,-28.590900421885035
9.04,1.0,-28.810551180471236
9.048,1.0,-29.030166376789808
9.056000000000001,1.0,-29.24974559424561
9.064,1.0,-29.469288417197138
9.072,1.0,-29.688794430965388
9.08,0.9999999999999999,-29.90826322184251
9.088000000000001,0.9999999999999999,-30.127694377100266
9.096,1.0,-30.34708748499887
9.104,1.0,-30.566442134795555
9.112,1.0,-30.78575791675302
9.120000000000001,1.0,-31.005034422147833
9.128,1.0,-31.22427124327889
9.136,0.9999999999999999,-31.443467973475894
9.144,1.0,-31.66262420710763
9.152000000000001,0.9999999999999999,-31.88173953959003
9.16,1.0,-32.10081356739459
9.168,0.9999999999999999,-32.319845888056555
9.176,1.0,-32.53883610018298
9.184000000000001,1.0,-32.75778380346065
9.192,1.0,-32.9766885986642
9.2,1.0,-33.19555008766421
9.208,0.9999999999999999,-33.414367873434976
9.216000000000001,1.0,-33.63314156006221
9.224,1.0,-33.85187075275104
9.232,1.0,-34.070555057833744
9.24,1.0,-34.28919408277741
9.248000000000001,1.0,-34.50778743619145
9.256,0.9999999999999998,-34.72633472783529
9.264,1.0,-34.94483556862595
9.272,1.0,-35.16328957064541
9.280000000000001,1.0000000000000002,-35.38169634714806
9.288,1.0,-35.60005551256797
9.296,1.0,-35.8183666825264
9.304,1.0,-36.03662947383894
9.312000000000001,1.0,-36.25484350452257
9.32,0.9999999999999999,-36.47300839380287
9.328,1.0,-36.69112376212131
9.336,1.0,-36.90918923114204
9.344,1.0,-37.12720442375875
9.352,1.0,-37.345168964101994
9.36,0.9999999999999999,-37.563082477545485
9.368,1.0,-37.78094459071345
9.376,1.0,-37.99875493148686
9.384,1.0,-38.21651312901053
9.392,1.0,-38.434218813699324
9.4,1.0,-38.651871617245156
9.408,0.9999999999999998,-38.86947117262302
9.416,1.0,-39.0870171140979
9.424,1.0,-39.304509077230676
9.432,1.0,-39.52194669888492
9.44,1.0,-39.7393296172327
9.448,1.0,-39.956657471761204
9.456,1.0,-40.17392990327851
9.464,0.9999999999999999,-40.39114655391999
9.472,1.0,-40.608307067154016
9.48,1.0,-40.82541108778829
9.488,0.9999999999999999,-41.04245826197534
9.496,1.0000000000000002,-41.25944823721877
9.504,1.0,-41.4763806623786
9.512,0.9999999999999999,-41.69325518767751
9.52,0.9999999999999999,-41.91007146470593
9.528,0.9999999999999999,-42.126829146428136
9.536,0.9999999999999999,-42.343527887187406
9.544,1.0000000000000002,-42.560167342711864
9.552,1.0,-42.77674717011949
9.56,0.9999999999999999,-42.99326702792384
9.568,1.0,-43.20972657603903
9.576,0.9999999999999999,-43.42612547578531
9.584,1.0,-43.64246338989385
9.592,1.0,-43.858739982512205
9.6,1.0,-44.07495491920903
9.608,0.9999999999999999,-44.29110786697941
9.616,1.0,-44.507198494249444
9.624,1.0,-44.723226470881414
9.632,1.0,-44.93919146817829
9.64,1.0,-45.15509315888878
9.648,1.0,-45.37093121721169
9.656,1.0,-45.58670531880084
9.664,1.0,-45.80241514076931
9.672,1.0,-46.018060361694225
9.68,1.0,-46.23364066162092
9.688,0.9999999999999999,-46.44915572206757
9.696,1.0,-46.664605226029224
9.704,1.0,-46.8799888579823
9.712,1.0,-47.09530630388848
9.72,1.0,-47.310557251199185
9.728,1.0,-47.52574138885922
9.736,1.0,-47.74085840731117
9.744,1.0,-47.955907998499
9.752,1.0,-48.17088985587218
9.76,0.9999999999999999,-48.38580367438922
9.768,1.0,-48.6006491505218
9.776,0.9999999999999999,-48.81542598225793
9.784,1.0,-49.030133869106145
9.792,0.9999999999999999,-49.24477251209856
9.8,1.0,-49.45934161379475
9.808,1.0,-49.6738408782849
9.816,1.0,-49.88827001119337
9.824,0.9999999999999999,-50.10262871968188
9.832,1.0,-50.31691671245293
9.84,1.0,-50.53113369975267
9.847999999999999,1.0,-50.745279393374396
9.856,1.0,-50.95935350666145
9.864,1.0,-51.173355754510105
9.872,1.0,-51.38728585337262
9.879999999999999,1.0,-51.601143521260234
9.888,1.0,-51.81492847774582
9.896,1.0,-52.02864044396668
9.904,1.0,-52.24227914262717
