freq,mag,phase
6.0,0.9999959882986471,-22.398789200942318
6.008,0.9999974727579276,-22.715147676248503
6.016,0.9999988864758349,-23.03160744212647
6.024,0.9999999999999999,-23.348168032936726
6.032,1.0,-23.66482898157489
6.04,1.0,-23.981589819478565
6.048,0.9999999999999999,-24.29845007663436
6.056,1.0,-24.61540928158504
6.064,1.0,-24.93246696143675
6.072,0.9999999999999999,-25.24962264186643
6.08,1.0,-25.566875847129353
6.088,1.0,-25.88422610006666
6.096,1.0,-26.20167292211326
6.104,1.0,-26.519215833305605
6.112,1.0,-26.8368543522897
6.12,1.0,-27.154587996329308
6.128,0.9999999999999999,-27.472416281314153
6.136,1.0,-27.790338721768265
6.144,0.9999999999999999,-28.108354830858527
6.152,1.0,-28.426464120403246
6.16,1.0,-28.744666100880988
6.168,1.0,-29.062960281439285
6.176,0.9999999999999999,-29.38134616990379
6.184,1.0,-29.69982327278719
6.192,1.0,-30.01839109529861
6.2,1.0,-30.33704914135284
6.208,1.0000000000000002,-30.655796913579856
6.216,0.9999999999999999,-30.97463391333433
6.224,1.0,-31.293559640705414
6.232,1.0,-31.61257359452646
6.24,1.0,-31.93167527238509
6.248,1.0,-32.25086417063306
6.256,0.9999999999999999,-32.5701397843966
6.264,1.0,-32.88950160758659
6.272,1.0,-33.208949132909034
6.28,1.0,-33.52848185187546
6.288,1.0,-33.84809925481367
6.296,0.9999999999999998,-34.16780083087843
6.304,0.9999999999999999,-34.487586068062264
6.312,1.0,-34.80745445320656
6.32,1.0,-35.1274054720125
6.328,1.0,-35.44743860905235
6.336,1.0,-35.76755334778072
6.344,1.0,-36.08774917054594
6.352,1.0000000000000002,-36.408025558601686
6.36,1.0,-36.72838199211853
6.368,1.0,-37.048817950195634
6.376,1.0,-37.36933291087271
6.384,1.0,-37.68992635114191
6.392,1.0,-38.01059774695983
6.4,1.0000000000000002,-38.331346573259815
6.408,1.0,-38.65217230396407
6.416,0.9999999999999999,-38.97307441199611
6.424,0.9999999999999999,-39.29405236929328
6.432,0.9999999999999999,-39.6151056468192
6.44,1.0,-39.93623371457662
6.448,0.9999999999999999,-40.25743604161999
6.456,1.0,-40.578712096068536
6.464,1.0,-40.90006134511913
6.472,1.0,-41.22148325505937
6.48,1.0,-41.54297729128081
6.4879999999999995,1.0,-41.86454291829215
6.496,1.0,-42.18617959973278
6.504,0.9999999999999999,-42.50788679838586
6.5120000000000005,0.9999999999999999,-42.82966397619246
6.52,0.9999999999999999,-43.15151059426456
6.5280000000000005,0.9999997755099724,-43.47342611289938
6.536,0.999999107598088,-43.79540999159272
6.5440000000000005,0.999998435605712,-44.11746168905335
6.552,0.9999977600839113,-44.439580663216496
6.5600000000000005,0.9999970815720256,-44.76176637125855
6.568,0.9999964005977631,-45.084018269610645
6.5760000000000005,0.9999957176772968,-45.40633581397351
6.584,0.9999950333153605,-45.72871845933125
6.592,0.9999943480053468,-46.051165659966365
6.6,0.9999936622294029,-46.37367686947389
6.608,0.999992976458528,-46.69625154077614
6.616,0.9999922911526721,-47.018889126137395
6.624,0.9999916067608331,-47.34158907717871
6.632,0.9999909237211557,-47.66435084489273
6.64,0.9999902424610291,-47.987173879658634
6.648,0.9999895633971865,-48.31005763125715
6.656,0.9999888869358041,-48.633001548885694
6.664,0.9999882134725998,-48.95600508117343
6.672,0.9999875433929335,-49.279067676196604
6.68,0.9999868770719064,-49.60218878149385
6.688,0.9999862148744606,-49.92536784408151
6.696,0.9999855571554797,-50.248604310469155
6.704,0.999984904259889,-50.5718976266751
6.712,0.9999842565227557,-50.895247238242014
6.72,0.9999836142693893,-51.21865259025253
6.728,0.9999829778154434,-51.542113127345
6.736,0.9999823474670148,-51.86562829372935
6.744,0.9999817235207464,-52.18919753320289
6.752,0.9999811062639269,-52.51282028916625
6.76,0.9999804959745924,-52.836496004639336
6.768,0.9999798929216279,-53.16022412227743
6.776,0.9999792973648686,-53.48400408438727
6.784,0.9999787095552015,-53.807835332943256
6.792,0.9999781297346657,-54.13171730960363
6.8,0.999977558136556,-54.45564945572673
6.808,0.9999769949855218,-54.77963121238744
6.816,0.9999764404976719,-55.10366202039347
6.824,0.9999758948806732,-55.42774132030185
6.832,0.9999753583338535,-55.75186855243542
6.84,0.999974831048304,-56.07604315689938
6.848,0.9999743132069779,-56.40026457359784
6.856,0.9999738049847959,-56.72453224225056
6.864,0.9999733065487448,-57.048845602409536
6.872,0.9999728180579793,-57.373204093475756
6.88,0.9999723396639246,-57.6976071547161
6.888,0.9999718715103767,-58.022054225279945
6.896,0.9999714137336033,-58.3465447442162
6.904,0.999970966462446,-58.67107815049016
6.912,0.9999705298184203,-58.99565388300044
6.92,0.9999701039158168,-59.320271380595955
6.928,0.9999696888618019,-59.64493008209295
6.936,0.9999692847565192,-59.96962942629203
6.944,0.9999688916931881,-60.29436885199526
6.952,0.9999685097582062,-60.61914779802331
6.96,0.999968139031247,-60.94396570323255
6.968,0.9999677795853634,-61.268822006532304
6.976,0.999967431487083,-61.59371614690197
6.984,0.9999670947965112,-61.918647563408335
6.992,0.9999667695674294,-62.24361569522278
7.0,0.9999664558473929,-62.56861998163865
7.008,0.9999661536778316,-62.89365986208844
7.016,0.9999658630941477,-63.21873477616125
7.024,0.9999655841258143,-63.54384416362006
7.032,0.9999653167964732,-63.86898746441916
7.04,0.9999650611240334,-64.19416411872152
7.048,0.9999648171207679,-64.51937356691619
7.056,0.9999645847934113,-64.8446152496357
7.064,0.9999643641432573,-65.16988860777357
7.072,0.9999641551662544,-65.49519308250176
7.08,0.9999639578531025,-65.82052811528798
7.088,0.9999637721893504,-66.14589314791345
7.096,0.9999635981554886,-66.47128762249008
7.104,0.9999634357270472,-66.79671098147818
7.112,0.9999632848746898,-67.12216266770385
7.12,0.9999631455643082,-67.44764212437653
7.128,0.9999630177571162,-67.77314879510648
7.136,0.9999629014097454,-68.0986821239223
7.144,0.999962796474335,-68.42424155528843
7.152,0.9999627028986284,-68.7498265341227
7.16,0.9999626206260648,-69.0754365058138
7.168,0.99996254959587,-69.40107091623877
7.176,0.9999624897431507,-69.72672921178055
7.184,0.999962440998983,-70.05241083934544
7.192,0.9999624032905055,-70.3781152463806
7.2,0.9999623765410092,-70.70384188089156
7.208,0.9999623606700269,-71.02959019145962
7.216,0.9999623555934241,-71.35535962725942
7.224,0.9999623612234865,-71.68114963807622
7.232,0.9999623774690092,-72.00695967432353
7.24,0.9999624042353854,-72.3327891870604
7.248,0.999962441424693,-72.65863762800882
7.256,0.9999624889357821,-72.98450444957125
7.264,0.9999625466643619,-73.31038910484777
7.272,0.999962614503086,-73.6362910476536
7.28,0.9999626923416386,-73.96220973253637
7.288,0.9999627800668196,-74.28814461479344
7.296,0.9999628775626281,-74.61409515048908
7.304,0.9999629847103464,-74.94006079647185
7.312,0.9999631013886249,-75.26604101039182
7.32,0.9999632274735628,-75.59203525071769
7.328,0.9999633628387915,-75.91804297675401
7.336,0.9999635073555554,-76.24406364865831
7.344,0.9999636608927942,-76.57009672745822
7.352,0.9999638233172218,-76.89614167506853
7.36,0.9999639944934073,-77.22219795430826
7.368,0.9999641742838532,-77.54826502891765
7.376,0.9999643625490747,-77.87434236357505
7.384,0.9999645591476783,-78.20042942391402
7.392,0.9999647639364369,-78.52652567654009
7.4,0.9999649767703694,-78.85263058904766
7.4079999999999995,0.9999651975028149,-79.17874363003678
7.416,0.9999654259855084,-79.50486426913001
7.4239999999999995,0.9999656620686569,-79.83099197698893
7.432,0.9999659056010111,-80.15712622533118
7.4399999999999995,0.9999661564299418,-80.48326648694659
7.448,0.9999664144015102,-80.80941223571436
7.4559999999999995,0.9999666793605424,-81.13556294661898
7.464,0.9999669511506988,-81.46171809576728
7.4719999999999995,0.9999672296145456,-81.78787716040435
7.48,0.9999675145936263,-82.11403961893045
7.4879999999999995,0.9999678059285295,-82.44020495091674
7.496,0.999968103458958,-82.76637263712217
7.504,0.9999684070237972,-83.09254215950916
7.5120000000000005,0.9999687164611832,-83.41871300126022
7.52,0.9999690316085673,-83.74488464679354
7.5280000000000005,0.9999693523027843,-84.07105658177963
7.536,0.9999696783801166,-84.39722829315673
7.5440000000000005,0.9999700096763589,-84.72339926914722
7.552,0.9999703460268816,-85.04956899927295
7.5600000000000005,0.9999706872666955,-85.3757369743717
7.568,0.9999710332305113,-85.70190268661219
7.5760000000000005,0.9999713837528049,-86.02806562951034
7.584,0.999971738667875,-86.3542252979444
7.5920000000000005,0.9999720978099056,-86.68038118817093
7.6,0.9999724610130232,-87.00653279783972
7.6080000000000005,0.9999728281113583,-87.3326796260098
7.616,0.9999731989391006,-87.65882117316413
7.6240000000000006,0.9999735733305586,-87.98495694122539
7.632,0.9999739511202135,-88.31108643357065
7.640000000000001,0.9999743321427776,-88.637209155047
7.648,0.9999747162332473,-88.96332461198598
7.656000000000001,0.9999751032269579,-89.28943231221915
7.664,0.9999754929596371,-89.6155317650923
7.672,0.9999758852674583,-89.94162248148086
7.68,0.9999762799870906,-90.26770397380416
7.688,0.9999766769557521,-90.59377575604026
7.696,0.9999770760112593,-90.91983734374043
7.704,0.9999774769920762,-91.24588825404369
7.712,0.9999778797373645,-91.57192800569108
7.72,0.9999782840870304,-91.89795611904003
7.728,0.9999786898817724,-92.22397211607861
7.736,0.999979096963128,-92.54997552043955
7.744,0.9999795051735193,-92.87596585741431
7.752,0.9999799143562978,-93.20194265396711
7.76,0.9999803243557887,-93.5279054387487
7.768,0.9999807350173348,-93.85385374211019
7.776,0.9999811461873381,-94.17978709611673
7.784,0.999981557713303,-94.50570503456102
7.792,0.9999819694438767,-94.83160709297691
7.8,0.9999823812288896,-95.15749280865282
7.808,0.9999827929193937,-95.48336172064492
7.816,0.9999832043677044,-95.80921336979051
7.824,0.999983615427435,-96.13504729872102
7.832,0.9999840259535365,-96.46086305187514
7.84,0.999984435802333,-96.78666017551164
7.848,0.9999848448315571,-97.11243821772233
7.856,0.9999852529003854,-97.43819672844467
7.864,0.9999856598694727,-97.76393525947452
7.872,0.999986065600984,-98.08965336447862
7.88,0.99998646995863,-98.415350599007
7.888,0.9999868728076953,-98.74102652050541
7.896,0.9999872740150725,-99.06668068832748
7.904,0.9999876734492904,-99.39231266374682
7.912,0.9999880709805447,-99.71792200996919
7.92,0.9999884664807265,-100.04350829214428
7.928,0.9999888598234498,-100.36907107737763
7.936,0.9999892508840798,-100.69460993474223
7.944,0.9999896395397583,-101.02012443529034
7.952,0.9999900256694293,-101.34561415206475
7.96,0.9999904091538653,-101.67107866011037
7.968,0.9999907898756905,-101.99651753648541
7.976,0.999991167719404,-102.32193036027265
7.984,0.9999915425714035,-102.64731671259038
7.992,0.9999919143200066,-102.97267617660358
8.0,0.9999922828554714,-103.29800833753457
8.008,0.999992648070019,-103.62331278267384
8.016,0.9999930098578509,-103.94858910139081
8.024000000000001,0.9999933681151697,-104.2738368851441
8.032,0.9999937227401963,-104.59905572749207
8.04,0.9999940736331882,-104.92424522410329
8.048,0.9999944206964559,-105.24940497276656
8.056000000000001,0.9999947638343791,-105.57453457340087
8.064,0.9999951029534224,-105.89963362806552
8.072,0.9999954379621491,-106.22470174097012
8.08,0.9999957687712359,-106.54973851848415
8.088000000000001,0.9999960952934864,-106.87474356914643
8.096,0.9999964174438429,-107.19971650367488
8.104,0.9999967351393978,-107.52465693497591
8.112,0.9999970482994069,-107.84956447815365
8.120000000000001,0.9999973568452979,-108.17443875051896
8.128,0.9999976607006796,-108.49927937159859
8.136,0.999997959791354,-108.82408596314428
8.144,0.9999982540453207,-109.14885814914145
8.152000000000001,0.9999985433927886,-109.4735955558177
8.16,0.9999988277661794,-109.79829781165155
8.168,0.9999991071001368,-110.1229645473811
8.176,0.9999993813315302,-110.44759539601219
8.184000000000001,0.9999996503994608,-110.77218999282645
8.192,0.9999999142452659,-111.0967479753896
8.2,0.9999999999999999,-111.4212689835596
8.208,1.0,-111.74575265949436
8.216000000000001,1.0,-112.07019864765925
8.224,0.9999999999999999,-112.39460659483508
8.232,1.0,-112.7189761501256
8.24,1.0,-113.0433069649648
8.248000000000001,1.0,-113.36759869312404
8.256,1.0,-113.69185099071936
8.264,1.0,-114.01606351621868
8.272,0.9999999999999999,-114.3402359304485
8.280000000000001,0.9999999999999999,-114.66436789660061
8.288,1.0,-114.988459080239
8.296,1.0,-115.31250914930628
8.304,1.0,-115.63651777413034
8.312,1.0,-115.96048462743015
8.32,0.9999999999999999,-116.28440938432263
8.328,0.9999999999999999,-116.60829172232812
8.336,1.0,-116.93213132137681
8.344,1.0,-117.25592786381418
8.352,0.9999999999999999,-117.57968103440714
8.36,0.9999999999999999,-117.90339052034912
8.368,0.9999999999999998,-118.22705601126604
8.376,0.9999999999999999,-118.55067719922133
8.384,1.0,-118.87425377872134
8.392,1.0,-119.19778544672023
8.4,0.9999999999999999,-119.52127190262547
8.408,1.0,-119.84471284830192
8.416,1.0,-120.16810798807748
8.424,1.0,-120.49145702874692
8.432,1.0,-120.81475967957701
8.44,0.9999999999999999,-121.1380156523105
8.448,1.0,-121.46122466117073
8.456,0.9999999999999999,-121.78438642286541
8.464,1.0,-122.10750065659109
8.472,1.0,-122.43056708403664
8.48,1.0,-122.75358542938753
8.488,1.0,-123.07655541932895
8.496,0.9999999999999999,-123.39947678305002
8.504,1.0,-123.72234925224657
8.512,1.0,-124.04517256112507
8.52,0.9999999999999999,-124.36794644640534
8.528,1.0,-124.6906706473241
8.536,1.0,-125.0133449056375
8.544,1.0,-125.33596896562439
8.552,1.0,-125.6585425740887
8.56,1.0000000000000002,-125.98106548036242
8.568,1.0,-126.30353743630772
8.576,1.0,-126.62595819631987
8.584,1.0,-126.9483275173288
8.592,1.0,-127.27064515880217
8.6,0.9999999999999999,-127.59291088274642
8.608,0.9999999999999999,-127.91512445370962
8.616,0.9999999999999999,-128.23728563878262
8.624,1.0,-128.55939420760123
8.632,0.9999999999999999,-128.8814499323474
8.64,1.0,-129.20345258775114
8.648,0.9999999999999999,-129.52540195109145
8.656,1.0,-129.847297802198
8.664,1.0,-130.16913992345187
8.672,0.9999999999999999,-130.49092809978697
8.68,0.9999999999999999,-130.8126621186906
8.688,1.0,-131.13434177020463
8.696,1.0,-131.45596684692583
8.704,1.0,-131.77753714400683
8.712,1.0,-132.0990524591562
8.72,1.0,-132.42051259263937
8.728,0.9999999999999998,-132.74191734727822
8.736,0.9999999999999999,-133.0632665284519
8.744,0.9999999999999999,-133.38455994409628
8.752,1.0,-133.7057974047046
8.76,1.0,-134.02697872332652
8.768,0.9999999999999999,-134.34810371556853
8.776,1.0,-134.66917219959296
8.784,1.0,-134.99018399611825
8.792,1.0,-135.31113892841756
8.8,0.9999999999999999,-135.6320368223188
8.808,1.0,-135.95287750620324
8.815999999999999,1.0,-136.2736608110051
8.824,1.0,-136.59438657021036
8.832,1.0,-136.91505461985554
8.84,1.0,-137.23566479852664
8.847999999999999,0.9999999999999999,-137.5562169473579
8.856,1.0,-137.87671091003045
8.864,1.0,-138.1971465327705
8.872,0.9999999999999999,-138.5175236643479
8.879999999999999,0.9999999999999999,-138.8378421560748
8.888,1.0,-139.15810186180337
8.896,1.0,-139.47830263792417
8.904,0.9999999999999999,-139.7984443433639
8.911999999999999,1.0,-140.11852683958386
8.92,1.0,-140.4385499905773
8.928,1.0,-140.75851366286724
8.936,1.0,-141.07841772550412
8.943999999999999,1.0,-141.39826205006358
8.952,1.0,-141.7180465106437
8.96,1.0,-142.0377709838623
8.968,0.9999998279953535,-142.3574353488542
8.975999999999999,0.999999628411862,-142.6770394872688
8.984,0.9999994273123783,-142.9965832832667
8.992,0.9999992247972338,-143.3160666235168
9.0,0.9999990209671228,-143.63548939719342
9.008,0.9999988159230719,-143.9548514959729
9.016,0.9999986097664113,-144.27415281403054
9.024000000000001,0.9999984025987435,-144.5933932480371
9.032,0.9999981945219144,-144.91257269715524
9.04,0.9999979856379841,-145.23169106303638
9.048,0.9999977760491955,-145.55074824981688
9.056000000000001,0.9999975658579451,-145.86974416411425
9.064,0.9999973551667546,-146.1886787150234
9.072,0.9999971440782397,-146.50755181411307
9.08,0.9999969326950815,-146.8263633754217
9.088000000000001,0.9999967211199959,-147.14511331545322
9.096,0.9999965094557053,-147.46380155317317
9.104,0.999996297804909,-147.78242801000462
9.112,0.9999960862702533,-148.10099260982386
9.120000000000001,0.9999958749543029,-148.41949527895582
9.128,0.9999956639595113,-148.73793594616976
9.136,0.9999954533881923,-149.05631454267515
9.144,0.9999952433424907,-149.37463100211667
9.152000000000001,0.9999950339243542,-149.69288526056974
9.16,0.9999948252355031,-150.01107725653569
9.168,0.9999946173774037,-150.32920693093726
9.176,0.9999944104512387,-150.6472742271135
9.184000000000001,0.999994204557879,-150.9652790908149
9.192,0.999993999797856,-151.2832214701982
9.2,0.9999937962713332,-151.6011013158218
9.208,0.9999935940780782,-151.91891858064028
9.216000000000001,0.9999933933174351,-152.23667321999906
9.224,0.999993194088297,-152.5543651916293
9.232,0.9999929964890794,-152.87199445564272
9.24,0.9999928006176909,-153.18956097452602
9.248000000000001,0.9999926065715082,-153.5070647131352
9.256,0.9999924144473482,-153.82450563869025
9.264,0.9999922243414415,-154.1418837207696
9.272,0.9999920363494056,-154.45919893130443
9.280000000000001,0.9999918505662194,-154.77645124457254
9.288,0.9999916670861961,-155.09364063719303
9.296,0.9999914860029578,-155.41076708812028
9.304,0.9999913074094098,-155.7278305786381
9.312000000000001,0.9999911313977151,-156.0448310923535
9.32,0.9999909580592685,-156.36176861519073
9.328,0.9999907874846727,-156.67864313538553
9.336,0.9999906197637125,-156.9954546434786
9.344,0.9999904549853303,-157.31220313230938
9.352,0.9999902932376021,-157.62888859701005
9.36,0.9999901346077135,-157.94551103499884
9.368,0.9999899791819347,-158.26207044597413
9.376,0.9999898270455982,-158.57856683190747
9.384,0.9999896782830747,-158.8950001970376
9.392,0.9999895329777501,-159.2113705478634
9.4,0.9999893912120028,-159.5276778931379
9.408,0.9999892530671805,-159.84392224386102
9.416,0.9999891186235781,-160.16010361327338
9.424,0.9999889879604161,-160.47622201684916
9.432,0.9999888611558186,-160.79227747228975
9.44,0.9999887382867916,-161.10826999951638
9.448,0.9999886194292013,-161.42419962066376
9.456,0.9999885046577531,-161.74006636007272
9.464,0.9999883940459733,-162.05587024428357
9.472,0.9999882876661847,-162.37161130202884
9.48,0.9999881855894904,-162.68728956422643
9.488,0.9999880878857508,-163.0029050639722
9.496,0.9999879946235668,-163.3184578365332
9.504,0.9999879058702585,-163.6339479193401
9.512,0.9999878216918482,-163.94937535198036
9.52,0.9999877421530398,-164.26474017619051
9.528,0.9999876673172027,-164.5800424358493
9.536,0.999987597246352,-164.89528217696989
9.544,0.9999875320011317,-165.21045944769295
9.552,0.999987471640799,-165.52557429827877
9.56,0.9999874162232041,-165.84062678110018
9.568,0.9999873658047759,-166.15561695063468
9.576,0.9999873204405053,-166.4705448634574
9.584,0.9999872801839288,-166.785410578233
9.592,0.9999872450871138,-167.10021415570858
9.6,0.9999872152006422,-167.41495565870548
9.608,0.9999871905735962,-167.72963515211234
9.616,0.9999871712535433,-168.04425270287655
9.624,0.9999871572865229,-168.35880837999747
9.632,0.9999871487170312,-168.67330225451775
9.64,0.9999871455880088,-168.98773439951637
9.648,0.9999871479408271,-169.30210489010017
9.656,0.999987155815275,-169.6164138033965
9.664,0.9999871692495473,-169.93066121854503
9.672,0.9999871882802319,-170.24484721669012
9.68,0.9999872129422992,-170.55897188097262
9.688,0.999987243269089,-170.87303529652232
9.696,0.999987279292301,-171.18703755044945
9.704,0.9999873210419838,-171.50097873183736
9.712,0.999987368546524,-171.81485893173388
9.72,0.9999874218326374,-172.12867824314378
9.728,0.9999874809253587,-172.44243676102036
9.736,0.9999875458480326,-172.75613458225774
9.744,0.9999876166223051,-173.06977180568234
9.752,0.9999876932681151,-173.3833485320453
9.76,0.9999877758036868,-173.69686486401372
9.768,0.999987864245521,-174.01032090616323
9.776,0.9999879586083902,-174.32371676496922
9.784,0.9999880589053278,-174.6370525487991
9.792,0.9999881651476262,-174.9503283679037
9.8,0.9999882773448274,-175.26354433440963
