freq,mag,phase
6.0,1.0003997312119293,100.26919888067614
6.002285568,1.0005426633778187,100.12732504637881
6.004571648,1.0006511267619735,99.98370402330939
6.006857216,1.0007190279596283,99.83882856689674
6.009142784,1.0007420399656062,99.69330167614986
6.011428352,1.0007186139033086,99.54782115697392
6.013714432,1.0006502188719162,99.40306360234513
6.016,1.000541270713728,99.25961760689239
6.018285568,1.000398372055955,99.11803046196373
6.020571648,1.0002308478114845,98.97871522141425
6.022857216,1.000049140824519,98.84201632729929
6.025142784,0.9998648299754817,98.70798470008074
6.027428352,0.999689622085195,98.57661265936115
6.029714432,0.9995347194278382,98.44770097188572
6.032,0.9994098294142142,98.32083304841682
6.034285568,0.9993229962677237,98.19557826151127
6.036571648,0.9992798903145106,98.07132491443586
6.038857216,0.9992831446158005,97.94736376463412
6.041142784,0.9993326515583434,97.82307821274956
6.043428352,0.9994252272755331,97.69778238526338
6.045714432,0.9995550462312573,97.57092653109737
6.048,0.9997139445992739,97.44200166509358
6.050285568,0.9998917627062538,97.31063965443924
6.052571648,1.0000772549746393,97.17668191542974
6.054857216,1.0002586177881005,97.04008003800742
6.057142784,1.0004243002747941,96.90100526792901
6.059428352,1.0005639155062436,96.75976049468329
6.061714432,1.0006683693163705,96.61674107102695
6.064,1.0007312334613405,96.47253473570319
6.066285568,1.0007483059538205,96.32781276651495
6.068571648,1.0007186389732468,96.18318889454397
6.070857216,1.000643978498996,96.03933397919556
6.073142784,1.0005289678743126,95.89693155243897
6.075428352,1.0003809233566643,95.75645073174464
6.077714432,1.0002092663034121,95.61831196401816
6.08,1.0000249539743622,95.48282643359707
6.082285568,0.9998394943393972,95.35005432134258
6.084571648,0.9996646081366066,95.21993493327014
6.086857216,0.9995116760048667,95.09222291322395
6.089142784,0.9993903421534305,94.96656935296497
6.091428352,0.9993082723838432,94.84242527268987
6.093714432,0.9992708030834835,94.7191870135941
6.096,0.9992802492571853,94.59620715324093
6.098285568,0.9993362434017456,94.47277296826184
6.100571648,0.9994350413541074,94.34824823565606
6.102857216,0.9995704582984881,94.22206561004657
6.105142784,0.9997340187744542,94.09371038686217
6.107428352,0.9999152173753745,93.96289124670577
6.109714432,1.0001025447961445,93.82943009201557
6.112,1.000284178076582,93.69330968703979
6.114285568,1.0004485313820013,93.55471578997309
6.116571648,1.0005852553463364,93.4139495227957
6.118857216,1.0006854068952367,93.27150573208935
6.121142784,1.0007429336049032,93.1279250954852
6.123428352,1.0007538898511208,92.98386737684463
6.125714432,1.0007176689522261,92.8400523805237
6.128,1.0006366224399956,92.69710675196582
6.130285568,1.0005156676474098,92.55564796518526
6.132571648,1.0003624901057033,92.4162312385467
6.134857216,1.0001868595212076,92.27920151322667
6.137142784,0.9999997728497708,92.14486235232191
6.139428352,0.9998133878091785,92.0132519697503
6.141714432,0.9996390892625356,91.88431492073951
6.144,0.9994884005788677,91.7577858651299
6.146285568,0.9993707760714844,91.6332265616038
6.148571648,0.9992936763177435,91.51012073793774
6.150857216,0.9992620962292984,91.38785513791107
6.153142784,0.9992779918446185,91.26573523336968
6.155428352,0.99934056762405,91.1430826525313
6.157714432,0.9994456097470447,91.01920657745862
6.16,0.999586679383679,90.89360919449554
6.162285568,0.999754789277085,90.76576735699231
6.164571648,0.9999392982447421,90.63540027198594
6.166857216,1.0001283212475822,90.50232917719545
6.169142784,1.0003100380163046,90.3666247168095
6.171428352,1.0004728664421647,90.22841501038047
6.173714432,1.0006064080264878,90.08808458119093
6.176,1.00070210823662,89.94612685357271
6.178285568,1.0007540660597933,89.80311395510725
6.180571648,1.000758775064487,89.65970377450455
6.182857216,1.000716063138988,89.5165971691259
6.185142784,1.0006283842091228,89.3744527217428
6.187428352,1.000501422094737,89.23390036364201
6.189714432,1.0003431679144081,89.09546272174771
6.192,1.0001636722007137,88.9594813808055
6.194285568,0.9999742061041185,88.82624448491497
6.196571648,0.9997868964139326,88.6957406320166
6.198857216,0.9996137180244135,88.56792234409367
6.201142784,0.999465430536729,88.4424489670004
6.203428352,0.9993518185771902,88.31890616160587
6.205714432,0.999279867020638,88.19678322624469
6.208,0.9992543662725349,88.0753816676564
6.210285568,0.9992769032802008,87.95405062948079
6.212571648,0.9993460450591664,87.83207363154688
6.214857216,0.9994575581034717,87.70879852948336
6.217142784,0.9996042396511954,87.58368946456122
6.219428352,0.9997768303108809,87.45627717988606
6.221714432,0.9999643851815628,87.32627572510206
6.224,1.0001549954709208,87.19353504079022
6.226285568,1.0003365411947125,87.05810307168149
6.228571648,1.000497415295821,86.92023665125753
6.230857216,1.000627571299581,86.78026071676628
6.233142784,1.000718564374149,86.63868690344222
6.235428352,1.000764698488599,86.49616234428473
6.237714432,1.0007629104171845,86.35333234128896
6.24,1.0007133709299267,86.2108897255518
6.242285568,1.0006191811043272,86.06952313199413
6.244571648,1.000486213672262,85.92980860863698
6.246857216,1.0003228800355766,85.79227438371124
6.249142784,1.0001395480888222,85.65731102989028
6.251428352,0.9999478744519719,85.52507223934555
6.253714432,0.9997599592638533,85.39564457969803
6.256,0.9995877816322359,85.2688273887594
6.258285568,0.9994423897836471,85.14439326863766
6.260571648,0.999332869774769,85.0218235013031
6.262857216,0.9992664023194163,84.90057294934059
6.265142784,0.9992472057087438,84.77998274277003
6.267428352,0.9992764560244496,84.6593394917575
6.269714432,0.9993524990623777,84.53793192533917
6.272,0.9994703671003963,84.41519267195746
6.274285568,0.9996226013108739,84.29045099713626
6.276571648,0.9997995805304131,84.16339804238568
6.278857216,0.9999901639197328,84.03366309854808
6.281142784,1.0001820164859843,83.90115990562536
6.283428352,1.0003631707516696,83.76596016826456
6.285714432,1.00052202034429,83.62834114661521
6.288,1.0006486280915685,83.48864832524634
6.290285568,1.0007345516530408,83.34743234056492
6.292571648,1.0007747036807702,83.20531219293679
6.294857216,1.0007663076270468,83.06298054451771
6.297142784,1.0007099180839,82.921142567581
6.299428352,1.0006090106241758,82.78048562614262
6.301714432,1.0004700553718933,82.64154492359637
6.304,1.000301711812466,82.50488832743822
6.306285568,1.0001147430512947,82.37084471656232
6.308571648,0.9999209864585036,82.23958064464422
6.310857216,0.999732673931736,82.11112254762034
6.313142784,0.9995618896500087,81.98529500052055
6.315428352,0.9994194411569057,81.86177787362045
6.317714432,0.9993145356362654,81.74010056932872
6.32,0.9992536947088969,81.61967467298669
6.322285568,0.999240933672618,81.49977732358252
6.324571648,0.999277030666887,81.37974385833837
6.326857216,0.9993598735957561,81.25885521028833
6.329142784,0.9994840962419576,81.1364965211622
6.331428352,0.9996418554504812,81.01210802272524
6.333714432,0.9998231879748639,80.8852690340767
6.336,1.0000165979419684,80.75571507713381
6.338285568,1.000209565999518,80.6233805120663
6.340571648,1.0003902499889212,80.48836037900764
6.342857216,1.0005466346424337,80.35087991837209
6.345142784,1.0006693570224592,80.21141058723072
6.347428352,1.0007501049267546,80.07048464210645
6.349714432,1.0007840457316324,79.92870778274099
6.352,1.0007688159568817,79.78684606157148
6.354285568,1.0007054545321594,79.64554324731826
6.356571648,1.0005978772986348,79.50551297127099
6.358857216,1.000452898819479,79.36732700568659
6.361142784,1.000279646948112,79.23149405339653
6.363428352,1.0000891096635078,79.09827615456506
6.365714432,0.999893477233737,78.96791649989497
6.368,0.9997050474799805,78.84039504747147
6.370285568,0.9995359049176643,78.71548296743833
6.372571648,0.9993967417827064,78.5928290213594
6.374857216,0.9992964102450258,78.47193635257686
6.377142784,0.9992414626410505,78.35221133943357
6.379428352,0.9992354236465878,78.23294903947338
6.381714432,0.999278554458169,78.11346736501663
6.384,0.9993683433090844,77.99300490420309
6.386285568,0.9994990264283637,77.87098171910404
6.388571648,0.9996621880350338,77.74681477567634
6.390857216,0.9998476793173258,77.6201394261253
6.393142784,1.0000437468356185,77.49070168513346
6.395428352,1.0002377080291749,77.35844448670616
6.397714432,1.0004173241910965,77.22347411158425
6.4,1.0005713414466846,77.08611482035559
6.402285568,1.0006897969501405,76.94677630702387
6.404571648,1.000765074198603,76.8060652805235
6.406857216,1.0007925629500112,76.66458714444285
6.409142784,1.0007704479569264,76.52310077342511
6.411428352,1.000699918124308,76.38230388939972
6.413714432,1.0005856468969752,76.24284121834144
6.416,1.0004346651890412,76.10534379647088
6.418285568,1.0002565806717783,75.97024114538394
6.420571648,1.0000627598547611,75.83784723141197
6.422857216,0.9998653052879541,75.70833457752964
6.425142784,0.9996769789557104,75.58166218807034
6.427428352,0.9995096489155403,75.45758787275086
6.429714432,0.999374035229934,75.33571758725019
6.432,0.9992787209599552,75.21555092160708
6.434285568,0.9992298622376911,75.09647945008707
6.436571648,0.999230614332377,74.97779307795683
6.438857216,0.9992809261008563,74.85873878436196
6.441142784,0.9993775947563461,74.73862604638046
6.443428352,0.9995147668813522,74.61679605899856
6.445714432,0.9996833892179591,74.492822549563
6.448,0.9998729153125947,74.36620247193568
6.450285568,1.000071428546834,74.23677361970527
6.452571648,1.0002660740774614,74.10453840362408
6.454857216,1.0004446330841985,73.96956485401782
6.457142784,1.0005956640221478,73.83222554371396
6.459428352,1.0007097880171938,73.69296960017424
6.461714432,1.000779469366257,73.55239892225286
6.464,1.0008003408669424,73.41117523824627
6.466285568,1.000771080228302,73.26999579511445
6.468571648,1.0006934963579437,73.12963674951855
6.470857216,1.0005724108575533,72.990741623876
6.473142784,1.0004155177867295,72.85382063162143
6.475428352,1.0002327040786705,72.71942954431687
6.477714432,1.0000356991844022,72.58778920047108
6.48,0.9998369002470684,72.45905739898387
6.482285568,0.9996487990335029,72.33315329262865
6.484571648,0.9994836553699278,72.20982357390153
6.486857216,0.9993517568447436,72.08870062700599
6.489142784,0.9992616911288743,71.96921233559183
6.491428352,0.999219163714659,71.85067317011622
6.493714432,0.999226892627411,71.73244583357585
6.496,0.9992845204036437,71.61374738890939
6.498285568,0.9993883435580649,71.49388172997624
6.500571648,0.9995317688691615,71.37225412667603
6.502857216,0.9997056816743942,71.24829406279389
6.505142784,0.9998991859047707,71.12168837168795
6.507428352,1.0000997704775425,70.99223942983538
6.509714432,1.0002950142946967,70.85990161795425
6.512,1.000472137363338,70.72487011513101
6.514285568,1.0006201082012827,70.5874861362844
6.516571648,1.0007294718421202,70.44822954402194
6.518857216,1.000793230881093,70.3077457808867
6.521142784,1.0008073031158777,70.16667836145585
6.523428352,1.0007707286986989,70.02578812507357
6.525714432,1.0006859257206453,69.8857927360164
6.528,1.0005581223288167,69.74734084300303
6.530285568,1.0003953507511718,69.61103746261679
6.532571648,1.0002080050529065,69.47727218976087
6.534857216,1.000007749142575,69.34631636357332
6.537142784,0.9998076706056891,69.21830440853155
6.539428352,0.9996201551799403,69.09312676115917
6.541714432,0.9994574649441463,68.97052108178839
6.544,0.9993296068132531,68.85001286951208
6.546285568,0.9992449871121777,68.73110546499487
6.548571648,0.9992089058203734,68.6130873985803
6.550857216,0.9992239115036464,68.49524542615492
6.553142784,0.9992888681736235,68.37681260175783
6.555428352,0.9993997319516156,68.25711457253689
6.557714432,0.9995494925375784,68.13553761311647
6.56,0.9997287049694,68.01156889581897
6.562285568,0.9999259959062221,67.88489366189661
6.564571648,1.0001286976825334,67.7552727951006
6.566857216,1.0003240772362834,67.62278131121109
6.569142784,1.0004996470511358,67.48761328513821
6.571428352,1.0006442480614741,67.35011548136525
6.573714432,1.0007486918108641,67.21081902603399
6.576,1.0008063194612031,67.07033294534838
6.578285568,1.0008134423554802,66.92941479165411
6.580571648,1.0007695670526038,66.78875662972577
6.582857216,1.0006773902532526,66.64905040926786
6.585142784,1.000542726480615,66.51102595072348
6.587428352,1.000374182042643,66.37521435874535
6.589714432,1.0001822976835202,66.24203345846175
6.592,0.9999792775018586,66.11171784569449
6.594285568,0.9997780777961387,65.98436632567646
6.596571648,0.9995914854430973,65.85982952109576
6.598857216,0.99943135256932,65.73786245804676
6.601142784,0.9993078356494176,65.61795707991195
6.603428352,0.9992288803776386,65.49955161744046
6.605714432,0.9991995502328395,65.38194190557387
6.608,0.9992217888079741,65.26436139094712
6.610285568,0.9992942764357913,65.14614502518022
6.612571648,0.9994122320225208,65.02654751834426
6.614857216,0.9995683021560818,64.90493288766005
6.617142784,0.9997526293844905,64.78088286333104
6.619428352,0.999953450916183,64.65400640486241
6.621714432,1.0001580998701523,64.52419068788646
6.624,1.0003534365730993,64.3914787952095
6.626285568,1.0005271330794832,64.25610900437673
6.628571648,1.0006680393511553,64.11842755355681
6.630857216,1.000767414023264,63.97899074350097
6.633142784,1.000818706354618,63.838485678045394
6.635428352,1.0008186341817622,63.697603486900576
6.637714432,1.0007673026970452,63.55708926248825
6.64,1.0006677264205395,63.41769142791224
6.642285568,1.0005263828277038,63.28003297306244
6.644571648,1.0003520497126916,63.14468086343952
6.646857216,1.0001559052291449,63.01201024796202
6.649142784,0.9999502672563653,62.88226920939545
6.651428352,0.9997482226350767,62.75551162034172
6.653714432,0.9995627257462943,62.631574930228865
6.656,0.9994054947530817,62.51016863186469
6.658285568,0.9992865260030734,62.39075183033893
6.660571648,0.9992135342679442,62.27276668017222
6.662857216,0.9991911745187083,62.15548013867089
6.665142784,0.9992208290468398,62.03817620374932
6.667428352,0.9993007864610598,61.92001852141502
6.669714432,0.9994259347234415,61.80041686114009
6.672,0.99958831007265,61.67871744518856
6.674285568,0.9997776872997269,61.55447757463292
6.676571648,0.9999820226609902,61.42735641555507
6.678857216,1.0001882699332907,61.29726808188249
6.681142784,1.0003832920025948,61.16424502662019
6.683428352,1.0005548620439848,61.02858507806348
6.685714432,1.0006918935405409,60.89065363035319
6.688,1.0007857125300912,60.75105266389911
6.690285568,1.000830464811391,60.61044334024492
6.692571648,1.0008231449718594,60.469557494274824
6.694857216,1.00076415504909,60.3291559364668
6.697142784,1.0006571889768352,60.18995295768465
6.699428352,1.0005091559331938,60.05261409892895
6.701714432,1.0003291614073475,59.9176631718283
6.704,1.0001287721530698,59.78546771274079
6.706285568,0.9999206704076402,59.65623357616227
6.708571648,0.9997180361381918,59.530014899563916
6.710857216,0.9995338356230327,59.40661132865555
6.713142784,0.9993798037701738,59.2856701118703
6.715428352,0.9992656127616991,59.166707354233885
6.717714432,0.999198801330571,59.04907554078135
6.72,0.9991835011446356,58.932033098266615
6.722285568,0.9992207926687245,58.814842367177704
6.724571648,0.9993083297277293,58.69673110265212
6.726857216,0.9994405480251003,58.57706202556426
6.729142784,0.9996091597219701,58.455184868869445
6.731428352,0.9998034480455809,58.330661750633645
6.733714432,1.0000110108928464,58.20321270969617
6.736,1.000218643431301,58.072746694866424
6.738285568,1.0004132431581643,57.93935798126283
6.740571648,1.0005823208071933,57.8033333637334
6.742857216,1.0007152402577808,57.66509355211704
6.745142784,1.0008036028485785,57.52524576142935
6.747428352,1.000841537153795,57.38449211744203
6.749714432,1.0008266822358294,57.24356731042232
6.752,1.0007600876371867,57.10320555618557
6.754285568,1.0006457063631835,56.964169301857396
6.756571648,1.0004908743538745,56.82706583325242
6.758857216,1.00030548277096,56.69245611169395
6.761142784,1.000101051607691,56.5606654226129
6.763428352,0.9998906043113619,56.43191671112588
6.765714432,0.9996876993081575,56.306157742722526
6.768,0.9995050563711333,56.18321980125597
6.770285568,0.9993543733924735,56.06268111131715
6.772571648,0.9992452878492715,55.94409193991859
6.774857216,0.9991847392633958,55.82671699813198
6.777142784,0.9991767600719537,55.709858899332005
6.779428352,0.9992217045884195,55.5927149399359
6.781714432,0.9993169789332252,55.474569296243054
6.784,0.9994563396021676,55.354710364020086
6.786285568,0.9996310384652116,55.23257408851585
6.788571648,0.9998300615282599,55.1077028935114
6.790857216,1.0000406485717213,54.97984896278507
6.793142784,1.0002494430846953,54.848941185829375
6.795428352,1.0004432708564732,54.715112945808706
6.797714432,1.0006096911116777,54.57864206191296
6.8,1.0007382453167382,54.44002427932476
6.802285568,1.0008205571121933,54.29989227813767
6.804571648,1.0008516254091337,54.15891205184631
6.806857216,1.0008292148981976,54.01786184007381
6.809142784,1.0007547805993549,53.877513644285585
6.811428352,1.0006329828003189,53.73858194988646
6.813714432,1.0004715553389547,53.601703152409186
6.816,1.000280603890167,53.46737319664305
6.818285568,1.000072376786148,53.33594638515885
6.820571648,0.9998599606621882,53.20756210619731
6.822857216,0.999656895068412,53.08222883648992
6.825142784,0.9994761448972236,52.95968840348003
6.827428352,0.9993291385611454,52.83952546110671
6.829714432,0.9992253501042492,52.721194061554336
6.832,0.9991714121733235,52.60402820201597
6.834285568,0.9991708260427069,52.487235276368345
6.836571648,0.9992236304038297,52.37007748883709
6.838857216,0.9993264875219093,52.251779348767606
6.841142784,0.9994729326260782,52.131675273216004
6.843428352,0.9996536710735396,52.0091959059736
6.845714432,0.9998572842000187,51.88388568525249
6.848,1.0000707627617091,51.75556527942735
6.850285568,1.0002805930108314,51.6241376688161
6.852571648,1.0004733828108165,51.489782331857484
6.854857216,1.0006368461114383,51.3528363119723
6.857142784,1.0007606988547295,51.21377175838553
6.859428352,1.0008370582216817,51.073269711518655
6.861714432,1.0008608753167614,50.932020045658234
6.864,1.0008307458165973,50.79080149666006
6.866285568,1.000748480305485,50.65039483531882
6.868571648,1.0006192890779835,50.51151909603845
6.870857216,1.000451245620183,50.37478148441009
6.873142784,1.0002550240436285,50.240683391590274
6.875428352,1.000043049560351,50.109548936222986
6.877714432,0.9998288516634277,49.98151945335737
6.88,0.9996259536757345,49.856520457491705
6.882285568,0.9994472529938635,49.734300523412394
6.884571648,0.9993043085230018,49.614412015317676
6.886857216,0.9992060193747866,49.49630088291549
6.889142784,0.999158803343304,49.37923642280002
6.891428352,0.9991657725862644,49.26246628819838
6.893714432,0.9992264839654686,49.14521592746295
6.896,0.9993371115526253,49.02668620151132
6.898285568,0.999490604590314,48.90624972781177
6.900571648,0.9996773558591652,48.783320485017136
6.902857216,0.9998853520633799,48.65752831594622
6.905142784,1.0001014283117908,48.52862292721259
6.907428352,1.0003119708209216,48.396600795553425
6.909714432,1.0005034679184035,48.26167079721282
6.912,1.0006638435071402,48.12415027672433
6.914285568,1.0007828067230822,47.98459985529244
6.916571648,1.0008528369933554,47.84366204636842
6.918857216,1.0008693789889254,47.70206998442537
6.921142784,1.0008313985041808,47.56063386528337
6.923428352,1.0007412284614696,47.42011621932913
6.925714432,1.000604624073776,47.281237029842565
6.928,1.0004300474054921,47.14459586774285
6.930285568,1.000228667940784,47.0106956175528
6.932571648,1.000013208900879,46.87980140862337
6.934857216,0.9997974119148393,46.75202674891607
6.937142784,0.9995948822134532,46.62732106800405
6.939428352,0.9994186030908245,46.505351391282254
6.941714432,0.9992797987044706,46.3856818943453
6.944,0.9991872894358381,46.267698477601236
6.946285568,0.9991470805120074,46.15067304122897
6.948571648,0.9991617714225158,46.033837580829186
6.950857216,0.99923043753391,45.91638990364087
