freq,mag,phase
6.0,1.0001714084949085,-147.4494061776438
6.002285568,1.0000729359710814,-147.60460064799264
6.004571648,0.9999699116734526,-147.75832482808966
6.006857216,0.9998688378790893,-147.91054044620526
6.009142784,0.9997760111906379,-148.06129463751907
6.011428352,0.9996974819175684,-148.2107582644861
6.013714432,0.9996381995571082,-148.35924320343008
6.016,0.999601894150586,-148.50692952112908
6.018285568,0.9995908735701471,-148.65429637560078
6.020571648,0.9996058092832099,-148.8016219986035
6.022857216,0.999645928167308,-148.94930008959443
6.025142784,0.9997084951964645,-149.09774650287946
6.027428352,0.9997897147938749,-149.24718077055252
6.029714432,0.9998842536329018,-149.3978702170533
6.032,0.999986242526052,-149.54992678617276
6.034285568,1.0000892691972927,-149.70344697260774
6.036571648,1.000186607529193,-149.8584213738837
6.038857216,1.0002722527369958,-150.01469130359308
6.041142784,1.0003407501687498,-150.17201674925516
6.043428352,1.0003876576828927,-150.33018605118244
6.045714432,1.0004101796492642,-150.48880597700483
6.048,1.0004066906325717,-150.64752538833233
6.050285568,1.000377409861592,-150.8059870384009
6.052571648,1.0003243649958222,-150.96383660413744
6.054857216,1.0002507472144688,-151.12071048619524
6.057142784,1.00016123857305,-151.2763638795521
6.059428352,1.000061588952515,-151.43062440191864
6.061714432,0.9999579540396846,-151.58339159603833
6.064,0.9998571265089831,-151.73458512480374
6.066285568,0.9997652342447608,-151.8843715930943
6.068571648,0.9996883807232181,-152.032890982216
6.070857216,0.9996312252534878,-152.1804322324239
6.073142784,0.9995975469455524,-152.32724394800144
6.075428352,0.9995894419640995,-152.47374056949238
6.077714432,0.9996074072156063,-152.6202606440463
6.08,0.9996503667143701,-152.76718256161305
6.082285568,0.9997155164967265,-152.91486902144499
6.084571648,0.999798850839432,-153.0635859694835
6.086857216,0.9998949494256637,-153.2135783281617
6.089142784,0.9999978146219862,-153.36499021483493
6.091428352,1.0001008752797915,-153.5178624506165
6.093714432,1.000197659395206,-153.67218337634017
6.096,1.000281966665218,-153.82776667804535
6.098285568,1.0003484776513878,-153.98440059742364
6.100571648,1.0003929625328183,-154.14179826526825
6.102857216,1.0004125902411538,-154.29962862060114
6.105142784,1.00040608774518,-154.4575501848192
6.107428352,1.0003739048902414,-154.61515761051504
6.109714432,1.0003180367867068,-154.77203997163375
6.112,1.0002420594418924,-154.9279764102079
6.114285568,1.0001507337539595,-155.08266522465823
6.116571648,1.0000498632106745,-155.23586064314594
6.118857216,0.9999458419467162,-155.38761902794008
6.121142784,0.999845247340401,-155.53778147144493
6.123428352,0.9997544726455364,-155.6865782681158
6.125714432,0.9996793095803609,-155.834101444048
6.128,0.9996244635032664,-155.98063213929564
6.130285568,0.9995935381323281,-156.12653915677933
6.132571648,0.9995883049735097,-156.2721227917969
6.134857216,0.9996093758862269,-156.41775635164586
6.137142784,0.9996551783285912,-156.56388712743114
6.139428352,0.9997229538383643,-156.71077760227007
6.141714432,0.9998083695451944,-156.85876156993058
6.144,0.9999059890888854,-157.0080615199324
6.146285568,1.0000096529955675,-157.15873448000505
6.148571648,1.0001127752273924,-157.3109102056393
6.150857216,1.0002087883716075,-157.464509707202
6.153142784,1.00029159697162,-157.6193459095345
6.155428352,1.000356057090922,-157.7752329707136
6.157714432,1.0003979650111268,-157.93184166012335
6.16,1.00041464752617,-158.0888565415143
6.162285568,1.0004051957234106,-158.2459046319171
6.164571648,1.0003699756125664,-158.40256700106187
6.166857216,1.0003113189424595,-158.55851812737973
6.169142784,1.0002330519371831,-158.71340881771698
6.171428352,1.0001398989533026,-158.86705687348478
6.173714432,1.0000379021707766,-159.01923716915667
6.176,0.9999335338107661,-159.16988988757075
6.178285568,0.9998332923894069,-159.31902314738892
6.180571648,0.9997437049295935,-159.46673470166326
6.182857216,0.9996703535355038,-159.61321821382714
6.185142784,0.9996179410256656,-159.75871765300752
6.187428352,0.9995897439539625,-159.9036054103117
6.189714432,0.9995875781616261,-160.0482530000362
6.192,0.9996116603672731,-160.19302376516953
6.194285568,0.999660460052904,-160.33828729376344
6.196571648,0.9997308349322491,-160.48435809993947
6.198857216,0.9998183117049063,-160.63156241291867
6.201142784,0.9999173998218303,-160.78008439242507
6.203428352,1.0000217902399637,-160.93004382785753
6.205714432,1.0001248242821494,-161.08147928406297
6.208,1.0002199871238613,-161.2343152083925
6.210285568,1.0003013034673902,-161.3883863397952
6.212571648,1.000363522659777,-161.54346654812832
6.214857216,1.0004027911633493,-161.69926875958478
6.217142784,1.0004165531707065,-161.85534887922168
6.219428352,1.0004039194053826,-162.0114640061543
6.221714432,1.0003656249490263,-162.16718565639215
6.224,1.0003043709155888,-162.3220988975718
6.226285568,1.0002235990492134,-162.47598972042326
6.228571648,1.0001287058241863,-162.6285737771937
6.230857216,1.0000256991548915,-162.7796250074875
6.233142784,0.9999209959591088,-162.92915541115528
6.235428352,0.9998212909731419,-163.07713320144353
6.237714432,0.9997329473355538,-163.2237506080789
6.24,0.9996615215816688,-163.36915503627117
6.242285568,0.9996115786773195,-163.51361597876166
6.244571648,0.9995863325803402,-163.65746767290167
6.246857216,0.9995873044166843,-163.80115572533907
6.249142784,0.9996145185155155,-163.94499401730127
6.251428352,0.9996662219405922,-164.0893658777665
6.253714432,0.9997391646608913,-164.23462130342367
6.256,0.9998287046118777,-164.3809663154412
6.258285568,0.9999291912107927,-164.5286726279854
6.260571648,1.0000341209985224,-164.67786815588542
6.262857216,1.0001370434725911,-164.82852231540645
6.265142784,1.0002313454595242,-164.98053709861995
6.267428352,1.0003109353202555,-165.13383567811684
6.269714432,1.0003709467173363,-165.28808846095166
6.272,1.0004073749086309,-165.4429828357352
6.274285568,1.0004180768111552,-165.59819217615097
6.276571648,1.0004022707232956,-165.753333638465
6.278857216,1.000360908772207,-165.90800509755098
6.281142784,1.0002967661291025,-166.06188965396558
6.283428352,1.000213794719228,-166.21468061886122
6.285714432,1.0001171758242344,-166.36609793643774
6.288,1.0000131704852278,-166.51602732454324
6.290285568,0.9999082474104843,-166.66439927805652
6.292571648,0.9998091592770436,-166.81121796664044
6.294857216,0.9997222087344071,-166.95667128676027
6.297142784,0.9996527773340763,-167.10096867387347
6.299428352,0.9996054856425574,-167.24433334456748
6.301714432,0.9995832249942245,-167.38717334413695
6.304,0.9995873191485134,-167.52984550193625
6.306285568,0.9996177181830578,-167.6726826642771
6.308571648,0.9996724507911339,-167.81612245318234
6.310857216,0.9997480096929354,-167.9605130072257
6.313142784,0.9998395447664925,-168.10602327202392
6.315428352,0.9999413461584908,-168.25293634644777
6.317714432,1.0000469235097253,-168.4013125754221
6.32,1.0001494788619094,-168.55113489328807
6.322285568,1.000242677839944,-168.70234434002046
6.324571648,1.0003205840178258,-168.8547852628981
6.326857216,1.0003781230173314,-169.00816880712694
6.329142784,1.0004117851246757,-169.16214292544382
6.331428352,1.0004192777974772,-169.3163917633171
6.333714432,1.000400342597175,-169.47053473143913
6.336,1.0003559230021588,-169.62417178745002
6.338285568,1.0002889193592663,-169.7769682810297
6.340571648,1.0002035917665455,-169.9285777818213
6.342857216,1.000105407033604,-170.07884919685205
6.345142784,1.0000004241254932,-170.22758292302805
6.347428352,0.9998954194073377,-170.37477078287412
6.349714432,0.9997970471391172,-170.52040108103697
6.352,0.9997115990795651,-170.6646478064511
6.354285568,0.9996442991272276,-170.80779318884095
6.356571648,0.999599665519346,-170.95004136742793
6.358857216,0.9995803960266134,-171.0918099027305
6.361142784,0.9995878280079853,-171.23342013406236
6.363428352,0.9996214431323036,-171.375322886649
6.365714432,0.9996791013092945,-171.51781217306026
6.368,0.9997571643906278,-171.66127105397467
6.370285568,0.9998506725716331,-171.80594272780974
6.372571648,0.999953703127418,-171.95196921039152
6.374857216,1.0000596807082,-172.09950339496461
6.377142784,1.0001620227618697,-172.24848977681208
6.379428352,1.0002540148160974,-172.3988785040395
6.381714432,1.000329977041815,-172.55040447298154
6.384,1.0003850505150398,-172.70287458746688
6.386285568,1.0004157696208453,-172.85591264691553
6.388571648,1.0004201266195183,-173.00918816486583
6.390857216,1.0003977781055546,-173.16226392654778
6.393142784,1.00035024785648,-173.31480578542227
6.395428352,1.000280410335767,-173.46643153689453
6.397714432,1.0001928185807754,-173.61690521394462
6.4,1.000093052799261,-173.76596107520442
6.402285568,0.9999873712943406,-173.91348748922374
6.404571648,0.9998823785698678,-174.05943208418316
6.406857216,0.999784690766814,-174.20386310623036
6.409142784,0.9997008925409265,-174.34690609092186
6.411428352,0.9996358609338564,-174.4888577911917
6.413714432,0.9995940408080758,-174.6299796907913
6.416,0.9995779966881932,-174.77061297667768
6.418285568,0.9995887771354073,-174.9111871820499
6.420571648,0.9996256782303267,-175.0520733091349
6.422857216,0.9996863018770595,-175.19357762408535
6.425142784,0.9997669007314244,-175.3361111482065
6.427428352,0.999862355045186,-175.47987768987866
6.429714432,0.9999666009224912,-175.62505813353903
6.432,1.0000730003098053,-175.77170621191917
6.434285568,1.0001747927850757,-175.9198434801003
6.436571648,1.0002656000900687,-176.06933149730705
6.438857216,1.0003395453945039,-176.21999503990043
6.441142784,1.0003920240101296,-176.37151045590318
6.443428352,1.0004195543766539,-176.5235680720733
6.445714432,1.0004205166526905,-176.6757927241355
6.448,1.00039493991287,-176.82782239083042
6.450285568,1.000344229779179,-176.9792168881993
6.452571648,1.0002717199661213,-177.12969291074347
6.454857216,1.0001817876387786,-177.2789386441445
6.457142784,1.0000804994826402,-177.4267714292134
6.459428352,0.9999739404219277,-177.5730175171002
6.461714432,0.9998690264677267,-177.71772035180928
6.464,0.9997723564703968,-177.86087162159302
6.466285568,0.9996903805959887,-178.00270482879407
6.468571648,0.9996276830095665,-178.1434500195311
6.470857216,0.9995887936070652,-178.28340330397356
6.473142784,0.9995759867559243,-178.4229448794818
6.475428352,0.9995901803734609,-178.562433645673
6.477714432,0.9996303157213557,-178.7022570466189
6.48,0.9996939656790386,-178.84281598448342
6.482285568,0.999777080218418,-178.98439626911176
6.484571648,0.9998744171974758,-179.12725292225952
6.486857216,0.9999796745977492,-179.2715256255802
6.489142784,1.0000864071763147,-179.4173086806643
6.491428352,1.0001875549419352,-179.56453624714237
6.493714432,1.000276825325137,-179.71312161201243
6.496,1.000348692206804,-179.8628472552871
6.498285568,1.0003984248817879,179.98658123975667
6.500571648,1.000422904884405,179.83551200364036
6.502857216,1.000420493682876,179.68434491449787
6.505142784,1.0003913902339394,179.53344538127317
6.507428352,1.000337513813291,179.38317677489468
6.509714432,1.0002621386111588,179.2339391352872
6.512,1.0001701925605069,179.0859275570206
6.514285568,1.0000672810201907,178.93934974316744
6.516571648,0.999960185976086,178.79436143051652
6.518857216,0.9998554896686628,178.65096534072555
6.521142784,0.9997600019838436,178.50906425560163
6.523428352,0.9996796292679008,178.36850133557823
6.525714432,0.9996195982120688,178.22899940461977
6.528,0.9995836547788354,178.09024791695214
6.530285568,0.9995742932449305,177.95183208866993
6.532571648,0.9995918529870463,177.81345635271788
6.534857216,0.999635357511028,177.67464928243064
6.537142784,0.9997020737328146,177.5350817499761
6.539428352,0.9997877379383282,177.39446935171608
6.541714432,0.9998868728346882,177.25253845402347
6.544,0.9999931893332716,177.10917713290215
6.546285568,1.0000999497770797,176.96432685173238
6.548571648,1.0002005151578814,176.81795963630833
6.550857216,1.0002882947995395,176.67029696669056
6.553142784,1.0003578240845263,176.52152819535962
6.555428352,1.000404759560596,176.37192912430788
6.557714432,1.0004259162114355,176.22191607991712
6.56,1.000420079615348,176.0718401599011
6.562285568,1.000387601416065,175.92208530394421
6.564571648,1.0003304301751574,175.7729935868067
6.566857216,1.0002524203617837,175.6249559935145
6.569142784,1.0001581759652323,175.47820493343926
6.571428352,1.0000539978223377,175.33293122254352
6.573714432,0.9999462922147887,175.18923555213362
6.576,0.999841954637454,175.0471653865409
6.578285568,0.9997475515691271,174.90655661321154
6.580571648,0.9996692513917913,174.76725464406252
6.582857216,0.9996118500785838,174.62901317206692
6.585142784,0.999579156917482,174.4914175290735
6.587428352,0.9995732166240919,174.35418152290967
6.589714432,0.9995943114695957,174.21689233453074
6.592,0.9996410921513978,174.0791504083717
6.594285568,0.9997108001551958,173.94060884912784
6.596571648,0.9997989331540826,173.80095371223572
6.598857216,0.9998997456954096,173.65995068363634
6.601142784,1.0000071387741525,173.51750157555458
6.603428352,1.000113973757064,173.37355360543324
6.605714432,1.000213553893435,173.22813187488765
6.608,1.0002996666130908,173.08139627599186
6.610285568,1.0003668418384297,172.93359130198948
6.612571648,1.0004107193036726,172.78503429479326
6.614857216,1.0004285526692704,172.63604484952845
6.617142784,1.0004190349829039,172.48707347632967
6.619428352,1.0003830729877823,172.3384627086101
6.621714432,1.0003227729855328,172.1905811289735
6.624,1.0002418846881904,172.04378831686168
6.626285568,1.0001455822142933,171.89833170928244
6.628571648,1.0000401710150142,171.75437860139928
6.630857216,0.9999319471990575,171.6120226182527
6.633142784,0.9998281606129797,171.47126754302948
6.635428352,0.9997350667171246,171.33197436334527
6.637714432,0.9996588772850447,171.1939662479525
6.64,0.999604276916054,171.056956185646
6.642285568,0.9995748625795833,170.92063446846998
6.644571648,0.9995724109350539,170.78454429487294
6.646857216,0.9995970030643212,170.64834204380298
6.649142784,0.9996473327905414,170.51166168078493
6.651428352,0.9997199431880952,170.37414886056678
6.653714432,0.9998105083295108,170.23543489048544
6.656,0.9999131009629261,170.09543734720566
6.658285568,1.0000211457218298,169.95389390089886
6.660571648,1.0001279279860673,169.81082987103093
6.662857216,1.0002267011230652,169.6663522601961
6.665142784,1.0003109388238236,169.52056566778606
6.667428352,1.0003755079203835,169.37373260393545
6.669714432,1.0004163306491243,169.2262190202538
6.672,1.0004307803332544,169.07831636257168
6.674285568,1.0004176598068328,168.9304492810447
6.676571648,1.0003781484250285,168.78301737202068
6.678857216,1.00031458070038,168.63638293592317
6.681142784,1.000231022702876,168.4908663451495
6.683428352,1.0001328684893216,168.34671021230852
6.685714432,1.0000259955178032,168.20406650633126
6.688,0.9999175830178288,168.06304486738736
6.690285568,0.9998142576183756,167.92362506174706
6.692571648,0.9997227622789311,167.7856967049733
6.694857216,0.9996488369340121,167.64898983466347
6.697142784,0.9995970334576486,167.5132253058621
6.699428352,0.9995709300840392,167.3781219508268
6.701714432,0.9995721924154894,167.24318495644772
6.704,0.9996004172921885,167.10813750320568
6.706285568,0.9996542078955353,166.97250558789275
6.708571648,0.9997298551322026,166.8359956833091
6.710857216,0.9998227249270488,166.69826673657175
6.713142784,0.9999268866142849,166.5592122622482
6.715428352,1.0000357609126058,166.41859036112174
6.717714432,1.0001423589416296,166.27647785682572
6.72,1.0002399209393955,166.13290606670722
6.722285568,1.0003222562416414,165.98810928981405
6.724571648,1.0003842265395098,165.84229329814542
6.726857216,1.0004217457212605,165.69578926925908
6.729142784,1.000432491304861,165.54897207730178
6.731428352,1.0004158497957527,165.40224426613585
6.733714432,1.0003726917403701,165.2560447288749
6.736,1.0003059522614723,165.11061690917182
6.738285568,1.000219588254145,164.96638692875086
6.740571648,1.0001193189897974,164.82355199452815
6.742857216,1.0000115286945463,164.68228306944985
6.745142784,0.9999028345075668,164.54263681269776
6.747428352,0.9998001785068796,164.4045673006278
6.749714432,0.9997103244746329,164.26790696825864
6.752,0.9996387982218855,164.13253512658642
6.754285568,0.999590121080599,163.99803097895793
6.756571648,0.999567598547452,163.86413250439918
6.758857216,0.9995723620184773,163.73040523014166
6.761142784,0.9996044574116019,163.59643492107213
6.763428352,0.999661555905516,163.46187099432962
6.765714432,0.9997402342704028,163.3263918932282
6.768,0.9998352946981799,163.18965522106672
6.770285568,0.9999411521159458,163.0515170364571
6.772571648,1.00005057415062,162.91186347347087
6.774857216,1.0001568895467232,162.77068457237215
6.777142784,1.0002531584825256,162.6280850833759
6.779428352,1.0003334122563103,162.48422465299387
6.781714432,1.0003925199108998,162.3394075975878
6.784,1.0004267686363288,162.19394056973596
6.786285568,1.0004339347037345,162.0482426374796
6.788571648,1.0004134088399432,161.90266613165628
6.790857216,1.0003667110832335,161.75767273745439
6.793142784,1.0002966048840172,161.61352915706527
6.795428352,1.0002076132303919,161.47059259780167
6.797714432,1.0001055249680066,161.32910466918528
6.8,0.9999965953630263,161.18916167350022
6.802285568,0.9998879024687884,161.0508710407653
6.804571648,0.9997861461655541,160.9141744031038
6.806857216,0.999697973922671,160.77889275321226
6.809142784,0.9996290647713307,160.644786987785
6.811428352,0.9995835389925883,160.51158302091807
6.813714432,0.9995645095191312,160.37892382493482
6.816,0.9995731719886493,160.246304349107
6.818285568,0.9996089231221422,160.11348817117297
6.820571648,0.9996695923473297,159.97999235588773
6.822857216,0.9997512364487845,159.84550326902354
6.825142784,0.9998486779666149,159.7097472741818
6.827428352,0.9999558182436791,159.5725677642871
6.829714432,1.0000657010939158,159.433833275723
6.832,1.000171585962781,159.29358241197
6.834285568,1.0002664815274407,159.1519157713771
6.836571648,1.0003443969883394,159.00905453463187
6.838857216,1.0004006277625974,158.86524735692748
6.841142784,1.0004312753040348,158.72085964642523
6.843428352,1.000434655924706,158.57624875988265
6.845714432,1.0004103344485902,158.43185943650164
6.848,1.000359975098552,158.28807198254356
6.850285568,1.0002866923603912,158.1451794561665
6.852571648,1.0001950944898093,158.0035494965208
6.854857216,1.0000911359267062,157.86340854320855
6.857142784,0.9999813289443842,157.7248492920348
6.859428352,0.9998726240701046,157.5879770547874
6.861714432,0.9997719340525292,157.45261018760215
6.864,0.9996856973797648,157.31868447931205
6.866285568,0.9996193403263295,157.18590867831472
6.868571648,0.9995773068912168,157.05396737555307
6.870857216,0.9995619429451947,156.92249671112714
6.873142784,0.9995744994408867,156.79108887912028
6.875428352,0.9996141568720979,156.65933598690998
6.877714432,0.9996781305534668,156.52688353436213
6.88,0.9997627422580326,156.3934152478187
6.882285568,0.999862407129491,156.25863086905076
6.884571648,0.9999708942224177,156.12240199302857
6.886857216,1.0000812276111892,155.98460347064727
6.889142784,1.000186328754628,155.84529770029553
6.891428352,1.000279762770235,155.70455988628203
6.893714432,1.000355380153474,155.56267165027108
6.896,1.0004084769735906,155.41988804669933
6.898285568,1.0004355348653933,155.2765612945511
6.900571648,1.0004348913556378,155.13308856765096
6.902857216,1.0004067292566712,154.98985692998596
6.905142784,1.0003527367738236,154.8472865047393
6.907428352,1.0002761113519982,154.70568658142074
6.909714432,1.0001820956718355,154.56538598015047
6.912,1.0000764697198645,154.4266061925486
6.914285568,0.9999656854013171,154.28942492758077
6.916571648,0.9998572299307104,154.15389381349542
6.918857216,0.9997578240079114,154.0199162890921
6.921142784,0.9996735972382166,153.8873308741721
6.923428352,0.999610122902034,153.75586176623446
6.925714432,0.9995714972340015,153.62517358219736
