freq,mag,phase
6.0,1.000768586964767,-46.77234038534295
6.00851968,1.0009152820287666,-47.131590389745845
6.01703936,1.001015205107929,-47.49254355484274
6.02555904,1.0010619232976348,-47.85461980609941
6.03407872,1.0010530738021954,-48.21702277866744
6.0425984,1.0009888518184895,-48.579084931744916
6.05111808,1.000872619971412,-48.94000857642824
6.05963776,1.0007106135062842,-49.29923550997768
6.06815744,1.0005113221543953,-49.65614952212219
6.07667712,1.0002850610075418,-50.01033333740915
6.0851968,1.0000436500977479,-50.36155805684674
6.09371648,0.9998004006763297,-50.70968684105201
6.102236672,0.9995675610668784,-51.054705572387505
6.110756352,0.9993578705199992,-51.39691989221474
6.119276032,0.9991823678506814,-51.73667410346941
6.127795712,0.9990502027177771,-52.07445336153392
6.136315392,0.998968520139753,-52.410878803117924
6.144835072,0.9989417065448793,-52.746722328950995
6.153354752,0.9989712917416593,-53.08268552575309
6.161874432,0.9990557271329104,-53.41944748474665
6.170394112,0.9991903636192758,-53.7577922433031
6.178913792,0.9993684531947776,-54.09834088666683
6.187433472,0.9995802984340107,-54.441540634146655
6.195953152,0.9998150059319405,-54.787799173444476
6.204472832,1.0000599678257727,-55.13735486924752
6.212992512,1.0003022570962878,-55.49022297014346
6.221512192,1.0005290506679507,-55.84630894757128
6.230031872,1.0007285266742145,-56.20530203334465
6.238551552,1.00089011656837,-56.56685178765293
6.247071232,1.0010049990244996,-56.93027607572303
6.255590912,1.0010670577020158,-57.2949732265934
6.264110592,1.0010735474911505,-57.66025770385688
6.272630272,1.0010235387795834,-58.0253238102957
6.281149952,1.0009197071222165,-58.38951146365375
6.289669632,1.0007676965732408,-58.752090418264586
6.298189312,1.0005752416060598,-59.11248788650112
6.306709504,1.000352544170474,-59.47027027359024
6.315229184,1.0001113859485518,-59.825098481949794
6.323748864,0.9998643807696784,-60.17674404647108
6.332268544,0.9996246692272605,-60.525327109305216
6.340788224,0.9994049298362158,-60.870861909989124
6.349307904,0.9992167536267427,-61.21385014100007
6.357827584,0.9990701722458377,-61.554693272412926
6.366347264,0.9989729689465867,-61.89400338741804
6.374866944,0.9989304828876429,-62.232530340744184
6.383386624,0.9989446551930028,-62.57090809535937
6.391906304,0.9990152010795074,-62.909965289019354
6.400425984,0.9991382378581178,-63.2503952342503
6.408945664,0.9993074082503519,-63.59285509155186
6.417465344,0.9995133860846547,-63.937893990343476
6.425985024,0.9997457585289017,-64.28597208225192
6.434504704,0.9999922003611503,-64.63726216737469
6.443024384,1.0002394893938755,-64.9920110424192
6.451544064,1.0004745813605065,-65.35001102291149
6.460063744,1.000685288034791,-65.71103853132036
6.468583424,1.000860393098148,-66.07476850128484
6.477103104,1.0009904095524649,-66.44056263044577
6.485622784,1.0010686886050335,-66.80789147700503
6.494142464,1.0010909944825828,-67.17598049015317
6.502662656,1.0010560223496532,-67.54409761569822
6.511182336,1.0009655821786154,-67.91145155346052
6.519702016,1.0008244384661404,-68.27742481554932
6.528221696,1.0006401219778125,-68.6413194437677
6.536741376,1.000421895373524,-69.00267145689278
6.545261056,1.0001817378534517,-69.36107985992085
6.553780736,0.999932004277022,-69.7163643763902
6.562300416,0.9996858972242392,-70.06847062045806
6.570820096,0.999456474739063,-70.41749812070246
6.579339776,0.9992559700035466,-70.7637545594596
6.587859456,0.9990948052175918,-71.10773077528648
6.596379136,0.9989818443527654,-71.44997025364172
6.604898816,0.998922881827015,-71.79116530307468
6.613418496,0.9989211408122338,-72.13203180147296
6.621938176,0.9989770288101073,-72.47333749760708
6.630457856,0.999087215665854,-72.81588620541113
6.638977536,0.9992460210075399,-73.16028887010808
6.647497216,0.9994452931503418,-73.50715271444732
6.656016896,0.9996744564200912,-73.85699039429073
6.664536576,0.9999212491764312,-74.21005282509708
6.673056256,1.0001727715557873,-74.56649699630799
6.681575936,1.000415713342129,-74.9263673322688
6.690095616,1.0006373467956262,-75.28940659411839
6.698615296,1.0008257329070571,-75.65524609927301
6.707135488,1.0009711181225696,-76.02340615946638
6.715655168,1.001065751851848,-76.39318792560664
6.724174848,1.0011046015432095,-76.76405939899601
6.732694528,1.00108559128957,-77.13509104336215
6.741214208,1.0010094385793522,-77.50565814369997
6.749733888,1.0008803586924968,-77.87493539407457
6.758253568,1.0007050411081768,-78.24232500435949
6.766773248,1.0004926558380223,-78.60724569016791
6.775292928,1.0002543919288942,-78.96925034504886
6.783812608,1.0000028474201013,-79.32815915259933
6.792332288,0.9997511657423498,-79.68382465702236
6.800851968,0.9995125257947519,-80.03632525760567
6.809371648,0.9992998359880252,-80.38594856631248
6.817891328,0.9991243324678827,-80.73306746692177
6.826411008,0.9989952137755793,-81.07827207563322
6.834930688,0.9989194619610171,-81.42221024079932
6.843450368,0.9989011154707809,-81.76555749874376
6.851970048,0.998941084716902,-82.10920426357363
6.860489728,0.9990374914086687,-82.45379887488689
6.869009408,0.9991852317240512,-82.80013946715339
6.877529088,0.9993765195470996,-83.14881596790674
6.886048768,0.9996011800140662,-83.5003453740567
6.894568448,0.9998475040720343,-83.8550847450503
6.90308864,1.000102368543083,-84.21325377079297
6.91160832,1.0003525400096605,-84.57486407653961
6.920128,1.0005844755937625,-84.93977252804738
6.92864768,1.0007861970389607,-85.30764590164482
6.93716736,1.0009470395062432,-85.67801652513779
6.94568704,1.0010584289003222,-86.05030821257053
6.95420672,1.0011143487234484,-86.42377776566167
6.9627264,1.001111937607152,-86.79770956306986
6.97124608,1.0010512637489521,-87.17133679025538
6.97976576,1.0009352547340777,-87.5438874208085
6.98828544,1.000770164425839,-87.91468560847628
6.99680512,1.0005647825798942,-88.2831720897089
7.0053248,1.0003295344756071,-88.648799503279
7.01384448,1.0000770008814504,-89.01133210021466
7.02236416,0.9998204220596472,-89.37056890775851
7.03088384,0.9995734675396989,-89.72656350878421
7.03940352,0.9993488883247849,-90.07954694381874
7.0479232,0.9991590836936286,-90.42985745659033
7.05644288,0.99901366977261,-90.77799548163738
7.06496256,0.9989205990442829,-91.12468298843335
7.07348224,0.9988848429025157,-91.47059242184622
7.08200192,0.9989083383430467,-91.81651735403084
7.0905216,0.9989897185555844,-92.16323219375795
7.09904128,0.9991250376476828,-92.51144182633944
7.107561472,0.999307162602413,-92.8618809588228
7.116081152,0.9995262292115268,-93.21503425380929
7.124600832,0.9997709346030995,-93.57140761886954
7.133120512,1.000028358913139,-93.93117243785201
7.141640192,1.0002847821572542,-94.29443116348082
7.150159872,1.000526699132897,-94.66112136538673
7.158679552,1.0007415767084733,-95.030871535174
7.167199232,1.0009176794971923,-95.40336711601732
7.175718912,1.0010460192374664,-95.77791357903267
7.184238592,1.001119731033222,-96.1539524429779
7.192758272,1.0011346519962314,-96.53068131446531
7.201277952,1.001090256191877,-96.90727531774665
7.209797632,1.0009885388076014,-97.28303279319643
7.218317312,1.0008350026939241,-97.65719621209523
7.226836992,1.0006375887205117,-98.02915755223529
7.235356672,1.0004066629520563,-98.39836625532736
7.243876352,1.0001541481852878,-98.76447984885833
7.252396032,0.9998936903171283,-99.12729001226664
7.260915712,0.9996389573533361,-99.4867715590174
7.269435392,0.9994031465117833,-99.84310456344245
7.277955072,0.9991990310457738,-100.19659582292172
7.286474752,0.9990371645294577,-100.54777743610225
7.294994432,0.9989264951837713,-100.89721421930102
7.303514624,0.9988725871216654,-101.24561955079665
7.312034304,0.9988786385040686,-101.59383452678148
7.320553984,0.9989441950610028,-101.94258016419377
7.329073664,0.9990659300849419,-102.29266919308914
7.337593344,0.9992375102946408,-102.64479172275675
7.346113024,0.9994498540070984,-102.99956989046225
7.354632704,0.9996917300898948,-103.35740514472668
7.363152384,0.9999504606344047,-103.71866109538344
7.371672064,1.0002124431724597,-104.08348196188095
7.380191744,1.000463773591665,-104.45175594136809
7.388711424,1.0006911108514756,-104.82334930927763
7.397231104,1.0008827398937146,-105.19777430014028
7.405750784,1.0010283226111478,-105.57452198044628
7.414270464,1.0011201896424833,-105.95291300617218
7.422790144,1.0011534098983237,-106.33227244359904
7.431309824,1.0011261536948866,-106.71174493299729
7.439829504,1.0010398943161094,-107.09058956430589
7.448349184,1.0008990720243323,-107.4680315928178
7.456868864,1.0007110449772503,-107.8433839656723
7.465388544,1.000485518926224,-108.21610701929352
7.473908224,1.000234543348488,-108.5857769197681
7.482427904,0.9999711486880756,-108.95211507676191
7.490947584,0.9997092176605862,-109.3150851908198
7.499467264,0.999462681401643,-109.67476110834855
7.507987456,0.9992446193807526,-110.03143481810916
7.516507136,0.9990663463521692,-110.38560603430979
7.525026816,0.9989375282897079,-110.73777374616246
7.533546496,0.9988650654166591,-111.0886912521864
7.542066176,0.9988527447552944,-111.4391413966143
7.550585856,0.9989013783284737,-111.78992256327473
7.559105536,0.9990083205995761,-112.14180247041652
7.567625216,0.9991680889221495,-112.49554051054994
7.576144896,0.999372309357063,-112.85176234883248
7.584664576,0.9996102150450104,-113.21102387655878
7.593184256,0.999869140016316,-113.57368899567005
7.601703936,1.0001356370532217,-113.93987282476675
7.610223616,1.0003956490340944,-114.30964950317986
7.618743296,1.0006352664334468,-114.68282481528301
7.627262976,1.0008420582626718,-115.0590306270497
7.635782656,1.0010048830605633,-115.43780032837512
7.644302336,1.001115312609521,-115.8184608224411
7.652822016,1.0011675406345257,-116.2002630397578
7.661341696,1.0011585310233764,-116.58246791791932
7.669861376,1.0010887944478197,-116.96425462508797
7.678381056,1.0009619562131293,-117.3448414485789
7.686900736,1.0007846364715638,-117.7234853411093
7.695420416,1.000565988222256,-118.09962599796381
7.703940608,1.000317499766075,-118.47278364245635
7.712460288,1.0000522584751852,-118.84260685580277
7.720979968,0.9997843152012058,-119.20900633743699
7.729499648,0.9995277307611063,-119.57199337184522
7.738019328,0.9992959304485897,-119.93184965185324
7.746539008,0.9991014191886513,-120.2889438897049
7.755058688,0.9989543456831487,-120.64387183878027
7.763578368,0.9988626803706755,-120.99725358006663
7.772098048,0.9988312052013718,-121.34994340694917
7.780617728,0.9988617308017095,-121.70266645118575
7.789137408,0.9989526597459406,-122.05629925313076
7.797657088,0.9990993595439391,-122.4115572613896
7.806176768,0.9992941269778182,-122.76918139125026
7.814696448,0.999526642548086,-123.12970685566432
7.823216128,0.9997845505040351,-123.49354054553692
7.831735808,1.0000546470127911,-123.86099922773175
7.840255488,1.0003222935785918,-124.23207251574087
7.848775168,1.0005736494285498,-124.60668762461707
7.857294848,1.0007953414039281,-124.98452426146181
7.865814528,1.0009756898696218,-125.36505473945041
7.874334208,1.0011051600012078,-125.74775667248647
7.882853888,1.0011768914298986,-126.13189619647167
7.891373568,1.001187102868291,-126.51662708755462
7.899893248,1.0011350100241982,-126.90121062609168
7.90841344,1.0010234423310156,-127.28479177186391
7.91693312,1.0008581283886828,-127.66662257287494
7.9254528,1.000647691442603,-128.0460894630531
7.93397248,1.0004031461979994,-128.42259900550965
7.94249216,1.0001374102382217,-128.79586387147563
7.95101184,0.999864336402944,-129.1656185770546
7.95953152,0.999598308147545,-129.53187299133424
7.9680512,0.9993534605893928,-129.89486360893562
7.97657088,0.9991427104906663,-130.25487973413462
7.98509056,0.9989771684180915,-130.61247680880848
7.99361024,0.9988658104835868,-130.9682818948061
8.00212992,0.9988144909766945,-131.32312227748773
8.0106496,0.9988259531230725,-131.6777521604149
8.01916928,0.9988996110033977,-132.0330100438504
8.02768896,0.9990319418001837,-132.38970916458462
8.03620864,0.99921570626928,-132.74859492915354
8.04472832,0.9994413652846396,-133.11025044525346
8.053248,0.999697126075044,-133.4751786141485
8.06176768,0.9999694133667797,-133.84366481804952
8.07028736,1.000243943502659,-134.21589067477035
8.07880704,1.0005062830102605,-134.59169502222866
8.08732672,1.0007424862171475,-134.97093728613612
8.0958464,1.0009403191147488,-135.3530863802862
8.104366592,1.0010890266230732,-135.73761375851637
8.112886272,1.0011809147225927,-136.12383665400498
8.121405952,1.0012111313686376,-136.51092897052996
8.129925632,1.0011778842587606,-136.8980859120013
8.138445312,1.0010828703670183,-137.2845162334757
8.146964992,1.0009310757483794,-137.66938688964373
8.155484672,1.000730256139189,-138.0520058842122
8.164004352,1.0004911354361288,-138.43184023900304
8.172524032,1.0002260485999703,-138.8083826613409
8.181043712,0.9999489805369522,-139.18142447489035
8.189563392,0.999674464201122,-139.55089172211677
8.198083072,0.9994170790603567,-139.91690583128957
8.206602752,0.9991904063894783,-140.27980010574274
8.215122432,0.9990063935542721,-140.6400026334285
8.223642112,0.9988748867313892,-140.99821785710424
8.232161792,0.9988029523487445,-141.35513431484657
8.240681472,0.9987942999700123,-141.7115868526102
8.249201152,0.99884954835777,-142.06839305276807
8.257720832,0.9989660212495096,-142.42644048838656
8.266240512,0.9991373518799815,-142.78642015574246
8.274760192,0.9993547628200924,-143.14904649630722
8.283279872,0.9996067995245513,-143.5148884013149
8.291799552,0.999880118907516,-143.88425444305304
8.300319744,1.000160441167207,-144.25737295958697
8.308839424,1.0004330118558633,-144.63420595989194
8.317359104,1.0006833526914258,-145.01457911151115
8.325878784,1.0008983152841815,-145.39812333538805
8.334398464,1.0010666219274214,-145.7842532953952
8.342918144,1.0011792162972408,-146.17233057730976
8.351437824,1.0012302060103149,-146.56156139600776
8.359957504,1.0012169207266808,-146.95112604668083
8.368477184,1.0011398411221182,-147.340169955773
8.376996864,1.0010028844309038,-147.7278965240227
8.385516544,1.0008133273880118,-148.11356360519207
8.394036224,1.0005809539041737,-148.49648115679184
8.402555904,1.0003179499056065,-148.87624429516165
8.411075584,1.000038130576053,-149.25246612867537
8.419595264,0.9997561488260094,-149.62503665676846
8.428114944,0.9994868778963201,-149.99402887562144
8.436634624,0.9992447080195938,-150.3597119010367
8.445154304,0.9990422106253698,-150.7224981409381
8.453673984,0.9988902717325174,-151.0830054325076
8.462193664,0.998796952294497,-151.44192791636263
8.470713344,0.9987672691002081,-151.8000836346927
8.479233024,0.9988028619170896,-152.15835361797699
8.487752704,0.9989019850459964,-152.5175592330365
8.496272384,0.9990595172253011,-152.87854610619002
8.504792576,0.9992670558272968,-153.24200668308393
8.513312256,0.9995138921316293,-153.60854891316072
8.521831936,0.9997869207798582,-153.9785817295981
8.530351616,1.0000718531111084,-154.35238320296781
8.538871296,1.0003536735650573,-154.72999904463816
8.547390976,1.0006175121360499,-155.11129066316545
8.555910656,1.0008494528893956,-155.49591857745162
8.564430336,1.0010373290115457,-155.88341534045347
8.572950016,1.0011711824834049,-156.27311976230024
8.581469696,1.00124381300168,-156.6642208047537
8.589988864,1.001251446629407,-157.05596289835665
8.598508544,1.001193500918761,-157.44742537805774
8.607029248,1.001073017474422,-157.83779298188296
8.615548928,1.0008961387878779,-158.2263031999387
8.624068608,1.0006721735756754,-158.61220717531745
8.632588288,1.000412791449229,-158.99498082661765
8.641107968,1.0001315060177374,-159.37427508291785
8.649627648,0.9998431786532174,-159.74986888190284
8.658147328,0.9995629678523881,-160.1217362845815
8.666667008,0.9993056856978083,-160.49012905723532
8.675186688,0.9990848850099969,-160.85540119256558
8.683706368,0.9989122413782437,-161.21809428766124
8.692226048,0.9987970363531188,-161.57897279142583
8.700745728,0.998745484880229,-161.9387493293578
8.709265408,0.998760211151352,-162.2983592926825
8.717785088,0.9988406813877672,-162.6586233706055
8.726304768,0.99898280393354,-163.02044554474523
8.734824448,0.9991789115460165,-163.3845452737779
8.743344128,0.999418953372031,-163.75158900191752
8.751863808,0.9996902043871669,-164.1220857240266
8.760383488,0.9999784662133847,-164.49634395318634
8.768903168,1.0002685592358667,-164.87447772552892
8.777422848,1.000545114509491,-165.2564266529226
8.785942528,1.0007937196699719,-165.6419245054866
8.794462208,1.0010011176964249,-166.03049317213726
8.802981888,1.0011565227973844,-166.42148903965983
8.811501568,1.0012515601896774,-166.81425036840875
8.820021248,1.0012811991521982,-167.2078824249964
8.828540928,1.0012437008044992,-167.60154307389303
8.837060608,1.0011411207742273,-167.99435654278284
8.845580288,1.0009786534794327,-168.38548024471638
8.854099968,1.0007646322369321,-168.77419229141353
8.862619648,1.0005103436137,-169.15987322369412
8.871139328,1.000229041558427,-169.54206441166545
8.879659008,0.999935621799826,-169.9205250990259
8.888178688,0.9996452568493572,-170.29518565844342
8.896698368,0.9993734862835255,-170.66617445485937
8.905218048,0.9991345764178519,-171.0338210879522
8.913737728,0.9989412522681017,-171.3986682526033
8.922257408,0.9988036374915256,-171.76134614160006
8.930777088,0.9987291378019796,-172.1226460378863
8.939296768,0.998721977090358,-172.4834779811507
8.947816448,0.9987823779065846,-172.84467698117277
8.956336128,0.9989073557712884,-173.20715779288147
8.964855808,0.9990904472992951,-173.57171630866478
8.973375488,0.9993221029902862,-173.93908168811322
8.981895168,0.9995899899401968,-174.30983231890923
8.990414848,0.9998801887693002,-174.68427761623133
8.998934528,1.0001773694135643,-175.06268040500532
9.007455232,1.0004659307081212,-175.4450221174489
9.015974912,1.0007305748858564,-175.8310777426379
9.024494592,1.0009575970374793,-176.2204283314855
9.033014272,1.0011347913195228,-176.61248485067748
9.041533952,1.0012528159414364,-177.00656561587243
9.050053632,1.0013053837268227,-177.40186628493984
9.058573312,1.0012897689725861,-177.79746284130155
9.067092992,1.001206530731605,-178.19244746569416
9.075612672,1.001059913222439,-178.58597945331962
9.084132352,1.0008576523107624,-178.9772708110181
9.092652032,1.000610161846311,-179.3656681313931
9.101171712,1.0003303849392593,-179.75064263442982
9.109691392,1.0000330457671096,179.86816212598887
9.118211072,0.9997338837345314,179.49082445169768
9.126730752,0.9994483959979044,179.11735327596654
9.135250432,0.9991917484133501,178.74741870595892
9.143770112,0.9989775591976987,178.3805537893877
9.152289792,0.9988171292671219,178.0161732968773
9.160809472,0.9987190732974829,177.653427125021
9.169329152,0.9986887648709127,177.29153886592576
9.177848832,0.9987278303418733,176.92953212924024
9.186368512,0.9988342387810868,176.56653023356535
9.194888192,0.9990026345317912,176.20167517577926
9.203407872,0.9992240990429271,175.8342098127998
9.211927552,0.9994870920528176,175.4634878572647
9.220447232,0.9997777736338829,175.08903364700762
9.228966912,1.0000808519075395,174.7106573466625
9.237486592,1.0003804040550042,174.3282272163104
9.246006272,1.0006606722754068,173.94189659136575
9.254525952,1.0009067548504555,173.55205930328142
9.263045632,1.0011060082166117,173.15923842777488
9.271565312,1.0012477111739626,172.76409298019453
9.280084992,1.0013241414842577,172.3674613394395
9.288604672,1.001331390406016,171.9702331442149
9.297124352,1.0012690543397453,171.5732990194411
9.305644032,1.0011400441674296,171.17756079170437
9.314163712,1.0009510905203471,170.7838867914112
9.322683392,1.0007122132512802,170.39296083957498
9.331203072,1.000435689539863,170.0054074831841
9.339722752,1.0001358888588596,169.62159733558792
9.348242432,0.9998287676088645,169.24175992972488
9.356762112,0.9995303084994033,168.8659013410272
9.365281792,0.9992565821414123,168.49379029534936
9.373801472,0.9990216772374764,168.1250285770279
9.382321152,0.9988381872739255,167.7589920093855
9.390840832,0.9987157273356408,167.39497383097253
9.399360512,0.9986612909653458,167.03210157925594
