freq,mag,phase
6.0,0.9999989592811364,118.84408707195635
6.008,0.9999989775265253,118.76088204020162
6.016,0.9999989947826391,118.67767089892143
6.024,0.999999011071146,118.59445363967178
6.032,0.9999990264135383,118.51123025401544
6.04,0.9999990408311342,118.42800073352205
6.048,0.9999990543450777,118.34476506976814
6.056,0.9999990669763399,118.26152325433716
6.064,0.9999990787457187,118.17827527881954
6.072,0.9999990896738394,118.09502113481264
6.08,0.9999990997811568,118.01176081392084
6.088,0.9999991090879533,117.92849430775556
6.096,0.999999117614342,117.84522160793524
6.104,0.9999991253802649,117.76194270608545
6.112,0.9999991324054959,117.67865759383884
6.12,0.9999991387096391,117.5953662628352
6.128,0.9999991443121303,117.51206870472146
6.136,0.999999149232239,117.42876491115182
6.144,0.9999991534890659,117.34545487378757
6.152,0.9999991571015465,117.26213858429735
6.16,0.9999991600884499,117.17881603435703
6.168,0.9999991624683798,117.09548721564975
6.176,0.9999991642597751,117.01215211986606
6.184,0.9999991654809106,116.92881073870373
6.192,0.9999991661498974,116.84546306386801
6.2,0.9999991662846839,116.76210908707145
6.208,0.9999991659030553,116.67874880003416
6.216,0.9999991650226355,116.5953821944836
6.224,0.9999991636608871,116.5120092621547
6.232,0.9999991618351114,116.42862999478999
6.24,0.9999991595624499,116.34524438413942
6.248,0.9999991568598843,116.26185242196057
6.256,0.9999991537442375,116.1784541000186
6.264,0.9999991502321737,116.09504941008619
6.272,0.9999991463401993,116.01163834394376
6.28,0.9999991420846631,115.92822089337933
6.288,0.9999991374817577,115.84479705018863
6.296,0.999999132547519,115.76136680617505
6.304,0.9999991272978274,115.6779301531498
6.312,0.9999991217484081,115.59448708293179
6.32,0.9999991159148326,115.51103758734769
6.328,0.9999991098125177,115.42758165823203
6.336,0.9999991034567268,115.3441192874271
6.344,0.999999096862571,115.26065046678322
6.352,0.9999990900450094,115.1771751881584
6.36,0.9999990830188488,115.09369344341862
6.368,0.9999990757987449,115.01020522443787
6.376,0.9999990683992039,114.92671052309801
6.384,0.9999990608345812,114.84320933128892
6.392,0.9999990531190834,114.75970164090843
6.4,0.999999045266768,114.67618744386252
6.408,0.9999990372915437,114.59266673206513
6.416,0.9999990292071733,114.50913949743827
6.424,0.9999990210272709,114.42560573191216
6.432,0.9999990127653048,114.34206542742503
6.44,0.9999990044345972,114.25851857592333
6.448,0.9999989960483253,114.17496516936168
6.456,0.9999989876195208,114.09140519970289
6.464,0.999998979161072,114.00783865891798
6.472,0.999998970685723,113.92426553898625
6.48,0.999998962206075,113.84068583189526
6.4879999999999995,0.9999989537345866,113.75709952964085
6.496,0.9999989452835748,113.67350662422723
6.504,0.9999989368652146,113.58990710766689
6.5120000000000005,0.999998928491541,113.50630097198072
6.52,0.9999989201744478,113.42268820919801
6.5280000000000005,0.9999989119256902,113.33906881135646
6.536,0.9999989037568832,113.25544277050219
6.5440000000000005,0.9999988956795041,113.17181007868976
6.552,0.9999988877048918,113.08817072798232
6.5600000000000005,0.9999988798442476,113.00452471045139
6.568,0.9999988721086368,112.92087201817712
6.5760000000000005,0.9999988645089875,112.83721264324817
6.584,0.9999988570560923,112.75354657776177
6.592,0.9999988497606093,112.66987381382377
6.6,0.9999988426330609,112.58619434354866
6.608,0.9999988356838369,112.5025081590595
6.616,0.9999988289231919,112.41881525248813
6.624,0.9999988223612488,112.33511561597498
6.632,0.9999988160079987,112.25140924166925
6.64,0.9999988098732991,112.16769612172885
6.648,0.9999988039668777,112.08397624832047
6.656,0.9999987982983308,112.00024961361956
6.664,0.9999987928771259,111.91651620981035
6.672,0.9999987877125992,111.83277602908599
6.68,0.9999987828139593,111.74902906364836
6.688,0.9999987781902857,111.66527530570828
6.696,0.9999987738505304,111.58151474748546
6.704,0.9999987698035179,111.49774738120847
6.712,0.999998766057946,111.41397319911489
6.72,0.9999987626223868,111.3301921934512
6.728,0.999998759505286,111.24640435647287
6.736,0.9999987567149651,111.1626096804444
6.744,0.9999987542596203,111.0788081576393
6.752,0.9999987521473244,110.9949997803401
6.76,0.9999987503860268,110.9111845408384
6.768,0.9999987489835542,110.82736243143495
6.776,0.9999987479476106,110.74353344443952
6.784,0.999998747285779,110.65969757217105
6.792,0.9999987470055202,110.57585480695766
6.8,0.9999987471141755,110.49200514113659
6.808,0.9999987476189656,110.4081485670543
6.816,0.9999987485269922,110.32428507706648
6.824,0.9999987498452373,110.24041466353802
6.832,0.9999987515805651,110.15653731884309
6.84,0.9999987537397224,110.07265303536515
6.848,0.9999987563293378,109.98876180549694
6.856,0.9999987593559236,109.90486362164052
6.864,0.9999987628258764,109.8209584762073
6.872,0.9999987667454765,109.73704636161804
6.88,0.9999987711208895,109.6531272703029
6.888,0.9999987759581667,109.56920119470144
6.896,0.9999987812632453,109.4852681272626
6.904,0.9999987870419488,109.40132806044483
6.912,0.9999987932999881,109.31738098671599
6.92,0.9999988000429623,109.23342689855346
6.928,0.9999988072763581,109.14946578844412
6.936,0.999998815005551,109.06549764888435
6.944,0.9999988232358067,108.98152247238009
6.952,0.9999988319722799,108.89754025144686
6.96,0.9999988412200156,108.81355097860974
6.968,0.9999988509839508,108.72955464640343
6.976,0.9999988612689135,108.64555124737225
6.984,0.9999988720796238,108.56154077407017
6.992,0.9999988834206942,108.4775232190608
7.0,0.9999988952966311,108.39349857491747
7.008,0.9999989077118335,108.30946683422323
7.016,0.9999989206705963,108.22542798957076
7.024,0.9999989341771074,108.14138203356258
7.032,0.9999989482354514,108.05732895881094
7.04,0.9999989628496082,107.97326875793787
7.048,0.9999989780234546,107.88920142357519
7.056,0.9999989937607637,107.80512694836455
7.064,0.9999990100652065,107.72104532495744
7.072,0.9999990269403527,107.63695654601521
7.08,0.9999990443896691,107.5528606042091
7.088,0.999999062416523,107.46875749222023
7.096,0.9999990810241813,107.38464720273966
7.104,0.9999991002158102,107.30052972846832
7.112,0.9999991199944775,107.21640506211718
7.12,0.9999991403631516,107.13227319640714
7.128,0.9999991613247039,107.04813412406907
7.136,0.999999182881907,106.96398783784389
7.144,0.9999992050374369,106.87983433048254
7.152,0.999999227793873,106.795673594746
7.16,0.9999992511536986,106.71150562340532
7.168,0.9999992751193018,106.62733040924162
7.176,0.9999992996929751,106.54314794504616
7.184,0.9999993248769175,106.45895822362026
7.192,0.9999993506732331,106.37476123777545
7.2,0.9999993770839336,106.29055698033335
7.208,0.999999404110937,106.2063454441258
7.216,0.9999994317560702,106.12212662199484
7.224,0.9999994600210664,106.03790050679271
7.232,0.9999994889075697,105.95366709138186
7.24,0.9999995184171323,105.869426368635
7.248,0.9999995485512159,105.78517833143512
7.256,0.9999995793111933,105.70092297267547
7.264,0.9999996106983481,105.61666028525963
7.272,0.9999996427138746,105.53239026210147
7.28,0.99999967535888,105.44811289612524
7.288,0.9999997086343835,105.36382818026547
7.296,0.9999997425413168,105.27953610746714
7.304,0.9999997770805257,105.19523667068559
7.312,0.9999998122527698,105.11092986288655
7.32,0.9999998480587232,105.02661567704617
7.328,0.9999998844989748,104.9422941061511
7.336,0.99999992157403,104.85796514319838
7.344,0.999999959284309,104.77362878119558
7.352,0.9999999976301494,104.68928501316071
7.36,1.0,104.60493383212234
7.368,1.0,104.52057523111954
7.376,1.0000000000000002,104.43620920320191
7.384,1.0,104.35183574142965
7.392,1.0000000000000002,104.26745483887352
7.4,0.9999999999999999,104.18306648861488
7.4079999999999995,1.0,104.0986706837457
7.416,1.0,104.01426741736853
7.4239999999999995,1.0,103.92985668259666
7.432,1.0,103.84543847255395
7.4399999999999995,1.0,103.76101278037504
7.448,1.0,103.67657959920514
7.4559999999999995,1.0,103.59213892220026
7.464,1.0,103.50769074252712
7.4719999999999995,1.0,103.42323505336317
7.48,1.0,103.33877184789661
7.4879999999999995,1.0,103.25430111932647
7.496,0.9999999999999999,103.1698228608625
7.504,0.9999999999999999,103.08533706572531
7.5120000000000005,1.0,103.00084372714629
7.52,0.9999999999999999,102.91634283836775
7.5280000000000005,1.0,102.83183439264276
7.536,1.0,102.74731838323535
7.5440000000000005,1.0,102.66279480342034
7.552,0.9999999999999999,102.57826364648358
7.5600000000000005,1.0,102.49372490572169
7.568,0.9999999999999999,102.40917857444236
7.5760000000000005,0.9999999999999999,102.32462464596416
7.584,1.0,102.24006311361666
7.5920000000000005,1.0,102.15549397074038
7.6,1.0,102.07091721068684
7.6080000000000005,1.0,101.9863328268186
7.616,1.0,101.90174081250926
7.6240000000000006,1.0,101.8171411611434
7.632,0.9999999999999999,101.73253386611673
7.640000000000001,1.0,101.64791892083596
7.648,1.0,101.563296318719
7.656000000000001,0.9999999999999999,101.47866605319471
7.664,0.9999999999999999,101.39402811770324
7.672,0.9999999999999999,101.30938250569574
7.68,1.0,101.22472921063458
7.688,1.0,101.14006822599326
7.696,0.9999999999999999,101.05539954525652
7.704,0.9999999999999999,100.9707231619202
7.712,1.0,100.88603906949143
7.72,1.0,100.80134726148853
7.728,1.0,100.71664773144104
7.736,1.0,100.63194047288981
7.744,1.0,100.5472254793869
7.752,1.0,100.4625027444957
7.76,1.0,100.37777226179085
7.768,1.0,100.29303402485834
7.776,1.0,100.20828802729547
7.784,0.9999999999999999,100.12353426271089
7.792,0.9999999999999999,100.03877272472458
7.8,0.9999999999999999,99.9540034069679
7.808,0.9999999999999999,99.86922630308364
7.816,1.0000000000000002,99.78444140672589
7.824,1.0,99.69964871156026
7.832,0.9999999999999999,99.61484821126369
7.84,0.9999999999999999,99.53003989952465
7.848,0.9999999999999999,99.44522377004297
7.856,0.9999999999999999,99.36039981653003
7.864,0.9999999999999999,99.27556803270863
7.872,0.9999999999999999,99.1907284123131
7.88,0.9999999999999998,99.1058809490893
7.888,1.0,99.02102563679455
7.896,0.9999999999999999,98.93616246919775
7.904,1.0,98.85129144007934
7.912,1.0,98.76641254323133
7.92,0.9999999999999999,98.6815257724573
7.928,1.0,98.59663112157244
7.936,1.0,98.51172858440351
7.944,1.0,98.42681815478895
7.952,1.0,98.34189982657874
7.96,0.9999999999999999,98.25697359363458
7.968,1.0,98.17203944982981
7.976,1.0,98.08709738904945
7.984,0.9999999999999999,98.00214740519016
7.992,1.0,97.91718949216036
8.0,1.0,97.83222364388016
8.008,1.0,97.74724985428138
8.016,1.0,97.66226811730758
8.024000000000001,1.0,97.57727842691409
8.032,0.9999999999999999,97.492280777068
8.04,0.9999999999999999,97.40727516174819
8.048,1.0,97.32226157494527
8.056000000000001,1.0,97.23724001066172
8.064,1.0,97.15221046291184
8.072,0.9999999999999998,97.06717292572174
8.08,1.0,96.9821273931293
8.088000000000001,0.9999999999999999,96.89707385918439
8.096,1.0,96.81201231794867
8.104,0.9999999999999999,96.7269427634957
8.112,0.9999999999999999,96.64186518991087
8.120000000000001,1.0,96.5567795912916
8.128,1.0,96.47168596174716
8.136,1.0,96.38658429539872
8.144,1.0,96.30147458637946
8.152000000000001,1.0,96.21635682883448
8.16,0.9999999999999998,96.13123101692085
8.168,1.0,96.04609714480766
8.176,1.0,95.96095520667592
8.184000000000001,1.0,95.87580519671874
8.192,0.9999999999999999,95.79064710914119
8.2,0.9999999999999999,95.70548093816038
8.208,1.0,95.62030667800548
8.216000000000001,1.0,95.5351243229177
8.224,1.0,95.44993386715034
8.232,1.0,95.36473530496878
8.24,1.0,95.27952863065045
8.248000000000001,1.0,95.19431383848496
8.256,0.9999999999999998,95.10909092277402
8.264,0.9999999999999999,95.02385987783143
8.272,0.9999999999999999,94.93862069798311
8.280000000000001,1.0,94.85337337756728
8.288,1.0,94.76811791093418
8.296,0.9999999999999999,94.68285429244631
8.304,0.9999999999999998,94.59758251647828
8.312,1.0,94.51230257741703
8.32,1.0,94.42701446966161
8.328,0.9999999999999999,94.34171818762337
8.336,0.9999999999999999,94.25641372572584
8.344,0.9999999999999999,94.17110107840485
8.352,1.0,94.08578024010845
8.36,0.9999999999999999,94.00045120529707
8.368,1.0,93.91511396844326
8.376,1.0,93.82976852403206
8.384,0.9999999999999999,93.74441486656065
8.392,0.9999999999999999,93.6590529905387
8.4,1.0,93.57368289048809
8.408,1.0,93.48830456094312
8.416,0.9999999999999999,93.4029179964504
8.424,1.0,93.31752319156898
8.432,0.9999999999999999,93.23212014087024
8.44,0.9999999999999999,93.14670883893801
8.448,0.9999999999999999,93.06128928036844
8.456,0.9999999999999999,92.97586145977024
8.464,0.9999999999999999,92.89042537176442
8.472,1.0,92.80498101098455
8.48,1.0,92.71952837207652
8.488,0.9999999999999999,92.63406744969888
8.496,0.9999999999999999,92.54859823852246
8.504,0.9999999999999999,92.46312073323075
8.512,0.9999999999999999,92.37763492851964
8.52,0.9999999999999999,92.29214081909763
8.528,1.0,92.20663839968563
8.536,1.0,92.12112766501723
8.544,0.9999999999999999,92.03560860983846
8.552,0.9999999999999999,91.950081228908
8.56,1.0,91.86454551699704
8.568,0.9999999999999999,91.77900146888946
8.576,1.0,91.69344907938161
8.584,1.0,91.60788834328261
8.592,0.9999999999999999,91.52231925541405
8.6,1.0,91.4367418106103
8.608,1.0,91.35115600371827
8.616,1.0,91.26556182959764
8.624,1.0,91.17995928312067
8.632,1.0,91.0943483591724
8.64,1.0,91.00872905265048
8.648,1.0,90.92310135846539
8.656,0.9999999999999999,90.8374652715402
8.664,0.9999999999999999,90.75182078681084
8.672,1.0,90.66616789922591
8.68,0.9999999999999999,90.58050660374687
8.688,1.0,90.4948368953478
8.696,0.9999999999999999,90.40915876901578
8.704,0.9999999999999999,90.32347221975049
8.712,1.0,90.23777724256456
8.72,0.9999999999999998,90.1520738324834
8.728,0.9999999999999999,90.06636198454525
8.736,1.0,89.98064169380125
8.744,0.9999999999999999,89.89491295531536
8.752,1.0,89.80917576416445
8.76,1.0,89.72343011543828
8.768,0.9999999999999999,89.63767600423947
8.776,1.0,89.55191342568365
8.784,1.0,89.46614237489932
8.792,1.0,89.38036284702792
8.8,1.0,89.29457483722389
8.808,1.0,89.20877834065462
8.815999999999999,1.0,89.1229733525005
8.824,1.0,89.03715986795487
8.832,0.9999999999999999,88.95133788222417
8.84,1.0,88.86550739052782
8.847999999999999,1.0,88.77966838809829
8.856,0.9999999999999999,88.69382087018106
8.864,1.0,88.60796483203475
8.872,1.0,88.52210026893108
8.879999999999999,1.0,88.4362271761548
8.888,0.9999999999999998,88.35034554900376
8.896,1.0,88.26445538278902
8.904,0.9999999999999999,88.17855667283474
8.911999999999999,1.0,88.09264941447825
8.92,1.0,88.00673360306997
8.928,1.0,87.92080923397366
8.936,1.0,87.83487630256619
8.943999999999999,1.0,87.74893480423762
8.952,1.0,87.6629847343913
8.96,1.0,87.57702608844379
8.968,0.9999999999999999,87.49105886182498
8.975999999999999,0.9999999999999999,87.40508304997796
8.984,0.9999999999999999,87.31909864835913
8.992,1.0,87.23310565243824
9.0,1.0,87.14710405769837
9.008,1.0,87.06109385963592
9.016,1.0,86.9750750537606
9.024000000000001,1.0,86.8890476355956
9.032,0.9999999999999999,86.80301160067746
9.04,1.0,86.71696694455613
9.048,1.0,86.63091366279495
9.056000000000001,0.9999999999999999,86.54485175097078
9.064,1.0,86.45878120467391
9.072,0.9999999999999999,86.37270201950811
9.08,0.9999999999999999,86.28661419109065
9.088000000000001,1.0,86.2005177150523
9.096,1.0,86.11441258703746
9.104,1.0,86.02829880270396
9.112,0.9999999999999999,85.94217635772326
9.120000000000001,1.0,85.85604524778043
9.128,0.9999999999999999,85.76990546857417
9.136,1.0,85.68375701581675
9.144,1.0,85.59759988523413
9.152000000000001,0.9999999999999999,85.51143407256596
9.16,0.9999999999999999,85.4252595735656
9.168,1.0,85.33907638400004
9.176,1.0,85.25288449965008
9.184000000000001,1.0,85.16668391631026
9.192,1.0,85.08047462978897
9.2,0.9999999999999999,84.99425663590824
9.208,1.0,84.90802993050407
9.216000000000001,1.0,84.82179450942624
9.224,1.0,84.73555036853845
9.232,1.0,84.64929750371824
9.24,1.0,84.5630359108571
9.248000000000001,1.0,84.47676558586043
9.256,0.9999999999999999,84.39048652464768
9.264,0.9999999999999999,84.3041987231522
9.272,0.9999999999999999,84.21790217732138
9.280000000000001,0.9999999999999998,84.13159688311666
9.288,1.0,84.04528283651362
9.296,0.9999999999999999,83.95896003350184
9.304,0.9999999999999999,83.87262847008502
9.312000000000001,0.9999999999999998,83.7862881422811
9.32,1.0,83.69993904612211
9.328,1.0,83.61358117765438
9.336,1.0,83.52721453293834
9.344,0.9999999999999999,83.44083910804885
9.352,1.0,83.35445489907492
9.36,1.0,83.26806190212002
9.368,1.0,83.18166011330187
9.376,1.0000000000000002,83.09524952875263
9.384,1.0,83.0088301446189
9.392,1.0,82.9224019570617
9.4,1.0,82.83596496225655
9.408,0.9999999999999998,82.7495191563935
9.416,1.0,82.66306453567718
9.424,0.9999999999999999,82.57660109632677
9.432,0.9999999999999999,82.4901288345761
9.44,1.0,82.40364774667371
9.448,1.0,82.31715782888277
9.456,1.0,82.23065907748129
9.464,0.9999999999999999,82.14415148876193
9.472,1.0,82.05763505903234
9.48,1.0,81.9711097846149
9.488,1.0,81.88457566184698
9.496,0.9999999999999999,81.79803268708082
9.504,1.0,81.71148085668376
9.512,0.9999999999999999,81.62492016703811
9.52,0.9999999999999999,81.53835061454129
9.528,1.0,81.45177219560578
9.536,1.0,81.36518490665938
9.544,1.0,81.27858874414497
9.552,1.0,81.19198370452084
9.56,1.0,81.10536978426046
9.568,1.0,81.01874697985284
9.576,1.0,80.93211528780228
9.584,1.0,80.84547470462867
9.592,1.0,80.75882522686737
9.6,1.0,80.67216685106943
9.608,1.0,80.58549957380146
9.616,1.0,80.49882339164583
9.624,1.0,80.41213830120068
9.632,0.9999999999999999,80.32544429908005
9.64,1.0,80.23874138191374
9.648,0.9999999999999999,80.15202954634772
9.656,0.9999999999999999,80.06530878904378
9.664,0.9999999999999998,79.97857910668
9.672,1.0,79.89184049595053
9.68,1.0,79.80509295356579
9.688,1.0,79.71833647625253
9.696,1.0,79.6315710607539
9.704,1.0,79.54479670382948
9.712,1.0,79.45801340225547
9.72,1.0,79.37122115282465
9.728,0.9999999999999999,79.28441995234655
9.736,1.0,79.19760979764747
9.744,1.0,79.11079068557066
9.752,0.9999999999999999,79.02396261297625
9.76,1.0,78.93712557674154
9.768,1.0,78.85027957376093
9.776,0.9999999999999998,78.76342460094614
9.784,1.0,78.67656065522618
9.792,1.0,78.58968773354762
9.8,1.0,78.50280583287447
9.808,1.0,78.41591495018858
9.816,0.9999999999999998,78.32901508248943
9.824,1.0,78.2421062267945
9.832,0.9999999999999999,78.15518838013926
9.84,1.0,78.06826153957734
9.847999999999999,0.9999999999999999,77.98132570218057
9.856,0.9999999999999999,77.8943808650392
9.864,0.9999999999999999,77.80742702526203
9.872,0.9999999999999999,77.72046417997647
9.879999999999999,1.0,77.63349232632876
9.888,1.0,77.54651146148399
9.896,0.9999999999999999,77.4595215826264
9.904,1.0,77.37252268695943
9.911999999999999,1.0,77.28551477170588
9.92,1.0,77.19849783410811
9.928,1.0,77.11147187142815
9.936,1.0,77.02443688094793
9.943999999999999,1.0,76.93739285996938
9.952,1.0,76.85033980581464
9.96,0.9999999999999999,76.76327771582632
9.968,0.9999999999999999,76.67620658736752
9.975999999999999,0.9999999999999999,76.58912641782216
9.984,1.0,76.5020372045951
9.992,0.9999999999999999,76.41493894511245
10.0,1.0,76.32783163682167
10.008,0.9999999999999999,76.24071527719184
10.016,1.0,76.15358986371379
10.024000000000001,1.0,76.06645539390058
10.032,1.0,75.97931186528746
10.04,1.0,75.89215927543223
10.048,0.9999999999999999,75.8049976219155
10.056000000000001,1.0,75.717826902341
10.064,1.0,75.63064711433574
10.072,1.0,75.54345825555033
10.08,1.0,75.4562603236593
10.088000000000001,0.9999999999999998,75.36905331636137
10.096,1.0,75.28183723137981
10.104,1.0,75.19461206646261
10.112,1.0,75.10737781938293
10.120000000000001,0.9999999999999999,75.02013448793944
10.128,1.0,74.93288206995666
10.136,0.9999999999999999,74.84562056328521
10.144,1.0,74.7583499658023
10.152000000000001,1.0,74.67107027541209
10.16,0.9999999999999999,74.58378149004608
10.168,0.9999999999999999,74.4964836076635
10.176,1.0,74.4091766262517
10.184000000000001,1.0,74.32186054382672
