freq,mag,phase
6.0,1.000359101953018,127.19134510834081
6.002287616,1.0005055535832965,127.02281334270567
6.004575232,1.0006216275384578,126.85243755836684
6.006862848,1.0006986735637988,126.6806338534827
6.009150464,1.0007319572852456,126.50805829401045
6.011438592,1.0007193170796955,126.33540156312414
6.013726208,1.0006614198544226,126.16326201452894
6.016013824,1.0005621519301198,125.99229349262247
6.01830144,1.0004275763665877,125.82299838343633
6.020589056,1.0002662528949544,125.65594504615007
6.022876672,1.0000883719707074,125.49133093212015
6.025164288,0.9999049314642269,125.32939346981837
6.027451904,0.9997279350092694,125.17005954630464
6.029740032,0.9995684395481618,125.01324417126054
6.032027648,0.9994365258042915,124.85857172976498
6.034315264,0.9993405221938562,124.70558709134959
6.03660288,0.9992866062011807,124.55368341784244
6.038890496,0.9992782722113536,124.40231330121978
6.041178112,0.9993159612612231,124.25074444332331
6.043465728,0.9993973173585502,124.09831343542973
6.045753344,0.9995173239008001,123.94445508193603
6.04804096,0.999668215337864,123.78865782200687
6.050329088,0.9998406888703729,123.63054217685028
6.052616704,1.0000236417020434,123.4698886247643
6.05490432,1.0002054159558116,123.30655482620773
6.057191936,1.0003746401650442,123.1407687912197
6.059479552,1.000520608454275,122.97269995461463
6.061767168,1.0006340582142244,122.80274803806803
6.064054784,1.0007077981214665,122.63145387592296
6.0663424,1.000737166504063,122.4594506930534
6.068630016,1.0007202270857438,122.28740999826223
6.070918144,1.0006580889865324,122.11593967942842
6.07320576,1.0005546939335934,121.94570777201739
6.075493376,1.0004164249618626,121.77724175484128
6.077780992,1.0002520949013656,121.61098462516902
6.080068608,1.000072069941253,121.44728444234437
6.082356224,0.9998877481049585,121.28621868348232
6.08464384,0.9997107101786381,121.12783788163583
6.086931456,0.9995523487943325,120.97190352791249
6.089219584,0.9994224771355259,120.81808060005402
6.0915072,0.9993295953689066,120.66593967999684
6.093794816,0.9992793830700276,120.51484085585034
6.096082432,0.9992752431767694,120.36417634134399
6.098370048,0.99931740219999,120.213287983678
6.100657664,0.9994030250425844,120.06146169631849
6.10294528,0.9995269578347161,119.90815561957125
6.105232896,0.9996812534066027,119.75286513117118
6.107520512,0.9998560199726325,119.59517926271086
6.10980864,1.0000405623736532,119.43493160106408
6.112096256,1.0002228672050566,119.27203378885886
6.114383872,1.0003914210359723,119.1066069372217
6.116671488,1.0005356493188036,118.93896204515458
6.118959104,1.000646481970929,118.76946618849065
6.12124672,1.000716687257725,118.5986804104745
6.123534336,1.0007420427522387,118.42723991010958
6.125821952,1.0007207592011238,118.25579060862582
6.128109568,1.0006541918917546,118.08501033238399
6.130397696,1.000546629057101,117.91547319438645
6.132685312,1.000404664965234,117.74779358425434
6.134972928,1.0002374526956934,117.58239134110772
6.137260544,1.000055397140533,117.41954379284276
6.13954816,0.9998701271552761,117.25938656336895
6.141835776,0.9996931567208811,117.101895053438
6.144123392,0.999536121149555,116.94685327471477
6.146411008,0.9994084403434706,116.7939090766566
6.148699136,0.9993187350874272,116.64255525895686
6.150986752,0.9992723656679294,116.49226316754874
6.153274368,0.9992724467427334,116.34230477341062
6.155561984,0.999319111911526,116.19204741196741
6.1578496,0.9994091403508142,116.04081710937724
6.160137216,0.9995369471826062,115.88805893959419
6.162424832,0.9996946225755337,115.733185603798
6.164712448,0.9998718787546842,115.57596365380701
6.167000064,1.0000579236459186,115.4161025129534
6.169288192,1.0002405551454872,115.25359020537809
6.171575808,1.0004084826513517,115.0885653506663
6.173863424,1.000550832894734,114.92129383260385
6.17615104,1.0006589004308022,114.75224384768705
6.178438656,1.0007255432689441,114.58193681317185
6.180726272,1.0007467262937297,114.41103003086728
6.183013888,1.000720957013174,114.24017782032325
6.185301504,1.0006499331066498,114.07004176593699
6.18758912,1.0005381423351674,113.90125910718325
6.189877248,1.0003925440594066,113.73436038537373
6.192164864,1.0002223831782673,113.56976025672685
6.19445248,1.0000383595318436,113.40778256292853
6.196740096,0.9998522134532957,113.24851599704989
6.199027712,0.9996755811081652,113.09190517012799
6.201315328,0.9995197258920341,112.93773521186152
6.203602944,0.9993946068597072,112.78564885746269
6.20589056,0.9993080415574921,112.63512337834322
6.208178688,0.9992657423766617,112.48557612296132
6.210466304,0.9992703113444387,112.33630201503802
6.21275392,0.999321377667371,112.18665894250633
6.215041536,0.9994156790385084,112.03600642446762
6.217329152,0.9995476497889152,111.88372327747715
6.219616768,0.9997085860981914,111.72932614619512
6.221904384,0.9998883980063638,111.57247435537894
6.224192,1.0000756963127995,111.41299521951733
6.226479616,1.0002585262245014,111.25082689534077
6.228767744,1.0004255557090962,111.08617907085646
6.23105536,1.0005660488189454,110.91929084325737
6.233342976,1.0006710686327398,110.75065284803419
6.235630592,1.0007340357810632,110.58081284555436
6.237918208,1.000751016972379,110.41046414329499
6.240205824,1.000720729206397,110.24016892034214
6.24249344,1.000645192875401,110.07069665945428
6.244781056,1.0005290525343962,109.90261744952288
6.247068672,1.000379698861573,109.73647707684653
6.2493568,1.0002066728471097,109.5727121129703
6.251644416,1.0000207188191303,109.41159529566279
6.253932032,0.9998337513848077,109.25319250868597
6.256219648,0.9996575321126067,109.09745923624308
6.258507264,0.9995031953117453,108.94416681195716
6.26079488,0.9993805741207286,108.79289745896946
6.263082496,0.999297543185319,108.6431593496329
6.265370112,0.9992593165889547,108.49433756956748
6.26765824,0.9992683411108724,108.34573436709913
6.269945856,0.9993240030504575,108.1966991039851
6.272233472,0.9994230197523339,108.04657559287031
6.274521088,0.9995587785998379,107.8947826235482
6.276808704,0.999723107034589,107.74079492651906
6.27909632,0.999905245476362,107.58431982153303
6.281383936,1.0000938381605946,107.42517753571407
6.283671552,1.0002769241827918,107.26338405134285
6.285959168,1.0004429234428884,107.09904081610374
6.288247296,1.0005813925768148,106.93252803676538
6.290534912,1.0006833443762322,106.76430776613553
6.292822528,1.000742376696384,106.59491962174977
6.295110144,1.0007549039063663,106.42504459248299
6.29739776,1.0007199705067207,106.25533241737095
6.299685376,1.0006399251791116,106.08648729375822
6.301972992,1.0005194427696196,105.9191270831028
6.304260608,1.00036659029145,105.75375803951897
6.306548224,1.00019065145624,105.59082004220093
6.308836352,1.0000028778108374,105.43051829973362
6.311123968,0.9998150681647461,105.27298050271658
6.313411584,0.9996393036653014,105.11809145956056
6.3156992,0.9994865524895479,104.96564416161796
6.317986816,0.999366684503746,104.8151902236076
6.320274432,0.999287201114207,104.66622113073794
6.322562048,0.9992530880243675,104.51811760812807
6.324849664,0.9992667556420454,104.37018436840312
6.327137792,0.9993270793211801,104.22170582395124
6.329425408,0.9994305770718529,104.07208542374347
6.331713024,0.9995704337247684,103.92073787396934
6.33400064,0.9997380002767821,103.76713600730818
6.336288256,0.9999225329685225,103.61104031316812
6.338575872,1.000112358444713,103.45221928525118
6.340863488,1.000295535529834,103.290698141217
6.343151104,1.0004604022238688,103.12668240795057
6.34543872,1.00059651751677,102.9605297928072
6.347726848,1.0006952211501325,102.79267135644096
6.350014464,1.000750419667228,102.62372585055249
6.35230208,1.0007584257192308,102.45433123679598
6.354589696,1.000718840883504,102.28522061861317
6.356877312,1.0006340388209591,102.1169967057741
6.359164928,1.0005092954455763,101.95032519118112
6.361452544,1.0003526387422685,101.78569935203558
6.36374016,1.0001739518694412,101.623535369598
6.366027776,0.9999842990961914,101.46407989801867
6.368315904,0.9997960347734738,101.30741167122954
6.37060352,0.9996208327282995,101.15336905265873
6.372891136,0.9994699036725943,101.00173952048193
6.375178752,0.9993527728549115,100.85207162362899
6.377466368,0.999276973984307,100.70387731912201
6.379753984,0.9992472368009111,100.55641585991869
6.3820416,0.9992655550145811,100.40909306070608
6.384329216,0.999330735145105,100.26119295631788
6.386617344,0.9994388058397529,100.11205668062661
6.38890496,0.9995826654666004,99.9611074460626
6.391192576,0.9997534263172639,99.80787808522668
6.393480192,0.9999402792257645,99.65209378733395
6.395767808,1.0001313261041016,99.49355624241115
6.398055424,1.0003143303405464,99.33236785021805
6.40034304,1.0004779783628786,99.16867644530114
6.402630656,1.000611681569018,99.00280526339803
6.404918272,1.000707180887072,98.83532833105896
6.4072064,1.000758114738555,98.66677687848048
6.409494016,1.0007615998126607,98.49787437011364
6.411781632,1.0007171565408288,98.32928100427849
6.414069248,1.0006275180172237,98.16167234994593
6.416356864,1.0004986334433519,97.9956958176879
6.41864448,1.000338229476815,97.83182131020769
6.420932096,1.0001568364575617,97.670400580104
6.423219712,0.9999655689878972,97.51178796032384
6.425507328,0.9997766854534845,97.35592061957254
6.427795456,0.999602172055703,97.20272062461575
6.430083072,0.9994531938728981,97.05189387849481
6.432370688,0.9993390158605968,96.90302038941746
6.434658304,0.9992670346172853,96.7555259437943
6.43694592,0.9992417830124178,96.6087361228713
6.439233536,0.9992649341634265,96.4620176373969
6.441521152,0.9993349784558352,96.3146452284268
6.443808768,0.9994475619276558,96.16593600140418
6.446096896,0.9995954743803336,96.01537551369884
6.448384512,0.999769575617327,95.8624837339916
6.450672128,0.9999585506281893,95.70698517621375
6.452959744,1.000150529184091,95.5487649417263
6.45524736,1.000333470133459,95.387796948481
6.457534976,1.0004957322627859,95.22436477582526
6.459822592,1.0006269613577516,95.05879614893615
6.462110208,1.0007188847836426,94.89164481041412
6.464397824,1.0007656517022885,94.72351434517044
6.466685952,1.0007644420790414,94.55507979884341
6.468973568,1.0007150643697562,94.38702847448978
6.471261184,1.0006206314502366,94.22003313190848
6.4735488,1.000487416742769,94.05468298698534
6.475836416,1.0003233367500615,93.89154685288626
6.478124032,1.0001391669048159,93.73092283620312
6.480411648,0.9999463680260405,93.57308318417674
6.482699264,0.9997570745939951,93.41802504720255
6.48498688,0.9995834889087334,93.2656341245383
6.487275008,0.9994363904855993,93.11559556083688
6.489562624,0.9993253759388566,92.9674759551237
6.49185024,0.9992573481688641,92.82067124396644
6.494137856,0.9992366441832246,92.67451715389969
6.496425472,0.9992647503664931,92.52836715221625
6.498713088,0.9993397313140394,92.38146712704473
6.501000704,0.9994569044028704,92.23320650411755
6.50328832,0.9996089141542418,92.08299924454295
6.505576448,0.9997861080323835,91.93041852332001
6.507864064,0.9999772739271768,91.77518783731838
6.51015168,1.00017025254648,91.61715884527777
6.512439296,1.0003528733126101,91.45647086948449
6.514726912,1.0005135427147405,91.29325740331218
6.517014528,1.0006421389496525,91.12799614711787
6.519302144,1.0007305353377274,90.96116122521805
6.52158976,1.000772940176775,90.79340917630297
6.523877376,1.0007667688583273,90.62541310411329
6.526165504,1.000712397522777,90.45785259522415
6.52845312,1.0006132829332617,90.29144403660273
6.530740736,1.0004755896224056,90.12674648821712
6.533028352,1.0003079923931963,89.96431545916161
6.535315968,1.000120979899836,89.80447061070895
6.537603584,0.9999267860540554,89.64739783428114
6.5398912,0.999737219292143,89.4931518388321
6.542178816,0.9995645540808206,89.34153492741771
6.544466432,0.9994197617927435,89.19225689796767
6.54675456,0.9993118983736201,89.04485325463038
6.549042176,0.9992479516666767,88.8987171122639
6.551329792,0.99923199864122,88.75319724109492
6.553617408,0.9992651157889795,88.60754610888199
6.555905024,0.9993450589342064,88.46113743456107
6.55819264,0.9994668892250956,88.31323946547403
6.560480256,0.9996228572581972,88.16337361580996
6.562767872,0.999803271026737,88.01106894382328
6.565056,0.9999963620149829,87.85606715072961
6.567343616,1.000190286264149,87.69829096091185
6.569631232,1.0003725385750724,87.53777206111168
6.571918848,1.0005315945792455,87.37480079144433
6.574206464,1.0006572704830112,87.20977623066015
6.57649408,1.0007418585921461,87.04323746266647
6.578781696,1.000779739452921,86.87585577134998
6.581069312,1.0007686933651028,86.7082831531618
6.583356928,1.0007092953135408,86.54122263777819
6.585645056,1.000605311251118,86.37538505061757
6.587932672,1.0004631743793497,86.21132497692957
6.590220288,1.000292044648772,86.04957747527676
6.592507904,1.0001025364299012,85.89044301147223
6.59479552,0.9999067609239208,85.7341401996299
6.597083136,0.9997170432944673,85.58066637461013
6.599370752,0.9995455473711542,85.42984752694258
6.601658368,0.9994030469139604,85.28130470815765
6.603945984,0.9992986674107524,85.1346166341561
6.606234112,0.9992389239620204,84.98913078686982
6.608521728,0.9992277574234172,84.84416005685786
6.610809344,0.9992658693798423,84.69902600390989
6.61309696,0.9993508932465176,84.55302468861245
6.615384576,0.9994774527303402,84.40549968385743
6.617672192,0.9996375087353461,84.25591074593369
6.619959808,0.9998208821691362,84.1038612010015
6.622247424,1.000016146038091,83.94905102131129
6.624535552,1.0002107606262223,83.79144606232687
6.626823168,1.0003922854392,83.63111470068925
6.629110784,1.0005495598896548,83.4683440306232
6.6313984,1.0006724190465794,83.30354658279434
6.633686016,1.000752997094884,83.137309698758
6.635973632,1.000786391805169,82.97023398697795
6.638261248,1.000770209188217,82.80305789822627
6.640548864,1.0007057507800938,82.6364907324557
6.64283648,1.0005966875806531,82.47119483589991
6.645124608,1.0004502680561338,82.30776612159826
6.647412224,1.0002754831926108,82.14668287854384
6.64969984,1.0000834693891423,81.98827907393817
6.651987456,0.9998863293725267,81.8327271518322
6.654275072,0.9996966433879468,81.67998644607769
6.656562688,0.9995263286926437,81.52991374202026
6.658850304,0.9993862922164032,81.38210620398333
6.66113792,0.9992854037232018,81.23607910148543
6.663426048,0.9992300557299794,81.09118831880329
6.665713664,0.999223803038504,80.94679199911192
6.66800128,0.9992671244179291,80.80214005427476
6.670288896,0.9993573123340741,80.65652424075827
6.672576512,0.9994885798828966,80.50931964728895
6.674864128,0.999652668583822,80.35999643119922
6.677151744,0.9998390880033824,80.20813261702521
6.67943936,1.0000361661277457,80.05351655882139
6.681726976,1.000231323336031,79.89604218454036
6.684015104,1.0004122411754715,79.73586677768687
6.68630272,1.0005675242538266,79.57327857044665
6.688590336,1.0006872350833005,79.40867112826481
6.690877952,1.000763922160738,79.24268266183815
6.693165568,1.000792563305608,79.07592535567973
6.695453184,1.0007711704837743,78.90914915260507
6.6977408,1.0007014341301979,78.7430488581405
6.700028416,1.0005876003360106,78.57827967794283
6.702316032,1.0004367090475028,78.41544748206165
6.70460416,1.0002584615031536,78.25501795041262
6.706891776,1.000063907977314,78.09732150665572
6.709179392,0.9998656554670248,77.94250818152575
6.711467008,0.999676003434623,77.79048884904958
6.713754624,0.9995071338437703,77.64113897859933
6.71604224,0.9993696593018282,77.49401272667721
6.718329856,0.9992724728133107,77.34863185519495
6.720617472,0.99922166192987,77.204343148322
6.7229056,0.9992204647822812,77.06044338638914
6.725193216,0.9992690025429324,76.91623085884372
6.727480832,0.999364337202298,76.77098927490327
6.729768448,0.9995002407021459,76.62407217621066
6.732056064,0.9996682409369356,76.47496971523393
6.73434368,0.9998577152114129,76.32329276193698
6.736631296,1.0000565641757084,76.1687940602734
6.738918912,1.0002522369590094,76.01144858713532
6.741206528,1.0004323783878204,75.85137735122761
6.743494656,1.000585545495379,75.68891267308321
6.745782272,1.000702038756847,75.52451116223982
6.748069888,1.000774481642711,75.3587553654428
6.750357504,1.000798221388191,75.19231469599964
6.75264512,1.0007716889049043,75.02589203231733
6.754932736,1.0006967078803242,74.86022453385067
6.757220352,1.000577840389991,74.69596350611323
6.759507968,1.0004225824690434,74.53373102177805
6.761795584,1.0002407600986138,74.37394422336926
6.764083712,1.0000440077886532,74.21693368252261
6.766371328,0.9998445237423453,74.06280124230304
6.768658944,0.9996551545426604,73.91152529004694
6.77094656,0.999487879124483,73.76284956167048
6.773234176,0.9993531252274765,73.61640136482076
6.775521792,0.9992597941544191,73.4716420395857
6.777809408,0.9992135657840627,73.32791095364914
6.780097024,0.9992175032712108,73.18449046201899
6.782385152,0.9992714451815637,73.04067385409572
6.784672768,0.9993719551978221,72.89576069845455
6.786960384,0.9995125529598091,72.74909283319691
6.789248,0.9996845768857283,72.60017887070045
6.791535616,0.9998769825313482,72.44863209267622
6.793823232,1.0000774531851686,72.29425719017054
6.796110848,1.000273582430106,72.13699787499502
6.798398464,1.0004527754802774,71.97701405402756
6.80068608,1.0006036362650805,71.81467051928247
6.802974208,1.0007166926721716,71.65041389539564
6.805261824,1.00078476586451,71.48486801973725
6.80754944,1.000803527476995,71.31868011687264
6.809837056,1.0007716961777737,71.15261580411526
6.812124672,1.0006913129592059,70.98737495619676
6.814412288,1.0005674134503408,70.82362049468712
6.816699904,1.0004077940648943,70.66194907239507
6.81898752,1.0002226176924434,70.50277637002995
6.821275136,1.000023487544406,70.34642403817088
6.823563264,0.9998230845574237,70.19299089762318
6.82585088,0.9996339494774589,70.0423939896869
6.828138496,0.9994684073886831,69.89439639359007
6.830426112,0.9993366517823086,69.7486036195276
6.832713728,0.999247197398069,69.60440688473687
6.835001344,0.9992058588010044,69.46120342690618
6.83728896,0.9992150351748642,69.31822220772476
6.839576576,0.9992744088041531,69.1747775287255
6.841864704,0.9993800793556168,69.03015542872251
6.84415232,0.9995254573881038,68.88371705183488
6.846439936,0.9997013274498262,68.73496081643306
6.848727552,0.9998965591190837,68.58349657976407
6.851015168,1.0000987152899292,68.42920322950444
6.853302784,1.0002950700393225,68.27199813568504
6.8555904,1.0004731240190676,68.11209137172622
6.857878016,1.000621640018835,67.94981950481537
6.860165632,1.0007311681108384,67.78568518848381
6.86245376,1.0007947055130495,67.62031421499348
6.864741376,1.0008083205265401,67.4543846237796
6.867028992,1.0007710856495833,67.28865422238069
6.869316608,1.0006853939548273,67.12381236939844
6.871604224,1.0005564442663044,66.96054614920709
6.87389184,1.0003924989930872,66.79941366234974
6.876179456,1.0002038403220228,66.64083473226209
6.878467072,1.0000025723611414,66.48514048258944
6.880754688,0.999801264787248,66.3323551581149
6.883042816,0.9996127043880938,66.18243230880499
6.885330432,0.999448913579016,66.03507202657904
6.887618048,0.9993202792384522,65.8898888912666
6.889905664,0.9992349732680172,65.74624518618783
6.89219328,0.9991984646627992,65.60354100147755
6.894480896,0.9992129931700359,65.46098103690238
6.896768512,0.9992778900504395,65.31787332699909
6.899056128,0.9993888503799218,65.17350330487604
6.901344256,0.9995389244930811,65.02723688684104
6.903631872,0.9997186986485774,64.87859933671709
6.905919488,0.9999167173160797,64.72721003395382
6.908207104,1.0001203424161473,64.57292931917941
6.91049472,1.0003167324170135,64.41574909371037
6.912782336,1.0004935109137345,64.25587401285011
6.915069952,1.000639542498577,64.09367040797696
6.917357568,1.0007452978813223,63.929634709297865
6.919645184,1.0008043153612212,63.76444452232614
6.921933312,1.0008127407165344,63.598740064908235
6.924220928,1.0007700271818232,63.433306737612426
6.926508544,1.000678763489479,63.26884322832401
6.92879616,1.0005448359897133,63.106039318713556
6.931083776,1.0003765756897824,62.94543493981736
6.933371392,1.0001847112953965,62.78746181332883
