freq,mag,phase
6.0,0.9999964359391944,170.70807147047893
6.008,0.9999961069117496,170.3265478141085
6.016,0.9999957797313271,169.94487474708924
6.024,0.9999954544305307,169.56304650676495
6.032,0.999995131041377,169.1810573166096
6.04,0.9999948095953034,168.79890138623117
6.048,0.9999944901231712,168.41657291137497
6.056,0.9999941726552741,168.03406607392722
6.064,0.9999938572213422,167.65137504191782
6.072,0.999993543850548,167.26849396952352
6.08,0.9999932325715134,166.88541699707088
6.088,0.9999929234123125,166.50213825103918
6.096,0.99999261640048,166.11865184406363
6.104,0.9999923115630156,165.73495187493862
6.112,0.9999920089263872,165.35103242862095
6.12,0.9999917085165417,164.96688757623406
6.128,0.9999914103589047,164.5825113750718
6.136,0.9999911144783888,164.1978978686033
6.144,0.9999908208993977,163.81304108647785
6.152,0.9999905296458328,163.42793504453084
6.16,0.9999902407410961,163.04257374478985
6.168,0.9999899542080971,162.65695117548194
6.176,0.9999896700692573,162.27106131104134
6.184,0.9999893883465151,161.8848981121184
6.192,0.9999891090613293,161.49845552558915
6.2,0.9999888322346874,161.1117274845662
6.208,0.9999885578871075,160.72470790841038
6.216,0.9999882860386433,160.33739070274385
6.224,0.9999880167088888,159.94976975946454
6.232,0.9999877499169862,159.56183895676176
6.24,0.9999874856816248,159.17359215913302
6.248,0.99998722402105,158.78502321740308
6.256,0.9999869649530666,158.39612596874383
6.264,0.9999867084950403,158.0068942366961
6.272,0.9999864546639076,157.61732183119364
6.28,0.9999862034761772,157.22740254858837
6.288,0.9999859549479317,156.8371301716779
6.296,0.9999857090948361,156.44649846973505
6.304,0.9999854659321402,156.0555011985393
6.312,0.9999852254746815,155.66413210041074
6.32,0.9999849877368927,155.27238490424634
6.328,0.9999847527328,154.88025332555802
6.336,0.9999845204760344,154.48773106651427
6.344,0.999984290979828,154.09481181598335
6.352,0.9999840642570236,153.70148924957965
6.36,0.9999838403200754,153.30775702971303
6.368,0.9999836191810547,152.91360880564068
6.376,0.9999834008516516,152.51903821352198
6.384,0.9999831853431792,152.1240388764768
6.392,0.9999829726665772,151.72860440464672
6.4,0.999982762832418,151.33272839525964
6.408,0.9999825558509059,150.93640443269774
6.416,0.9999823517318812,150.53962608856915
6.424,0.9999821504848279,150.14238692178287
6.432,0.9999819521188711,149.74468047862806
6.44,0.9999817566427849,149.34650029285638
6.448,0.9999815640649914,148.94783988576907
6.456,0.9999813743935694,148.5486927663078
6.464,0.9999811876362513,148.1490524311493
6.472,0.9999810038004293,147.7489123648052
6.48,0.9999808228931597,147.3482660397255
6.4879999999999995,0.9999806449211629,146.94710691640728
6.496,0.9999804698908282,146.5454284435072
6.504,0.9999802978082151,146.14322405796017
6.5120000000000005,0.9999801286790577,145.7404871851012
6.52,0.9999799625087662,145.33721123879423
6.5280000000000005,0.9999797993024306,144.93338962156443
6.536,0.9999796390648223,144.52901572473726
6.5440000000000005,0.999979481800397,144.12408292858174
6.552,0.9999793275132967,143.71858460246037
6.5600000000000005,0.9999791762073553,143.31251410498405
6.568,0.9999790278860946,142.90586478417333
6.5760000000000005,0.999978882552734,142.4986299776253
6.584,0.9999787402101866,142.09080301268708
6.592,0.9999786008610668,141.68237720663492
6.6,0.9999784645076879,141.27334586686067
6.608,0.9999783311520666,140.8637022910639
6.616,0.9999782007959248,140.4534397674514
6.624,0.999978073440692,140.0425515749432
6.632,0.9999779490875068,139.63103098338578
6.64,0.9999778277372192,139.21887125377245
6.648,0.9999777093903909,138.80606563847113
6.656,0.9999775940473004,138.3926073814593
6.664,0.9999774817079415,137.97848971856706
6.672,0.9999773723720277,137.5637058777277
6.68,0.9999772660389921,137.1482490792362
6.688,0.9999771627079898,136.73211253601625
6.696,0.9999770623778992,136.315289453895
6.704,0.9999769650473247,135.8977730318866
6.712,0.9999768707145958,135.47955646248457
6.72,0.9999767793777722,135.0606329319624
6.728,0.9999766910346415,134.64099562068364
6.736,0.9999766056827232,134.2206377034208
6.744,0.9999765233192683,133.79955234968384
6.752,0.9999764439412627,133.37773272405767
6.76,0.9999763675454264,132.95517198655
6.768,0.9999762941282152,132.53186329294837
6.776,0.9999762236858231,132.10779979518756
6.784,0.999976156214182,131.68297464172707
6.792,0.9999760917089637,131.25738097793902
6.8,0.9999760301655798,130.83101194650666
6.808,0.9999759715791847,130.40386068783343
6.816,0.9999759159446742,129.97592034046306
6.824,0.9999758632566882,129.54718404151092
6.832,0.999975813509611,129.1176449271064
6.84,0.9999757666975716,128.6872961328469
6.848,0.9999757228144457,128.25613079426364
6.856,0.999975681853855,127.82414204729895
6.864,0.9999756438091694,127.39132302879604
6.872,0.9999756086735069,126.95766687700078
6.88,0.9999755764397331,126.52316673207582
6.888,0.9999755471004654,126.08781573662765
6.896,0.9999755206480687,125.65160703624618
6.904,0.9999754970746604,125.21453378005751
6.912,0.9999754763721077,124.77658912128973
6.92,0.9999754585320297,124.33776621785245
6.928,0.9999754435457981,123.8980582329294
6.936,0.9999754314045363,123.45745833558544
6.944,0.9999754220991198,123.01595970138699
6.952,0.9999754156201783,122.57355551303692
6.96,0.9999754119580948,122.13023896102389
6.968,0.9999754111030051,121.686003244286
6.976,0.9999754130447995,121.24084157088927
6.984,0.9999754177731225,120.79474715872132
6.992,0.9999754252773728,120.34771323619975
7.0,0.9999754355467028,119.89973304299617
7.008,0.9999754485700202,119.4507998307756
7.016,0.9999754643359874,119.00090686395176
7.024,0.9999754828330216,118.55004742045794
7.032,0.9999755040492939,118.0982147925342
7.04,0.9999755279727309,117.64540228753077
7.048,0.9999755545910152,117.19160322872777
7.056,0.9999755838915816,116.73681095617184
7.064,0.9999756158616222,116.28101882752915
7.072,0.9999756504880828,115.82422021895586
7.08,0.9999756877576625,115.36640852598524
7.088,0.999975727656818,114.90757716443258
7.096,0.999975770171758,114.44771957131721
7.104,0.9999758152884466,113.98682920580241
7.112,0.9999758629926013,113.52489955015307
7.12,0.9999759132696953,113.06192411071116
7.128,0.9999759661049533,112.59789641888962
7.136,0.9999760214833557,112.1328100321843
7.144,0.999976079389637,111.66665853520433
7.152,0.999976139808282,111.19943554072124
7.16,0.9999762027235315,110.73113469073648
7.168,0.9999762681193775,110.26174965756812
7.176,0.999976335979567,109.79127414495616
7.184,0.9999764062875964,109.3197018891871
7.192,0.9999764790267173,108.84702666023777
7.2,0.9999765541799321,108.37324226293829
7.208,0.9999766317299952,107.89834253815448
7.216,0.9999767116594132,107.42232136398991
7.224,0.9999767939504427,106.94517265700732
7.232,0.999976878585094,106.46689037346984
7.24,0.9999769655451272,105.98746851060199
7.248,0.9999770548120537,105.5069011078704
7.256,0.9999771463671344,105.02518224828437
7.264,0.9999772401913836,104.54230605971655
7.272,0.9999773362655633,104.05826671624335
7.28,0.9999774345701886,103.5730584395055
7.288,0.9999775350855222,103.08667550008849
7.296,0.999977637791579,102.5991122189232
7.304,0.9999777426681239,102.11036296870647
7.312,0.9999778496946712,101.62042217534157
7.32,0.9999779588504858,101.12928431939912
7.328,0.9999780701145824,100.6369439375973
7.336,0.9999781834657266,100.14339562430257
7.344,0.9999782988824355,99.64863403305007
7.352,0.9999784163429725,99.15265387808377
7.36,0.9999785358253573,98.65544993591637
7.368,0.9999786573073555,98.15701704690886
7.376,0.9999787807664865,97.6573501168699
7.384,0.9999789061800212,97.15644411867387
7.392,0.9999790335249804,96.65429409389898
7.4,0.9999791627781389,96.15089515448416
7.4079999999999995,0.9999792939160227,95.64624248440492
7.416,0.9999794269149115,95.14033134136776
7.4239999999999995,0.9999795617508387,94.63315705852406
7.432,0.9999796983995908,94.12471504620082
7.4399999999999995,0.999979836836711,93.61500079365136
7.448,0.9999799770374964,93.10400987082203
7.4559999999999995,0.999980118977001,92.59173793013842
7.464,0.9999802626300356,92.07818070830713
7.4719999999999995,0.9999804079711704,91.56333402813627
7.48,0.9999805549747338,91.04719380037095
7.4879999999999995,0.9999807036148141,90.52975602554703
7.496,0.9999808538652614,90.01101679585902
7.504,0.9999810056996884,89.49097229704536
7.5120000000000005,0.9999811590914721,88.9696188102872
7.52,0.9999813140137538,88.44695271412391
7.5280000000000005,0.9999814704394432,87.92297048638103
7.536,0.9999816283412163,87.39766870611385
7.5440000000000005,0.9999817876915212,86.87104405556296
7.552,0.9999819484625767,86.34309332212413
7.5600000000000005,0.9999821106263764,85.81381340032911
7.568,0.9999822741546879,85.28320129383968
7.5760000000000005,0.9999824390190581,84.75125411745164
7.584,0.9999826051908135,84.21796909911087
7.5920000000000005,0.9999827726410627,83.68334358193775
7.6,0.9999829413406987,83.14737502626288
7.6080000000000005,0.9999831112604025,82.61006101166943
7.616,0.9999832823706442,82.07139923904563
7.6240000000000006,0.9999834546416871,81.53138753264257
7.632,0.9999836280435908,80.99002384214023
7.640000000000001,0.9999838025462107,80.4473062447178
7.648,0.9999839781192068,79.9032329471304
7.656000000000001,0.999984154732042,79.35780228778845
7.664,0.999984332353989,78.81101273884195
7.672,0.9999845109541311,78.26286290826546
7.68,0.9999846905013681,77.71335154194611
7.688,0.9999848709644185,77.16247752577121
7.696,0.9999850523118241,76.61023988771598
7.704,0.9999852345119544,76.05663779992969
7.712,0.9999854175330096,75.50167058081955
7.72,0.9999856013430277,74.94533769713114
7.728,0.9999857859098849,74.38763876602458
7.736,0.9999859712013041,73.82857355714478
7.744,0.999986157184857,73.26814199468554
7.752,0.9999863438279718,72.70634415944548
7.76,0.9999865310979358,72.14318029087518
7.768,0.999986718961901,71.57865078911425
7.776,0.9999869073868918,71.01275621701693
7.784,0.9999870963398079,70.44549730216526
7.792,0.9999872857874311,69.87687493886828
7.8,0.9999874756964321,69.30689019014629
7.808,0.9999876660333752,68.73554428969852
7.816,0.999987856764725,68.16283864385315
7.824,0.9999880478568531,67.58877483349826
7.832,0.9999882392760451,67.0133546159923
7.84,0.9999884309885053,66.43657992705256
7.848,0.9999886229603663,65.85845288262063
7.856,0.999988815157694,65.27897578070298
7.864,0.9999890075464954,64.69815110318538
7.872,0.999989200092727,64.11598151761991
7.88,0.9999893927623004,63.53246987898249
7.888,0.9999895855210917,62.947619231400225
7.896,0.9999897783349483,62.361432809846306
7.904,0.9999899711696975,61.773914041801476
7.912,0.9999901639911543,61.18506654888011
7.92,0.9999903567651302,60.59489414841972
7.928,0.9999905494574404,60.003400855031956
7.936,0.9999907420339142,59.41059088211403
7.944,0.9999909344604029,58.816468643318146
7.952,0.9999911267027878,58.221038753978426
7.96,0.999991318726991,57.62430603249275
7.968,0.9999915104989837,57.0262755016585
7.976,0.9999917019847949,56.42695238996049
7.984,0.9999918931505224,55.82634213280919
7.992,0.9999920839623405,55.224450373728125
8.0,0.9999922743865118,54.6212829654884
8.008,0.9999924643893953,54.016845971189056
8.016,0.9999926539374573,53.411145665281154
8.024000000000001,0.9999928429972811,52.804188534535285
8.032,0.9999930315355774,52.195981278949134
8.04,0.9999932195191943,51.586530812594376
8.048,0.9999934069151283,50.97584426440202
8.056000000000001,0.9999935936905338,50.363928978883976
8.064,0.9999937798127345,49.75079251678882
8.072,0.9999939652492339,49.13644265569075
8.08,0.9999941499677258,48.52088739051088
8.088000000000001,0.9999943339361054,47.90413493396872
8.096,0.9999945171224796,47.28619371696198
8.104,0.9999946994951783,46.66707238887366
8.112,0.9999948810227658,46.046779817805856
8.120000000000001,0.9999950616740515,45.425325090737964
8.128,0.9999952414181004,44.80271751360786
8.136,0.9999954202242445,44.178966611314806
8.144,0.9999955980620945,43.55408212764397
8.152000000000001,0.9999957749015508,42.9280740251101
8.16,0.9999959507128133,42.30095248471919
8.168,0.9999961254663942,41.67272790564718
8.176,0.9999962991331282,41.043410904835426
8.184000000000001,0.999996471684184,40.41301231650094
8.192,0.9999966430910746,39.781543191560324
8.2,0.9999968133256703,39.14901479696664
8.208,0.9999969823602065,38.51543861495883
8.216000000000001,0.9999971501672977,37.8808263422228
8.224,0.9999973167199466,37.24518988896199
8.232,0.9999974819915555,36.60854137787801
8.24,0.999997645955936,35.970893143060756
8.248000000000001,0.9999978085873223,35.33225772878708
8.256,0.9999979698603779,34.6926478882267
8.264,0.9999981297502094,34.05207658205558
8.272,0.9999982882323748,33.41055697697685
8.280000000000001,0.9999984452828937,32.76810244414841
8.288,0.9999986008782586,32.12472655751621
8.296,0.9999987549954434,31.480443092053772
8.304,0.9999989076119141,30.835266021908225
8.312,0.9999990587056371,30.189209518452397
8.32,0.9999992082550903,29.54228794824152
8.328,0.9999993562392694,28.894515870877907
8.336,0.9999995026377005,28.245908036779777
8.344,0.9999996474304463,27.59647938485856
8.352,0.9999997905981155,26.946245040100756
8.36,0.9999999321218699,26.295220311059367
8.368,1.0,25.643420687250327
8.376,0.9999999999999999,24.99086183645974
8.384,1.0,24.337559601957523
8.392,1.0,23.683529999622813
8.4,1.0,23.02878921497771
8.408,0.9999999999999999,22.37335360013416
8.416,1.0,21.717239670651264
8.424,1.0,21.06046410230773
8.432,0.9999999999999999,20.403043727786784
8.44,1.0,19.74499553327885
8.448,1.0,19.08633665499894
8.456,0.9999999999999999,18.427084375624663
8.464,1.0,17.767256120651805
8.472,0.9999999999999999,17.106869454673507
8.48,0.9999999999999999,16.445942077580128
8.488,0.9999999999999999,15.784491820686055
8.496,0.9999999999999999,15.122536642780766
8.504,0.9999999999999999,14.460094626110452
8.512,1.0,13.797183972287531
8.52,0.9999999999999999,13.133822998134805
8.528,1.0,12.470030131461563
8.536,1.0,11.805823906778446
8.544,1.0,11.141222960948758
8.552,0.9999999999999999,10.476246028782892
8.56,0.9999999999999999,9.810911938573817
8.568,1.0,9.145239607580548
8.576,1.0,8.479248037457346
8.584,1.0,7.812956309636043
8.592,1.0,7.146383580659077
8.6,1.0,6.479549077470789
8.608,1.0,5.812472092664887
8.616,1.0,5.145171979695388
8.624,1.0,4.477668148049225
8.632,1.0,3.8099800583879895
8.64,1.0,3.142127217656835
8.648,1.0,2.47412917416822
8.656,1.0,1.806005512658695
8.664,1.0,1.1377758493262393
8.672,1.0,0.46945982684651344
8.68,1.0,-0.19892289062434437
8.688,1.0,-0.8673526224621153
8.696,0.9999999999999999,-1.5358096765943643
8.704,1.0,-2.204274354529435
8.712,1.0,-2.8727269563869173
8.72,0.9999999999999999,-3.5411477859312286
8.728,0.9999999999999999,-4.209517155600538
8.736,1.0,-4.87781539153282
8.744,1.0,-5.546022838581215
8.752,1.0,-6.2141198653204555
8.76,1.0,-6.88208686903662
8.768,0.9999999999999999,-7.549904280701988
8.776,0.9999999999999999,-8.217552569927276
8.784,1.0,-8.88501224989308
8.792,1.0,-9.552263882252854
8.8,0.9999999999999999,-10.219288082009298
8.808,0.9999999999999999,-10.886065522356585
8.815999999999999,1.0,-11.552576939490134
8.824,1.0,-12.218803137377561
8.832,1.0,-12.884724992489605
8.84,0.9999999999999999,-13.550323458488844
8.847999999999999,0.9999999999999999,-14.215579570872944
8.856,1.0,-14.880474451569242
8.864,1.0,-15.544989313478814
8.872,0.9999999999999999,-16.2091054649679
8.879999999999999,0.9999999999999999,-16.872804314304034
8.888,1.0,-17.53606737403351
8.896,1.0,-18.19887626529884
8.904,1.0,-18.86121272209426
8.911999999999999,0.9999999999999999,-19.523058595456728
8.92,1.0,-20.184395857589625
8.928,1.0,-20.845206605917667
8.936,1.0,-21.505473067071815
8.943999999999999,1.0,-22.165177600801506
8.952,1.0,-22.824302703811952
8.96,1.0,-23.48283101352527
8.968,0.9999999999999999,-24.14074531176447
8.975999999999999,0.9999999999999998,-24.798028528357857
8.984,0.9999999999999998,-25.454663744662284
8.992,0.9999999999999999,-26.11063419700379
9.0,0.9999999999999999,-26.765923280035295
9.008,1.0,-27.420514550009408
9.016,1.0,-28.074391727964485
9.024000000000001,0.9999999999999999,-28.727538702823544
9.032,0.9999999999999999,-29.379939534405523
9.04,1.0,-30.03157845634738
9.048,1.0,-30.682439878935707
9.056000000000001,0.9999999999999999,-31.332508391847497
9.064,1.0,-31.98176876680011
9.072,1.0,-32.6302059601092
9.08,1.0,-33.27780511515343
9.088000000000001,1.0,-33.92455156474632
9.096,1.0,-34.57043083341525
9.104,1.0,-35.21542863958677
9.112,0.9999999999999999,-35.85953089767763
9.120000000000001,1.0,-36.50272372009171
9.128,1.0,-37.1449934191237
9.136,1.0000000000000002,-37.786326508768695
9.144,1.0,-38.42670970643735
9.152000000000001,1.0,-39.06612993457741
9.16,0.9999999999999999,-39.70457432220239
9.168,1.0,-40.342030206327074
9.176,1.0,-40.97848513330982
9.184000000000001,1.0,-41.61392686010247
9.192,1.0,-42.24834335540928
9.2,1.0,-42.88172280075455
9.208,0.9999999999999998,-43.514053591459195
9.216000000000001,0.9999999999999999,-44.145324337527704
9.224,0.9999999999999999,-44.77552386444633
9.232,0.9999999999999999,-45.40464121389338
9.24,0.9999999999999999,-46.032665644361515
9.248000000000001,1.0,-46.65958663169361
9.256,1.0,-47.2853938695339
9.264,1.0,-47.91007726969471
9.272,1.0,-48.53362696243923
9.280000000000001,1.0,-49.156033296682416
9.288,0.9999999999999999,-49.77728684011114
9.296,1.0,-50.39737837922481
9.304,1.0,-51.01629891929679
9.312000000000001,1.0,-51.634039684258525
9.32,1.0,-52.25059211650849
9.328,0.9999999999999999,-52.86594787664628
9.336,1.0,-53.48009884313325
9.344,0.9999999999999999,-54.09303711188098
9.352,1.0,-54.70475499577107
9.36,0.9999999999999999,-55.3152450241035
9.368,1.0,-55.92449994198046
9.376,1.0000000000000002,-56.53251270962137
9.384,1.0,-57.139276501616465
9.392,0.9999999999999999,-57.74478470611448
9.4,1.0,-58.34903092395224
9.408,1.0,-58.95200896772148
9.416,0.9999999999999999,-59.55371286078026
9.424,0.9999999999999999,-60.15413683620536
9.432,0.9999999999999999,-60.75327533569215
9.44,0.9999999999999999,-61.351123008398574
9.448,0.9999999999999999,-61.94767470974009
9.456,0.9999999999999999,-62.542925500131645
9.464,1.0,-63.136870643683956
9.472,1.0,-63.72950560685008
9.48,1.0000000000000002,-64.32082605702935
9.488,1.0,-64.91082786112501
9.496,0.9999999999999999,-65.49950708406232
9.504,1.0,-66.08685998726341
9.512,1.0,-66.67288302708596
9.52,0.9999999999999999,-67.25757285322184
9.528,1.0,-67.84092630706232
9.536,0.9999999999999998,-68.42294042002692
9.544,0.9999999999999998,-69.00361241186152
9.552,1.0,-69.58293968890324
9.56,1.0,-70.16091984231761
9.568,1.0,-70.73755064630575
9.576,0.9999999999999999,-71.31283005628656
9.584,1.0,-71.8867562070517
9.592,0.9999999999999999,-72.45932741089904
9.6,0.9999999999999999,-73.03054215574133
9.608,1.0,-73.6003991031961
9.616,0.9999999999999999,-74.16889708665394
9.624,0.9999999999999999,-74.73603510933056
9.632,1.0,-75.30181234229977
9.64,1.0,-75.86622812251312
9.648,0.9999999999999999,-76.42928195080314
9.656,0.9999999999999999,-76.99097348987557
9.664,1.0,-77.5513025622877
9.672,1.0,-78.11026914841848
9.68,0.9999999999999999,-78.66787338442697
9.688,0.9999999999999999,-79.22411556020477
9.696,1.0,-79.77899611731941
9.704,0.9999999999999998,-80.33251564695387
9.712,1.0,-80.88467488783924
9.72,0.9999999999999999,-81.43547472418568
9.728,0.9999999999999999,-81.9849161836088
9.736,1.0,-82.53300043505621
9.744,1.0,-83.07972878673158
9.752,1.0,-83.62510268402086
9.76,0.9999999999999999,-84.16912370741794
9.768,1.0,-84.71179357045426
9.776,1.0,-85.25311411762972
9.784,1.0,-85.79308732234931
9.792,1.0,-86.33171528486261
9.8,0.9999999999999999,-86.86900023021091
9.808,1.0,-87.40494450617864
9.816,1.0,-87.93955058125388
9.824,0.9999999999999998,-88.47282104259489
9.832,1.0,-89.00475859400716
9.84,1.0,-89.53536605392763
9.847999999999999,1.0,-90.06464635342093
9.856,1.0,-90.59260253418469
9.864,0.9999999999999999,-91.11923774656645
9.872,1.0,-91.64455524759265
9.879999999999999,1.0,-92.16855839901001
