freq,mag,phase
6.0,0.9999930467351843,72.44948700717714
6.008,0.9999963221031137,72.28611164278453
6.016,0.9999995353846061,72.12266594752018
6.024,1.0,71.95914994351513
6.032,1.0,71.79556365331119
6.04,1.0,71.63190709986246
6.048,0.9999999999999998,71.46818030653698
6.056,1.0,71.30438329711843
6.064,0.9999999999999999,71.14051609580768
6.072,0.9999999999999999,70.97657872722446
6.08,0.9999999999999999,70.81257121640893
6.088,1.0,70.64849358882338
6.096,0.9999999999999999,70.48434587035368
6.104,1.0,70.32012808731108
6.112,0.9999999999999998,70.15584026643366
6.12,1.0,69.99148243488797
6.128,1.0,69.82705462027072
6.136,1.0,69.66255685061022
6.144,0.9999999999999999,69.49798915436801
6.152,1.0,69.33335156044055
6.16,0.9999999999999999,69.16864409816064
6.168,0.9999999999999999,69.0038667972991
6.176,0.9999999999999999,68.83901968806627
6.184,1.0,68.67410280111365
6.192,0.9999999999999999,68.50911616753538
6.2,0.9999999999999998,68.34405981886987
6.208,0.9999999999999999,68.17893378710124
6.216,1.0,68.01373810466103
6.224,1.0,67.84847280442958
6.232,0.9999999999999999,67.68313791973763
6.24,1.0,67.51773348436792
6.248,1.0,67.35225953255659
6.256,1.0,67.1867160989948
6.264,0.9999999999999999,67.02110321883015
6.272,1.0,66.85542092766833
6.28,1.0,66.6896692615745
6.288,1.0,66.5238482570748
6.296,1.0,66.35795795115796
6.304,1.0,66.19199838127666
6.312,1.0,66.0259695853491
6.32,1.0,65.85987160176036
6.328,0.9999999999999999,65.69370446936406
6.336,1.0,65.52746822748365
6.344,1.0,65.36116291591401
6.352,0.9999999999999999,65.1947885749228
6.36,1.0,65.02834524525191
6.368,1.0,64.86183296811907
6.376,0.9999999999999999,64.69525178521906
6.384,0.9999999999999999,64.52860173872529
6.392,1.0,64.36188287129114
6.4,0.9999999999999999,64.19509522605149
6.408,1.0,64.02823884662406
6.416,1.0,63.86131377711075
6.424,0.9999999999999999,63.6943200620992
6.432,1.0,63.52725774666408
6.44,0.9999999999999999,63.360126876368454
6.448,0.9999999999999999,63.192927497265266
6.456,1.0,63.02565965589865
6.464,0.9999999999999999,62.858323399305284
6.472,1.0,62.69091877501577
6.48,1.0,62.523445831056
6.4879999999999995,1.0,62.35590461594856
6.496,1.0,62.188295178713844
6.504,1.0,62.02061756887173
6.5120000000000005,1.0,61.852871836442624
6.52,1.0,61.68505803194894
6.5280000000000005,0.9999999999999999,61.51717620641626
6.536,0.9999999999999999,61.34922641137491
6.5440000000000005,0.9999999999999999,61.18120869886089
6.552,1.0,61.01312312141753
6.5600000000000005,0.9999999999999999,60.84496973209642
6.568,1.0,60.676748584459055
6.5760000000000005,1.0,60.50845973257776
6.584,1.0,60.34010323103726
6.592,1.0,60.17167913493564
6.6,1.0,60.00318749988577
6.608,1.0,59.834628382016525
6.616,1.0,59.66600183797398
6.624,1.0,59.497307924922616
6.632,0.9999999999999999,59.32854670054661
6.64,0.9999999999999999,59.15971822305094
6.648,0.9999999999999999,58.990822551162594
6.656,0.9999999999999999,58.8218597441319
6.664,1.0,58.6528298617335
6.672,1.0,58.483732964267645
6.68,1.0,58.314569112561344
6.688,0.9999999999999999,58.145338367969515
6.696,0.9999999999999998,57.976040792376125
6.704,1.0,57.80667644819528
6.712,1.0,57.637245398372414
6.72,1.0,57.467747706385445
6.728,1.0,57.29818343624576
6.736,0.9999999999999999,57.12855265249944
6.744,0.9999999999999999,56.95885542022824
6.752,0.9999999999999999,56.78909180505083
6.76,1.0,56.61926187312371
6.768,1.0,56.44936569114234
6.776,1.0,56.279403326342255
6.784,0.9999999999999999,56.10937484649993
6.792,1.0,55.939280319934056
6.8,1.0,55.76911981550637
6.808,1.0,55.59889340262288
6.816,1.0,55.428601151234595
6.824,1.0,55.25824313183874
6.832,1.0,55.0878194154797
6.84,1.0000000000000002,54.91733007374998
6.848,1.0,54.746775178791125
6.856,0.9999999999999999,54.57615480329483
6.864,0.9999999999999999,54.40546902050368
6.872,1.0,54.23471790421227
6.88,0.9999999999999999,54.06390152876801
6.888,0.9999999999999999,53.89301996907212
6.896,1.0,53.72207330058061
6.904,0.9999999999999999,53.55106159930493
6.912,1.0,53.37998494181309
6.92,0.9999999999999999,53.208843405230446
6.928,1.0,53.03763706724061
6.936,0.9999999999999999,52.86636600608625
6.944,1.0,52.69503030056998
6.952,1.0,52.52363003005515
6.96,1.0,52.35216527446676
6.968,0.9999999999999999,52.18063611429213
6.976,0.9999999999999999,52.00904263058185
6.984,1.0,51.83738490495048
6.992,0.9999999999999999,51.66566301957737
7.0,1.0,51.49387705720741
7.008,0.9999999999999998,51.32202710115178
7.016,1.0,51.15011323528875
7.024,1.0,50.97813554406433
7.032,0.9999999999999999,50.80609411249308
7.04,1.0,50.63398902615879
7.048,1.0,50.46182037121509
7.056,1.0,50.28958823438635
7.064,1.0,50.117292702968186
7.072,1.0,49.94493386482811
7.08,0.9999999999999999,49.77251180840634
7.088,0.9999999999999999,49.60002662271631
7.096,0.9999999999999999,49.427478397345325
7.104,0.9999999999999998,49.25486722245526
7.112,1.0,49.082193188783016
7.12,1.0,48.90945638764129
7.128,1.0,48.736656910918995
7.136,1.0,48.56379485108201
7.144,1.0,48.3908703011735
7.152,1.0,48.21788335481472
7.16,0.9999999999999998,48.044834106205364
7.168,1.0,47.871722650124134
7.176,0.9999999999999999,47.69854908192932
7.184,0.9999999999999999,47.52531349755919
7.192,0.9999999999999999,47.35201599353258
7.2,1.0,47.17865666694924
7.208,0.9999999999999999,47.0052356154904
7.216,1.0,46.8317529374192
7.224,1.0,46.658208731581034
7.232,0.9999999999999999,46.48460309740407
7.24,1.0,46.31093613489969
7.248,0.9999999999999999,46.13720794466264
7.256,1.0,45.963418627871775
7.264,1.0,45.789568286290134
7.272,0.9999999999999999,45.61565702226545
7.28,0.9999999999999998,45.44168493873037
7.288,1.0,45.267652139202895
7.296,1.0,45.09355872778667
7.304,1.0,44.91940480917126
7.312,1.0,44.74519048863239
7.32,0.9999999999999999,44.57091587203234
7.328,0.9999999999999999,44.39658106582011
7.336,1.0,44.222186177031695
7.344,0.9999999999999999,44.0477313132903
7.352,1.0,43.873216582806606
7.36,1.0,43.69864209437896
7.368,0.9999999999999998,43.52400795739351
7.376,1.0,43.349314281824434
7.384,0.9999999999999999,43.174561178234136
7.392,0.9999999999999999,42.99974875777332
7.4,1.0,42.82487713218116
7.4079999999999995,1.0,42.64994641378544
7.416,1.0,42.4749567155026
7.4239999999999995,1.0,42.299908150837986
7.432,1.0,42.124800833885644
7.4399999999999995,0.9999999999999999,41.94963487932873
7.448,1.0,41.774410402439244
7.4559999999999995,1.0,41.59912751907832
7.464,0.9999999999999998,41.423786345696016
7.4719999999999995,1.0,41.24838699933159
7.48,0.9999999999999999,41.07292959761321
7.4879999999999995,1.0,40.89741425875812
7.496,0.9999999999999999,40.7218411015725
7.504,1.0,40.54621024545158
7.5120000000000005,1.0,40.37052181037928
7.52,1.0,40.19477591692845
7.5280000000000005,1.0,40.018972686260504
7.536,0.9999999999999999,39.843112240125556
7.5440000000000005,1.0,39.66719470086202
7.552,0.9999999999999999,39.49122019139674
7.5600000000000005,0.9999999999999999,39.31518883524461
7.568,1.0,39.13910075650863
7.5760000000000005,0.9999999999999999,38.96295607987939
7.584,1.0,38.78675493063533
7.5920000000000005,0.9999999999999999,38.61049743464195
7.6,1.0,38.434183718352166
7.6080000000000005,0.9999999999999999,38.25781390880559
7.616,1.0,38.08138813362862
7.6240000000000006,1.0,37.9049065210338
7.632,1.0,37.72836919981997
7.640000000000001,1.0,37.55177629937148
7.648,0.9999999999999999,37.37512794965828
7.656000000000001,1.0,37.19842428123524
7.664,0.9999999999999999,37.02166542524211
7.672,1.0,36.844851513402844
7.68,1.0,36.66798267802543
7.688,1.0,36.49105905200142
7.696,0.9999999999999999,36.31408076880545
7.704,1.0,36.13704796249491
7.712,1.0,35.95996076770944
7.72,1.0,35.78281931967038
7.728,0.9999999999999999,35.60562375418047
7.736,1.0,35.428374207623236
7.744,0.9999999999999999,35.25107081696241
7.752,0.9999999999999998,35.073713719741555
7.76,1.0,34.896303054083425
7.768,1.0,34.718838958689396
7.776,1.0,34.541321572838946
7.784,1.0,34.36375103638899
7.792,1.0,34.18612748977329
7.8,0.9999999999999998,34.00845107400188
7.808,1.0,33.830721930660324
7.816,1.0,33.652940201909146
7.824,1.0,33.475106030483104
7.832,0.9999999999999999,33.297219559690525
7.84,0.9999999999999999,33.11928093341254
7.848,1.0,32.941290296102416
7.856,1.0,32.763247792784775
7.864,1.0,32.58515356905489
7.872,1.0,32.407007771077836
7.88,1.0,32.22881054558775
7.888,0.9999999999999999,32.050562039886955
7.896,0.9999999999999999,31.872262401845244
7.904,1.0,31.693911779898944
7.912,1.0,31.515510323050076
7.92,1.0,31.337058180865498
7.928,0.9999999999999999,31.158555503476023
7.936,1.0,30.980002441575493
7.944,0.9999997384256234,30.801399146419776
7.952,0.9999993119733404,30.622745769825983
7.96,0.999998893315671,30.44404246417137
7.968,0.9999984824661637,30.265289382392414
7.976,0.999998079436709,30.086486677983824
7.984,0.9999976842375506,29.90763450499755
7.992,0.999997296877296,29.728733018041677
8.0,0.9999969173629274,29.54978237227943
8.008,0.9999965456998111,29.37078272342816
8.016,0.999996181891709,29.19173422775813
8.024000000000001,0.9999958259407887,29.012637042091566
8.032,0.9999954778476349,28.833491323801535
8.04,0.9999951376112587,28.65429723081063
8.048,0.9999948052291094,28.475054921589987
8.056000000000001,0.999994480697085,28.29576455515815
8.064,0.999994164009543,28.116426291079808
8.072,0.99999385515931,27.93704028946457
8.08,0.9999935541376948,27.757606710965746
8.088000000000001,0.9999932609344973,27.578125716779272
8.096,0.9999929755380197,27.398597468642322
8.104,0.999992697935078,27.219022128832
8.112,0.9999924281110127,27.03939986016408
8.120000000000001,0.9999921660497001,26.85973082599186
8.128,0.9999919117335616,26.68001519020468
8.136,0.9999916651435771,26.50025311722658
8.144,0.999991426259294,26.32044477201495
8.152000000000001,0.9999911950588397,26.140590320059314
8.16,0.9999909715189318,25.960689927379775
8.168,0.9999907556148891,25.780743760525624
8.176,0.999990547320644,25.600751986573904
8.184000000000001,0.9999903466087514,25.420714773128097
8.192,0.9999901534504022,25.240632288316583
8.2,0.9999899678154329,25.060504700791068
8.208,0.9999897896723376,24.880332179725162
8.216000000000001,0.9999896189882788,24.700114894812977
8.224,0.9999894557290987,24.51985301626749
8.232,0.999989299859331,24.339546714818884
8.24,0.9999891513422111,24.15919616171318
8.248000000000001,0.9999890101396884,23.97880152871058
8.256,0.9999888762124369,23.79836298808389
8.264,0.9999887495198675,23.61788071261679
8.272,0.999988630020138,23.437354875602256
8.280000000000001,0.9999885176701655,23.256785650841053
8.288,0.9999884124256374,23.07617321263989
8.296,0.9999883142410229,22.895517735809715
8.304,0.9999882230695839,22.714819395664076
8.312,0.9999881388633876,22.534078368017514
8.32,0.9999880615733164,22.353294829183504
8.328,0.9999879911490805,22.172468955973073
8.336,0.999987927539229,21.991600925692673
8.344,0.9999878706911612,21.810690916142686
8.352,0.9999878205511384,21.62973910561533
8.36,0.999987777064295,21.448745672893104
8.368,0.9999877401746496,21.267710797246647
8.376,0.9999877098251184,21.08663465843318
8.384,0.9999876859575246,20.905517436694282
8.392,0.9999876685126107,20.724359312754373
8.4,0.99998765743005,20.543160467818346
8.408,0.9999876526484589,20.361921083570074
8.416,0.9999876541054068,20.18064134217006
8.424,0.9999876617374289,19.99932142625381
8.432,0.9999876754800378,19.8179615189295
8.44,0.9999876952677343,19.636561803776278
8.448,0.9999877210340194,19.45512246484195
8.456,0.9999877527114062,19.27364368664121
8.464,0.9999877902314304,19.092125654153246
8.472,0.9999878335246634,18.910568552820042
8.48,0.9999878825207225,18.728972568543877
8.488,0.999987937148283,18.54733788768555
8.496,0.9999879973350906,18.365664697061934
8.504,0.9999880630079715,18.183953183944134
8.512,0.9999881340928448,18.002203536054957
8.52,0.9999882105147341,17.82041594156707
8.528,0.9999882921977791,17.638590589100467
8.536,0.9999883790652472,17.45672766772053
8.544,0.9999884710395448,17.274827366935465
8.552,0.9999885680422291,17.092889876694386
8.56,0.9999886699940198,16.91091538738467
8.568,0.9999887768148105,16.72890408982996
8.576,0.9999888884236805,16.546856175287573
8.584,0.9999890047389062,16.3647718354464
8.592,0.9999891256779726,16.182651262424304
8.6,0.999989251157586,16.000494648765997
8.608,0.999989381093683,15.818302187440354
8.616,0.9999895154014455,15.636074071838292
8.624,0.9999896539953095,15.453810495770018
8.632,0.999989796788978,15.2715116534629
8.64,0.9999899436954327,15.089177739558668
8.648,0.9999900946269448,14.906808949111218
8.656,0.9999902494950873,14.72440547758381
8.664,0.9999904082107463,14.541967520846852
8.672,0.9999905706841326,14.359495275174966
8.68,0.9999907368247929,14.176988937244841
8.688,0.9999909065416229,13.994448704132223
8.696,0.9999910797428772,13.811874773309677
8.704,0.9999912563361807,13.629267342643645
8.712,0.9999914362285423,13.44662661039206
8.72,0.9999916193263645,13.26395277520142
8.728,0.999991805535456,13.081246036104382
8.736,0.9999919947610427,12.898506592516748
8.744,0.9999921869077802,12.71573464423504
8.752,0.9999923818797644,12.532930391433458
8.76,0.9999925795805434,12.350094034661407
8.768,0.9999927799131295,12.167225774840402
8.776,0.999992982780011,11.984325813261574
8.784,0.999993188083163,11.801394351582525
8.792,0.9999933957240592,11.618431591824798
8.8,0.9999936056036848,11.43543773637069
8.808,0.9999938176225469,11.252412987960664
8.815999999999999,0.9999940316806858,11.069357549690196
8.824,0.9999942476776882,10.886271625006936
8.832,0.9999944655126987,10.703155417707823
8.84,0.999994685084429,10.520009131936085
8.847999999999999,0.9999949062911743,10.336832972178108
8.856,0.9999951290308201,10.15362714326053
8.864,0.9999953532008579,9.970391850347289
8.872,0.9999955786983943,9.787127298936479
8.879999999999999,0.9999958054201645,9.603833694857178
8.888,0.9999960332625439,9.420511244266455
8.896,0.9999962621215593,9.237160153646304
8.904,0.9999964918929019,9.053780629800439
8.911999999999999,0.9999967224719378,8.870372879851027
8.92,0.9999969537537217,8.686937111235617
8.928,0.9999971856330077,8.503473531703962
8.936,0.9999974180042622,8.31998234931475
8.943999999999999,0.9999976507616755,8.13646377243224
8.952,0.9999978837991746,7.952918009723081
8.96,0.9999981170104348,7.769345270153092
8.968,0.9999983502888924,7.585745762983853
8.975999999999999,0.9999985835277571,7.402119697769268
8.984,0.999998816620024,7.218467284352302
8.992,0.9999990494584869,7.034788732861658
9.0,0.9999992819357512,6.851084253708265
9.008,0.9999995139442445,6.667354057581774
9.016,0.9999997453762316,6.483598355447171
9.024000000000001,0.9999999761238265,6.299817358541368
9.032,1.0,6.11601127836961
9.04,1.0,5.932180326701856
9.048,1.0,5.748324715569303
9.056000000000001,1.0000000000000002,5.5644446572608715
9.064,0.9999999999999999,5.380540364319519
9.072,1.0,5.196612049538524
9.08,1.0,5.012659925957897
9.088000000000001,0.9999999999999999,4.828684206860774
9.096,1.0,4.644685105769634
9.104,0.9999999999999999,4.460662836442458
9.112,1.0000000000000002,4.276617612869065
9.120000000000001,0.9999999999999999,4.092549649267377
9.128,1.0,3.9084591600795333
9.136,1.0,3.7243463599679627
9.144,0.9999999999999999,3.5402114638115876
9.152000000000001,1.0,3.356054686701997
9.16,0.9999999999999999,3.1718762439394474
9.168,1.0,2.987676351028814
9.176,0.9999999999999999,2.8034552236757064
9.184000000000001,1.0,2.6192130777825104
9.192,0.9999999999999999,2.4349501294442844
9.2,1.0,2.25066659494461
9.208,0.9999999999999998,2.0663626907515535
9.216000000000001,1.0,1.8820386335136434
9.224,1.0,1.6976946400556259
9.232,1.0,1.5133309273741884
9.24,1.0,1.328947712633828
9.248000000000001,1.0,1.1445452131626974
9.256,0.9999999999999999,0.9601236464482406
9.264,0.9999999999999999,0.7756832301328096
9.272,1.0,0.5912241820093935
9.280000000000001,1.0,0.4067467200173744
9.288,1.0,0.22225106223800217
9.296,0.9999999999999999,0.0377374268899259
9.304,1.0,-0.14679396767521322
9.312000000000001,0.9999999999999999,-0.3313429029771539
9.32,1.0,-0.515909160411639
9.328,0.9999999999999999,-0.7004925212550459
9.336,0.9999999999999999,-0.8850927666688674
9.344,1.0,-1.0697096777042086
9.352,1.0,-1.2543430353067055
9.36,0.9999999999999999,-1.438992620320889
9.368,1.0,-1.6236582134951822
9.376,1.0,-1.8083395954863206
9.384,1.0,-1.9930365468644369
9.392,1.0,-2.177748848117512
9.4,0.9999999999999999,-2.362476279656558
9.408,1.0,-2.5472186218200603
9.416,1.0,-2.7319756548792795
9.424,1.0,-2.916747159042749
9.432,1.0000000000000002,-3.1015329144615644
9.44,1.0,-3.2863327012339947
9.448,1.0,-3.4711462994108424
9.456,1.0,-3.655973489000027
9.464,1.0,-3.840814049972068
9.472,0.9999999999999999,-4.02566776226469
9.48,0.9999999999999999,-4.210534405788317
9.488,1.0,-4.39541376043079
9.496,0.9999999999999999,-4.580305606062842
9.504,1.0,-4.765209722542892
9.512,1.0000000000000002,-4.950125889722518
9.52,1.0,-5.135053887451308
9.528,1.0,-5.319993495582367
9.536,0.9999999999999999,-5.504944493977182
9.544,1.0,-5.689906662511137
9.552,1.0,-5.874879781078403
9.56,1.0,-6.059863629597486
9.568,1.0,-6.244857988016072
9.576,1.0,-6.42986263631663
9.584,1.0,-6.614877354521248
9.592,0.9999999999999999,-6.799901922697148
9.6,0.9999999999999999,-6.9849361209615894
9.608,0.9999999999999999,-7.16997972948733
9.616,1.0,-7.355032528507479
9.624,0.9999999999999999,-7.540094298320924
9.632,1.0,-7.7251648192971505
9.64,1.0,-7.910243871881561
9.648,0.9999999999999999,-8.095331236600282
9.656,1.0,-8.280426694065346
9.664,1.0000000000000002,-8.465530024979408
9.672,1.0,-8.650641010140891
9.68,1.0,-8.835759430448476
9.688,0.9999999999999999,-9.02088506690616
9.696,1.0,-9.20601770062761
9.704,0.9999999999999998,-9.391157112841064
9.712,0.9999999999999999,-9.576303084893425
9.72,1.0,-9.761455398255022
9.728,0.9999999999999999,-9.946613834523484
9.736,1.0,-10.131778175428233
9.744,0.9999999999999999,-10.316948202834109
9.752,1.0,-10.502123698745564
9.76,1.0,-10.68730444530999
9.768,1.0,-10.872490224821563
9.776,0.9999999999999999,-11.057680819724219
9.784,1.0,-11.24287601261511
9.792,1.0,-11.428075586247145
9.8,0.9999999999999998,-11.613279323532005
9.808,1.0,-11.798487007542196
9.816,0.9999999999999999,-11.983698421513555
9.824,1.0,-12.168913348846731
9.832,1.0,-12.354131573109127
9.84,0.9999999999999999,-12.539352878035709
9.847999999999999,1.0,-12.72457704753026
9.856,1.0,-12.909803865665703
9.864,0.9999999999999999,-13.09503311668416
9.872,0.9999998965905643,-13.280264584996731
9.879999999999999,0.999999516513683,-13.46549805518285
9.888,0.9999991285789704,-13.650733311988965
9.896,0.999998732874137,-13.835970140326797
9.904,0.9999983294941168,-14.021208325271179
9.911999999999999,0.9999979185412877,-14.206447652057372
9.92,0.9999975001256949,-14.391687906077651
9.928,0.9999970743652794,-14.576928872877263
9.936,0.9999966413861091,-14.762170338149888
9.943999999999999,0.9999962013226125,-14.9474120877325
9.952,0.9999957543178176,-15.132653907599277
9.96,0.9999953005235898,-15.317895583854835
9.968,0.9999948401008746,-15.503136902726771
9.975999999999999,0.9999943732199417,-15.688377650557523
9.984,0.9999939000606293,-15.87361761379509
9.992,0.9999934208125898,-16.058856578982954
10.0,0.9999929356755354,-16.24409433274925
10.008,0.9999924448594842,-16.429330661794907
10.016,0.999991948585004,-16.614565352880753
10.024000000000001,0.9999914470834544,-16.79979819281347
10.032,0.9999909405972283,-16.98502896843074
10.04,0.999990429379986,-17.170257466585284
10.048,0.9999899136968886,-17.355483474127556
10.056000000000001,0.999989393824825,-17.540706777887326
10.064,0.9999888700526306,-17.725927164654195
10.072,0.9999883426813017,-17.911144421156887
10.08,0.9999878120241974,-18.096358334041128
10.088000000000001,0.9999872784072347,-18.281568689846278
10.096,0.9999867421690701,-18.466775274980712
10.104,0.999986203661269,-18.651977875695973
10.112,0.9999856632484605,-18.837176278059374
10.120000000000001,0.9999851213084757,-19.02237026792524
10.128,0.9999845782324693,-19.20755963090494
10.136,0.9999840344250205,-19.392744152335542
