freq,mag,phase
6.0,0.999990942613271,-86.43081507280836
6.008,0.9999948296235305,-86.80586560932235
6.016,0.9999985546806536,-87.18067528915729
6.024,0.9999999999999999,-87.55524368025671
6.032,0.9999999999999999,-87.92957036490169
6.04,0.9999999999999999,-88.30365493965449
6.048,1.0,-88.67749701530153
6.056,1.0,-89.05109621679583
6.064,0.9999999999999999,-89.42445218319871
6.072,1.0,-89.79756456762101
6.08,1.0000000000000002,-90.1704330371636
6.088,1.0,-90.54305727285754
6.096,1.0,-90.91543696960339
6.104,0.9999999999999999,-91.28757183611025
6.112,0.9999999999999999,-91.65946159483407
6.12,0.9999999999999999,-92.03110598191566
6.128,1.0,-92.40250474711792
6.136,0.9999999999999998,-92.77365765376284
6.144,1.0,-93.14456447866797
6.152,0.9999999999999999,-93.51522501208227
6.16,1.0,-93.88563905762172
6.168,1.0,-94.2558064322044
6.176,1.0,-94.62572696598514
6.184,1.0,-94.99540050228983
6.192,0.9999999999999999,-95.36482689754918
6.2,0.9999999999999999,-95.73400602123239
6.208,1.0,-96.10293775578016
6.216,0.9999999999999998,-96.47162199653742
6.224,1.0,-96.84005865168588
6.232,0.9999999999999999,-97.208247642176
6.24,1.0,-97.57618890165882
6.248,1.0,-97.94388237641752
6.256,0.9999999999999999,-98.3113280252984
6.264,0.9999999999999999,-98.6785258196419
6.272,0.9999999999999999,-99.04547574321323
6.28,1.0,-99.41217779213268
6.288,0.9999999999999999,-99.77863197480572
6.296,1.0,-100.14483831185296
6.304,1.0,-100.51079683603975
6.312,0.9999999999999999,-100.87650759220557
6.32,1.0,-101.24197063719339
6.328,0.9999999999999999,-101.60718603977861
6.336,1.0,-101.97215388059801
6.344,1.0,-102.33687425207836
6.352,1.0,-102.701347258365
6.36,1.0,-103.0655730152503
6.368,0.9999999999999999,-103.42955165010173
6.376,0.9999999999999999,-103.79328330179018
6.384,1.0,-104.1567681206179
6.392,0.9999999999999999,-104.5200062682463
6.4,1.0,-104.8829979176239
6.408,1.0,-105.24574325291397
6.416,0.9999999999999999,-105.60824246942211
6.424,0.9999999999999999,-105.97049577352392
6.432,1.0,-106.33250338259249
6.44,1.0,-106.69426552492581
6.448,1.0,-107.05578243967419
6.456,1.0,-107.41705437676768
6.464,1.0,-107.77808159684339
6.472,0.9999999999999999,-108.1388643711729
6.48,1.0,-108.49940298158955
6.4879999999999995,1.0,-108.85969772041574
6.496,0.9999999999999999,-109.21974889039056
6.504,0.9999999999999999,-109.57955680459662
6.5120000000000005,1.0,-109.93912178638818
6.52,1.0,-110.29844416931779
6.5280000000000005,0.9999999999999999,-110.65752429706461
6.536,1.0,-111.01636252336114
6.5440000000000005,1.0,-111.3749592119216
6.552,1.0,-111.73331473636884
6.5600000000000005,1.0,-112.09142948016274
6.568,1.0,-112.44930383652748
6.5760000000000005,1.0,-112.80693820838
6.584,0.9999999999999999,-113.1643330082574
6.592,1.0,-113.52148865824564
6.6,1.0,-113.87840558990735
6.608,0.9999999999999999,-114.23508424421034
6.616,0.9999999999999999,-114.591525071456
6.624,0.9999999999999999,-114.94772853120797
6.632,1.0,-115.3036950922208
6.64,0.9999999999999999,-115.65942523236883
6.648,1.0,-116.01491943857518
6.656,0.9999999999999999,-116.37017820674104
6.664,1.0,-116.72520204167489
6.672,1.0,-117.079991457022
6.68,1.0,-117.43454697519415
6.688,1.0,-117.78886912729946
6.696,0.9999999999999999,-118.14295845307248
6.704,1.0,-118.49681550080427
6.712,1.0,-118.85044082727293
6.72,1.0,-119.20383499767419
6.728,1.0,-119.55699858555221
6.736,1.0,-119.90993217273056
6.744,1.0,-120.26263634924356
6.752,0.9999999999999998,-120.6151117132677
6.76,0.9999992471907138,-120.96735887105311
6.768,0.999998160482028,-121.3193784368559
6.776,0.9999970836902198,-121.67117103286982
6.784,0.9999960172917914,-122.02273728915898
6.792,0.9999949617452254,-122.37407784359026
6.8,0.9999939174912685,-122.72519334176617
6.808,0.999992884953211,-123.0760844369581
6.816,0.9999918645371653,-123.42675179003949
6.824,0.9999908566323428,-123.77719606941955
6.832,0.999989861611329,-124.12741795097702
6.84,0.9999888798303578,-124.47741811799442
6.848,0.9999879116295823,-124.8271972610923
6.856,0.9999869573333463,-125.17675607816406
6.864,0.999986017250451,-125.52609527431063
6.872,0.9999850916744231,-125.875215561776
6.88,0.9999841808837795,-126.22411765988232
6.888,0.999983285142289,-126.57280229496604
6.896,0.9999824046992355,-126.92127020031367
6.904,0.9999815397896759,-127.26952211609827
6.912,0.9999806906346984,-127.61755878931595
6.92,0.9999798574416779,-127.9653809737229
6.928,0.9999790404045299,-128.31298942977247
6.936,0.9999782397039619,-128.6603849245528
6.944,0.9999774555077247,-129.0075682317245
6.952,0.9999766879708578,-129.35454013145883
6.96,0.9999759372359396,-129.70130141037595
6.968,0.9999752034333269,-130.04785286148396
6.976,0.999974486681401,-130.39419528411747
6.984,0.9999737870868046,-130.7403294838773
6.992,0.9999731047446833,-131.08625627256987
7.0,0.9999724397389183,-131.4319764681472
7.008,0.9999717921423641,-131.7774908946473
7.016,0.9999711620170776,-132.12280038213444
7.024,0.9999705494145508,-132.46790576664043
7.032,0.9999699543759364,-132.81280789010552
7.04,0.999969376932276,-133.15750760031997
7.048,0.9999688171047237,-133.50200575086603
7.056,0.9999682749047669,-133.84630320106
7.064,0.999967750334447,-134.19040081589475
7.072,0.9999672433865773,-134.53429946598243
7.08,0.9999667540449594,-134.87800002749776
7.088,0.9999662822845955,-135.22150338212145
7.096,0.9999658280719003,-135.56481041698393
7.104,0.9999653913649117,-135.90792202460943
7.112,0.999964972113497,-136.2508391028606
7.12,0.999964570259559,-136.59356255488308
7.128,0.9999641857372387,-136.93609328905072
7.136,0.9999638184731163,-137.2784322189109
7.144,0.9999634683864115,-137.62058026313045
7.152,0.9999631353891795,-137.96253834544154
7.16,0.9999628193865052,-138.30430739458825
7.168,0.9999625202766976,-138.6458883442732
7.176,0.9999622379514795,-138.9872821331048
7.184,0.9999619722961763,-139.32848970454438
7.192,0.9999617231899021,-139.66951200685415
7.2,0.9999614905057448,-140.01034999304522
7.208,0.9999612741109477,-140.35100462082596
7.216,0.9999610738670908,-140.69147685255066
7.224,0.9999608896302673,-141.03176765516884
7.232,0.9999607212512608,-141.3718780001743
7.24,0.9999605685757187,-141.71180886355506
7.248,0.9999604314443249,-142.0515612257433
7.256,0.999960309692969,-142.39113607156588
7.264,0.9999602031529136,-142.73053439019478
7.272,0.9999601116509604,-143.0697571750984
7.28,0.9999600350096145,-143.40880542399276
7.288,0.9999599730472442,-143.74768013879313
7.296,0.9999599255782425,-144.08638232556626
7.304,0.999959892413183,-144.42491299448253
7.312,0.9999598733589762,-144.76327315976852
7.32,0.9999598682190219,-145.1014638396603
7.328,0.9999598767933618,-145.43948605635646
7.336,0.999959898878828,-145.77734083597178
7.344,0.9999599342691903,-146.1150292084913
7.352,0.9999599827553012,-146.45255220772444
7.36,0.99996004412524,-146.78991087125962
7.368,0.9999601181644536,-147.12710624041924
7.376,0.9999602046558954,-147.46413936021477
7.384,0.9999603033801638,-147.8010112793024
7.392,0.9999604141156361,-148.13772304993873
7.4,0.9999605366386021,-148.47427572793714
7.4079999999999995,0.9999606707233968,-148.81067037262403
7.416,0.9999608161425283,-149.14690804679591
7.4239999999999995,0.999960972666806,-149.48298981667597
7.432,0.9999611400654662,-149.81891675187217
7.4399999999999995,0.9999613181062961,-150.15468992533422
7.448,0.9999615065557541,-150.49031041331227
7.4559999999999995,0.9999617051790916,-150.8257792953146
7.464,0.9999619137404692,-151.16109765406674
7.4719999999999995,0.9999621320030744,-151.49626657547003
7.48,0.9999623597292342,-151.8312871485611
7.4879999999999995,0.9999625966805287,-152.16616046547105
7.496,0.9999628426179002,-152.50088762138577
7.504,0.9999630973017638,-152.8354697145053
7.5120000000000005,0.999963360492112,-153.16990784600515
7.52,0.9999636319486209,-153.50420311999596
7.5280000000000005,0.9999639114307535,-153.8383566434855
7.536,0.9999641986978601,-154.17236952633894
7.5440000000000005,0.9999644935092785,-154.5062428812413
7.552,0.999964795624432,-154.83997782365842
7.5600000000000005,0.9999651048029244,-155.1735754718
7.568,0.9999654208046356,-155.507036946581
7.5760000000000005,0.9999657433898125,-155.84036337158517
7.584,0.9999660723191609,-156.17355587302737
7.5920000000000005,0.9999664073539345,-156.50661557971725
7.6,0.9999667482560217,-156.83954362302225
7.6080000000000005,0.999967094788031,-157.17234113683205
7.616,0.9999674467133759,-157.5050092575217
7.6240000000000006,0.999967803796356,-157.83754912391677
7.632,0.999968165802238,-158.1699618772574
7.640000000000001,0.9999685324973354,-158.50224866116338
7.648,0.9999689036490842,-158.83441062159886
7.656000000000001,0.9999692790261197,-159.1664489068382
7.664,0.99996965839835,-159.4983646674312
7.672,0.999970041537028,-159.83015905616907
7.68,0.999970428214824,-160.16183322805054
7.688,0.9999708182058921,-160.4933883402482
7.696,0.99997121128594,-160.82482555207508
7.704,0.9999716072322946,-161.1561460249515
7.712,0.9999720058239657,-161.48735092237223
7.72,0.9999724068417102,-161.81844140987363
7.728,0.9999728100680921,-162.14941865500145
7.736,0.9999732152875438,-162.48028382727853
7.744,0.999973622286424,-162.8110380981727
7.752,0.9999740308530741,-163.14168264106542
7.76,0.999974440777875,-163.47221863121976
7.768,0.9999748518532997,-163.80264724574963
7.776,0.9999752638739664,-164.13296966358843
7.784,0.9999756766366902,-164.4631870654583
7.792,0.9999760899405318,-164.79330063383952
7.8,0.9999765035868463,-165.12331155294012
7.808,0.9999769173793305,-165.4532210086658
7.816,0.9999773311240667,-165.78303018858975
7.824,0.9999777446295696,-166.11274028192315
7.832,0.9999781577068259,-166.44235247948546
7.84,0.9999785701693382,-166.77186797367523
7.848,0.9999789818331639,-167.1012879584408
7.856,0.9999793925169534,-167.4306136292515
7.864,0.9999798020419896,-167.75984618306893
7.872,0.9999802102322206,-168.08898681831838
7.88,0.999980616914298,-168.41803673486046
7.888,0.9999810219176084,-168.74699713396313
7.896,0.9999814250743061,-169.07586921827345
7.904,0.9999818262193441,-169.40465419179014
7.912,0.999982225190504,-169.73335325983575
7.92,0.9999826218284243,-170.0619676290294
7.928,0.9999830159766284,-170.39049850725945
7.936,0.9999834074815497,-170.71894710365666
7.944,0.9999837961925561,-171.04731462856705
7.952,0.9999841819619764,-171.37560229352536
7.96,0.9999845646451196,-171.70381131122855
7.968,0.9999849441002985,-172.0319428955094
7.976,0.999985320188849,-172.35999826131018
7.984,0.9999856927751495,-172.68797862465698
7.992,0.9999860617266384,-173.0158852026334
8.0,0.9999864269138319,-173.34371921335517
8.008,0.9999867882103392,-173.67148187594435
8.016,0.9999871454928774,-173.99917441050428
8.024000000000001,0.9999874986412848,-174.32679803809378
8.032,0.9999878475385338,-174.6543539807025
8.04,0.9999881920707424,-174.98184346122585
8.048,0.9999885321271853,-175.3092677034401
8.056000000000001,0.9999888676003008,-175.63662793197776
8.064,0.9999891983857035,-175.9639253723028
8.072,0.9999895243821875,-176.2911612506867
8.08,0.9999898454917354,-176.61833679418402
8.088000000000001,0.9999901616195235,-176.9454532306078
8.096,0.999990472673925,-177.2725117885061
8.104,0.9999907785665149,-177.59951369713798
8.112,0.9999910792120713,-177.92646018644967
8.120000000000001,0.9999913745285794,-178.2533524870507
8.128,0.9999916644372291,-178.5801918301907
8.136,0.9999919488624168,-178.90697944773595
8.144,0.9999922277317445,-179.2337165721459
8.152000000000001,0.999992500976016,-179.56040443645014
8.16,0.9999927685292361,-179.88704427422493
8.168,0.9999930303286062,179.7863626804291
8.176,0.9999932863145183,179.45981519291027
8.184000000000001,0.9999935364305527,179.13331202813876
8.192,0.9999937806234678,178.80685195057913
8.2,0.9999940188431956,178.4804337242626
8.208,0.9999942510428351,178.15405611280997
8.216000000000001,0.9999944771786387,177.82771787945396
8.224,0.9999946972100076,177.50141778706146
8.232,0.9999949110994795,177.17515459815556
8.24,0.9999951188127169,176.84892707493802
8.248000000000001,0.9999953203184971,176.52273397931123
8.256,0.9999955155886978,176.1965740729002
8.264,0.999995704598285,175.87044611707435
8.272,0.9999958873252985,175.54434887296946
8.280000000000001,0.9999960637508368,175.21828110150963
8.288,0.9999962338590432,174.8922415634287
8.296,0.9999963976370871,174.56622901929194
8.304,0.9999965550751492,174.24024222951763
8.312,0.9999967061664038,173.91427995439886
8.32,0.9999968509069997,173.58834095412448
8.328,0.999996989296041,173.26242398880106
8.336,0.9999971213355704,172.9365278184737
8.344,0.9999972470305448,172.6106512031478
8.352,0.9999973663888185,172.28479290280995
8.36,0.9999974794211196,171.95895167744945
8.368,0.999997586141028,171.63312628707902
8.376,0.9999976865649539,171.30731549175664
8.384,0.9999977807121142,170.98151805160578
8.392,0.9999978686045089,170.6557327268372
8.4,0.9999979502668953,170.32995827776935
8.408,0.9999980257267654,170.00419346484992
8.416,0.9999980950143191,169.67843704867627
8.424,0.999998158162439,169.35268779001672
8.432,0.9999982152066621,169.02694444983123
8.44,0.9999982661851557,168.70120578929257
8.448,0.999998311138687,168.37547056980665
8.456,0.9999983501105976,168.04973755303405
8.464,0.999998383146772,167.72400550091018
8.472,0.9999984102956122,167.39827317566665
8.48,0.9999984316080047,167.07253933985166
8.488,0.9999984471372931,166.74680275635112
8.496,0.9999984569392462,166.42106218840905
8.504,0.9999984610720278,166.09531639964894
8.512,0.9999984595961655,165.76956415409384
8.52,0.9999984525745177,165.4438042161879
8.528,0.9999984400722439,165.11803535081637
8.536,0.9999984221567695,164.79225632332717
8.544,0.9999983988977549,164.466465899551
8.552,0.9999983703670604,164.1406628458228
8.56,0.9999983366387135,163.81484592900196
8.568,0.9999982977888747,163.48901391649378
8.576,0.9999982538958031,163.16316557626973
8.584,0.9999982050398211,162.83729967688893
8.592,0.9999981513032784,162.51141498751838
8.6,0.9999980927705192,162.18551027795465
8.608,0.9999980295278428,161.8595843186441
8.616,0.9999979616634701,161.53363588070448
8.624,0.9999978892675059,161.20766373594543
8.632,0.9999978124319017,160.88166665688996
8.64,0.9999977312504194,160.5556434167952
8.648,0.9999976458185941,160.22959278967375
8.656,0.9999975562336946,159.90351355031456
8.664,0.9999974625946871,159.5774044743046
8.672,0.9999973650021972,159.25126433804948
8.68,0.9999972635584687,158.9250919187954
8.688,0.999997158367329,158.5988859946498
8.696,0.9999970495341459,158.2726453446035
8.704,0.9999969371657907,157.9463687485513
8.712,0.9999968213705989,157.62005498731435
8.72,0.9999967022583289,157.29370284266088
8.728,0.9999965799401233,156.96731109732852
8.736,0.9999964545284684,156.64087853504535
8.744,0.9999963261371541,156.31440394055215
8.752,0.9999961948812326,155.98788609962378
8.76,0.999996060876979,155.66132379909143
8.768,0.9999959242418491,155.33471582686406
8.776,0.9999957850944395,155.00806097195107
8.784,0.9999956435544454,154.6813580244836
8.792,0.9999954997426201,154.35460577573738
8.8,0.9999953537807331,154.0278030181544
8.808,0.9999952057915283,153.70094854536575
8.815999999999999,0.9999950558986825,153.37404115221347
8.824,0.9999949042267643,153.0470796347732
8.832,0.9999947509011898,152.72006279037717
8.84,0.999994596048184,152.39298941763616
8.847999999999999,0.999994439794735,152.06585831646262
8.856,0.999994282268554,151.73866828809332
8.864,0.999994123598033,151.41141813511243
8.872,0.9999939639122006,151.0841066614745
8.879999999999999,0.9999938033406817,150.75673267252733
8.888,0.9999936420136533,150.4292949750353
8.896,0.9999934800618023,150.10179237720286
8.904,0.9999933176162841,149.77422368869773
8.911999999999999,0.9999931548086778,149.44658772067436
8.92,0.9999929917709451,149.1188832857975
8.928,0.9999928286353865,148.7911091982662
8.936,0.9999926655345996,148.46326427383758
8.943999999999999,0.9999925026014358,148.13534732985022
8.952,0.9999923399689568,147.8073571852488
8.96,0.999992177770394,147.4792926606082
8.968,0.9999920161391027,147.1511525781576
8.975999999999999,0.9999918552085223,146.82293576180473
8.984,0.9999916951121314,146.49464103716065
8.992,0.999991535983407,146.16626723156438
9.0,0.9999913779557796,145.8378131741075
9.008,0.9999912211625935,145.50927769565902
9.016,0.9999910657370615,145.1806596288904
9.024000000000001,0.9999909118122247,144.8519578083009
9.032,0.9999907595209087,144.52317107024254
9.04,0.9999906089956812,144.19429825294554
9.048,0.999990460368811,143.86533819654386
9.056000000000001,0.9999903137722252,143.5362897431011
9.064,0.9999901693374665,143.2071517366359
9.072,0.999990027195653,142.87792302314799
9.08,0.9999898874774343,142.54860245064424
9.088000000000001,0.999989750312951,142.2191888691651
9.096,0.9999896158317937,141.8896811308106
9.104,0.9999894841629596,141.56007808976696
9.112,0.9999893554348137,141.23037860233313
9.120000000000001,0.9999892297750453,140.90058152694775
9.128,0.9999891073106288,140.57068572421605
9.136,0.9999889881677824,140.24069005693656
9.144,0.9999888724719259,139.9105933901286
9.152000000000001,0.9999887603476432,139.58039459105984
9.16,0.9999886519186392,139.25009252927342
9.168,0.9999885473077008,138.9196860766157
9.176,0.9999884466366578,138.58917410726414
9.184000000000001,0.9999883500263411,138.25855549775537
9.192,0.9999882575965456,137.9278291270133
9.2,0.9999881694659892,137.59699387637707
9.208,0.999988085752274,137.2660486296298
9.216000000000001,0.9999880065718485,136.9349922730273
9.224,0.999987932039967,136.60382369532655
9.232,0.9999878622706541,136.27254178781473
9.24,0.9999877973766633,135.94114544433825
9.248000000000001,0.9999877374694415,135.60963356133215
9.256,0.9999876826590909,135.27800503784948
9.264,0.9999876330543306,134.9462587755907
9.272,0.999987588762461,134.61439367893354
9.280000000000001,0.9999875498893266,134.28240865496304
9.288,0.9999875165392785,133.95030261350152
9.296,0.99998748881514,133.6180744671387
9.304,0.9999874668181689,133.28572313126224
9.312000000000001,0.9999874506480233,132.95324752408854
9.32,0.9999874404027259,132.62064656669324
9.328,0.9999874361786282,132.28791918304213
9.336,0.9999874380703778,131.9550643000223
9.344,0.9999874461708821,131.6220808474738
9.352,0.9999874605712759,131.28896775822037
9.36,0.9999874813608868,130.95572396810186
9.368,0.999987508627203,130.62234841600542
9.376,0.9999875424558392,130.2888400438979
9.384,0.9999875829305047,129.95519779685762
9.392,0.9999876301329725,129.62142062310724
9.4,0.9999876841430451,129.28750747404575
9.408,0.999987745038525,128.95345730428159
9.416,0.9999878128951831,128.61926907166506
9.424,0.9999878877867286,128.28494173732204
9.432,0.9999879697847784,127.95047426568648
9.44,0.9999880589588279,127.61586562453446
9.448,0.9999881553762202,127.28111478501731
9.456,0.9999882591021197,126.94622072169575
9.464,0.9999883701994815,126.61118241257354
9.472,0.9999884887290247,126.27599883913199
9.48,0.9999886147492041,125.94066898636378
9.488,0.9999887483161835,125.60519184280803
9.496,0.9999888894838086,125.26956640058445
9.504,0.999989038303582,124.93379165542878
9.512,0.999989194824636,124.59786660672714
9.52,0.999989359093708,124.26179025755202
9.528,0.9999895311551164,123.92556161469703
9.536,0.9999897110507348,123.58917968871305
9.544,0.9999898988199705,123.25264349394348
9.552,0.9999900944997387,122.91595204856074
9.56,0.9999902981244421,122.57910437460184
9.568,0.9999905097259468,122.2420994980053
9.576,0.9999907293335615,121.90493644864704
9.584,0.9999909569740172,121.56761426037768
9.592,0.9999911926714441,121.23013197105881
9.6,0.9999914364473541,120.89248862260061
9.608,0.9999916883206199,120.5546832609984
9.616,0.9999919483074557,120.21671493637086
9.624,0.9999922164214001,119.87858270299677
9.632,0.9999924926732973,119.54028561935348
9.64,0.9999927770712794,119.20182274815426
9.648,0.9999930696207503,118.86319315638697
9.656,0.9999933703243699,118.52439591535176
9.664,0.9999936791820375,118.1854301007001
9.672,0.9999939961908776,117.8462947924729
9.68,0.9999943213452257,117.50698907513984
