freq,mag,phase
6.0,0.9999950444934474,121.36464321428565
6.008,0.9999962311325961,121.27992054239847
6.016,0.999997397757891,121.19517296393882
6.024,0.9999985445397991,121.11040044367893
6.032,0.9999996716480217,121.02560294641587
6.04,0.9999999999999999,120.94078043697151
6.048,0.9999999999999998,120.85593288019292
6.056,1.0,120.77106024095242
6.064,0.9999999999999999,120.68616248414799
6.072,1.0,120.60123957470337
6.08,1.0,120.51629147756837
6.088,1.0,120.43131815771903
6.096,1.0,120.34631958015777
6.104,1.0,120.26129570991385
6.112,0.9999999999999999,120.17624651204339
6.12,1.0,120.09117195162958
6.128,1.0,120.00607199378311
6.136,0.9999999999999999,119.92094660364215
6.144,1.0,119.83579574637277
6.152,1.0,119.75061938716904
6.16,0.9999999999999999,119.66541749125327
6.168,1.0,119.58019002387633
6.176,0.9999999999999999,119.49493695031778
6.184,0.9999999999999999,119.40965823588607
6.192,1.0,119.32435384591892
6.2,1.0,119.2390237457833
6.208,0.9999999999999999,119.15366790087597
6.216,1.0,119.06828627662334
6.224,0.9999999999999999,118.98287883848208
6.232,0.9999999999999999,118.89744555193899
6.24,0.9999999999999999,118.81198638251148
6.248,1.0,118.72650129574767
6.256,0.9999999999999999,118.64099025722666
6.264,1.0,118.55545323255873
6.272,0.9999999999999999,118.46989018738564
6.28,1.0,118.38430108738068
6.288,0.9999999999999999,118.2986858982491
6.296,0.9999999999999999,118.21304458572826
6.304,1.0,118.12737711558776
6.312,1.0,118.04168345362982
6.32,0.9999999999999998,117.95596356568942
6.328,1.0000000000000002,117.8702174176345
6.336,0.9999999999999999,117.78444497536634
6.344,1.0,117.69864620481952
6.352,1.0,117.61282107196241
6.36,1.0,117.52696954279727
6.368,0.9999999999999999,117.44109158336047
6.376,1.0,117.35518715972273
6.384,0.9999999999999998,117.26925623798942
6.392,1.0,117.18329878430066
6.4,0.9999999999999999,117.09731476483165
6.408,0.9999999999999999,117.01130414579282
6.416,1.0,116.9252668934301
6.424,1.0,116.83920297402521
6.432,1.0,116.75311235389574
6.44,0.9999999999999999,116.66699499939548
6.448,1.0,116.58085087691465
6.456,0.9999999999999999,116.49467995288005
6.464,1.0,116.40848219375539
6.472,0.9999999999999999,116.32225756604142
6.48,0.9999999999999999,116.23600603627624
6.4879999999999995,0.9999999999999999,116.14972757103548
6.496,1.0,116.06342213693253
6.504,0.9999999999999999,115.97708970061879
6.5120000000000005,0.9999999999999999,115.89073022878387
6.52,1.0,115.80434368815585
6.5280000000000005,1.0,115.71793004550143
6.536,1.0,115.63148926762634
6.5440000000000005,0.9999999999999999,115.54502132137533
6.552,0.9999999999999998,115.45852617363255
6.5600000000000005,1.0,115.37200379132179
6.568,1.0,115.28545414140659
6.5760000000000005,1.0,115.19887719089053
6.584,1.0,115.11227290681761
6.592,0.9999999999999999,115.02564125627214
6.6,0.9999999999999999,114.9389822063793
6.608,1.0,114.85229572430516
6.616,0.9999999999999999,114.76558177725708
6.624,1.0000000000000002,114.67884033248372
6.632,0.9999999999999999,114.59207135727544
6.64,0.9999999999999999,114.50527481896452
6.648,1.0,114.41845068492528
6.656,0.9999999999999998,114.33159892257441
6.664,1.0,114.24471949937116
6.672,1.0000000000000002,114.1578123828176
6.68,1.0,114.07087754045875
6.688,1.0,113.98391493988296
6.696,1.0,113.89692454872207
6.704,0.9999999999999999,113.80990633465153
6.712,1.0,113.72286026539084
6.72,0.9999999999999999,113.63578630870362
6.728,0.9999999999999999,113.54868443239789
6.736,1.0,113.46155460432632
6.744,0.9999999999999999,113.37439679238639
6.752,0.9999999999999999,113.28721096452074
6.76,0.9999999999999999,113.1999970887173
6.768,0.9999999999999999,113.11275513300953
6.776,1.0,113.02548506547666
6.784,0.9999999999999999,112.93818685424398
6.792,1.0,112.850860467483
6.8,0.9999999999999999,112.76350587341163
6.808,1.0,112.67612304029457
6.816,1.0,112.58871193644342
6.824,1.0,112.50127253021695
6.832,0.9999999999999998,112.41380479002126
6.84,0.9999999999999999,112.32630868431012
6.848,1.0,112.23878418158516
6.856,0.9999999999999999,112.15123125039605
6.864,1.0,112.06364985934081
6.872,1.0,111.97603997706598
6.88,1.0,111.88840157226686
6.888,1.0,111.8007346136878
6.896,1.0,111.71303907012232
6.904,1.0,111.62531491041345
6.912,0.9999999999999999,111.53756210345388
6.92,0.9999999999999999,111.44978061818625
6.928,1.0,111.3619704236034
6.936,0.9999999999999999,111.27413148874844
6.944,1.0,111.18626378271519
6.952,1.0,111.09836727464831
6.96,1.0,111.01044193374352
6.968,1.0,110.92248772924783
6.976,1.0,110.83450463045986
6.984,1.0,110.74649260672994
6.992,1.0,110.65845162746041
7.0,1.0,110.57038166210589
7.008,0.9999999999999999,110.48228268017341
7.016,1.0,110.39415465122276
7.024,1.0,110.3059975448666
7.032,0.9999999999999999,110.21781133077083
7.04,1.0,110.1295959786546
7.048,0.9999999999999999,110.04135145829086
7.056,0.9999999999999999,109.9530777395063
7.064,0.9999999999999999,109.86477479218169
7.072,0.9999999999999999,109.77644258625223
7.08,0.9999999999999999,109.68808109170753
7.088,1.0,109.59969027859208
7.096,0.9999999999999999,109.51127011700535
7.104,1.0,109.42282057710203
7.112,1.0,109.33434162909235
7.12,0.9999999999999999,109.24583324324219
7.128,1.0,109.1572953898734
7.136,1.0,109.06872803936398
7.144,1.0,108.98013116214837
7.152,1.0,108.89150472871759
7.16,0.9999999999999999,108.8028487096196
7.168,1.0,108.71416307545938
7.176,1.0,108.6254477968993
7.184,1.0,108.53670284465929
7.192,1.0,108.44792818951704
7.2,0.9999999999999999,108.35912380230828
7.208,1.0,108.27028965392704
7.216,0.9999999999999999,108.18142571532576
7.224,0.9999999999999999,108.09253195751569
7.232,1.0,108.00360835156697
7.24,0.9999999999999999,107.91465486860896
7.248,1.0,107.82567147983045
7.256,0.9999999999999999,107.73665815647983
7.264,1.0,107.64761486986545
7.272,1.0,107.55854159135569
7.28,1.0,107.46943829237935
7.288,1.0,107.38030494442577
7.296,1.0,107.2911415190451
7.304,0.9999999999999998,107.20194798784857
7.312,0.9999999999999999,107.11272432250865
7.32,1.0,107.02347049475932
7.328,1.0,106.93418647639635
7.336,1.0,106.8448722392774
7.344,1.0,106.75552775532239
7.352,1.0,106.66615299651366
7.36,0.9999999999999999,106.57674793489626
7.368,1.0,106.48731254257808
7.376,1.0,106.39784679173016
7.384,1.0,106.30835065458695
7.392,1.0,106.21882410344644
7.4,0.9999999999999999,106.12926711067045
7.4079999999999995,1.0,106.03967964868495
7.416,1.0,105.95006168998006
7.4239999999999995,1.0,105.86041320711058
7.432,0.9999999999999999,105.77073417269594
7.4399999999999995,0.9999999999999999,105.68102455942064
7.448,1.0,105.59128434003435
7.4559999999999995,1.0,105.50151348735226
7.464,1.0,105.41171197425516
7.4719999999999995,1.0,105.32187977368986
7.48,1.0,105.23201685866923
7.4879999999999995,0.9999999999999999,105.14212320227257
7.496,1.0,105.05219877764578
7.504,1.0,104.96224355800162
7.5120000000000005,1.0,104.8722575166199
7.52,1.0,104.7822406268478
7.5280000000000005,0.9999999999999999,104.69219286209994
7.536,1.0,104.60211419585885
7.5440000000000005,0.9999999999999999,104.5120046016749
7.552,0.9999999999999999,104.42186405316687
7.5600000000000005,0.9999999999999999,104.33169252402189
7.568,0.9999999999999999,104.24148998799585
7.5760000000000005,0.9999999999999999,104.15125641891352
7.584,0.9999999999999998,104.0609917906689
7.5920000000000005,1.0,103.9706960772253
7.6,1.0000000000000002,103.88036925261581
7.6080000000000005,0.9999999999999999,103.79001129094317
7.616,0.9999999999999999,103.6996221663804
7.6240000000000006,1.0,103.6092018531707
7.632,0.9999999999999999,103.51875032562795
7.640000000000001,1.0,103.4282675581367
7.648,1.0,103.33775352515259
7.656000000000001,1.0000000000000002,103.24720820120248
7.664,0.9999999999999999,103.15663156088473
7.672,1.0,103.06602357886938
7.68,0.9999999999999999,102.97538422989841
7.688,1.0,102.884713488786
7.696,1.0,102.79401133041875
7.704,1.0,102.70327772975584
7.712,1.0,102.61251266182931
7.72,1.0000000000000002,102.52171610174437
7.728,1.0,102.4308880246795
7.736,1.0,102.34002840588674
7.744,0.9999999999999999,102.24913722069196
7.752,0.9999999999999999,102.15821444449497
7.76,0.9999999999999998,102.06726005276992
7.768,0.9999999999999999,101.97627402106536
7.776,1.0,101.88525632500462
7.784,0.9999999999999999,101.79420694028592
7.792,1.0,101.70312584268267
7.8,0.9999999999999999,101.61201300804368
7.808,1.0,101.52086841229338
7.816,1.0,101.42969203143207
7.824,1.0,101.33848384153617
7.832,1.0,101.24724381875836
7.84,1.0,101.15597193932793
7.848,0.9999999999999999,101.06466817955089
7.856,0.9999999999999999,100.97333251581033
7.864,1.0,100.88196492456652
7.872,0.9999999999999999,100.79056538235723
7.88,0.9999997953559184,100.69913386579792
7.888,0.9999994850331383,100.60767035158196
7.896,0.9999991764460368,100.51617481648093
7.904,0.9999988696221014,100.42464723734471
7.912,0.9999985645883958,100.3330875911019
7.92,0.9999982613715621,100.24149585475985
7.928,0.9999979599978226,100.14987200540502
7.936,0.9999976604929806,100.05821602020318
7.944,0.9999973628824232,99.96652787639961
7.952,0.9999970671911231,99.87480755131938
7.96,0.9999967734436396,99.7830550223675
7.968,0.9999964816641201,99.69127026702924
7.976,0.9999961918763041,99.59945326287027
7.984,0.9999959041035217,99.50760398753695
7.992,0.9999956183686983,99.41572241875656
8.0,0.999995334694354,99.32380853433747
8.008,0.9999950531026075,99.23186231216943
8.016,0.9999947736151762,99.13988373022374
8.024000000000001,0.9999944962533787,99.04787276655352
8.032,0.9999942210381367,98.95582939929399
8.04,0.9999939479899767,98.86375360666256
8.048,0.9999936771290306,98.77164536695908
8.056000000000001,0.9999934084750404,98.67950465856624
8.064,0.9999931420473562,98.58733145994965
8.072,0.9999928778649417,98.49512574965802
8.08,0.9999926159463721,98.40288750632345
8.088000000000001,0.9999923563098402,98.31061670866178
8.096,0.9999920989731537,98.21831333547262
8.104,0.9999918439537414,98.12597736563961
8.112,0.9999915912686512,98.0336087781308
8.120000000000001,0.9999913409345547,97.94120755199866
8.128,0.9999910929677468,97.84877366638054
8.136,0.9999908473841495,97.75630710049862
8.144,0.9999906041993117,97.66380783366036
8.152000000000001,0.9999903634284129,97.57127584525867
8.16,0.999990125086264,97.47871111477208
8.168,0.9999898891873084,97.38611362176502
8.176,0.9999896557456256,97.29348334588795
8.184000000000001,0.9999894247749315,97.20082026687777
8.192,0.999989196288581,97.10812436455788
8.2,0.9999889702995692,97.01539561883841
8.208,0.9999887468205337,96.92263400971656
8.216000000000001,0.9999885258637567,96.82983951727672
8.224,0.999988307441166,96.73701212169075
8.232,0.9999880915643364,96.64415180321815
8.24,0.9999878782444941,96.5512585422063
8.248000000000001,0.9999876674925149,96.45833231909077
8.256,0.999987459318929,96.36537311439544
8.264,0.9999872537339209,96.2723809087327
8.272,0.9999870507473324,96.17935568280377
8.280000000000001,0.9999868503686642,96.0862974173989
8.288,0.999986652607077,95.99320609339752
8.296,0.9999864574713938,95.90008169176855
8.304,0.9999862649701021,95.80692419357055
8.312,0.9999860751113556,95.71373357995202
8.32,0.9999858879029747,95.62050983215154
8.328,0.9999857033524511,95.52725293149807
8.336,0.9999855214669461,95.43396285941105
8.344,0.9999853422532962,95.3406395974008
8.352,0.9999851657180109,95.24728312706854
8.36,0.9999849918672785,95.15389343010682
8.368,0.9999848207069656,95.06047048829953
8.376,0.9999846522426186,94.9670142835223
8.384,0.9999844864794672,94.87352479774258
8.392,0.9999843234224253,94.78000201301995
8.4,0.9999841630760923,94.68644591150631
8.408,0.9999840054447563,94.59285647544613
8.416,0.9999838505323948,94.49923368717651
8.424,0.9999836983426773,94.40557752912774
8.432,0.9999835488789663,94.31188798382308
8.44,0.9999834021443198,94.21816503387939
8.448,0.9999832581414932,94.12440866200701
8.456,0.999983116872941,94.03061885101026
8.464,0.9999829783408175,93.93679558378739
8.472,0.9999828425469809,93.84293884333107
8.48,0.9999827094929935,93.74904861272834
8.488,0.999982579180124,93.6551248751611
8.496,0.9999824516093494,93.56116761390605
8.504,0.9999823267813566,93.46717681233511
8.512,0.9999822046965449,93.37315245391554
8.52,0.9999820853550266,93.27909452221022
8.528,0.9999819687566306,93.18500300087774
8.536,0.9999818549009022,93.09087787367282
8.544,0.999981743787107,92.9967191244463
8.552,0.9999816354142309,92.90252673714554
8.56,0.9999815297809843,92.8083006958145
8.568,0.9999814268858006,92.71404098459404
8.576,0.9999813267268418,92.61974758772207
8.584,0.9999812293019966,92.52542048953389
8.592,0.999981134608886,92.43105967446213
8.6,0.9999810426448621,92.33666512703736
8.608,0.9999809534070119,92.24223683188792
8.616,0.9999808668921574,92.1477747737404
8.624,0.9999807830968601,92.05327893741963
8.632,0.9999807020174201,91.95874930784919
8.64,0.9999806236498793,91.86418587005126
8.648,0.9999805479900227,91.76958860914716
8.656,0.9999804750333818,91.67495751035732
8.664,0.9999804047752342,91.58029255900166
8.672,0.9999803372106071,91.48559374049961
8.68,0.9999802723342783,91.39086104037061
8.688,0.9999802101407785,91.29609444423397
8.696,0.9999801506243933,91.2012939378094
8.704,0.9999800937791642,91.10645950691696
8.712,0.9999800395988919,91.01159113747747
8.72,0.9999799880771361,90.91668881551257
8.728,0.9999799392072201,90.82175252714505
8.736,0.9999798929822299,90.72678225859893
8.744,0.9999798493950179,90.6317779961998
8.752,0.9999798084382041,90.5367397263749
8.76,0.9999797701041782,90.4416674356535
8.768,0.9999797343851008,90.34656111066681
8.776,0.999979701272906,90.25142073814855
8.784,0.9999796707593038,90.15624630493488
8.792,0.9999796428357798,90.06103779796477
8.8,0.9999796174935998,89.96579520428006
8.808,0.9999795947238093,89.87051851102578
8.815999999999999,0.9999795745172368,89.77520770545037
8.824,0.9999795568644956,89.6798627749057
8.832,0.9999795417559845,89.58448370684755
8.84,0.9999795291818914,89.48907048883558
8.847999999999999,0.9999795191321936,89.39362310853367
8.856,0.9999795115966607,89.29814155371001
8.864,0.9999795065648558,89.20262581223743
8.872,0.9999795040261377,89.10707587209353
8.879999999999999,0.9999795039696631,89.01149172136084
8.888,0.9999795063843876,88.9158733482271
8.896,0.9999795112590679,88.82022074098545
8.904,0.9999795185822644,88.72453388803461
8.911999999999999,0.9999795283423422,88.62881277787906
8.92,0.999979540527473,88.53305739912925
8.928,0.9999795551256373,88.43726774050184
8.936,0.9999795721246263,88.34144379081987
8.943999999999999,0.9999795915120435,88.24558553901294
8.952,0.9999796132753069,88.1496929741174
8.96,0.9999796374016502,88.05376608527664
8.968,0.9999796638781253,87.95780486174117
8.975999999999999,0.9999796926916041,87.86180929286888
8.984,0.9999797238287801,87.76577936812522
8.992,0.9999797572761703,87.6697150770834
9.0,0.9999797930201175,87.5736164094246
9.008,0.9999798310467912,87.47748335493814
9.016,0.9999798713421908,87.38131590352167
9.024000000000001,0.9999799138921455,87.28511404518136
9.032,0.999979958682319,87.1888777700322
9.04,0.9999800056982087,87.09260706829802
9.048,0.9999800549251482,86.9963019303118
9.056000000000001,0.9999801063483106,86.8999623465158
9.064,0.9999801599527088,86.8035883074619
9.072,0.9999802157231974,86.70717980381148
9.08,0.9999802736444761,86.61073682633597
9.088000000000001,0.9999803337010893,86.51425936591681
9.096,0.9999803958774296,86.41774741354574
9.104,0.9999804601577393,86.32120096032493
9.112,0.9999805265261118,86.22461999746714
9.120000000000001,0.999980594966494,86.12800451629612
9.128,0.9999806654626876,86.03135450824651
9.136,0.9999807379983516,85.93466996486423
9.144,0.9999808125570034,85.83795087780653
9.152000000000001,0.9999808891220218,85.74119723884232
9.16,0.999980967676647,85.64440903985226
9.168,0.9999810482039841,85.547586272829
9.176,0.9999811306870046,85.45072892987722
9.184000000000001,0.9999812151085474,85.35383700321405
9.192,0.9999813014513218,85.25691048516914
9.2,0.9999813896979085,85.15994936818475
9.208,0.999981479830762,85.06295364481609
9.216000000000001,0.9999815718322114,84.9659233077314
9.224,0.9999816656844643,84.86885834971223
9.232,0.9999817613696059,84.77175876365347
9.24,0.9999818588696033,84.67462454256368
9.248000000000001,0.9999819581663061,84.57745567956522
9.256,0.9999820592414479,84.48025216789442
9.264,0.999982162076649,84.38301400090177
9.272,0.9999822666534182,84.28574117205201
9.280000000000001,0.999982372953154,84.18843367492455
9.288,0.9999824809571463,84.09109150321338
9.296,0.9999825906465796,83.9937146507274
9.304,0.9999827020025329,83.89630311139052
9.312000000000001,0.9999828150059835,83.79885687924195
9.32,0.9999829296378071,83.70137594843625
9.328,0.9999830458787802,83.60386031324359
9.336,0.9999831637095826,83.5063099680498
9.344,0.9999832831107982,83.40872490735678
9.352,0.9999834040629179,83.31110512578245
9.36,0.9999835265463405,83.21345061806105
9.368,0.999983650541374,83.11576137904316
9.376,0.9999837760282392,83.01803740369618
9.384,0.9999839029870705,82.92027868710413
9.392,0.9999840313979171,82.82248522446811
9.4,0.9999841612407456,82.72465701110626
9.408,0.999984292495442,82.62679404245411
9.416,0.9999844251418124,82.52889631406464
9.424,0.9999845591595868,82.43096382160851
9.432,0.9999846945284178,82.33299656087411
9.44,0.9999848312278855,82.23499452776795
9.448,0.9999849692374975,82.13695771831456
9.456,0.9999851085366913,82.03888612865688
9.464,0.9999852491048361,81.9407797550563
9.472,0.9999853909212341,81.84263859389289
9.48,0.9999855339651227,81.74446264166548
9.488,0.9999856782156765,81.646251894992
9.496,0.9999858236520085,81.5480063506094
9.504,0.9999859702531722,81.44972600537402
9.512,0.999986117998163,81.35141085626162
9.52,0.9999862668659212,81.2530609003677
9.528,0.999986416835332,81.1546761349074
9.536,0.9999865678852282,81.056256557216
9.544,0.9999867199943925,80.95780216474876
9.552,0.9999868731415579,80.8593129550813
9.56,0.999987027305411,80.76078892590961
9.568,0.9999871824645922,80.66223007505037
9.576,0.9999873385976984,80.56363640044093
9.584,0.9999874956832853,80.46500790013967
9.592,0.9999876536998671,80.36634457232589
9.6,0.9999878126259211,80.26764641530025
9.608,0.9999879724398867,80.16891342748471
9.616,0.9999881331201689,80.07014560742283
9.624,0.9999882946451388,79.97134295377981
9.632,0.9999884569931373,79.87250546534277
9.64,0.9999886201424746,79.77363314102072
9.648,0.999988784071433,79.67472597984494
9.656,0.9999889487582685,79.57578398096894
9.664,0.9999891141812131,79.47680714366871
9.672,0.9999892803184748,79.37779546734284
9.68,0.9999894471482417,79.27874895151272
9.688,0.9999896146486819,79.17966759582256
9.696,0.9999897827979456,79.08055140003972
9.704,0.9999899515741674,78.98140036405468
9.712,0.9999901209554675,78.88221448788133
9.72,0.9999902909199533,78.78299377165703
9.728,0.9999904614457212,78.68373821564279
9.736,0.9999906325108597,78.58444782022339
9.744,0.9999908040934476,78.48512258590758
9.752,0.99999097617156,78.38576251332813
9.76,0.9999911487232663,78.28636760324211
9.768,0.9999913217266343,78.18693785653086
9.776,0.9999914951597308,78.08747327420032
9.784,0.9999916690006241,77.98797385738098
9.792,0.9999918432273837,77.8884396073282
9.8,0.9999920178180842,77.78887052542217
9.808,0.999992192750807,77.68926661316827
9.816,0.9999923680036392,77.58962787219697
9.824,0.999992543554679,77.48995430426415
9.832,0.9999927193820343,77.39024591125114
9.84,0.9999928954638254,77.2905026951649
9.847999999999999,0.9999930717781879,77.19072465813812
9.856,0.9999932483032724,77.09091180242939
9.864,0.9999934250172471,76.99106413042331
9.872,0.9999936018982992,76.89118164463065
9.879999999999999,0.9999937789246375,76.79126434768847
9.888,0.9999939560744919,76.6913122423602
9.896,0.9999941333261176,76.59132533153587
9.904,0.9999943106577941,76.4913036182322
9.911999999999999,0.9999944880478289,76.39124710559267
9.92,0.9999946654745586,76.29115579688772
9.928,0.9999948429163493,76.19102969551486
9.936,0.9999950203516004,76.09086880499883
9.943999999999999,0.999995197758744,75.99067312899166
