freq,mag,phase
6.0,0.9991105101435337,-75.35243175392776
6.007346176,0.9991217826645905,-75.69622652319163
6.014692352,0.9991837468050884,-76.04064330723875
6.022038528,0.9992905400753053,-76.38633577188799
6.029384704,0.9994362358476363,-76.73384198218764
6.03673088,0.9996130065477495,-77.08360077464269
6.044077056,0.9998112745123141,-77.43607605052634
6.051423232,1.0000201856970794,-77.79133166722467
6.058769408,1.0002283747567526,-78.14958102971158
6.066115584,1.0004245810713859,-78.5106083592617
6.07346176,1.00059797248772,-78.87424184663125
6.080807936,1.000739416502252,-79.24015824192338
6.088154112,1.0008408312270416,-79.60780821648277
6.095500288,1.0008968134656864,-79.97662805234793
6.102846464,1.0009041289950398,-80.34603818454414
6.11019264,1.0008627886969874,-80.71528988991645
6.117538816,1.0007743980073234,-81.0838273245466
6.124884992,1.0006443326024275,-81.45102485344549
6.132231168,1.0004790881733285,-81.81633312693995
6.139577344,1.0002877365036134,-82.17941700888186
6.146924032,1.000080742579631,-82.5398810558793
6.154270208,0.9998694651878482,-82.89770546253703
6.161616384,0.9996651293305043,-83.25282716227642
6.16896256,0.9994790500723568,-83.60541522698807
6.176308736,0.99932148616774,-83.95584753585679
6.183654912,0.999200730258213,-84.30444055347853
6.191001088,0.9991236200462752,-84.65189100143004
6.198347264,0.9990944671383749,-84.9987012675034
6.20569344,0.9991147850161985,-85.34551439600746
6.213039616,0.9991834642589809,-85.69308842302267
6.220385792,0.9992969981730784,-86.04201710701196
6.227731968,0.9994492060547443,-86.39279986172504
6.235078144,0.999631660316133,-86.74596899323959
6.24242432,0.9998345941283809,-87.10183133831002
6.249770496,1.0000469814195585,-87.46059608709912
6.257116672,1.000257137914797,-87.82237832702555
6.264462848,1.000453749072587,-88.18696857210678
6.271809024,1.000626135982965,-88.55416154814901
6.2791552,1.0007647951542482,-88.92355047858267
6.286501376,1.0008622667825218,-89.2946393130569
6.293847552,1.0009131360958092,-89.66684321833516
6.301193728,1.000914692577503,-90.03952161062763
6.308539904,1.0008666571964386,-90.4119864098511
6.31588608,1.0007717881711993,-90.78365795248342
6.323232256,1.0006351483842189,-91.15383391392919
6.330578432,1.0004637524865683,-91.52209379377038
6.337924608,1.0002672273450666,-91.88801911523304
6.345270784,1.0000562901448837,-92.25130768439708
6.35261696,0.999842202721778,-92.61182115818126
6.359963136,0.9996366174150216,-92.96963729321668
6.367309312,0.9994509765432759,-93.32492526374493
6.374655488,0.9992949769407857,-93.67802120746279
6.382001664,0.9991776140078897,-94.02937944279039
6.38934784,0.9991049286052774,-94.37953955782432
6.396694016,0.9990812884615019,-94.7291584225863
6.404040192,0.9991078924949933,-95.07889535622336
6.411386368,0.9991832275610346,-95.42947478579147
6.418732544,0.9993034571348041,-95.7814153356488
6.42607872,0.9994619019038958,-96.13535836515277
6.433425408,0.999649942506045,-96.4917378573963
6.440771584,0.9998574418282038,-96.8508954775924
6.44811776,1.0000732322107684,-97.2130006693348
6.455463936,1.0002855328683304,-97.57809313773988
6.462810112,1.000482553204585,-97.94604206260858
6.470156288,1.0006539687580516,-98.31657443159935
6.477502464,1.000790168930089,-98.68927202740997
6.48484864,1.0008837371250328,-99.06361377779407
6.492194816,1.000929656100297,-99.43902341325015
6.499540992,1.0009254441858473,-99.81484210603692
6.506887168,1.0008710622995611,-100.19036782494238
6.514233344,1.0007695151124758,-100.56493106913032
6.52157952,1.0006262763889842,-100.93800028265159
6.528925696,1.000449052399799,-101.30899858494946
6.536271872,1.0002474317723946,-101.677562048698
6.543618048,1.0000324031718328,-102.04345463140396
6.550964224,0.9998155655173443,-102.40651465215635
6.5583104,0.9996087065666743,-102.76682907200114
6.565656576,0.9994231118534488,-103.12463425683346
6.573002752,0.9992688779783181,-103.48022073546926
6.580348928,0.9991546037219763,-103.83412789432735
6.587695104,0.9990863994199942,-104.18686353971336
6.59504128,0.9990681432028276,-104.53910473711936
6.602387456,0.9991007488396152,-104.89156394676068
6.609733632,0.9991826020687091,-105.2448867000309
6.617079808,0.9993093247943493,-105.5996654800349
6.624425984,0.9994739003563173,-105.95656211741375
6.63177216,0.9996675769522246,-106.31591004033191
6.639118336,0.99987973223307,-106.67813087973168
6.646464512,1.00009902903363,-107.04335075581925
6.653810688,1.0003132860335169,-107.41155738895809
6.661156864,1.0005110340597525,-107.78265997296539
6.66850304,1.0006813107236112,-108.15631881218965
6.675849216,1.0008151191886967,-108.53212273425129
6.683195392,1.00090508943997,-108.90953701974694
6.690541568,1.0009461495968592,-109.28791952074609
6.697887744,1.0009361096775078,-109.66662034783033
6.70523392,1.0008754342936257,-110.04499130331548
6.712580096,1.000767396436125,-110.42227682178053
6.719926784,1.0006178808505957,-110.7979815441442
6.72727296,1.0004346841088994,-111.17152153434412
6.734619136,1.0002279538411505,-111.54254160968671
6.741965312,1.0000088933601845,-111.91079860728487
6.749311488,0.9997891749368779,-112.27621195693652
6.756657664,0.9995810157358851,-112.6388248283275
6.76400384,0.9993955072798446,-112.99890911461411
6.771350016,0.9992429652876197,-113.35675588083384
6.778696192,0.9991317358799399,-113.71294451315957
6.786042368,0.9990677259804355,-114.06803125317829
6.793388544,0.999054721163597,-114.42270270769846
6.80073472,0.9990933369564566,-114.77758332587938
6.808080896,0.9991815983333648,-115.13342840197734
6.815427072,0.9993147567711996,-115.49089131639808
6.822773248,0.9994855384570509,-115.85043099756251
6.830119424,0.9996847588362793,-116.2125706604056
6.8374656,0.9999015713046189,-116.57758218886826
6.844811776,1.0001242395787882,-116.945652924258
6.852157952,1.0003406070534975,-117.31676682568497
6.859504128,1.0005390483970031,-117.69075665138304
6.866850304,1.0007085840886527,-118.06731843741272
6.87419648,1.0008401539546683,-118.44593934503837
6.881542656,1.0009264687767112,-118.82617518598612
6.888888832,1.000962795408398,-119.20733928248391
6.896235008,1.0009471320805954,-119.58871633651164
6.903581184,1.0008803692667658,-119.96961558371282
6.91092736,1.0007658788396017,-120.34939068861456
6.918273536,1.000609941665307,-120.72748632836955
6.925619712,1.0004209450709853,-121.10330446839241
6.932965888,1.0002090265923649,-121.47655421529397
6.940312064,0.9999857773026971,-121.84695212034785
6.94765824,0.9997632753634108,-122.21444468087121
6.955004416,0.9995535556858153,-122.57912279923191
6.962350592,0.999368156099944,-122.94119348714774
6.969696768,0.9992170632350743,-123.30110115200738
6.977042944,0.9991086484001667,-123.65932886439757
6.98438912,0.9990488881708857,-124.0164860988826
6.991735296,0.9990409785457098,-124.3732688372994
6.999081472,0.9990855783031574,-124.73040264554028
7.00642816,0.9991801730685967,-125.08851052897249
7.013774336,0.9993197375844629,-125.44828236810962
7.021120512,0.999496685266958,-125.81023869925842
7.028466688,0.9997014310620812,-126.174856384072
7.035812864,0.9999229888170033,-126.54244845287353
7.04315904,1.0001491769319864,-126.91311605491576
7.050505216,1.0003678664415885,-127.28683754856696
7.057851392,1.0005669924954923,-127.66343068300182
7.065197568,1.0007358232105326,-128.04260874532054
7.072543744,1.0008652360057768,-128.42384944434602
7.07988992,1.0009480477588986,-128.80661092613994
7.087236096,1.0009797206547753,-129.19020589612012
7.094582272,1.0009585855134393,-129.57398927646966
7.101928448,1.0008856108378683,-129.95718609380646
7.109274624,1.0007647666346826,-130.33920009582226
7.1166208,1.0006024363689403,-130.71936244827714
7.123966976,1.0004075056225405,-131.09724648718617
7.131313152,1.0001904107595858,-131.47242676009282
7.138659328,0.9999629289979549,-131.84470271596928
7.146005504,0.9997374733235517,-132.2139926046686
7.15335168,0.9995261860296893,-132.58040286562837
7.160697856,0.9993406532610528,-132.94425491859633
7.168044032,0.9991910032791832,-133.3058649242716
7.175390208,0.9990854882471063,-133.66584837992437
7.182736384,0.9990296871559177,-134.0248157877623
7.19008256,0.9990269135377278,-134.38344062013124
7.197428736,0.999077367030752,-134.7424461834848
7.204774912,0.9991782865042913,-135.10254099871227
7.212121088,0.9993242271375754,-135.4643393677756
7.219467264,0.9995074932565648,-135.82844084659766
7.22681344,0.9997178214702754,-136.19527541275616
7.234159616,0.9999441320405932,-136.56508647217694
7.241505792,1.0001740151994478,-136.93802802757517
7.248851968,1.0003949744784866,-137.31409225173482
7.256198144,1.000595012021967,-137.6930166698845
7.26354432,1.0007632981475107,-138.07448672166618
7.270890496,1.0008905258480902,-138.45802600637256
7.278236672,1.0009699913612515,-138.84302999921283
7.285582848,1.0009971015374874,-139.22880366179479
7.292929536,1.00097048095024,-139.61469427590782
7.300275712,1.0008914089781897,-139.99989617692816
7.307621888,1.0007642167483646,-140.38381795800368
7.314968064,1.0005954798307761,-140.7658340207243
7.32231424,1.0003945551739528,-141.1453929421805
7.329660416,1.0001721895030224,-141.52220364178865
7.337006592,0.9999404124577144,-141.89604744698752
7.344352768,0.9997118919508314,-142.2668272661964
7.351698944,0.9994989141473304,-142.63471661313372
7.35904512,0.9993132144627372,-142.99995854643151
7.366391296,0.9991647439252161,-143.36303419990813
7.373737472,0.9990619196771543,-143.72445509875254
7.381083648,0.9990101259547277,-144.08488039774534
7.388429824,0.9990123648480231,-144.4450238577545
7.395776,0.9990686938974901,-144.80561734615702
7.403122176,0.9991758697448139,-145.1673805429198
7.410468352,0.999328346187829,-145.5309129432725
7.417814528,0.9995178185617143,-145.89678616504204
7.425160704,0.9997339553671808,-146.265466790092
7.43250688,0.9999651224228804,-146.6372028360651
7.439853056,1.000198744487222,-147.01213453070866
7.447199232,1.0004220960785424,-147.39018213946554
7.454545408,1.000623234042746,-147.77109751867422
7.461891584,1.0007909999828875,-148.1545955080825
7.46923776,1.0009163121463365,-148.54013089923842
7.476583936,1.0009924385263778,-148.92704500454198
7.483930112,1.001014992801594,-149.31467428052278
7.491276288,1.0009828952215816,-149.70233812564695
7.498622464,1.0008976817187722,-150.08927605353512
7.50596864,1.000763945559173,-150.4747656073354
7.513314816,1.0005888664380467,-150.8582718934159
7.520660992,1.00038180162284,-151.23924859528566
7.528007168,1.0001539783097058,-151.6173530072585
7.535353344,0.9999178196277025,-151.99244147126723
7.54269952,0.9996860381916793,-152.36440749617938
7.550045696,0.9994712441089592,-152.7333998265717
7.557391872,0.9992852201841994,-153.09976332385182
7.564738048,0.9991379669614541,-153.46389581682195
7.572084736,0.9990376997486262,-153.82641068486586
7.579430912,0.9989899323025864,-154.18798055467147
7.586777088,0.998997153920556,-154.549313569124
7.594123264,0.9990592842649395,-154.9111459096219
7.60146944,0.999172957324977,-155.27422321263282
7.608815616,0.9993318875894304,-155.63914507858263
7.616161792,0.9995277040001006,-156.00649672407968
7.623507968,0.9997497097880831,-156.37669613377375
7.630854144,0.999985849888394,-156.7500045765361
7.63820032,1.0002233580612,-157.12654390963235
7.645546496,1.000449399540334,-157.50626962907893
7.652892672,1.0006515745349005,-157.8888955066725
7.660238848,1.0008189137315513,-158.27406089234753
7.667585024,1.0009423614811053,-158.66120276146427
7.6749312,1.0010151652953543,-159.0497131785407
7.682277376,1.001033280845109,-159.43886737549005
7.689623552,1.0009956837294738,-159.82799508577963
7.696969728,1.0009042641935706,-160.21627357880612
7.704315904,1.0007640091880274,-160.60304689735838
7.71166208,1.0005823399759541,-160.9877157254901
7.719008256,1.0003691105659493,-161.36978192922265
7.726354432,1.0001357597534215,-161.74883904491654
7.733700608,0.999894961245467,-162.1248093482121
7.741046784,0.9996597969858844,-162.49759401214126
7.74839296,0.9994430873038828,-162.867370257784
7.755739136,0.9992566032355354,-163.23448863637074
7.763085312,0.9991104386903175,-163.5993509476112
7.770431488,0.9990127557106958,-163.9626561324647
7.777777664,0.9989688909548584,-164.3249750868902
7.78512384,0.9989812475214958,-164.68715219979933
7.792470016,0.9990492536049712,-165.0498617384656
7.799816192,0.9991693680342666,-165.4138495671805
7.807162368,0.9993350788404145,-165.77980911795356
7.814508544,0.9995374413059207,-166.14826997632068
7.82185472,0.9997654636804251,-166.51963564061697
7.829200896,1.000006778465381,-166.89421614214706
7.836547072,1.0002484062121693,-167.2720702893721
7.843893248,1.0004770979022144,-167.65310294906214
7.851239424,1.0006805352787649,-168.03706187579937
7.858586112,1.0008476533331512,-168.42355444878103
7.865932288,1.000969277407876,-168.81199289198338
7.873278464,1.0010388843170555,-169.2017800046261
7.88062464,1.001052389096005,-169.59212025108667
7.887970816,1.0010092166921039,-169.9823331342572
7.895316992,1.000911520157351,-170.37164182587856
7.902663168,1.000764554294327,-170.7593344702092
7.910009344,1.0005761296457611,-171.14479630659454
7.91735552,1.000356400015767,-171.52756409220558
7.924701696,1.000117378838203,-171.90728833159656
7.932047872,0.9998718572923189,-172.2837863892079
7.939394048,0.9996331916971921,-172.65704855018464
7.946740224,0.9994143548235741,-173.02725292248246
7.9540864,0.9992272795715428,-173.3947306825774
7.961432576,0.9990821711885894,-173.75999844288026
7.968778752,0.9989870031967637,-174.12363362057312
7.976124928,0.9989470633262422,-174.4864266577359
7.983471104,0.998964559155597,-174.8490266861544
7.99081728,0.9990386762430815,-175.21226418661368
7.998163456,0.9991654731791408,-175.57686650639437
8.005509632,0.9993379689216675,-175.94349371009878
8.012855808,0.9995471104172631,-176.31270261809087
8.020201984,0.9997813380483525,-176.68491207597395
8.02754816,1.0000281053452758,-177.06035795249826
8.034894336,1.0002738515451433,-177.43914806349017
8.042240512,1.0005055317005338,-177.8211797070076
8.049586688,1.0007103865993807,-178.20610704324238
8.056932864,1.0008772958342556,-178.5935880390353
8.06427904,1.0009971565008304,-178.98299833151447
8.071625216,1.001063308735452,-179.373707031948
8.078971392,1.0010723690460328,-179.7649179602628
8.086317568,1.0010234205197057,179.844128687109
8.093663744,1.0009193467309583,179.4541419870153
8.10100992,1.000765406832809,179.06587573890187
8.108356096,1.0005698881475646,178.67993874875168
8.115702272,1.0003436699682728,178.29678481584972
8.123048448,1.000098591110938,177.91681404036044
8.130394624,0.9998480056443392,177.54016455404465
8.1377408,0.9996056203526532,177.1667934340476
8.145087488,0.9993845260006513,176.79654165052128
8.152433664,0.9991968478094418,176.42902438133498
8.15977984,0.9990527184514031,176.06374596336977
8.167126016,0.998960129227054,175.70007527264457
8.174472192,0.9989241532436428,175.33729447853793
8.181818368,0.9989469496140386,174.9745836618805
8.189164544,0.9990272632047963,174.6111727459683
8.19651072,0.9991608981573409,174.24632409696315
8.203856896,0.9993405067804563,173.87936766666212
8.211203072,0.9995565950729105,173.50977535839093
8.218549248,0.9997973443821893,173.13709015840251
8.225895424,1.0000497574602916,172.76109130452295
8.2332416,1.0003001204432547,172.3816894393676
8.240587776,1.0005348846312787,171.99907228303925
8.247933952,1.0007411036473575,171.61346903257018
8.255280128,1.0009078446131003,171.22533137470896
8.262626304,1.0010259725959496,170.83529921919717
8.26997248,1.001088976815145,170.4440465003374
8.277318656,1.0010931459546897,170.05229923628247
8.284664832,1.0010383599127526,169.66088586513064
8.292011008,1.0009275943333447,169.27060062220497
8.299357184,1.0007665172224591,168.88208651293084
8.30670336,1.0005639607862005,168.49602578685762
8.314049536,1.0003306773846734,168.11288401744304
8.321395712,1.0000793491179778,167.73299523809683
8.328741888,0.9998235375032751,167.35649654455895
8.336088064,0.9995771979196918,166.98338871526965
8.34343424,0.9993536965430639,166.61343926124198
8.350780416,0.999165203715874,166.24628283521378
8.358126592,0.9990220133911667,165.88136705080169
8.365472768,0.9989319667044946,165.51804538871252
8.372818944,0.9989002581863571,165.15554584822306
8.38016512,0.9989284803387168,164.79310430827684
8.387511296,0.9990152570348172,164.42990351452724
8.394857472,0.9991560417269131,164.06516446260585
8.402203648,0.9993430450745969,163.69826080557755
8.409549824,0.9995662991305472,163.32860037417905
8.416896,0.9998139018573722,162.95579337670287
8.424242176,1.0000721731369364,162.57957598954275
8.431588864,1.000327318854464,162.19992071128124
8.43893504,1.0005652191337957,161.81697101973086
8.446281216,1.0007732437787402,161.4310553965444
8.453627392,1.0009398389306994,161.04259186757682
8.460973568,1.0010560820859054,160.65223815214165
8.468319744,1.0011155119474437,160.26072793843943
8.47566592,1.001114887028742,159.8688187789062
8.483012096,1.0010540018397005,159.47730472445647
8.490358272,1.000936294250885,159.08702411690922
8.497704448,1.0007676750802448,158.69861305933136
8.505050624,1.0005575357521526,158.31275312544608
8.5123968,1.000316989099075,157.92993367960955
8.519742976,1.0000589821339056,157.55050117091392
8.527089152,0.9997977489219849,157.17454689377595
8.534435328,0.9995473215066875,156.80202455392993
8.541781504,0.999321246142142,156.43275497052696
8.54912768,0.9991319234782663,156.06630103803303
8.556473856,0.9989896917754784,155.702066886507
8.563820032,0.9989023766590404,155.3394676557891
8.571166208,0.9988748413962242,154.9776318187644
8.578512384,0.998908757907452,154.61580161313464
8.58585856,0.9990023533452104,154.25314556128257
8.593205248,0.9991505101955601,153.88887774544992
8.600551424,0.9993453727196222,153.52234033080651
8.6078976,0.9995764290964877,153.15295099127434
8.615243776,0.999831030090112,152.78033702330345
8.622589952,1.0000955680345223,152.4042326649938
8.629936128,1.0003555728994469,152.02463410069376
8.637282304,1.0005971187053817,151.64169579457422
8.64462848,1.0008067862176384,151.25571721575844
8.651974656,1.0009733551795867,150.86724718104938
8.659320832,1.0010877309461814,150.47692003506626
8.666667008,1.001143476603428,150.08542840461524
8.674013184,1.0011377675744741,149.69366106398968
8.68135936,1.0010704894850577,149.3023648909387
8.688705536,1.0009454478319177,148.91236125945372
8.696051712,1.0007690618041345,148.5243981938554
8.703397888,1.0005509134807644,148.13910357667837
8.710744064,1.0003026856284063,147.75695441755119
8.71809024,1.000037857645878,147.37826614415053
8.725436416,0.9997707560491341,147.00314431430365
8.732782592,0.9995159325454306,146.63158819889537
8.740128768,0.9992870926693788,146.26333603756285
8.747474944,0.9990969781492554,145.89789770218692
8.75482112,0.9989556908659208,145.5347756696821
8.762167296,0.9988712663386683,145.17320354349246
8.769513472,0.9988482282414648,144.81233708948469
8.776859648,0.9988881298566098,144.45144908324258
8.784205824,0.9989887717972522,144.0896662508409
8.791552,0.9991448248999236,143.7261805103502
8.798898176,0.9993478265456956,143.36032120785762
8.806244352,0.9995870021650771,142.99153216866515
8.813590528,0.9998491506028855,142.619399075189
8.820936704,1.0001203129335374,142.2437045585085
8.82828288,1.000385524331873,141.86446326674326
8.835629056,1.0006305694192597,141.4818046682169
8.842975232,1.0008422617170192,141.0960954046009
8.850321408,1.001008743707436,140.7078823310576
8.857667584,1.0011210159196924,140.31784010717521
8.86501376,1.0011730176317122,139.92669143634888
8.872359936,1.00116176186388,139.53530696836177
8.879706112,1.001087697562758,139.14450463140471
8.887052288,1.000954771905067,138.75512242618314
8.894398464,1.0007702178682956,138.36786967799583
8.90174464,1.000543532312242,137.98341947912732
8.909090816,1.0002873271690154,137.6022252288314
8.916436992,1.000015173920131,137.22462825393234
8.923783168,0.9997418440262056,136.85070434143162
8.931129344,0.9994825229141255,136.4804117089488
8.93847552,0.9992507796741912,136.11347984164644
