freq,mag,phase
6.0,0.9999323031321231,-32.56999743963263
6.008359424,1.0000133305329353,-32.90131152245101
6.016718848,1.000093734713265,-33.23386365445332
6.025078272,1.0001695572109996,-33.56758035158104
6.033437696,1.0002366617322385,-33.902399430513825
6.04179712,1.0002914849332822,-34.2381875269919
6.050156544,1.0003309928680917,-34.574780841027426
6.058515968,1.0003532226567735,-34.911886935725086
6.066875904,1.0003565042096696,-35.24936246221812
6.075235328,1.0003409308389797,-35.58690765841258
6.083594752,1.0003071983621452,-35.924251427750264
6.091954176,1.0002570749798259,-36.261203025697235
6.1003136,1.000192856756778,-36.597530467734536
6.108673024,1.0001184590182752,-36.933112450321325
6.117032448,1.0000373486449121,-37.26780938906987
6.125391872,0.9999541649410083,-37.60149573681047
6.133751296,0.9998732011766935,-37.93431243437768
6.14211072,0.99979876901652,-38.26616566454879
6.150470144,0.9997349310890357,-38.59728006195931
6.158829568,0.9996854042684121,-38.92776764712594
6.167188992,0.9996523066406249,-39.257852207480106
6.175548416,0.9996379002261737,-39.587774359168534
6.18390784,0.9996430942420572,-39.91772546956893
6.192267264,0.9996673483639378,-40.248045931563034
6.2006272,0.9997097266828392,-40.57890965224189
6.208986624,0.9997679759147805,-40.910624088058036
6.217346048,0.9998388570487879,-41.24332843097757
6.225705472,0.9999186412390083,-41.57716676674805
6.234064896,1.000003396033923,-41.91225598414714
6.24242432,1.0000881332153806,-42.248628312304746
6.250783744,1.0001688699353875,-42.586238320632695
6.259143168,1.0002408005132364,-42.92505184062788
6.267502592,1.000300220678451,-43.26484542977021
6.275862016,1.0003441027974986,-43.60547217703151
6.28422144,1.0003697814493835,-43.94677558190938
6.292580864,1.0003758284952593,-44.28841086487725
6.300940288,1.0003618741648743,-44.63017347420858
6.309299712,1.0003287653870536,-44.97177500943873
6.317659136,1.0002779014606287,-45.31296433309424
6.32601856,1.000212391322501,-45.65352332528473
6.334378496,1.0001351729167616,-45.993258504519396
6.34273792,1.0000504758517006,-46.33214181791388
6.351097344,0.9999631029291537,-46.66996915227462
6.359456768,0.9998770965905853,-47.006806488718404
6.367816192,0.9997977877121096,-47.34265076200503
6.376175616,0.9997292395702747,-47.67769807962295
6.38453504,0.9996745860333426,-48.012096067464825
6.392894464,0.9996375324912918,-48.345950059626716
6.401253888,0.9996198512899052,-48.67959278743459
6.409613312,0.9996225075651962,-49.0133074830288
6.417972736,0.9996454670786434,-49.3472985221901
6.42633216,0.9996875503767928,-49.68188512691893
6.434691584,0.9997466403095323,-50.01729642129034
6.443051008,0.999819621892736,-50.35369017071859
6.451410432,0.9999026930297922,-50.69128121709571
6.459770368,0.999991242375156,-51.0301687614652
6.468129792,1.0000809067481764,-51.370410942996585
6.476489216,1.0001665537461049,-51.71195344553556
6.48484864,1.000243693994016,-52.05472269032397
6.493208064,1.0003082289679945,-52.39863143723585
6.501567488,1.0003567165234135,-52.74337135724598
6.509926912,1.0003863662310855,-53.08885233429735
6.518286336,1.000395586647961,-53.43474358679676
6.52664576,1.0003837478720128,-53.78076319221686
6.535005184,1.0003517004673237,-54.12665457842149
6.543364608,1.0003005826936373,-54.47215127344324
6.551724032,1.0002335775880347,-54.81699310115281
6.560083456,1.00015386142888,-55.161031934817906
6.56844288,1.000065581603572,-55.50413102737076
6.576802304,0.9999737864981368,-55.84612728028177
6.585161728,0.9998830650743749,-56.18708623075356
6.593521664,0.9997984563969755,-56.52698062982143
6.601881088,0.9997243004016817,-56.86601153046875
6.610240512,0.9996647745569076,-57.2043201706837
6.618599936,0.9996229318648315,-57.542059603372046
6.62695936,0.9996014373404156,-57.879503564537266
6.635318784,0.9996012898620413,-58.21693120605769
6.643678208,0.9996224953690057,-58.55466542830289
6.652037632,0.9996639851469835,-58.89289938957241
6.660397056,0.9997237451758135,-59.23206688606197
6.66875648,0.9997986973439219,-59.57216621308094
6.677115904,0.9998847330219193,-59.91354064359989
6.685475328,0.999977283641541,-60.25622811138739
6.693834752,1.0000716174838702,-60.60029848489528
6.702194176,1.0001625018579812,-60.94579189032468
6.7105536,1.000245260901475,-61.292564614530306
6.718913024,1.0003153129329618,-61.640513737673146
6.72727296,1.000368846502024,-61.98944808298693
6.735632384,1.0004030740421814,-62.33909791283035
6.743991808,1.000415907180632,-62.68923348222477
6.752351232,1.0004068537249842,-63.03957241703695
6.760710656,1.000376041677101,-63.38980116823771
6.76907008,1.000325259565306,-63.73962076016354
6.777429504,1.0002568467465032,-64.0888207882052
6.785788928,1.0001749000713127,-64.43718705851887
6.794148352,1.0000831824609016,-64.78450431295349
6.802507776,0.9999869840841086,-65.1307491645242
6.8108672,0.999891099170326,-65.47588549107843
6.819226624,0.9998008124153532,-65.81988895796475
6.827586048,0.9997209396896684,-66.16293086724734
6.835945472,0.9996559055882444,-66.5051511712772
6.844304896,0.9996089822554993,-66.84675054364357
6.852664832,0.9995830454768895,-67.18805246834222
6.861024256,0.9995793680491014,-67.52922425311826
6.86938368,0.999598175746895,-67.87067086434658
6.877743104,0.9996386149361038,-68.21265413049929
6.886102528,0.9996988699720947,-68.5554256335971
6.894461952,0.9997752627162031,-68.89928549989449
6.902821376,0.9998641729130411,-69.24434736990904
6.9111808,0.9999607834717308,-69.5908144998101
6.919540224,1.000059851506104,-69.93871890934192
6.927899648,1.0001564076874487,-70.28806918231547
6.936259072,1.0002448755613187,-70.63884713020798
6.944618496,1.000320777843796,-70.99080642670451
6.95297792,1.0003799895905738,-71.34388577646648
6.961337344,1.0004193628157747,-71.69773634794848
6.969696768,1.0004364323723927,-72.05213200430259
6.978056192,1.0004304357406193,-72.40676142890396
6.986416128,1.0004017453745726,-72.76129793622346
6.994775552,1.0003513700467725,-73.115477942166
7.003134976,1.0002822827926885,-73.46905398208324
7.0114944,1.00019805244665,-73.821707762141
7.019853824,1.0001029830001593,-74.17337657829371
7.028213248,1.0000021876125835,-74.52385587196409
7.036572672,0.9999010947742523,-74.87314860223992
7.044932096,0.9998049640613784,-75.22125967448602
7.05329152,0.9997189637472513,-75.56835789362242
7.061650944,0.9996477863469453,-75.9144911769885
7.070010368,0.9995952946368003,-76.25995792941315
7.078369792,0.9995643416408118,-76.60500046993282
7.086729216,0.999556619508733,-76.94992796812751
7.09508864,0.9995726448920351,-77.2950381464737
7.103448064,0.9996117058444355,-77.640631869519
7.111807488,0.9996716197271208,-77.98706471830528
7.120167424,0.9997494918120985,-78.33454717203571
7.128526848,0.9998411357454237,-78.68327261768142
7.136886272,0.9999416172645205,-79.03345367243257
7.145245696,1.0000458887601058,-79.38511402591327
7.15360512,1.000147919399564,-79.73831257342934
7.161964544,1.0002428109999468,-80.09295306746886
7.170323968,1.0003250811771556,-80.44892584123927
7.178683392,1.000390435201695,-80.80605536928104
7.187042816,1.0004352092491489,-81.16406679041684
7.19540224,1.0004574195135036,-81.52266924551542
7.203761664,1.0004551621868685,-81.88156215499987
7.212121088,1.0004287355653105,-82.24039983393598
7.220480512,1.0003795306540875,-82.59894710337424
7.228839936,1.000310042769655,-82.95682137686617
7.23719936,1.0002240373041476,-83.31381056111695
7.245558784,1.0001256185160585,-83.66974991029853
7.25391872,1.000020352372657,-84.02444681370815
7.262278144,0.9999138262984275,-84.37791635216566
7.270637568,0.9998115315210051,-84.73011641307554
7.278996992,0.9997190260451969,-85.08117900661424
7.287356416,0.9996412249117994,-85.43121550617475
7.29571584,0.9995825439069141,-85.78052405678143
7.304075264,0.9995458877185143,-86.12926774418477
7.312434688,0.9995335017572992,-86.47789754670784
7.320794112,0.9995461991138246,-86.8265685953567
7.329153536,0.9995830775892831,-87.17577549404244
7.33751296,0.9996425259750129,-87.52573575199891
7.345872384,0.999721370962337,-87.87674482950219
7.354231808,0.9998154085836245,-88.22904541838878
7.362591232,0.999919808621287,-88.58279371360253
7.370950656,1.0000290480166214,-88.93812056557147
7.379310592,1.0001372117847769,-89.29505064462928
7.387670016,1.0002384705845908,-89.65349814980809
7.39602944,1.0003274951901149,-90.01337897321073
7.404388864,1.00039961554596,-90.37445334026029
7.412748288,1.0004507793326047,-90.73653469028895
7.421107712,1.0004783384917482,-91.09926571148645
7.429467136,1.0004804553421696,-91.46233847747787
7.43782656,1.0004570550998415,-91.82544394531895
7.446185984,1.0004095589422926,-92.18822875366654
7.454545408,1.0003400405001763,-92.5503900168311
7.462904832,1.0002523603791662,-92.91164209040797
7.471264256,1.0001510398593652,-93.2717701399437
7.47962368,1.000041301821479,-93.63068254671359
7.487983104,0.999929044353311,-93.98823243938104
7.496342528,0.9998204138237031,-94.34445630492245
7.504701952,0.9997209387491257,-94.69944068026277
7.513061888,0.9996361964404801,-95.05330983597916
7.521421312,0.9995705864329233,-95.40633980794225
7.529780736,0.9995276875260504,-95.75877570152178
7.53814016,0.9995100509119911,-96.11092330576112
7.546499584,0.9995185445544843,-96.46313607976947
7.554859008,0.9995527294456896,-96.81575553613328
7.563218432,0.999611118740135,-97.16915214621008
7.571577856,0.9996904593857134,-97.5235910828076
7.57993728,0.9997868266485181,-97.87928844163521
7.588296704,0.9998949635459976,-98.23649547119682
7.596656128,1.0000091208385666,-98.59533246991808
7.605015552,1.000123389883346,-98.95580571266542
7.613374976,1.0002316311294692,-99.31791095884707
7.6217344,1.0003279841906623,-99.68154406874213
7.630093824,1.00040745047656,-100.04645340861691
7.638453248,1.000465372051899,-100.412442512757
7.646813184,1.0004990878923337,-100.77920218487282
7.655172608,1.0005063992842564,-101.14633899190287
7.663532032,1.0004868238220406,-101.51360374197695
7.671891456,1.0004413531996723,-101.88053528089786
7.68025088,1.0003724988959106,-102.24683891208187
7.688610304,1.0002835077266778,-102.61229929515392
7.696969728,1.0001792552393813,-102.97659433465869
7.705329152,1.000065135999827,-103.3395853824248
7.713688576,0.9999473200874939,-103.70113575433896
7.722048,0.9998319668943484,-104.06129410047386
7.730407424,0.9997251646366647,-104.42012061566976
7.738766848,0.9996327217385419,-104.7777338390968
7.747126272,0.9995597381423235,-105.13434409787821
7.755485696,0.999509938596904,-105.49029819810549
7.76384512,0.999486188347804,-105.84587056136132
7.772205056,0.9994898711846901,-106.2014435648363
7.78056448,0.9995207597752872,-106.55732983997814
7.788923904,0.9995775579887968,-106.91399009074608
7.797283328,0.9996571105986168,-107.2716211902943
7.805642752,0.999755174227586,-107.6305839784226
7.814002176,0.9998668433990014,-107.99107751917448
7.8223616,0.9999862614290921,-108.35322532774708
7.830721024,1.0001067088637685,-108.7170675427265
7.839080448,1.0002222124413485,-109.08264909946956
7.847439872,1.0003263146253514,-109.44981890831562
7.855799296,1.000413606674125,-109.81842199667415
7.86415872,1.0004792800946756,-110.18813961547299
7.872518144,1.0005197811375006,-110.55872905343651
7.880877568,1.0005329091136443,-110.92980058780076
7.889236992,1.00051783554202,-111.30099934050541
7.897596416,1.000475266110441,-111.67200470431969
7.905956352,1.0004074256688524,-112.0423678340291
7.914315776,1.000317685095161,-112.4118517502612
7.9226752,1.0002108197945845,-112.78014799030514
7.931034624,1.0000924874489727,-113.14706957333689
7.939394048,0.9999688829587725,-113.51253736382976
7.947753472,0.999846688400145,-113.8765054333087
7.956112896,0.9997321188313294,-114.23901913895122
7.96447232,0.9996315422667198,-114.60020497502958
7.972831744,0.9995503716116879,-114.96031442926476
7.981191168,0.9994930198449973,-115.31960800177544
7.989550592,0.9994624131717734,-115.67845599882982
7.997910016,0.9994605314338142,-116.03717952476468
8.00626944,0.9994873497680892,-116.39617125960294
8.014628864,0.9995417679610963,-116.75583319691916
8.022988288,0.9996208963251942,-117.11649804158867
8.031347712,0.9997205895961636,-117.4784732874729
8.039707648,0.9998355735529476,-117.84199301105082
8.048067072,0.9999598140680925,-118.20721333506451
8.056426496,1.0000868436022772,-118.57423163218404
8.06478592,1.0002097889160089,-118.94304459547696
8.073145344,1.0003221600944183,-119.31351020759274
8.081504768,1.0004179135078988,-119.68552719587666
8.089864192,1.0004918033031678,-120.05879446691289
8.098223616,1.0005399844883505,-120.43300122544272
8.10658304,1.0005597846809078,-120.8078098339518
8.114942464,1.0005499477666422,-121.18279249077698
8.123301888,1.0005110032539735,-121.55761775536124
8.131661312,1.0004448255437695,-121.93185944497155
8.140020736,1.000354789228067,-122.30520439926566
8.14838016,1.000245732784021,-122.67735180370713
8.156739584,1.0001232763373307,-123.04808090208898
8.16509952,0.9999939346659978,-123.41726749806236
8.173458944,0.9998645128731223,-123.78486250256547
8.181818368,0.9997419208930888,-124.15089633346113
8.190177792,0.99963268964602,-124.5154707627761
8.198537216,0.9995427896143163,-124.87887280448138
8.20689664,0.9994769056444233,-125.2413250056487
8.215256064,0.999438788233482,-125.60319481083161
8.223615488,0.9994303685962196,-125.96486762664986
8.231974912,0.9994524900664598,-126.32671980424286
8.240334336,0.9995038890139792,-126.6891512214291
8.24869376,0.9995818758013155,-127.05257739645235
8.257053184,0.999682688973059,-127.4172836821638
8.265412608,0.9998006933710593,-127.78354628982457
8.273772032,0.9999299184293827,-128.15158810491909
8.282131456,1.0000634647364701,-128.52145678488517
8.29049088,1.000194234864381,-128.89319459412766
8.298850816,1.000315255426126,-129.26674862142596
8.30721024,1.0004199961961922,-129.64192187788925
8.315569664,1.0005030065892764,-130.01845377419812
8.323929088,1.0005596798922873,-130.39603655829478
8.332288512,1.0005869603548503,-130.77433126520557
8.340647936,1.0005832219669384,-131.15286988177198
8.34900736,1.0005486252145523,-131.5312811843732
8.357366784,1.0004848020205657,-131.90918678185872
8.365726208,1.0003951244422136,-132.28617463275737
8.374085632,1.0002842295580963,-132.6619635572382
8.382445056,1.000157869985561,-133.03628670409836
8.39080448,1.0000227414919483,-133.40900744304778
8.399163904,0.999886051208502,-133.78001314011672
8.407523328,0.9997550280184994,-134.1493805252852
8.415882752,0.9996366010272776,-134.51715578340864
8.424242176,0.9995371242957001,-134.88358230468268
8.432602112,0.9994620567059217,-135.24895704992966
8.440961536,0.9994153544860059,-135.61359646391858
8.44932096,0.9993997265795189,-135.97794781679414
8.457680384,0.9994161118673859,-136.3423699561687
8.466039808,0.9994637216380493,-136.70731049563489
8.474399232,0.9995400105992769,-137.07318341466546
8.482758656,0.9996412494033237,-137.44031530649076
8.49111808,0.9997620054153308,-137.8090385165793
8.499477504,0.999895962102399,-138.17953459314558
8.507836928,1.0000361216163818,-138.55194650838212
8.516196352,1.0001748468690315,-138.92632906941333
8.524555776,1.0003050517601764,-139.30259903927845
8.5329152,1.0004195042139516,-139.68060749229934
8.541274624,1.0005122597964737,-140.0600818553972
8.549634048,1.0005782660400415,-140.44073680676522
8.557993984,1.0006138935601934,-140.82219652902634
8.566353408,1.0006171576614085,-141.20402652992576
8.574712832,1.0005877040967666,-141.58578353162363
8.583072256,1.0005271600100072,-141.9670800354891
8.59143168,1.000438322337022,-142.34746963678433
8.599790592,1.0003260868393073,-142.72667089511864
8.608150528,1.0001961526629624,-143.10434529809194
8.61650944,1.0000554354115634,-143.48033107368312
8.624869376,0.9999113350632982,-143.85452129785185
8.633229312,0.999771404889961,-144.22694478099964
8.641588224,0.99964325443822,-144.59766232095095
8.64994816,0.9995336366939968,-144.9668669265714
8.658307072,0.9994485741054278,-145.33488752639627
8.666667008,0.9993924699528174,-145.70205339895233
8.67502592,0.9993686513854033,-146.06875519909062
8.683385856,0.9993783465414294,-146.43543953920525
8.691744768,0.9994213026307283,-146.80254907653153
8.700104704,0.9994952870665993,-147.17051906742023
8.708463616,0.9995964316589876,-147.53973704498753
8.716823552,0.9997194658139853,-147.91053512604023
8.725182464,0.9998580541232519,-148.28314562244555
8.7335424,1.0000046925509236,-148.65775364863765
8.741901312,1.0001518456529166,-149.03438830306308
8.750261248,1.0002915394332499,-149.4130274339903
8.758621184,1.0004163696504353,-149.79350305023
8.766980096,1.0005197061491187,-150.17560846090151
8.775340032,1.000595859047941,-150.5590286238271
8.783698944,1.0006408214723699,-150.94332507737988
8.79205888,1.0006520472357103,-151.3280971963557
8.800417792,1.0006287561930063,-151.71289099144744
8.808777728,1.000572175245875,-152.097275149041
8.81713664,1.0004850066595818,-152.480830194605
8.825496576,1.0003718944168771,-152.86311659803187
8.833855488,1.0002387635020038,-153.2438737351914
8.842215424,1.0000924119199126,-153.62286166858897
8.850574336,0.9999408155436287,-153.9999891211314
8.858934272,0.9997917681638867,-154.37518439046565
8.867293184,0.9996532625162988,-154.7485435690877
8.87565312,0.9995328500358149,-155.12026743200877
8.884012032,0.9994369044434066,-155.49062282356687
8.892371968,0.9993704736404684,-155.85994393441615
8.900731904,0.9993373831922477,-156.22869436629824
8.909090816,0.9993394801703829,-156.5972868738692
8.917450752,0.9993768620354397,-156.96620100673303
8.925809664,0.9994475012070821,-157.3359190316458
8.9341696,0.9995479884162425,-157.70686238333178
8.942528512,0.9996727601015494,-158.0793257567299
8.950888448,0.9998155571796098,-158.45365920599068
8.95924736,0.9999688884124959,-158.8300225780262
8.967607296,1.000124431976051,-159.20850347371257
8.975966208,1.0002741321475357,-159.5891197512601
8.984326144,1.0004098870981573,-159.97171196225534
8.992685056,1.0005245563487342,-160.35603902734405
9.001044992,1.000611885509265,-160.7417905015336
9.009403904,1.0006671402566332,-161.12857650139702
9.01776384,1.0006873369038984,-161.51597320114536
9.026123776,1.0006712142654302,-161.9034760002654
9.034482688,1.0006195597242395,-162.2906191511671
9.042842624,1.0005347939819451,-162.67696000286247
9.051201536,1.000421567143663,-163.06204816275027
9.059561472,1.0002855430394184,-163.44560681496202
9.067920384,1.0001338467581347,-163.8273159006868
9.07628032,0.9999745784359735,-164.20701641089468
9.084639232,0.999816140368252,-164.58470175533665
9.092999168,0.9996668830669043,-164.96041501277804
9.10135808,0.9995349007320746,-165.334314546026
9.109718016,0.999427124310849,-165.70667280073005
9.118076928,0.9993494956860771,-166.07783970862278
9.126436864,0.9993060880790195,-166.4482459476919
9.134795776,0.99929954201503,-166.81840118468992
9.143155712,0.9993303543190505,-167.18874846176638
9.151515648,0.9993968713266708,-167.5598033258165
9.15987456,0.9994958001458765,-167.9319993388433
9.168234496,0.9996219949976082,-168.30575468343096
9.176593408,0.9997687738908777,-168.68136539437296
9.184953344,0.9999285342943012,-169.05907527703553
9.193312256,1.0000928179508393,-169.43901121420944
9.201672192,1.0002528528665617,-169.8211446330043
9.210031104,1.0004001512487888,-170.2054041328415
9.21839104,1.0005268843964157,-170.59153540902025
9.226749952,1.0006263053560616,-170.97925541655036
9.235109888,1.000692987404987,-171.36812910904422
9.2434688,1.0007231843887125,-171.75774384123963
9.251828736,1.0007152958132848,-172.14756642389284
9.260187648,1.0006693947181875,-172.5371386906254
9.268547584,1.000588072379415,-172.92595353844558
9.276906496,1.0004751766176871,-173.31349505485522
9.285266432,1.0003367570148476,-173.6994907100214
9.293626368,1.000180020510326,-174.08360467513384
9.30198528,1.0000130599861419,-174.4656121380271
9.310345216,0.999844960391734,-174.84545056689416
9.318704128,0.9996844373346142,-175.2231527489451
9.327064064,0.999540133298976,-175.59889374400709
9.335422976,0.9994196146161436,-175.97290383334567
