freq,mag,phase
6.0,0.9999976173589759,-43.94034754082254
6.008,0.9999973208100681,-44.28739236774828
6.016,0.9999970271524964,-44.6342193420326
6.024,0.9999967366062683,-44.980826939860684
6.032,0.9999964493832679,-45.32721365028072
6.04,0.9999961656873664,-45.673377975245224
6.048,0.9999958857145337,-46.01931842965109
6.056,0.9999956096529484,-46.36503354137823
6.064,0.9999953376831107,-46.710521851326895
6.072,0.9999950699779508,-47.05578191345361
6.08,0.9999948067029423,-47.400812294805796
6.088,0.9999945480162103,-47.74561157555507
6.096,0.9999942940686435,-48.090178349029095
6.104,0.9999940450040045,-48.43451122174227
6.112,0.9999938009590382,-48.77860881342499
6.12,0.999993562063583,-49.122469757051526
6.128,0.9999933284406805,-49.46609269886674
6.136,0.9999931002066841,-49.809476298411404
6.144,0.9999928774713673,-50.15261922854619
6.152,0.9999926603380346,-50.49552017547438
6.16,0.999992448903628,-50.83817783876333
6.168,0.9999922432588356,-51.18059093136456
6.176,0.9999920434881993,-51.5227581796327
6.184,0.9999918496702221,-51.86467832334299
6.192,0.9999916618774752,-52.2063501157076
6.2,0.999991480176704,-52.54777232339077
6.208,0.9999913046289346,-52.88894372652252
6.216,0.9999911352895794,-53.22986311871122
6.224,0.9999909722085422,-53.57052930705503
6.232,0.9999908154303216,-53.91094111215184
6.24,0.9999906649941193,-54.25109736810819
6.248,0.9999905209339379,-54.59099692254699
6.256,0.999990383278689,-54.93063863661385
6.264,0.9999902520522931,-55.270021384982456
6.272,0.9999901272737826,-55.60914405585858
6.28,0.9999900089574039,-55.948005550982934
6.288,0.9999898971127168,-56.28660478563288
6.296,0.999989791744696,-56.624940688623106
6.304,0.9999896928538309,-56.963012202304796
6.312,0.9999896004362238,-57.300818282564194
6.32,0.9999895144836894,-57.63835789881934
6.328,0.9999894349838522,-57.97563003401643
6.336,0.9999893619202431,-58.31263368462445
6.344,0.9999892952723975,-58.649367860629035
6.352,0.9999892350159492,-58.985831585525176
6.36,0.9999891811227265,-59.32202389630879
6.368,0.9999891335608478,-59.657943843467145
6.376,0.9999890922948126,-59.99359049096851
6.384,0.9999890572855973,-60.32896291625029
6.392,0.9999890284907451,-60.66406021020664
6.4,0.9999890058644602,-60.9988814771746
6.408,0.9999889893576952,-61.33342583491944
6.416,0.9999889789182445,-61.667692414618955
6.424,0.9999889744908315,-62.001680360846755
6.432,0.9999889760171972,-62.3353888315545
6.44,0.9999889834361889,-62.668816998053245
6.448,0.9999889966838462,-63.00196404499376
6.456,0.9999890156934876,-63.334829170345905
6.464,0.9999890403957953,-63.66741158537707
6.472,0.9999890707189003,-63.99971051462965
6.48,0.9999891065884646,-64.33172519589765
6.4879999999999995,0.9999891479277666,-64.66345488020221
6.496,0.9999891946577808,-64.9948988317667
6.504,0.9999892466972594,-65.32605632799002
6.5120000000000005,0.9999893039628135,-65.65692665942018
6.52,0.9999893663689914,-65.98750912972586
6.5280000000000005,0.999989433828358,-66.31780305566824
6.536,0.9999895062515718,-66.64780776707073
6.5440000000000005,0.999989583547463,-66.97752260678931
6.552,0.9999896656231079,-67.30694693068051
6.5600000000000005,0.9999897523839049,-67.63608010757011
6.568,0.9999898437336481,-67.96492151921953
6.5760000000000005,0.9999899395746024,-68.29347056029287
6.584,0.9999900398075731,-68.62172663832195
6.592,0.9999901443319797,-68.9496891736715
6.6,0.9999902530459264,-69.27735759950305
6.608,0.9999903658462703,-69.60473136173822
6.616,0.9999904826286917,-69.93180991902142
6.624,0.9999906032877623,-70.25859274268169
6.632,0.9999907277170107,-70.58507931669382
6.64,0.99999085580899,-70.91126913763894
6.648,0.9999909874553432,-71.2371617146642
6.656,0.9999911225468661,-71.5627565694419
6.664,0.9999912609735719,-71.88805323612807
6.672,0.9999914026247539,-72.2130512613202
6.68,0.9999915473890464,-72.53775020401437
6.688,0.9999916951544863,-72.86214963556199
6.696,0.9999918458085718,-73.18624913962553
6.704,0.9999919992383225,-73.510048312134
6.712,0.999992155330337,-73.83354676123771
6.72,0.9999923139708495,-74.1567441072624
6.728,0.999992475045787,-74.4796399826628
6.736,0.9999926384408238,-74.80223403197589
6.744,0.9999928040414363,-75.12452591177316
6.752,0.9999929717329568,-75.44651529061278
6.76,0.999993141400625,-75.76820184899097
6.768,0.9999933129296412,-76.08958527929303
6.776,0.9999934862052163,-76.41066528574366
6.784,0.9999936611126217,-76.7314415843571
6.792,0.9999938375372387,-77.05191390288648
6.8,0.9999940153646061,-77.37208198077295
6.808,0.9999941944804683,-77.69194556909417
6.816,0.9999943747708215,-78.01150443051253
6.824,0.9999945561219582,-78.33075833922275
6.832,0.999994738420513,-78.64970708089928
6.84,0.9999949215535063,-78.96835045264302
6.848,0.9999951054083867,-79.28668826292797
6.856,0.9999952898730728,-79.60472033154716
6.864,0.9999954748359962,-79.92244648955844
6.872,0.9999956601861384,-80.23986657922978
6.88,0.9999958458130743,-80.55698045398428
6.888,0.9999960316070077,-80.87378797834478
6.896,0.9999962174588105,-81.1902890278782
6.904,0.9999964032600601,-81.50648348913946
6.912,0.9999965889030737,-81.82237125961517
6.92,0.999996774280945,-82.13795224766699
6.928,0.999996959287579,-82.45322637247472
6.936,0.9999971438177245,-82.76819356397897
6.944,0.9999973277670073,-83.08285376282377
6.952,0.9999975110319623,-83.39720692029877
6.96,0.9999976935100651,-83.71125299828121
6.968,0.9999978750997617,-84.02499196917765
6.976,0.9999980557004992,-84.33842381586547
6.984,0.9999982352127524,-84.65154853163419
6.992,0.9999984135380544,-84.96436612012647
7.0,0.9999985905790231,-85.27687659527898
7.008,0.999998766239387,-85.589079981263
7.016,0.999998940424011,-85.900976312425
7.024,0.9999991130389223,-86.21256563322682
7.032,0.9999992839913342,-86.5238479981858
7.04,0.9999994531896695,-86.83482347181474
7.048,0.9999996205435822,-87.14549212856173
7.056,0.999999785963982,-87.45585405274973
7.064,0.9999999493630533,-87.7659093385161
7.072,1.0,-88.07565808975208
7.08,1.0,-88.38510042004195
7.088,1.0,-88.69423645260225
7.096,1.0,-89.00306632022081
7.104,1.0,-89.31159016519572
7.112,1.0,-89.61980813927428
7.12,0.9999999999999999,-89.92772040359165
7.128,0.9999999999999999,-90.23532712860977
7.136,1.0,-90.54262849405589
7.144,1.0,-90.84962468886124
7.152,0.9999999999999999,-91.15631591109963
7.16,1.0,-91.46270236792596
7.168,0.9999999999999999,-91.76878427551465
7.176,1.0,-92.07456185899834
7.184,1.0,-92.38003535240605
7.192,1.0,-92.68520499860195
7.2,1.0,-92.99007104922352
7.208,0.9999999999999999,-93.29463376462024
7.216,1.0,-93.59889341379193
7.224,1.0,-93.90285027432728
7.232,1.0,-94.20650463234242
7.24,0.9999999999999999,-94.50985678241935
7.248,0.9999999999999999,-94.81290702754464
7.256,1.0,-95.11565567904802
7.264,1.0,-95.418103056541
7.272,1.0,-95.72024948785578
7.28,1.0,-96.02209530898385
7.288,1.0,-96.32364086401505
7.296,0.9999999999999999,-96.62488650507642
7.304,1.0,-96.92583259227126
7.312,1.0000000000000002,-97.22647949361824
7.32,0.9999999999999999,-97.52682758499068
7.328,1.0,-97.82687725005577
7.336,0.9999999999999999,-98.1266288802141
7.344,0.9999999999999999,-98.42608287453909
7.352,0.9999999999999999,-98.72523963971672
7.36,0.9999999999999999,-99.02409958998527
7.368,1.0,-99.32266314707518
7.376,0.9999999999999999,-99.62093074014916
7.384,1.0,-99.91890280574225
7.392,0.9999999999999999,-100.21657978770223
7.4,0.9999999999999999,-100.51396213713
7.4079999999999995,1.0,-100.81105031232015
7.416,1.0,-101.10784477870192
7.4239999999999995,1.0,-101.40434600877974
7.432,0.9999999999999999,-101.70055448207478
7.4399999999999995,1.0,-101.99647068506572
7.448,1.0,-102.29209511113064
7.4559999999999995,1.0,-102.58742826048814
7.464,1.0,-102.88247064013964
7.4719999999999995,1.0,-103.17722276381079
7.48,1.0,-103.47168515189422
7.4879999999999995,1.0,-103.76585833139126
7.496,0.9999999999999999,-104.05974283585513
7.504,1.0,-104.35333920533304
7.5120000000000005,1.0,-104.64664798630982
7.52,1.0,-104.93966973165035
7.5280000000000005,1.0,-105.2324050005437
7.536,1.0,-105.52485435844594
7.5440000000000005,1.0,-105.81701837702467
7.552,0.9999999999999999,-106.10889763410238
7.5600000000000005,1.0,-106.40049271360138
7.568,1.0,-106.69180420548754
7.5760000000000005,1.0,-106.98283270571575
7.584,1.0,-107.27357881617415
7.5920000000000005,1.0,-107.56404314462993
7.6,0.9999999999999998,-107.85422630467423
7.6080000000000005,1.0,-108.14412891566825
7.616,0.9999999999999999,-108.43375160268872
7.6240000000000006,1.0,-108.72309499647449
7.632,1.0,-109.01215973337247
7.640000000000001,1.0,-109.3009464552848
7.648,1.0,-109.58945580961515
7.656000000000001,1.0,-109.8776884492165
7.664,1.0,-110.16564503233808
7.672,1.0,-110.45332622257332
7.68,0.9999999999999999,-110.74073268880773
7.688,1.0,-111.02786510516705
7.696,1.0,-111.3147241509658
7.704,1.0000000000000002,-111.60131051065603
7.712,0.9999999999999999,-111.88762487377626
7.72,0.9999999999999999,-112.17366793490088
7.728,1.0,-112.45944039358957
7.736,1.0,-112.74494295433732
7.744,1.0,-113.03017632652437
7.752,1.0,-113.31514122436676
7.76,0.9999999999999999,-113.59983836686689
7.768,0.9999999999999999,-113.88426847776451
7.776,0.9999998850501973,-114.16843228548804
7.784,0.9999996955179838,-114.45233052310596
7.792,0.999999502268655,-114.73596392827871
7.8,0.9999993053478885,-115.01933324321078
7.808,0.9999991048024146,-115.30243921460313
7.816,0.9999989006799989,-115.58528259360571
7.824,0.9999986930294267,-115.86786413577062
7.832,0.9999984819004856,-116.1501846010053
7.84,0.9999982673439503,-116.43224475352595
7.848,0.9999980494115656,-116.71404536181154
7.856,0.9999978281560292,-116.99558719855794
7.864,0.9999976036309751,-117.27687104063217
7.872,0.9999973758909585,-117.55789766902733
7.88,0.9999971449914358,-117.83866786881751
7.888,0.9999969109887502,-118.11918242911307
7.896,0.9999966739401137,-118.39944214301633
7.904,0.99999643390359,-118.67944780757752
7.912,0.9999961909380773,-118.95920022375077
7.92,0.9999959451032916,-119.23870019635086
7.928,0.9999956964597487,-119.51794853400993
7.936,0.9999954450687472,-119.79694604913449
7.944,0.9999951909923512,-120.07569355786293
7.952,0.9999949342933736,-120.35419188002325
7.96,0.9999946750353567,-120.63244183909087
7.968,0.9999944132825567,-120.91044426214712
7.976,0.9999941490999256,-121.18819997983778
7.984,0.9999938825530931,-121.46570982633193
7.992,0.99999361370835,-121.74297463928117
8.0,0.9999933426326301,-122.01999525977918
8.008,0.999993069393492,-122.29677253232133
8.016,0.999992794059103,-122.57330730476514
8.024000000000001,0.9999925166982203,-122.84960042829017
8.032,0.9999922373801738,-123.1256527573591
8.04,0.9999919561748489,-123.40146514967863
8.048,0.9999916731526678,-123.67703846616081
8.056000000000001,0.999991388384573,-123.95237357088439
8.064,0.9999911019420096,-124.22747133105698
8.072,0.9999908138969068,-124.50233261697713
8.08,0.999990524321661,-124.77695830199698
8.088000000000001,0.9999902332891193,-125.0513492624846
8.096,0.9999899408725593,-125.32550637778756
8.104,0.9999896471456742,-125.59943053019606
8.112,0.9999893521825541,-125.87312260490673
8.120000000000001,0.999989056057669,-126.14658348998633
8.128,0.9999887588458506,-126.41981407633627
8.136,0.999988460622276,-126.69281525765716
8.144,0.9999881614624493,-126.9655879304136
8.152000000000001,0.9999878614421853,-127.23813299379924
8.16,0.9999875606375915,-127.5104513497022
8.168,0.9999872591250515,-127.78254390267105
8.176,0.9999869569812067,-128.05441155988072
8.184000000000001,0.9999866542829403,-128.32605523109854
8.192,0.9999863511073601,-128.59747582865108
8.2,0.999986047531781,-128.86867426739116
8.208,0.9999857436337084,-129.13965146466484
8.216000000000001,0.9999854394908206,-129.41040834027882
8.224,0.9999851351809533,-129.6809458164682
8.232,0.9999848307820819,-129.95126481786488
8.24,0.9999845263723037,-130.2213662714654
8.248000000000001,0.9999842220298245,-130.49125110659978
8.256,0.9999839178329386,-130.76092025490027
8.264,0.9999836138600138,-131.03037465027077
8.272,0.9999833101894748,-131.29961522885606
8.280000000000001,0.9999830068997875,-131.56864292901153
8.288,0.9999827040694412,-131.8374586912732
8.296,0.9999824017769341,-132.10606345832826
8.304,0.9999821001007554,-132.37445817498525
8.312,0.9999817991193711,-132.64264378814497
8.32,0.9999814989112068,-132.91062124677194
8.328,0.9999811995546318,-133.1783915018653
8.336,0.9999809011279444,-133.44595550643083
8.344,0.9999806037093546,-133.71331421545264
8.352,0.9999803073769703,-133.98046858586562
8.36,0.9999800122087799,-134.24741957652753
8.368,0.9999797182826383,-134.51416814819228
8.376,0.9999794256762516,-134.7807152634823
8.384,0.9999791344671602,-135.04706188686237
8.392,0.999978844732726,-135.3132089846127
8.4,0.9999785565501157,-135.57915752480312
8.408,0.9999782699962858,-135.8449084772668
8.416,0.9999779851479697,-136.11046281357488
8.424,0.9999777020816601,-136.37582150701064
8.432,0.9999774208735974,-136.64098553254487
8.44,0.9999771415997518,-136.9059558668104
8.448,0.9999768643358132,-137.17073348807787
8.456,0.9999765891571727,-137.43531937623112
8.464,0.9999763161389102,-137.69971451274318
8.472,0.9999760453557814,-137.9639198806521
8.48,0.9999757768822022,-138.22793646453775
8.488,0.9999755107922349,-138.49176525049793
8.496,0.9999752471595755,-138.7554072261257
8.504,0.9999749860575398,-139.01886338048598
8.512,0.999974727559049,-139.2821347040934
8.52,0.9999744717366171,-139.54522218888945
8.528,0.999974218662338,-139.80812682822065
8.536,0.9999739684078711,-140.0708496168163
8.544,0.9999737210444295,-140.33339155076712
8.552,0.999973476642766,-140.5957536275034
8.56,0.9999732352731618,-140.8579368457743
8.568,0.9999729970054118,-141.11994220562627
8.576,0.999972761908814,-141.3817707083829
8.584,0.9999725300521562,-141.6434233566238
8.592,0.9999723015037032,-141.90490115416486
8.6,0.9999720763311859,-142.16620510603778
8.608,0.9999718546017876,-142.42733621847057
8.616,0.9999716363821342,-142.68829549886757
8.624,0.9999714217382798,-142.94908395579048
8.632,0.9999712107356983,-143.2097025989389
8.64,0.9999710034392684,-143.47015243913154
8.648,0.9999707999132644,-143.7304344882874
8.656,0.9999706002213448,-143.9905497594075
8.664,0.99997040442654,-144.2504992665562
8.672,0.9999702125912425,-144.51028402484366
8.68,0.9999700247771955,-144.7699050504075
8.688,0.9999698410454818,-145.0293633603956
8.696,0.9999696614565139,-145.28865997294812
8.704,0.9999694860700233,-145.54779590718107
8.712,0.9999693149450494,-145.8067721831685
8.72,0.9999691481399308,-146.0655898219263
8.728,0.9999689857122938,-146.32424984539523
8.736,0.9999688277190429,-146.58275327642485
8.744,0.9999686742163515,-146.84110113875698
8.752,0.9999685252596513,-147.09929445701016
8.76,0.9999683809036242,-147.3573342566633
8.768,0.9999682412021905,-147.6152215640408
8.776,0.9999681062085028,-147.87295740629636
8.784,0.9999679759749336,-148.1305428113986
8.792,0.9999678505530691,-148.3879788081154
8.8,0.9999677299936983,-148.6452664259995
8.808,0.999967614346806,-148.90240669537363
8.815999999999999,0.9999675036615627,-149.15940064731626
8.824,0.9999673979863166,-149.41624931364748
8.832,0.999967297368586,-149.67295372691447
8.84,0.9999672018550507,-149.92951492037807
8.847999999999999,0.9999671114915434,-150.18593392799897
8.856,0.9999670263230428,-150.44221178442433
8.864,0.9999669463936652,-150.69834952497405
8.872,0.9999668717466574,-150.95434818562796
8.879999999999999,0.9999668024243884,-151.21020880301305
8.888,0.9999667384683426,-151.4659324143902
8.896,0.9999666799191133,-151.7215200576419
8.904,0.9999666268163946,-151.97697277125948
8.911999999999999,0.9999665791989745,-152.23229159433137
8.92,0.9999665371047287,-152.48747756653057
8.928,0.9999665005706141,-152.74253172810276
8.936,0.9999664696326619,-152.99745511985455
8.943999999999999,0.9999664443259711,-153.25224878314216
8.952,0.9999664246847025,-153.50691375985969
8.96,0.999966410742073,-153.76145109242776
8.968,0.999966402530349,-154.01586182378261
8.975999999999999,0.9999664000808415,-154.27014699736526
8.984,0.9999664034238994,-154.52430765711046
8.992,0.9999664125889047,-154.77834484743596
9.0,0.9999664276042671,-155.03225961323236
9.008,0.9999664484974188,-155.2860529998526
9.016,0.999966475294809,-155.53972605310184
9.024000000000001,0.9999665080218991,-155.7932798192274
9.032,0.9999665467031588,-156.04671534490868
9.04,0.9999665913620595,-156.30003367724785
9.048,0.9999666420210722,-156.55323586376002
9.056000000000001,0.9999666987016614,-156.8063229523638
9.064,0.999966761424281,-157.05929599137184
9.072,0.9999668302083717,-157.31215602948217
9.08,0.9999669050723541,-157.56490411576877
9.088000000000001,0.9999669860336289,-157.8175412996728
9.096,0.9999670731085695,-158.07006863099377
9.104,0.9999671663125203,-158.32248715988126
9.112,0.9999672656597937,-158.5747979368262
9.120000000000001,0.9999673711636653,-158.82700201265246
9.128,0.9999674828363723,-159.0791004385088
9.136,0.9999676006891097,-159.3310942658609
9.144,0.9999677247320277,-159.58298454648335
9.152000000000001,0.9999678549742286,-159.83477233245165
9.16,0.9999679914237652,-160.0864586761346
9.168,0.9999681340876376,-160.33804463018706
9.176,0.999968282971791,-160.5895312475422
9.184000000000001,0.9999684380811137,-160.84091958140417
9.192,0.9999685994194354,-161.09221068524099
9.2,0.9999687669895246,-161.3434056127776
9.208,0.999968940793088,-161.5945054179888
9.216000000000001,0.9999691208307673,-161.84551115509234
9.224,0.9999693071021397,-162.09642387854223
9.232,0.9999694996057151,-162.3472446430223
9.24,0.9999696983389355,-162.5979745034396
9.248000000000001,0.9999699032981737,-162.8486145149178
9.256,0.999970114478733,-163.09916573279133
9.264,0.999970331874846,-163.3496292125989
9.272,0.999970555479674,-163.60000601007766
9.280000000000001,0.9999707852853066,-163.85029718115703
9.288,0.9999710212827614,-164.10050378195294
9.296,0.9999712634619835,-164.3506268687622
9.304,0.999971511811846,-164.60066749805682
9.312000000000001,0.9999717663201496,-164.85062672647834
9.32,0.9999720269736233,-165.1005056108324
9.328,0.9999722937579235,-165.3503052080837
9.336,0.9999725666576367,-165.60002657535043
9.344,0.9999728456562775,-165.84967076989912
9.352,0.9999731307362916,-166.09923884913985
9.36,0.9999734218790548,-166.3487318706209
9.368,0.9999737190648763,-166.59815089202442
9.376,0.9999740222729971,-166.84749697116104
9.384,0.9999743314815939,-167.0967711659657
9.392,0.9999746466677776,-167.34597453449254
9.4,0.9999749678075989,-167.59510813491102
9.408,0.9999752948760462,-167.84417302550077
9.416,0.9999756278470489,-168.09317026464788
9.424,0.9999759666934798,-168.34210091084012
9.432,0.9999763113871567,-168.5909660226632
9.44,0.9999766618988445,-168.83976665879618
9.448,0.9999770181982577,-169.088503878008
9.456,0.9999773802540635,-169.337178739153
9.464,0.9999777480338828,-169.58579230116746
9.472,0.9999781215042952,-169.83434562306542
9.48,0.9999785006308398,-170.08283976393543
9.488,0.9999788853780196,-170.33127578293636
9.496,0.9999792757093038,-170.5796547392943
9.504,0.9999796715871321,-170.82797769229867
9.512,0.9999800729729166,-171.07624570129906
9.52,0.9999804798270472,-171.32445982570155
9.528,0.9999808921088933,-171.57262112496588
9.536,0.9999813097768092,-171.82073065860152
9.544,0.9999817327881374,-172.06878948616523
9.552,0.9999821610992123,-172.3167986672573
9.56,0.9999825946653654,-172.56475926151901
9.568,0.9999830334409286,-172.81267232862916
9.576,0.9999834773792393,-173.06053892830158
9.584,0.999983926432644,-173.30836012028186
9.592,0.999984380552505,-173.55613696434486
9.6,0.999984839689203,-173.8038705202915
9.608,0.9999853037921436,-174.05156184794666
9.616,0.9999857728097615,-174.2992120071559
9.624,0.9999862466895262,-174.54682205778326
9.632,0.9999867253779475,-174.79439305970845
9.64,0.99998720882058,-175.0419260728246
9.648,0.9999876969620302,-175.28942215703537
9.656,0.9999881897459607,-175.53688237225313
9.664,0.9999886871150977,-175.78430777839586
9.672,0.9999891890112349,-176.03169943538558
