freq,mag,phase
6.0,1.0000554564322588,-95.10202871147374
6.041451008,1.0000593132885978,-97.08120868742427
6.082901504,1.0000617171643036,-99.06096851649072
6.124352512,1.0000637828476404,-101.04124252543048
6.165803008,1.0000648244715888,-103.02201984410635
6.207254016,1.0000652969823252,-105.00327706425978
6.248704512,1.0000650423670805,-106.98497321287572
6.29015552,1.0000640447150884,-108.96707203768624
6.331606016,1.0000622203899256,-110.94948620343152
6.373057024,1.0000598392939133,-112.93233788524662
6.41450752,1.000056665087584,-114.91545177541529
6.455958528,1.0000529070859903,-116.89887060618672
6.497409536,1.0000486228225376,-118.88248273792975
6.538860032,1.000043647445015,-120.86636619066792
6.58031104,1.0000382536512331,-122.85042291590116
6.621761536,1.0000323036225114,-124.83462873273015
6.663212544,1.0000261089573264,-126.81893961120845
6.70466304,1.0000194722386315,-128.80337333549264
6.746114048,1.0000126723782456,-130.78784970287532
6.787564544,1.0000056513434934,-132.7723732425639
6.829015552,0.999998532435153,-134.7568876599472
6.87046656,0.9999913773189352,-136.7414092295821
6.911917056,0.9999842605334717,-138.72586205322625
6.953368064,0.9999773398444018,-140.71022885685676
6.99481856,0.9999705257563177,-142.69447702585023
7.036269568,0.9999640255643444,-144.67859881130562
7.077720064,0.9999579133725348,-146.66257399947153
7.119171072,0.9999521316487618,-148.64637771548772
7.160621568,0.9999468581299102,-150.6299675028549
7.202072576,0.9999421757111417,-152.6133005994591
7.243523072,0.99993804039981,-154.5963590635497
7.28497408,0.9999344960546965,-156.57919764660662
7.326425088,0.999931685737216,-158.5616892194034
7.367875584,0.9999295935357253,-160.54388486050652
7.409326592,0.9999281667428435,-162.52572200300324
7.450777088,0.9999274993006211,-164.50716953160722
7.492228096,0.9999276181805502,-166.48823691334707
7.533678592,0.9999285217490284,-168.46890957122915
7.5751296,0.9999301137069643,-170.4491440112072
7.616580096,0.9999324574966965,-172.42889948070433
7.658031104,0.9999355413936952,-174.40820334412876
7.699482112,0.9999393301047516,-176.38701644866674
7.740932608,0.9999437127117754,-178.36529100747626
7.782383616,0.9999486621704439,179.65695431203315
7.823834112,0.9999542361490072,177.67974818462753
7.86528512,0.9999603096530595,175.70312773112823
7.906735616,0.9999668292571066,173.72708811455536
7.948186624,0.99997360574627,171.7516699607929
7.98963712,0.9999806990368681,169.77689101615124
8.031088128,0.999988106580074,167.80277107374872
8.072538624,0.9999956529062628,165.82930244750125
8.113989632,1.000003181393352,163.85655271358578
8.15544064,1.000010684249439,161.88451685715924
8.196891136,1.0000180624180297,159.91320388721968
8.238342144,1.00002531532384,157.9426605509993
8.27979264,1.0000322230629157,155.972883862612
8.321243648,1.0000389373792524,154.00390311071084
8.362694144,1.0000451133294506,152.03574534958133
8.404145152,1.0000508532619294,150.06840924090122
8.445595648,1.0000560060807326,148.1019251758146
8.487046656,1.000060572773615,146.13633752605966
8.528497664,1.0000645026522619,144.17165199091636
8.56994816,1.000067678219815,142.20786499151592
8.611398656,1.0000702735594311,140.2450126185473
8.652850176,1.000072077802387,138.28312469348106
8.694300672,1.000072848398717,136.3222044155904
8.735751168,1.0000730156977433,134.36226782104197
8.777201664,1.0000722875872368,132.40335923962937
8.818653184,1.0000708584184872,130.44547539989603
8.86010368,1.000068643167899,128.48862352152037
8.901554176,1.0000655008211328,126.53284043041515
8.943004672,1.000061730786639,124.57814682419895
8.984456192,1.0000572514825634,122.62453391570376
9.025906688,1.0000521008113483,120.6720085279364
9.067357184,1.0000463792454004,118.72063807414264
9.108808704,1.000040035367225,116.7703674254011
9.1502592,1.000033225179144,114.82123969816416
9.191709696,1.0000260194629276,112.87328520594879
9.233160192,1.0000184784493547,110.9264902201872
9.274611712,1.0000106463472354,108.98086052923712
9.316062208,1.0000027090554569,107.03641642270546
9.357512704,0.9999946806329758,105.09315143217222
9.398964224,0.9999865252487401,103.15108745378143
9.44041472,0.9999785531077813,101.21022082193578
9.481865216,0.9999707976401264,99.27053685744993
9.523315712,0.9999632203291562,97.33208257979325
9.564767232,0.9999560641871569,95.3948178498742
9.606217728,0.9999492918047217,93.4587480908211
9.647668224,0.9999429920462215,91.52391493065207
9.68911872,0.9999373543042176,89.59025793973446
9.73057024,0.9999322430719171,87.65780683174866
9.772020736,0.9999278790446607,85.726556237014
9.813471232,0.9999242666452908,83.79648138635982
9.854922752,0.9999214029802991,81.8676254682989
9.896373248,0.9999193233411049,79.93994570251351
9.937823744,0.9999181931583212,78.01344344941138
9.97927424,0.9999178989995365,76.08810523451925
10.02072576,0.999918390077003,74.16391885687716
10.062176256,0.9999198316454895,72.24089346255217
10.103626752,0.9999221270485162,70.31899906906492
10.145077248,0.9999252610838145,68.39827368428172
10.186528768,0.9999292265127498,66.4786558345471
10.227979264,0.9999338966197423,64.56015781712
10.26942976,0.9999393458718523,62.64276262407666
10.31088128,0.9999454707894726,60.72647616375466
10.352331776,0.9999521363348646,58.811275039934365
10.393782272,0.9999594343772428,56.89713758503095
10.435232768,0.9999670867437163,54.984084792016205
10.476684288,0.9999752043543201,53.072094841367644
10.518134784,0.9999835433596326,51.16114406114536
10.55958528,0.999992064462631,49.251237248356155
10.601035776,1.000000772071719,47.34236107357915
10.642487296,1.0000094330958464,45.434491944984394
10.683937792,1.0000180990263876,43.52763535592212
10.725388288,1.0000264078410883,41.62177047549884
10.766839808,1.0000345714091223,39.7169165530159
10.808290304,1.0000423334520625,37.81303878850551
10.8497408,1.0000496337430977,35.910126994737354
10.891191296,1.000056388397741,34.00820507324941
10.932642816,1.0000625795387867,32.10722141034918
10.974093312,1.0000679627270996,30.207191900910832
11.015543808,1.0000726541773923,28.30810939589784
11.056995328,1.0000765825066669,26.409963331105974
11.098445824,1.0000795792638983,24.512725076678713
11.13989632,1.0000817174791439,22.61642386469166
11.181346816,1.0000828662832717,20.721021862554046
11.222798336,1.0000831471489837,18.82653265874201
11.264248832,1.0000824798986276,16.93293257571795
11.305699328,1.0000807991789857,15.040196823468603
11.347149824,1.0000782351569404,13.148359810402754
11.388601344,1.0000746922548527,11.25737635206616
11.43005184,1.0000702230420282,9.367255194630419
11.471502336,1.0000650087218776,7.477989570858305
11.512953856,1.0000589140836769,5.589553286303804
11.554404352,1.000052122681868,3.701932497315825
11.595854848,1.00004474559404,1.8151345020430503
11.637305344,1.000036647139588,-0.07087631472217629
11.678756864,1.0000281797696948,-1.9560976608188143
11.72020736,1.0000192503315006,-3.840544279647895
11.761657856,1.0000099940117575,-5.724226618470194
11.803108352,1.000000520259271,-7.607171810762908
11.844559872,0.9999909732377695,-9.489404261989604
11.886010368,0.9999813924224711,-11.370905115143234
11.927460864,0.9999719986715783,-13.2517401236375
11.968912384,0.9999627425063427,-15.13189494635631
12.01036288,0.9999537906092121,-17.011397880118743
12.051813376,0.9999453437427559,-18.89026448526995
12.093263872,0.9999373558069532,-20.76852545233666
12.134715392,0.9999299832126454,-22.646220028381965
12.176165888,0.9999232648103591,-24.523324306038273
12.217616384,0.9999173636898022,-26.399891340259412
12.25906688,0.9999123219305094,-28.275947308615905
12.3005184,0.9999081729932512,-30.151502705080677
12.341968896,0.9999050244304962,-32.02659440021864
12.383419392,0.9999029003621503,-33.90125684628733
12.424870912,0.9999016913518511,-35.77547666279053
12.466321408,0.9999016287272684,-37.64932703909472
12.507771904,0.9999026036676223,-39.52280653589407
12.5492224,0.9999047036498037,-41.39593092656718
12.59067392,0.9999076948422393,-43.26875961183237
12.632124416,0.9999118600289577,-45.14130226868754
12.673574912,0.9999169265782419,-47.013584614072876
12.715025408,0.9999229450437529,-48.885638628639576
12.756476928,0.9999299074131537,-50.75746598192727
12.797927424,0.999937644489123,-52.62913934312843
12.83937792,0.9999460872892463,-54.50063207406244
12.88082944,0.9999551993561817,-56.37201323609077
12.922279936,0.999964840752727,-58.24326155308956
12.963730432,0.9999749076104072,-60.114451690042706
13.005180928,0.9999852227053552,-61.98555215843421
13.046632448,0.9999958433666195,-63.85663243265081
13.088082944,1.0000065376310439,-65.72767799462622
13.12953344,1.0000173018444947,-67.59874645287373
13.17098496,1.0000278403693181,-69.46981987392478
13.212435456,1.0000382153897405,-71.34094733669947
13.253885952,1.0000481913706616,-73.21212650642363
13.295336448,1.0000576442699076,-75.08338413858266
13.336787968,1.0000665135655844,-76.95474311757243
13.378238464,1.0000746695454317,-78.82621871000462
13.41968896,1.000082029437588,-80.69781002751058
13.461139456,1.0000885467320557,-82.56955909430131
13.502590976,1.0000940671740712,-84.44145544444179
13.544041472,1.000098608677385,-86.31352829066144
13.585491968,1.0001020206507436,-88.18578922082702
13.626943488,1.0001042287282793,-90.05823870486597
13.668393984,1.0001054579606876,-91.9309011907361
13.70984448,1.0001052994055095,-93.80378545897847
13.751294976,1.0001039540206489,-95.67690639735156
13.792746496,1.0001014479720507,-97.55027283749621
13.834196992,1.0000977599485643,-99.42391685695068
13.875647488,1.0000929064024269,-101.2978115341234
13.917097984,1.0000869058294948,-103.17199247979356
13.958549504,1.0000798191271314,-105.04647416952143
14.0,1.000071758723234,-106.92126171399671
