freq,mag,phase
6.0,1.0,31.911779071102366
6.008,1.0,31.66738638681127
6.016,0.9999999999999999,31.422881302716895
6.024,1.0,31.178264309513168
6.032,1.0,30.933535900405133
6.04,1.0,30.68869657110266
6.048,1.0,30.44374681981413
6.056,1.0,30.198687147239884
6.064,1.0,29.95351805656561
6.072,0.9999999999999999,29.708240053455498
6.08,0.9999995152667557,29.46285364604538
6.088,0.99999900704817,29.217359344935623
6.096,0.999998503055936,28.97175766318399
6.104,0.9999980033042479,28.726049116298224
6.112,0.9999975078069804,28.480234222228646
6.12,0.9999970165776885,28.234313501360553
6.128,0.9999965296296071,27.988287476506432
6.136,0.9999960469756499,27.742156672898094
6.144,0.9999955686284094,27.49592161817869
6.152,0.9999950946001555,27.249582842394517
6.16,0.999994624902836,27.00314087798673
6.168,0.9999941595480747,26.756596259782985
6.176,0.9999936985471728,26.509949524988745
6.184,0.999993241911106,26.263201213178714
6.192,0.9999927896505264,26.016351866287895
6.2,0.9999923417757601,25.769402028602673
6.208,0.9999918982968088,25.522352246751705
6.216,0.9999914592233466,25.275203069696612
6.224,0.9999910245647222,25.0279550487227
6.232,0.9999905943299576,24.780608737429304
6.24,0.9999901685277468,24.533164691720238
6.248,0.999989747166457,24.28562346979397
6.256,0.9999893302541277,24.03798563213365
6.264,0.9999889177984693,23.79025174149714
6.272,0.9999885098068644,23.542422362906652
6.28,0.9999881062863669,23.29449806363861
6.288,0.9999877072437018,23.04647941321301
6.296,0.9999873126852646,22.7983669833829
6.304,0.9999869226171212,22.550161348123588
6.312,0.9999865370450088,22.301863083621814
6.32,0.9999861559743337,22.053472768264704
6.328,0.999985779410173,21.804990982628617
6.336,0.9999854073572734,21.556418309467894
6.344,0.9999850398200518,21.307755333703394
6.352,0.9999846768025945,21.05900264241101
6.36,0.9999843183086572,20.810160824809923
6.368,0.9999839643416658,20.561230472250838
6.376,0.9999836149047157,20.31221217820401
6.384,0.9999832700005714,20.06310653824717
6.392,0.9999829296316673,19.8139141500533
6.4,0.9999825938001077,19.564635613378343
6.408,0.999982262507666,19.31527153004867
6.416,0.9999819357557856,19.0658225039485
6.424,0.9999816135455797,18.816289141007164
6.432,0.999981295877831,18.56667204918627
6.44,0.9999809827529936,18.31697183846667
6.448,0.9999806741711902,18.067189120835327
6.456,0.9999803701322152,17.817324510272122
6.464,0.9999800706355325,17.56737862273646
6.472,0.9999797756802776,17.31735207615371
6.48,0.999979485265257,17.067245490401657
6.4879999999999995,0.999979199388948,16.817059487296703
6.496,0.9999789180494999,16.566794690579883
6.504,0.9999786412447341,16.316451725903157
6.5120000000000005,0.9999783689721438,16.066031220814846
6.52,0.9999781012288949,15.815533804745836
6.5280000000000005,0.9999778380118263,15.564960108994747
6.536,0.9999775793174503,15.314310766713874
6.5440000000000005,0.9999773251419529,15.063586412894098
6.552,0.9999770754811941,14.81278768435063
6.5600000000000005,0.9999768303307085,14.561915219707654
6.568,0.9999765896857062,14.31096965938381
6.5760000000000005,0.9999763535410728,14.059951645576618
6.584,0.9999761218913693,13.808861822247739
6.592,0.9999758947308341,13.55770083510716
6.6,0.9999756720533829,13.30646933159808
6.608,0.9999754538526083,13.055167960881178
6.616,0.9999752401217822,12.803797373818945
6.624,0.9999750308538549,12.552358222959867
6.632,0.9999748260414568,12.300851162522523
6.64,0.9999746256768983,12.049276848379536
6.648,0.9999744297521709,11.79763593804141
6.656,0.9999742382589477,11.545929090640296
6.664,0.9999740511885846,11.294156966913597
6.672,0.9999738685321202,11.042320229187498
6.68,0.9999736902802774,10.790419541360352
6.688,0.9999735164234638,10.538455568886008
6.696,0.9999733469517723,10.28642897875698
6.704,0.9999731818549826,10.034340439487545
6.712,0.9999730211225616,9.782190621096706
6.72,0.9999728647436639,9.529980195091083
6.728,0.999972712707134,9.277709834447656
6.736,0.9999725650015049,9.025380213596465
6.744,0.9999724216150021,8.772992008403149
6.752,0.9999722825355424,8.520545896151415
6.76,0.9999721477507348,8.268042555525394
6.768,0.9999720172478829,8.015482666591916
6.776,0.999971891013985,7.7628669107826695
6.784,0.9999717690357348,7.5101959708762625
6.792,0.999971651299524,7.2574705309801955
6.8,0.9999715377914414,7.004691276512749
6.808,0.9999714284972755,6.751858894184743
6.816,0.9999713234025146,6.49897407198124
6.824,0.9999712224923493,6.246037499143147
6.832,0.9999711257516716,5.993049866148698
6.84,0.9999710331650785,5.740011864694893
6.848,0.9999709447168713,5.486924187678805
6.856,0.9999708603910574,5.2337875291788345
6.864,0.9999707801713522,4.980602584435849
6.872,0.9999707040411798,4.727370049834252
6.88,0.9999706319836741,4.474090622882972
6.888,0.99997056398168,4.220765002196356
6.896,0.9999705000177553,3.9673938874749815
6.904,0.9999704400741727,3.713977979486395
6.912,0.9999703841329187,3.460517980045778
6.92,0.9999703321756976,3.2070145919965105
6.928,0.9999702841839317,2.953468519190677
6.936,0.9999702401387626,2.6998804664694926
6.944,0.9999702000210533,2.4462511396436524
6.952,0.9999701638113888,2.1925812454735993
6.96,0.9999701314900783,1.938871491649727
6.968,0.9999701030371565,1.6851225867725288
6.976,0.9999700784323848,1.4313352403326458
6.984,0.9999700576552537,1.1775101626908562
6.992,0.9999700406849832,0.9236480650580059
7.0,0.9999700275005247,0.6697496594748759
7.008,0.9999700180805634,0.4158156587919616
7.016,0.9999700124035191,0.16184677664921834
7.024,0.9999700104475479,-0.09215627254427997
7.032,0.9999700121905442,-0.346192773630725
7.04,0.9999700176101415,-0.6002620107240428
7.048,0.9999700266837154,-0.8543632672303668
7.056,0.9999700393883847,-1.1084958258686568
7.064,0.9999700557010122,-1.362658968691274
7.072,0.9999700755982075,-1.6168519771046863
7.08,0.9999700990563289,-1.8710741318901982
7.088,0.9999701260514845,-2.1253247132247037
7.096,0.9999701565595344,-2.379603000701563
7.104,0.9999701905560909,-2.6339082733514436
7.112,0.9999702280165238,-2.888239809663278
7.12,0.9999702689159584,-3.142596887605204
7.128,0.9999703132292801,-3.3969787846456363
7.136,0.9999703609311349,-3.6513847777742665
7.144,0.9999704119959313,-3.9058141435232243
7.152,0.9999704663978426,-4.160266157988167
7.16,0.9999705241108083,-4.414740096849524
7.168,0.9999705851085375,-4.669235235393682
7.176,0.9999706493645086,-4.923750848534229
7.184,0.9999707168519724,-5.178286210833282
7.192,0.9999707875439543,-5.432840596522814
7.2,0.9999708614132559,-5.687413279525972
7.208,0.9999709384324569,-5.942003533478501
7.216,0.9999710185739173,-6.196610631750174
7.224,0.9999711018097794,-6.451233847466179
7.232,0.9999711881119698,-6.705872453528639
7.24,0.9999712774522013,-6.960525722638146
7.248,0.9999713698019747,-7.215192927315168
7.256,0.9999714651325823,-7.469873339921692
7.264,0.9999715634151072,-7.724566232682755
7.272,0.9999716646204285,-7.97927087770801
7.28,0.9999717687192217,-8.233986547013355
7.288,0.9999718756819601,-8.488712512542515
7.296,0.9999719854789195,-8.743448046188691
7.304,0.9999720980801776,-8.998192419816199
7.312,0.9999722134556179,-9.252944905282153
7.32,0.9999723315749303,-9.507704774458068
7.328,0.9999724524076151,-9.762471299251589
7.336,0.9999725759229845,-10.01724375162814
7.344,0.9999727020901631,-10.272021403632628
7.352,0.9999728308780937,-10.526803527411124
7.36,0.9999729622555358,-10.781589395232569
7.368,0.9999730961910696,-11.03637827951044
7.376,0.9999732326530987,-11.2911694528245
7.384,0.999973371609851,-11.545962187942411
7.392,0.999973513029382,-11.800755757841504
7.4,0.999973656879577,-12.055549435730416
7.4079999999999995,0.9999738031281518,-12.310342495070755
7.416,0.9999739517426575,-12.565134209598916
7.4239999999999995,0.9999741026904813,-12.819923853347428
7.432,0.9999742559388483,-13.074710700667042
7.4399999999999995,0.9999744114548248,-13.329494026247891
7.448,0.9999745692053209,-13.584273105141612
7.4559999999999995,0.9999747291570914,-13.839047212782463
7.464,0.9999748912767393,-14.093815625009388
7.4719999999999995,0.9999750555307177,-14.348577618087173
7.48,0.9999752218853322,-14.603332468728409
7.4879999999999995,0.9999753903067434,-14.858079454114606
7.496,0.9999755607609687,-15.11281785191816
7.504,0.9999757332138856,-15.36754694032337
7.5120000000000005,0.9999759076312329,-15.622265998048395
7.52,0.999976083978614,-15.87697430436622
7.5280000000000005,0.999976262221499,-16.13167113912652
7.536,0.9999764423252271,-16.386355782776608
7.5440000000000005,0.9999766242550084,-16.64102751638322
7.552,0.9999768079759274,-16.895685621653392
7.5600000000000005,0.9999769934529444,-17.1503293809562
7.568,0.9999771806508988,-17.40495807734358
7.5760000000000005,0.9999773695345103,-17.659570994571947
7.584,0.9999775600683827,-17.91416741712296
7.5920000000000005,0.999977752217005,-18.168746630225115
7.6,0.9999779459447551,-18.423307919874368
7.6080000000000005,0.9999781412159005,-18.677850572855657
7.616,0.9999783379946032,-18.93237387676344
7.6240000000000006,0.9999785362449196,-19.186877120023155
7.632,0.9999787359308048,-19.441359591911667
7.640000000000001,0.9999789370161132,-19.695820582578563
7.648,0.9999791394646036,-19.95025938306659
7.656000000000001,0.9999793432399384,-20.20467528533282
7.664,0.9999795483056892,-20.45906758226896
7.672,0.9999797546253361,-20.71343556772243
7.68,0.9999799621622731,-20.96777853651667
7.688,0.9999801708798091,-21.222095784471815
7.696,0.9999803807411701,-21.47638660842521
7.704,0.9999805917095016,-21.730650306251864
7.712,0.9999808037478723,-21.98488617688476
7.72,0.9999810168192756,-22.239093520335256
7.728,0.9999812308866318,-22.493271637713306
7.736,0.9999814459127909,-22.747419831247655
7.744,0.9999816618605359,-23.00153740430602
7.752,0.9999818786925836,-23.25562366141508
7.76,0.9999820963715883,-23.509677908280537
7.768,0.9999823148601437,-23.76369945180703
7.776,0.9999825341207857,-24.01768760011797
7.784,0.9999827541159948,-24.271641662575366
7.792,0.9999829748081981,-24.525560949799523
7.8,0.999983196159772,-24.779444773688713
7.808,0.9999834181330456,-25.033292447438686
7.816,0.9999836406903013,-25.287103285562207
7.824,0.9999838637937791,-25.54087660390849
7.832,0.9999840874056773,-25.794611719682486
7.84,0.9999843114881574,-26.048307951464153
7.848,0.9999845360033431,-26.30196461922768
7.856,0.9999847609133262,-26.555581044360533
7.864,0.9999849861801672,-26.809156549682466
7.872,0.9999852117658974,-27.062690459464502
7.88,0.9999854376325231,-27.316182099447715
7.888,0.9999856637420261,-27.56963079686203
7.896,0.9999858900563675,-27.82303588044486
7.904,0.9999861165374898,-28.076396680459716
7.912,0.9999863431473189,-28.329712528714715
7.92,0.9999865698477667,-28.58298275858091
7.928,0.9999867966007344,-28.836206705010667
7.936,0.9999870233681135,-29.089383704555864
7.944,0.9999872501117896,-29.342513095386007
7.952,0.9999874767936437,-29.595594217306246
7.96,0.9999877033755558,-29.848626411775353
7.968,0.9999879298194059,-30.10160902192351
7.976,0.9999881560870776,-30.35454139257007
7.984,0.9999883821404603,-30.607422870241205
7.992,0.9999886079414511,-30.8602528031874
8.0,0.9999888334519579,-31.11303054140097
8.008,0.9999890586339013,-31.365755436633318
8.016,0.9999892834492174,-31.618426842412287
8.024000000000001,0.9999895078598598,-31.871044114059096
8.032,0.9999897318278025,-32.12360660870549
8.04,0.9999899553150421,-32.37611368531076
8.048,0.9999901782835996,-32.628564704678446
8.056000000000001,0.9999904006955241,-32.880959029472955
8.064,0.9999906225128948,-33.1332960242363
8.072,0.9999908436978217,-33.385575055404594
8.08,0.9999910642124509,-33.63779549132445
8.088000000000001,0.9999912840189646,-33.88995670226907
8.096,0.9999915030795847,-34.14205806045453
8.104,0.9999917213565754,-34.39409894005598
8.112,0.9999919388122441,-34.646078717223425
8.120000000000001,0.9999921554089458,-34.89799677009749
8.128,0.9999923711090845,-35.14985247882511
8.136,0.9999925858751146,-35.40164522557546
8.144,0.9999927996695456,-35.6533743945551
8.152000000000001,0.9999930124549424,-35.90503937202339
8.16,0.999993224193929,-36.15663954630774
8.168,0.9999934348491901,-36.4081743078189
8.176,0.9999936443834742,-36.65964304906591
8.184000000000001,0.9999938527595954,-36.91104516467077
8.192,0.999994059940436,-37.162380051383366
8.2,0.9999942658889488,-37.413647108096285
8.208,0.9999944705681603,-37.664845735859224
8.216000000000001,0.9999946739411719,-37.915975337893194
8.224,0.999994875971163,-38.16703531960501
8.232,0.999995076621393,-38.41802508860161
8.24,0.9999952758552049,-38.66894405470382
8.248000000000001,0.9999954736360259,-38.91979162996033
8.256,0.9999956699273708,-39.17056722866153
8.264,0.9999958646928451,-39.42127026735327
8.272,0.9999960578961459,-39.67190016485036
8.280000000000001,0.9999962495010654,-39.92245634224978
8.288,0.9999964394714932,-40.17293822294418
8.296,0.9999966277714187,-40.42334523263512
8.304,0.9999968143649332,-40.67367679934596
8.312,0.9999969992162326,-40.92393235343469
8.32,0.9999971822896205,-41.174111327606994
8.328,0.9999973635495093,-41.4242131569286
8.336,0.9999975429604235,-41.674237278838085
8.344,0.9999977204870029,-41.924183133158984
8.352,0.9999978960940038,-42.174050162112366
8.36,0.9999980697463018,-42.42383781032867
8.368,0.9999982414088951,-42.673545524860025
8.376,0.9999984110469065,-42.92317275519176
8.384,0.9999985786255857,-43.17271895325456
8.392,0.999998744110312,-43.42218357343568
8.4,0.9999989074665971,-43.671566072590814
8.408,0.9999990686600879,-43.920865910055035
8.416,0.9999992276565686,-44.170082547654495
8.424,0.999999384421963,-44.419215449717
8.432,0.9999995389223384,-44.66826408308345
8.44,0.9999996911239067,-44.917227917118204
8.448,0.9999998409930286,-45.166106423720215
8.456,0.9999999884962152,-45.414899077333196
8.464,0.9999999999999999,-45.66360535495639
8.472,1.0,-45.91222473615448
8.48,1.0000000000000002,-46.16075670306821
8.488,1.0,-46.40920074042388
8.496,1.0,-46.65755633554377
8.504,1.0,-46.90582297835541
8.512,1.0,-47.15400016140164
8.52,1.0,-47.40208737984968
8.528,1.0,-47.65008413150092
8.536,1.0,-47.89798991679963
8.544,1.0,-48.145804238842636
8.552,1.0,-48.39352660338766
8.56,1.0,-48.64115651886271
8.568,1.0,-48.88869349637423
8.576,1.0,-49.13613704971613
8.584,1.0,-49.38348669537778
8.592,1.0,-49.630741952552704
8.6,0.9999999999999999,-49.87790234314627
8.608,1.0,-50.1249673917841
8.616,0.9999999999999999,-50.37193662581967
8.624,1.0000000000000002,-50.618809575342304
8.632,1.0,-50.86558577318447
8.64,1.0,-51.11226475492959
8.648,1.0,-51.358846058919006
8.656,0.9999999999999999,-51.60532922625966
8.664,1.0,-51.851713800830645
8.672,1.0,-52.097999329290595
8.68,1.0,-52.34418536108414
8.688,0.9999999999999999,-52.590271448448874
8.696,0.9999999999999999,-52.83625714642159
8.704,0.9999999999999999,-53.08214201284506
8.712,0.9999999999999999,-53.32792560837383
8.72,1.0,-53.57360749648089
8.728,0.9999999999999999,-53.819187243463226
8.736,1.0,-54.06466441844804
8.744,1.0000000000000002,-54.31003859339817
8.752,1.0000000000000002,-54.55530934311806
8.76,0.9999999999999999,-54.800476245258906
8.768,1.0,-55.045538880324266
8.776,0.9999999999999999,-55.29049683167504
8.784,1.0,-55.53534968553488
8.792,1.0,-55.78009703099472
8.8,0.9999999999999999,-56.02473846001805
8.808,1.0,-56.269273567445225
8.815999999999999,0.9999999999999999,-56.513701950998325
8.824,1.0,-56.75802321128545
8.832,0.9999999999999999,-57.00223695180503
8.84,1.0,-57.24634277894994
8.847999999999999,1.0,-57.49034030201179
8.856,1.0,-57.73422913318471
8.864,1.0,-57.978008887568976
8.872,0.9999999999999998,-58.22167918317488
8.879999999999999,1.0,-58.4652396409263
8.888,1.0,-58.708689884664054
8.896,1.0,-58.952029541149045
8.904,1.0,-59.19525824006557
8.911999999999999,1.0,-59.43837561402443
8.92,1.0,-59.681381298565746
8.928,1.0,-59.924274932161616
8.936,1.0,-60.1670561562189
8.943999999999999,1.0,-60.409724615081885
8.952,1.0,-60.65227995603452
8.96,0.9999999999999999,-60.89472182930267
8.968,1.0,-61.137049888056325
8.975999999999999,1.0,-61.37926378841183
8.984,0.9999999999999999,-61.62136318943359
8.992,0.9999999999999999,-61.86334775313582
9.0,1.0,-62.10521714448434
9.008,0.9999999999999999,-62.34697103139816
9.016,0.9999999999999999,-62.58860908475093
9.024000000000001,1.0,-62.83013097837198
9.032,1.0,-63.071536389047736
9.04,1.0,-63.3128249965229
9.048,0.9999999999999999,-63.55399648350118
9.056000000000001,1.0,-63.79505053564611
9.064,1.0,-64.03598684158185
9.072,0.9999999999999999,-64.27680509289387
9.08,0.9999999999999999,-64.51750498412929
9.088000000000001,1.0,-64.75808621279721
9.096,1.0,-64.9985484793689
9.104,1.0,-65.23889148727822
9.112,1.0,-65.47911494292134
9.120000000000001,0.9999999999999999,-65.71921855565665
9.128,0.9999999999999999,-65.9592020378045
9.136,1.0,-66.19906510464709
9.144,1.0,-66.43880747442779
9.152000000000001,1.0,-66.67842886835054
9.16,0.9999999999999999,-66.91792901057914
9.168,1.0,-67.15730762823668
9.176,0.9999999898994785,-67.39656445140439
9.184000000000001,0.9999998120924666,-67.63569921312056
9.192,0.9999996299975943,-67.8747116493794
9.2,0.9999994436153796,-68.11360149913003
9.208,0.9999992529471079,-68.35236850427476
9.216000000000001,0.9999990579948457,-68.59101240966771
9.224,0.9999988587614574,-68.8295329631131
9.232,0.9999986552506211,-69.06792991536368
9.24,0.9999984474668456,-69.30620302011886
9.248000000000001,0.9999982354154872,-69.54435203402257
9.256,0.9999980191027659,-69.78237671666125
9.264,0.9999977985357842,-70.02027683056181
9.272,0.9999975737225456,-70.25805214118921
9.280000000000001,0.9999973446719713,-70.49570241694397
9.288,0.9999971113939201,-70.7332274291596
9.296,0.9999968738992073,-70.97062695210023
9.304,0.9999966321996239,-71.20790076295762
9.312000000000001,0.9999963863079578,-71.4450486418482
9.32,0.9999961362380128,-71.68207037181017
9.328,0.9999958820046296,-71.91896573880055
9.336,0.9999956236237078,-72.15573453169172
9.344,0.9999953611122271,-72.39237654226805
9.352,0.9999950944882687,-72.62889156522273
9.36,0.9999948237710389,-72.86527939815377
9.368,0.9999945489808909,-73.10153984156076
9.376,0.9999942701393492,-73.33767269884062
9.384,0.9999939872691322,-73.57367777628406
9.392,0.999993700394178,-73.80955488307114
9.4,0.9999934095396669,-74.0453038312675
9.408,0.9999931147320475,-74.28092443581971
9.416,0.9999928159990641,-74.5164165145512
9.424,0.9999925133697783,-74.7517798881573
9.432,0.9999922068745997,-74.98701438020115
9.44,0.9999918965453106,-75.2221198171083
9.448,0.9999915824150927,-75.45709602816241
9.456,0.9999912645185565,-75.69194284549974
9.464,0.9999909428917682,-75.92666010410434
9.472,0.9999906175722779,-76.16124764180256
9.48,0.9999902885991505,-76.39570529925787
9.488,0.9999899560129926,-76.63003291996503
9.496,0.9999896198559831,-76.86423035024481
9.504,0.999989280171904,-77.09829743923781
9.512,0.9999889370061705,-77.33223403889897
9.52,0.9999885904058619,-77.56604000399112
9.528,0.9999882404197521,-77.79971519207913
9.536,0.9999878870983424,-78.03325946352328
9.544,0.9999875304938926,-78.26667268147322
9.552,0.999987170660454,-78.49995471186097
9.56,0.9999868076539007,-78.73310542339448
9.568,0.9999864415319637,-78.96612468755058
9.576,0.9999860723542635,-79.19901237856823
9.584,0.9999857001823438,-79.43176837344105
9.592,0.9999853250797042,-79.66439255191035
9.6,0.9999849471118338,-79.89688479645739
9.608,0.9999845663462477,-80.12924499229615
9.616,0.9999841828525178,-80.36147302736524
9.624,0.999983796702308,-80.59356879232034
9.632,0.9999834079694107,-80.8255321805259
9.64,0.9999830167297766,-81.05736308804723
9.648,0.999982623061553,-81.28906141364183
9.656,0.9999822270451171,-81.52062705875137
9.664,0.9999818287631084,-81.75205992749247
9.672,0.9999814283004648,-81.98335992664842
9.68,0.9999810257444551,-82.21452696565976
9.688,0.999980621184714,-82.44556095661555
9.696,0.9999802147132735,-82.67646181424372
9.704,0.9999798064245983,-82.90722945590194
9.712,0.9999793964156166,-83.13786380156758
9.72,0.9999789847857529,-83.36836477382839
