freq,mag,phase
6.0,0.9999939635836106,-104.51682638114683
6.008,0.9999946396251594,-104.9181619759107
6.016,0.9999952942327541,-105.31928358971071
6.024,0.9999959277850515,-105.72019105701851
6.032,0.9999965406564062,-106.12088422522666
6.04,0.9999971332168884,-106.52136295459158
6.048,0.9999977058323065,-106.92162711817612
6.056,0.9999982588642267,-107.32167660179175
6.064,0.999998792669993,-107.72151130394022
6.072,0.9999993076027519,-108.12113113575462
6.08,0.9999998040114693,-108.5205360209404
6.088,1.0,-108.91972589571544
6.096,0.9999999999999999,-109.31870070875014
6.104,0.9999999999999999,-109.71746042110685
6.112,1.0,-110.11600500617911
6.12,0.9999999999999999,-110.51433444963024
6.128,1.0,-110.91244874933177
6.136,0.9999999999999999,-111.31034791530149
6.144,0.9999999999999999,-111.70803196964123
6.152,1.0000000000000002,-112.10550094647378
6.16,1.0,-112.50275489188039
6.168,0.9999999999999998,-112.89979386383715
6.176,1.0,-113.29661793215146
6.184,1.0,-113.69322717839813
6.192,0.9999999999999999,-114.08962169585519
6.2,1.0,-114.48580158943942
6.208,0.9999999999999999,-114.88176697564145
6.216,1.0,-115.27751798246132
6.224,1.0,-115.6730547493424
6.232,0.9999999999999999,-116.06837742710677
6.24,1.0,-116.46348617788908
6.248,1.0,-116.85838117507075
6.256,1.0,-117.25306260321398
6.264,0.9999999999999999,-117.64753065799533
6.272,1.0,-118.04178554613935
6.28,0.9999999999999999,-118.43582748535191
6.288,1.0,-118.82965670425341
6.296,1.0,-119.22327344231178
6.304,0.9999999999999999,-119.61667794977546
6.312,0.9999999999999999,-120.00987048760604
6.32,0.9999999999999999,-120.40285132741113
6.328,1.0,-120.79562075137645
6.336,0.9999999999999999,-121.18817905219875
6.344,1.0,-121.58052653301768
6.352,0.9999999999999999,-121.97266350734826
6.36,1.0000000000000002,-122.36459029901286
6.368,1.0,-122.75630724207332
6.376,1.0,-123.14781468076293
6.384,1.0,-123.53911296941831
6.392,0.9999999999999999,-123.93020247241128
6.4,0.9999999999999999,-124.32108356408067
6.408,1.0,-124.71175662866422
6.416,1.0,-125.10222206023015
6.424,1.0,-125.492480262609
6.432,1.0,-125.88253164932537
6.44,1.0,-126.27237664352946
6.448,1.0,-126.66201567792906
6.456,1.0,-127.05144919472106
6.464,0.9999999999999999,-127.44067764552324
6.472,0.9999999999999999,-127.82970149130591
6.48,1.0,-128.21852120232404
6.4879999999999995,0.9999999999999999,-128.6071372580485
6.496,0.9999999999999999,-128.99555014709864
6.504,0.9999999999999999,-129.38376036717338
6.5120000000000005,1.0,-129.77176842498397
6.52,1.0,-130.15957483618516
6.5280000000000005,1.0,-130.54718012530822
6.536,1.0,-130.9345848256922
6.5440000000000005,1.0,-131.32178947941682
6.552,0.9999999999999999,-131.7087946372343
6.5600000000000005,0.9999999999999999,-132.09560085850217
6.568,1.0,-132.48220871111536
6.5760000000000005,1.0,-132.8686187714393
6.584,1.0,-133.25483162424186
6.592,1.0,-133.6408478626271
6.6,1.0,-134.02666808796744
6.608,1.0,-134.41229290983694
6.616,0.9999999999999999,-134.79772294594466
6.624,1.0,-135.18295882206763
6.632,1.0,-135.56800117198458
6.64,1.0,-135.95285063740923
6.648,1.0,-136.33750786792427
6.656,1.0,-136.7219735209151
6.664,1.0,-137.1062482615038
6.672,1.0,-137.49033276248338
6.68,1.0,-137.87422770425206
6.688,1.0,-138.2579337747478
6.696,1.0,-138.64145166938306
6.704,1.0000000000000002,-139.0247820909794
6.712,1.0,-139.40792574970263
6.72,1.0,-139.79088336299813
6.728,0.9999999999999999,-140.17365565552606
6.736,1.0,-140.5562433590969
6.744,1.0,-140.93864721260732
6.752,1.0,-141.32086796197606
6.76,0.9999999999999999,-141.70290636008016
6.768,1.0,-142.08476316669118
6.776,1.0,-142.46643914841175
6.784,0.9999999999999999,-142.8479350786125
6.792,0.9999999999999999,-143.22925173736877
6.8,1.0,-143.610389911398
6.808,1.0,-143.99135039399687
6.816,1.0,-144.37213398497926
6.824,1.0,-144.7527414906136
6.832,0.9999999999999999,-145.13317372356136
6.84,0.9999999999999999,-145.513431502815
6.848,1.0,-145.89351565363654
6.856,0.9999999999999999,-146.27342700749637
6.864,1.0,-146.65316640201206
6.872,0.9999998865717322,-147.03273468088764
6.88,0.9999996899303295,-147.41213269385287
6.888,0.9999994931437587,-147.79136129660304
6.896,0.9999992962751252,-148.17042135073876
6.904,0.9999990993860977,-148.54931372370612
6.912,0.9999989025369281,-148.9280392887369
6.92,0.9999987057864763,-149.3065989247894
6.928,0.9999985091922305,-149.68499351648916
6.936,0.9999983128103304,-150.0632239540699
6.944,0.999998116695588,-150.44129113331527
6.952,0.9999979209015106,-150.81919595549985
6.96,0.9999977254803211,-151.19693932733148
6.968,0.9999975304829798,-151.57452216089305
6.976,0.9999973359592054,-151.9519453735849
6.984,0.9999971419574961,-152.32920988806737
6.992,0.9999969485251503,-152.70631663220374
7.0,0.9999967557082867,-153.08326653900312
7.008,0.9999965635518646,-153.46006054656385
7.016,0.9999963720997057,-153.83669959801722
7.024,0.9999961813945113,-154.21318464147103
7.032,0.9999959914778846,-154.58951662995398
7.04,0.9999958023903487,-154.96569652135977
7.048,0.9999956141713662,-155.34172527839186
7.056,0.9999954268593596,-155.7176038685083
7.064,0.9999952404917294,-156.0933332638667
7.072,0.9999950551048719,-156.46891444126985
7.08,0.9999948707341993,-156.84434838211112
7.088,0.9999946874141586,-157.21963607232055
7.096,0.999994505178248,-157.5947785023107
7.104,0.9999943240590352,-157.96977666692342
7.112,0.9999941440881776,-158.34463156537612
7.12,0.9999939652964369,-158.71934420120903
7.128,0.9999937877136976,-159.09391558223206
7.136,0.9999936113689855,-159.46834672047243
7.144,0.9999934362904838,-159.84263863212232
7.152,0.9999932625055488,-160.21679233748668
7.16,0.9999930900407289,-160.5908088609316
7.168,0.9999929189217791,-160.9646892308325
7.176,0.9999927491736783,-161.33843447952313
7.184,0.9999925808206455,-161.71204564324432
7.192,0.9999924138861545,-162.0855237620932
7.2,0.999992248392951,-162.45886987997275
7.208,0.999992084363068,-162.83208504454143
7.216,0.999991921817839,-163.20517030716312
7.224,0.9999917607779168,-163.5781267228574
7.232,0.9999916012632848,-163.95095535025004
7.24,0.9999914432932746,-164.32365725152346
7.248,0.9999912868865779,-164.6962334923681
7.256,0.9999911320612632,-165.06868514193323
7.264,0.999990978834789,-165.44101327277863
7.272,0.9999908272240167,-165.8132189608262
7.28,0.9999906772452267,-166.18530328531193
7.288,0.9999905289141294,-166.55726732873802
7.296,0.999990382245881,-166.92911217682538
7.304,0.9999902372550954,-167.3008389184662
7.312,0.9999900939558564,-167.67244864567706
7.32,0.9999899523617328,-168.04394245355175
7.328,0.9999898124857897,-168.41532144021488
7.336,0.9999896743406005,-168.78658670677547
7.344,0.9999895379382592,-169.15773935728066
7.352,0.9999894032903952,-169.52878049866996
7.36,0.9999892704081809,-169.89971124072952
7.368,0.9999891393023466,-170.2705326960465
7.376,0.9999890099831904,-170.64124597996422
7.384,0.999988882460591,-171.01185221053663
7.392,0.9999887567440172,-171.38235250848405
7.4,0.9999886328425407,-171.75274799714822
7.4079999999999995,0.9999885107648455,-172.1230398024483
7.416,0.9999883905192386,-172.4932290528365
7.4239999999999995,0.9999882721136615,-172.8633168792543
7.432,0.9999881555556995,-173.2333044150889
7.4399999999999995,0.9999880408525934,-173.60319279612932
7.448,0.9999879280112463,-173.97298316052385
7.4559999999999995,0.9999878170382366,-174.34267664873633
7.464,0.9999877079398265,-174.71227440350395
7.4719999999999995,0.9999876007219701,-175.081777569794
7.48,0.9999874953903248,-175.4511872947622
7.4879999999999995,0.9999873919502591,-175.8205047277097
7.496,0.9999872904068619,-176.1897310200419
7.504,0.9999871907649505,-176.55886732522592
7.5120000000000005,0.9999870930290807,-176.92791479874964
7.52,0.9999869972035532,-177.2968745980798
7.5280000000000005,0.999986903292424,-177.6657478826212
7.536,0.9999868112995116,-178.03453581367535
7.5440000000000005,0.9999867212284035,-178.40323955440007
7.552,0.9999866330824663,-178.77186026976838
7.5600000000000005,0.999986546864852,-179.14039912652862
7.568,0.9999864625785052,-179.5088572931636
7.5760000000000005,0.9999863802261714,-179.8772359398512
7.584,0.9999862998104032,179.75446376157618
7.5920000000000005,0.9999862213335677,179.3862406376707
7.6,0.9999861447978536,179.01809351340907
7.6080000000000005,0.9999860702052771,178.6500212122316
7.616,0.9999859975576887,178.28202255608153
7.6240000000000006,0.9999859268567801,177.91409636544387
7.632,0.9999858581040898,177.54624145938448
7.640000000000001,0.9999857913010085,177.17845665558835
7.648,0.9999857264487871,176.81074077039855
7.656000000000001,0.99998566354854,176.44309261885408
7.664,0.9999856026012529,176.07551101472856
7.672,0.9999855436077865,175.70799477056767
7.68,0.9999854865688829,175.3405426977274
7.688,0.9999854314851702,174.97315360641167
7.696,0.9999853783571677,174.6058263057098
7.704,0.9999853271852913,174.23855960363395
7.712,0.9999852779698575,173.87135230715631
7.72,0.999985230711088,173.50420322224636
7.728,0.9999851854091154,173.13711115390754
7.736,0.999985142063986,172.7700749062144
7.744,0.999985100675665,172.403093282349
7.752,0.9999850612440397,172.03616508463762
7.76,0.999985023768925,171.66928911458706
7.768,0.9999849882500649,171.30246417292093
7.776,0.9999849546871393,170.9356890596159
7.784,0.999984923079764,170.56896257393748
7.792,0.999984893427497,170.20228351447625
7.8,0.9999848657298399,169.8356506791832
7.808,0.9999848399862434,169.4690628654058
7.816,0.9999848161961068,169.10251886992313
7.824,0.9999847943587847,168.73601748898164
7.832,0.9999847744735877,168.3695575183302
7.84,0.9999847565397847,168.00313775325532
7.848,0.9999847405566075,167.63675698861633
7.856,0.9999847265232515,167.2704140188802
7.864,0.9999847144388782,166.90410763815655
7.872,0.9999847043026189,166.53783664023226
7.88,0.9999846961135747,166.17159981860624
7.888,0.9999846898708201,165.80539596652386
7.896,0.9999846855734047,165.4392238770115
7.904,0.9999846832203539,165.073082342911
7.912,0.9999846828106723,164.70697015691368
7.92,0.9999846843433428,164.3408861115948
7.928,0.9999846878173315,163.97482899944745
7.936,0.9999846932315859,163.60879761291673
7.944,0.9999847005850376,163.24279074443348
7.952,0.9999847098766038,162.87680718644845
7.96,0.999984721105187,162.51084573146565
7.968,0.9999847342696775,162.14490517207642
7.976,0.9999847493689527,161.77898430099285
7.984,0.9999847664018802,161.41308191108143
7.992,0.9999847853673153,161.0471967953965
8.0,0.9999848062641044,160.68132774721357
8.008,0.9999848290910838,160.31547356006288
8.016,0.9999848538470802,159.94963302776245
8.024000000000001,0.9999848805309131,159.58380494445157
8.032,0.9999849091413908,159.21798810462383
8.04,0.9999849396773155,158.85218130316017
8.048,0.9999849721374787,158.48638333536192
8.056000000000001,0.9999850065206654,158.1205929969842
8.064,0.9999850428256499,157.75480908426846
8.072,0.9999850810511991,157.3890303939755
8.08,0.9999851211960695,157.02325572341834
8.088000000000001,0.999985163259009,156.65748387049516
8.096,0.999985207238754,156.29171363372222
8.104,0.999985253134032,155.92594381226604
8.112,0.9999853009435576,155.56017320597667
8.120000000000001,0.9999853506660349,155.1944006154202
8.128,0.9999854023001535,154.8286248419115
8.136,0.9999854558445915,154.46284468754655
8.144,0.9999855112980104,154.0970589552352
8.152000000000001,0.9999855686590579,153.7312664487341
8.16,0.9999856279263643,153.36546597267858
8.168,0.9999856890985421,152.9996563326156
8.176,0.9999857521741856,152.63383633503605
8.184000000000001,0.9999858171518684,152.26800478740753
8.192,0.999985884030143,151.90216049820665
8.2,0.9999859528075387,151.53630227695126
8.208,0.9999860234825608,151.1704289342331
8.216000000000001,0.9999860960536887,150.8045392817504
8.224,0.9999861705193746,150.43863213234027
8.232,0.9999862468780408,150.07270630001062
8.24,0.9999863251280805,149.70676059997314
8.248000000000001,0.9999864052678532,149.34079384867562
8.256,0.9999864872956845,148.97480486383427
8.264,0.9999865712098641,148.60879246446606
8.272,0.9999866570086433,148.24275547092125
8.280000000000001,0.999986744690234,147.8766927049159
8.288,0.9999868342528055,147.5106029895643
8.296,0.9999869256944837,147.1444851494111
8.304,0.9999870190133477,146.77833801046415
8.312,0.9999871142074288,146.4121604002269
8.32,0.9999872112747079,146.04595114773062
8.328,0.9999873102131126,145.67970908356745
8.336,0.9999874110205161,145.31343303992207
8.344,0.9999875136947339,144.94712185060536
8.352,0.999987618233522,144.58077435108584
8.36,0.999987724634574,144.21438937852315
8.368,0.9999878328955193,143.84796577179995
8.376,0.99998794301392,143.48150237155528
8.384,0.9999880549872688,143.1149980202165
8.392,0.999988168812986,142.74845156203264
8.4,0.9999882844884176,142.38186184310652
8.408,0.9999884020108318,142.0152277114282
8.416,0.9999885213774171,141.64854801690706
8.424,0.9999886425852795,141.2818216114053
8.432,0.9999887656314389,140.91504734877012
8.44,0.9999888905128281,140.5482240848674
8.448,0.9999890172262885,140.18135067761395
8.456,0.9999891457685673,139.8144259870111
8.464,0.9999892761363163,139.44744887517717
8.472,0.9999894083260874,139.08041820638113
8.48,0.9999895423343297,138.71333284707512
8.488,0.9999896781573882,138.34619166592836
8.496,0.9999898157914996,137.97899353385955
8.504,0.9999899552327896,137.6117373240709
8.512,0.99999009647727,137.24442191208087
8.52,0.9999902395208359,136.8770461757581
8.528,0.9999903843592629,136.50960899535423
8.536,0.9999905309882033,136.14210925353802
8.544,0.9999906794031843,135.7745458354283
8.552,0.9999908295996036,135.40691762862826
8.56,0.999990981572728,135.03922352325833
8.568,0.9999911353176888,134.67146241199057
8.576,0.9999912908294801,134.30363319008205
8.584,0.9999914481029542,133.935734755409
8.592,0.9999916071328204,133.56776600850023
8.6,0.9999917679136406,133.19972585257187
8.608,0.9999919304398268,132.83161319356066
8.616,0.999992094705638,132.46342694015846
8.624,0.9999922607051767,132.09516600384632
8.632,0.9999924284323867,131.72682929892878
8.64,0.9999925978810488,131.358415742568
8.648,0.9999927690447793,130.98992425481848
8.656,0.9999929419170256,130.621353758661
8.664,0.999993116491064,130.25270318003768
8.672,0.9999932927599959,129.88397144788615
8.68,0.9999934707167459,129.51515749417453
8.688,0.9999936503540573,129.14626025393585
8.696,0.9999938316644903,128.7772786653032
8.704,0.9999940146404179,128.40821166954416
8.712,0.9999941992740249,128.03905821109643
8.72,0.9999943855573019,127.66981723760205
8.728,0.9999945734820453,127.30048769994326
8.736,0.999994763039852,126.93106855227703
8.744,0.9999949542221181,126.56155875207095
8.752,0.9999951470200353,126.19195726013794
8.76,0.9999953414245877,125.8222630406723
8.768,0.9999955374265498,125.45247506128453
8.776,0.9999957350164821,125.0825922930376
8.784,0.9999959341847299,124.7126137104819
8.792,0.9999961349214198,124.34253829169165
8.8,0.999996337216457,123.97236501830008
8.808,0.9999965410595224,123.60209287553585
8.815999999999999,0.9999967464400688,123.23172085225856
8.824,0.9999969533473209,122.86124794099503
8.832,0.9999971617702699,122.49067313797552
8.84,0.9999973716976716,122.11999544316983
8.847999999999999,0.9999975831180452,121.74921386032338
8.856,0.999997796019668,121.37832739699368
8.864,0.9999980103905755,121.00733506458714
8.872,0.9999982262185576,120.63623587839511
8.879999999999999,0.9999984434911554,120.26502885763057
8.888,0.9999986621956601,119.89371302546489
8.896,0.9999988823191096,119.52228740906466
8.904,0.9999991038482869,119.15075103962845
8.911999999999999,0.9999993267697171,118.77910295242357
8.92,0.9999995510696652,118.40734218682313
8.928,0.9999997767341336,118.03546778634335
8.936,1.0,117.66347879868043
8.943999999999999,1.0,117.29137427574776
8.952,1.0,116.91915327371315
8.96,1.0,116.54681485303662
8.968,0.9999999999999999,116.17435807850744
8.975999999999999,0.9999999999999999,115.80178201928162
8.984,1.0,115.42908574891953
8.992,1.0,115.05626834542389
9.0,0.9999999999999999,114.68332889127717
9.008,1.0,114.31026647347934
9.016,1.0,113.93708018358579
9.024000000000001,1.0,113.56376911774555
9.032,0.9999999999999999,113.19033237673901
9.04,1.0,112.81676906601591
9.048,1.0,112.4430782957336
9.056000000000001,1.0,112.06925918079534
9.064,1.0000000000000002,111.69531084088857
9.072,1.0,111.3212324005229
9.08,1.0,110.94702298906869
9.088000000000001,0.9999999999999999,110.57268174079573
9.096,1.0,110.19820779491154
9.104,1.0,109.8236002955997
9.112,1.0,109.44885839205874
9.120000000000001,1.0,109.07398123854088
9.128,1.0,108.69896799439061
9.136,1.0,108.32381782408335
9.144,0.9999999999999999,107.9485298972643
9.152000000000001,0.9999999999999999,107.57310338878766
9.16,0.9999999999999999,107.19753747875522
9.168,1.0,106.8218313525552
9.176,0.9999999999999999,106.44598420090148
9.184000000000001,0.9999999999999999,106.06999521987267
9.192,1.0,105.69386361095114
9.2,1.0,105.31758858106194
9.208,1.0,104.94116934261208
9.216000000000001,1.0,104.56460511352991
9.224,0.9999999999999999,104.18789511730415
9.232,1.0,103.81103858302298
9.24,1.0,103.43403474541344
9.248000000000001,0.9999999999999999,103.05688284488096
9.256,0.9999999999999999,102.67958212754837
9.264,1.0,102.30213184529524
9.272,1.0,101.92453125579722
9.280000000000001,1.0,101.54677962256571
9.288,0.9999999999999999,101.168876214987
9.296,1.0,100.79082030836148
9.304,0.9999999999999999,100.41261118394317
9.312000000000001,1.0,100.03424812897941
9.32,1.0,99.65573043674995
9.328,0.9999999999999999,99.2770574066062
9.336,1.0,98.89822834401086
9.344,1.0,98.51924256057748
9.352,0.9999999999999999,98.14009937410925
9.36,1.0,97.76079810863912
9.368,1.0,97.38133809446833
9.376,0.9999999999999998,97.00171866820654
9.384,0.9999999999999999,96.6219391728103
9.392,1.0,96.24199895762321
9.4,0.9999999999999999,95.86189737841435
9.408,1.0000000000000002,95.48163379741816
9.416,1.0,95.10120758337301
9.424,1.0,94.72061811156107
9.432,0.9999999999999999,94.3398647638465
9.44,1.0,93.95894692871555
9.448,1.0,93.57786400131451
9.456,1.0,93.19661538348959
9.464,1.0,92.81520048382508
9.472,1.0,92.43361871768282
9.48,1.0,92.05186950724034
9.488,1.0,91.66995228153023
9.496,0.9999999999999999,91.28786647647811
9.504,0.9999999999999999,90.90561153494184
9.512,1.0,90.52318690674937
9.52,1.0,90.14059204873779
9.528,1.0,89.75782642479092
9.536,0.9999999999999999,89.37488950587831
9.544,1.0,88.99178077009262
9.552,0.9999999999999999,88.6084997026883
9.56,1.0,88.22504579611896
9.568,1.0,87.84141855007566
9.576,1.0,87.45761747152413
9.584,0.9999999999999999,87.07364207474292
9.592,0.9999999999999999,86.68949188136025
9.6,0.9999999999999998,86.30516642039197
9.608,1.0,85.92066522827815
9.616,0.9999999999999998,85.53598784892077
9.624,1.0,85.15113383372002
9.632,1.0,84.76610274161183
9.64,0.9999999999999999,84.38089413910366
9.648,0.9999999999999999,83.99550760031184
9.656,1.0,83.60994270699719
9.664,0.9999999999999999,83.22419904860175
9.672,1.0,82.83827622228429
9.68,0.9999999999999999,82.45217383295665
9.688,1.0,82.06589149331883
9.696,1.0,81.67942882389504
9.704,1.0,81.29278545306842
9.712,1.0,80.90596101711668
9.72,0.9999999999999999,80.51895516024642
9.728,0.9999999999999998,80.13176753462838
9.736,1.0,79.74439780043137
9.744,0.9999999999999999,79.35684562585713
9.752,1.0,78.96911068717371
9.76,0.9999999999999999,78.58119266874998
9.768,1.0,78.19309126308853
9.776,1.0,77.80480617085973
9.784,1.0,77.41633710093417
9.792,0.9999999999999999,77.02768377041615
9.8,0.9999999999999999,76.63884590467568
9.808,1.0,76.24982323738153
9.816,1.0,75.86061551053258
9.824,1.0,75.4712224744904
9.832,0.9999999999999999,75.08164388801009
9.84,0.9999999999999998,74.69187951827226
9.847999999999999,1.0,74.3019291409134
9.856,0.9999999999999999,73.91179254005684
9.864,1.0,73.52146950834337
9.872,0.9999999999999999,73.13095984696109
9.879999999999999,0.9999999999999999,72.74026336567513
9.888,1.0,72.3493798828572
9.896,0.9999999999999999,71.95830922551497
9.904,0.9999999999999999,71.56705122932077
