freq,mag,phase
6.0,0.9998778304600051,41.341831857164244
6.007568384,0.9998115414778463,41.16780464910336
6.01513728,0.9997558774543224,40.99465022071162
6.022705664,0.9997134414128126,40.82211042150419
6.03027456,0.9996864667937566,40.65005782309675
6.037842944,0.9996764739812886,40.478290458974016
6.045411328,0.9996840888961892,40.3064648312863
6.052980224,0.9997090022455015,40.1344608634651
6.060548608,0.9997496179550286,39.96199404649011
6.068117504,0.9998039040558264,39.7889047938638
6.075685888,0.9998687042721038,39.61501620872137
6.083254272,0.9999404518754613,39.44013947967558
6.090823168,1.0000151924827942,39.26427989749052
6.098391552,1.0000887464041266,39.08742403668365
6.105960448,1.000157048603407,38.90954157214685
6.113528832,1.0002162709599671,38.73087754599808
6.121097216,1.0002631820330858,38.551452358737514
6.128666112,1.0002951342148592,38.37147504467647
6.136234496,1.0003103043880772,38.19118287189872
6.143803392,1.0003078540088008,38.010743592172524
6.151371776,1.0002879131063664,37.83050431732403
6.15894016,1.0002517180561061,37.65062628054861
6.166509056,1.0002010946460826,37.47136894793368
6.17407744,1.0001388659796522,37.292852761415105
6.181646336,1.0000686030284918,37.11519669028528
6.18921472,0.9999939224554298,36.938527820138674
6.196783104,0.9999193221666277,36.762902917458135
6.204352,0.9998487135781026,36.588274576617046
6.211920384,0.999786139376012,36.41450393053861
6.21948928,0.9997350186062934,36.24150779292179
6.227057664,0.9996981743394522,36.06913377266154
6.234626048,0.9996777971863827,35.89710296402175
6.242194944,0.9996748975719223,35.72527320120675
6.249763328,0.9996896704852088,35.55335290963739
6.257332224,0.9997213727446266,35.381099766664754
6.264900608,0.9997682244762953,35.20827738559805
6.272469504,0.9998275267178435,35.034783141970976
6.280037888,0.9998961341528144,34.86040227893586
6.287606272,0.9999702393293971,34.6850332557942
6.295175168,1.0000455759171971,34.50862816289405
6.302743552,1.0001181101220256,34.331251463445476
6.310312448,1.0001837530891442,34.15290029269336
6.317880832,1.0002388448463884,33.97373343191656
6.325449216,1.0002802866463365,33.79392103882537
6.333018112,1.000305884551746,33.6136319294722
6.340586496,1.0003140787281453,33.43311010169383
6.348155392,1.0003045270049948,33.25260364537533
6.355723776,1.000277632999837,33.07231826807118
6.36329216,1.0002349696038688,32.89249222484958
6.370861056,1.000178837284525,32.71335249010387
6.37842944,1.0001123664943394,32.535022734849306
6.385998336,1.0000392446342548,32.35765629151419
6.39356672,0.9999634796072009,32.18128754134567
6.401135104,0.999889369252813,32.00592300876136
6.408704,0.999820941665707,31.831521555105518
6.416272384,0.9997621009710576,31.65799341014574
6.42384128,0.9997160914539325,31.48515518973602
6.431409664,0.9996853575555553,31.312910964909552
6.438978048,0.9996717673034574,31.140891794246578
6.446546944,0.9996760815157624,30.968981939296814
6.454115328,0.9996979728635766,30.796845715731898
6.461684224,0.9997363638040591,30.624282319386595
6.469252608,0.9997890049021743,30.45114704902133
6.476820992,0.999853025557071,30.27718897917349
6.484389888,0.9999249161436352,30.10230464371636
6.491958272,1.0000006731249456,29.926391426099624
6.499527168,1.0000760060196883,29.74947796185119
6.507095552,1.0001468814834666,29.571526305117516
6.514663936,1.0002091851846462,29.392715979143258
6.522232832,1.000259578664853,29.213124963564937
6.529801216,1.000295198026315,29.032914617074173
6.537370112,1.000314132198094,28.852361030226074
6.544938496,1.00031517716723,28.6716271859909
6.55250688,1.0002984433377209,28.490996287768752
6.560075776,1.000264661743833,28.31070918276263
6.56764416,1.0002158588793697,28.130985335032406
6.575213056,1.0001545602511213,27.95201751480621
6.58278144,1.0000843838458755,27.773933377315032
6.590349824,1.0000090109754944,27.59681430860697
6.59791872,0.9999328247849162,27.420742270235944
6.605487104,0.9998598569695846,27.24566820281674
6.613056,0.999794266642947,27.071521404900082
6.620624384,0.9997397592309853,26.898203680830637
6.628192768,0.9996992316457981,26.725540077172795
6.635761664,0.9996750056709665,26.553302600734117
6.643330048,0.9996685731111331,26.381247863210486
6.650898944,0.9996801004056266,26.209174258140674
6.658467328,0.9997091119756238,26.036831060478523
6.666035712,0.999753843381992,25.863949522736647
6.673604608,0.9998119277691154,25.690385983775926
6.681172992,0.9998802040081703,25.515951556394036
6.688741888,0.9999547570434794,25.34055048930731
6.696310272,1.0000316013537103,25.164113204825245
6.703878656,1.0001063024579884,24.98664753567472
6.711447552,1.0001747754625834,24.80820149286879
6.719015936,1.0002332183428921,24.62888938678518
6.726584832,1.0002783249941412,24.44886349489186
6.734153216,1.0003077263809625,24.268297199297194
6.7417216,1.0003196537166277,24.08745227196495
6.749290496,1.000313484075131,23.906584679857474
6.75685888,1.000289524592524,23.72593437299821
6.764427776,1.0002490779038105,23.54567439051624
6.77199616,1.0001944301582066,23.366079934836023
6.779565056,1.0001286170334327,23.18727621618843
6.78713344,1.0000551007876712,23.009452032727452
6.794701824,0.9999782251282726,22.832598675054356
6.80227072,0.999902100633846,22.656784686679707
6.809839104,0.9998309832920512,22.48199647401028
6.817408,0.9997688698045167,22.308096718865844
6.824976384,0.9997191112868369,22.1349463356002
6.832544768,0.9996846237286475,21.962397187999304
6.840113664,0.9996672931679887,21.790150859071346
6.847682048,0.9996680770530925,21.618035635725107
6.855250944,0.9996868958830006,21.445779851133103
6.862819328,0.9997227626700507,21.27319568283966
6.870387712,0.9997737477854987,21.099929688816516
6.877956608,0.9998369642862974,20.925931417451217
6.885524992,0.9999089048722872,20.751014249252552
6.893093888,0.9999855492979581,20.575079522713775
6.900662272,1.0000626775341621,20.398079684974203
6.908230656,1.0001360250952207,20.220034486196063
6.915799552,1.0002015148283667,20.041080148750275
6.923367936,1.0002555465473746,19.861299439244377
6.930936832,1.0002950080986062,19.68086357053823
6.938505216,1.0003176665192695,19.500007883576135
6.9460736,1.0003224175231658,19.318942273327387
6.953642496,1.0003089554368234,19.137952915907
6.96121088,1.000277897045566,18.957248587496718
6.968779776,1.0002309823981765,18.777055434125348
6.97634816,1.0001707762461038,18.597578675524602
6.983916544,1.0001008345775884,18.418998523117903
6.99148544,1.000024744281342,18.241422830321635
6.999053824,0.9999469078929839,18.064878192191472
7.00662272,0.9998716347402284,17.88935654605362
7.014191104,0.9998030394807274,17.714806312835012
7.021759488,0.999744952247621,17.541125058197796
7.029328384,0.9997006494647639,17.368130262721863
7.036896768,0.9996725610690206,17.195616227257673
7.044465664,0.9996623196204867,17.02338473415872
7.052034048,0.9996704715804451,16.85115475425672
7.059602432,0.9996965698604265,16.678658393997623
7.067171328,0.9997391536591629,16.50573297972582
7.074739712,0.999795857820725,16.332091843755908
7.082308608,0.9998636203819076,16.15761583774408
7.089876992,0.9999387263853017,15.982171790586786
7.097445376,1.0000168334329413,15.805678993407998
7.105014272,1.000093760009468,15.628108127092835
7.112582656,1.0001651588321545,15.44954473100717
7.120151552,1.0002270203511314,15.270054950976771
7.127719936,1.0002759172101,15.089802344243296
7.13528832,1.000309291880249,14.909009997096298
7.142857216,1.0003250046646783,14.727853146257852
7.1504256,1.000322418572633,14.546614732348335
7.157994496,1.0003014699091615,14.365513221208719
7.16556288,1.0002634685184844,14.184824801717093
7.173131264,1.0002104222919805,14.004719056801823
7.18070016,1.0001452821622108,13.825452630216699
7.188268544,1.0000716435214725,13.647102495691971
7.19583744,0.9999936239565507,13.469745306164965
7.203405824,0.9999155197808423,13.293493198373366
7.210974208,0.9998416460364261,13.118246061611277
7.218543104,0.9997761917305621,12.943961356112556
7.226111488,0.9997227728774453,12.770452048310075
7.233680384,0.9996842654642111,12.597615335836405
7.241248768,0.9996630842603889,12.425113362427524
7.248817152,0.9996600736157202,12.252804272516592
7.256386048,0.9996756752859633,12.080381789856439
7.263954432,0.9997089386934686,11.907640511687417
7.271523328,0.9997579889439892,11.734342349449928
7.279091712,0.9998202460627877,11.560291726631064
7.286660608,0.9998921475379844,11.385311019141398
7.294228992,0.9999697229338032,11.209319259551238
7.301797376,1.0000486852563326,11.032259061922794
7.309366272,1.0001245639835812,10.854101703935383
7.316934656,1.000193283415075,10.674988235072176
7.324503552,1.000250955393906,10.494992703374772
7.332071936,1.0002943454435176,10.314358831997993
7.33964032,1.000321116292105,10.13318632852999
7.347209216,1.0003296383779772,9.95177199687383
7.3547776,1.00031949074309,9.77037281547968
7.362346496,1.0002912805163853,9.589203767840722
7.36991488,1.0002464837126868,9.408546878531938
7.377483264,1.0001876608594749,9.228600284243626
7.38505216,1.0001178492202976,9.049512662046926
7.392620544,1.000041208688635,8.871371961918857
7.40018944,0.9999617724122835,8.694341851653348
7.407757824,0.9998841195062375,8.518350019543128
7.415326208,0.9998123442504441,8.343367016935199
7.422895104,0.9997507052104907,8.169284758328665
7.430463488,0.9997025103738787,7.995968870150965
7.438032384,0.999670334701634,7.823169967254436
7.445600768,0.9996561612082611,7.650672950805242
7.453169152,0.9996607363089322,7.478281475669814
7.460738048,0.9996837999329585,7.305653296993174
7.468306432,0.9997240896489166,7.132613843725409
7.475875328,0.9997793399526645,6.958921882364488
7.483443712,0.999846543975818,6.784386110138653
7.491012096,0.9999219808390722,6.608884408615811
7.498580992,1.0000015443145576,6.43229561773216
7.506149376,1.0000806347077966,6.254662144022497
7.513718272,1.0001548754821743,6.075953829243009
7.521286656,1.0002202440361814,5.89629616413796
7.52885504,1.0002731432125744,5.71583045893429
7.536423936,1.0003104130053309,5.534759569168137
7.54399232,1.0003302559056009,5.353266079900172
7.551561216,1.000331353290942,5.171633023971067
7.5591296,1.000313634101627,4.9900998768520575
7.566697984,1.000278199071563,4.808926284971748
7.57426688,1.0002269376935038,4.628337572198079
7.581835264,1.0001625242432022,4.448515290808078
7.58940416,1.0000888308343272,4.269630052632847
7.596972544,1.000009689965913,4.091805751730895
7.604540928,0.9999296016699343,3.9149999598674294
7.612109824,0.9998529839927874,3.7393026254243873
7.619678208,0.9997841056713774,3.5645765393149205
7.627247104,0.9997267984848768,3.390697608160766
7.634815488,0.9996843610561019,3.217520736716239
7.642383872,0.9996589280185456,3.0447724469600836
7.649952768,0.999652077826393,2.872228434106309
7.657521152,0.9996642470848702,2.699669759607884
7.665090048,0.9996947931474813,2.526809914332277
7.672658432,0.9997418671979916,2.353424608802619
7.680226816,0.9998029939412265,2.1792599093356833
7.687795712,0.9998747313337059,2.0042423713782855
7.695364096,0.9999530484801625,1.8281719250479764
7.702932992,1.0000338082964269,1.6510204244652213
7.710501376,1.0001124147633753,1.4727801902701683
7.71806976,1.0001843537398722,1.2934891962365807
7.725638656,1.0002458030692742,1.1133104189029999
7.73320704,1.0002933712198487,0.9323653961367435
7.740775936,1.000324207591156,0.7509096970824425
7.74834432,1.0003366440961592,0.5691262560641748
7.755913216,1.0003301735466041,0.3872833823856648
7.7634816,1.0003049439058365,0.20565732932196448
7.771049984,1.0002623520913883,0.02452772540990432
7.77861888,1.0002048135502624,-0.15600288568016676
7.786187264,1.0001356503988799,-0.3355996014631547
7.79375616,1.00005840090691,-0.5142532442098883
7.801324544,0.9999773544817272,-0.6918486800965434
7.808892928,0.9998972763277941,-0.8683563435194009
7.816461824,0.9998224659133441,-1.0437961550865718
7.824030208,0.9997571466511731,-1.2182872114855356
7.831599104,0.9997047568821005,-1.392000519116037
7.839167488,0.9996684611004087,-1.5650775588272179
7.846735872,0.9996501578599867,-1.7377988678539669
7.854304768,0.999650953576813,-1.9104141357090643
7.861873152,0.9996707557986871,-2.0831726508936486
7.869442048,0.9997085697847498,-2.256321827027644
7.877010432,0.9997622295425246,-2.430147935356199
7.884578816,0.9998288002675207,-2.6047189954226315
7.892147712,0.9999045694292975,-2.780295312023959
7.899716096,0.9999854132318352,-2.9569510785956865
7.907284992,1.0000665261467627,-3.134718776602899
7.914853376,1.0001438626066848,-3.3135508314358555
7.92242176,1.0002129386413299,-3.4933921859444084
7.929990656,1.0002698099483243,-3.6740965153837335
7.93755904,1.0003113309840264,-3.855464897961267
7.945127936,1.0003353408618079,-4.037311444094366
7.95269632,1.0003403497823227,-4.2193558701317295
7.960264704,1.0003261298879462,-4.401326475631125
7.9678336,1.0002933640021672,-4.583005492308474
7.975401984,1.000244000930082,-4.764133205556303
7.98297088,1.0001806096961756,-4.944501564391454
7.990539264,1.0001068460474811,-5.1239362705885085
7.998107648,1.0000265899489584,-5.302348452756117
8.005676544,0.9999445542030665,-5.47965452532776
8.013244928,0.9998651079135503,-5.655855968735078
8.020813824,0.9997927240838209,-5.831042374261603
8.028382208,0.9997315222319221,-6.005325201943253
8.035950592,0.9996846609681691,-6.1788625585974755
8.043519488,0.9996550794838593,-6.35189580292025
8.051087872,0.9996441783535817,-6.524648934248968
8.058656768,0.9996527791860169,-6.6974197351601585
8.066225152,0.9996802891960389,-6.870402055353407
8.073793536,0.9997251600731019,-7.043912484313012
8.081362432,0.9997850798290718,-7.218136902908922
8.088930816,0.9998565787742774,-7.393264315688926
8.096499712,0.9999357294749047,-7.5694003018229585
8.104068096,1.0000182192981129,-7.746658085341547
8.11163648,1.0000993204472406,-7.924997136638473
8.119205376,1.0001746868740011,-8.10446428643086
8.12677376,1.000240104342792,-8.28484892319708
8.134342656,1.0002918317478093,-8.466050545445116
8.14191104,1.0003269521439455,-8.647858807483276
8.149479424,1.0003437870345455,-8.830005824630094
8.15704832,1.0003409725907813,-9.012295086426649
8.164616704,1.000319009870158,-9.194394966067168
8.1721856,1.0002789147096647,-9.376094176076894
8.179753984,1.0002228992037343,-9.55717207591307
8.187322368,1.0001541008458303,-9.737348211712494
8.194891264,1.0000763235484866,-9.916558594662572
8.202459648,0.9999939647185466,-10.09469809512545
8.210028544,0.9999113343367892,-10.271752715048208
8.217596928,0.9998332397379059,-10.447672259338436
8.225165312,0.9997640667618864,-10.622610831713553
8.232734208,0.9997075910916913,-10.796708268509782
8.240302592,0.9996668793522543,-10.970134387692362
8.247871488,0.9996443433226174,-11.143156131742922
8.255439872,0.9996410433816625,-11.316000959636106
8.263008768,0.9996575551120397,-11.488916634280473
8.270577152,0.999692652048511,-11.662209934525121
8.278145536,0.9997444598557971,-11.836093153340997
8.285714432,0.9998102014849054,-12.010770423069856
8.293282816,0.9998862143251641,-12.18641119599242
8.300851712,0.9999682028196317,-12.363155642644871
8.308420096,1.000051621571148,-12.541027201789602
8.31598848,1.0001319914002595,-12.720021180860607
8.323557376,1.0002047149544284,-12.900060663780414
8.33112576,1.0002657421791545,-13.080999831781156
8.338694656,1.000311714803269,-13.262693202760293
8.34626304,1.000340304402491,-13.444899975641462
8.353831424,1.0003493110276722,-13.62736635307407
8.36140032,1.0003387337189913,-13.809822521513379
8.368968704,1.0003089763436015,-13.992006988659758
8.3765376,1.0002615483146482,-14.173685086781687
8.384105984,1.0001992982465633,-14.35462961534333
8.391674368,1.0001256392866111,-14.534665523428346
8.399243264,1.0000443845766307,-14.713657093107516
8.406811648,0.9999603652984179,-14.891518678658981
8.414380544,0.9998780531362025,-15.068259197232045
8.421948928,0.9998021706599696,-15.243949504430098
8.429517312,0.9997367116546627,-15.418656495469778
8.437086208,0.9996855958457573,-15.59259113015527
8.444654592,0.9996514492231463,-15.765903494229375
8.452223488,0.9996363570062956,-15.938962678960943
8.459791872,0.9996409899944083,-16.11191393353723
8.467360256,0.9996652971479998,-16.285058797157987
8.474929152,0.9997079818677419,-16.458697822710104
8.482497536,0.9997663080370249,-16.632987004553083
8.490066432,0.9998374860048483,-16.80818560325068
8.497634816,0.9999174563494917,-16.98439938583294
8.5052032,1.0000015931281319,-17.161777772735437
8.512772096,1.0000854990764272,-17.340257096396225
8.52034048,1.0001643186727105,-17.519854794737114
8.527909376,1.0002337450621146,-17.70052100854792
8.53547776,1.0002898105142397,-17.88198204235722
8.543046144,1.0003295626025044,-18.06412313693664
8.55061504,1.0003507552245328,-18.246719140115268
8.558183424,1.0003519774740557,-18.429439788696378
8.56575232,1.0003333883072953,-18.612043069773257
8.573320704,1.0002958754216635,-18.79430221827915
8.580889088,1.0002416531726626,-18.975946360016028
8.588457984,1.0001734130947728,-19.156750008755058
8.596026368,1.0000952380901067,-19.336586868241096
8.603594752,1.000011328261471,-19.515310116979624
8.61116416,0.9999263406164152,-19.69288853901412
8.618732544,0.9998449030931112,-19.86936426198717
8.626300928,0.999771862860142,-20.04479900189585
8.633869312,0.9997109391544848,-20.219300662476478
8.641437696,0.9996656955265871,-20.393084105771536
8.649007104,0.9996385633025647,-20.566405361870913
8.656575488,0.9996312528259332,-20.739488167150522
8.664143872,0.999643937346823,-20.91260443363481
8.671712256,0.9996762172782806,-21.086027062284202
8.67928064,0.9997260496688628,-21.260013972236433
8.686850048,0.9997907749240793,-21.434801014576077
8.694418432,0.9998669158639063,-21.610537153912986
8.701986816,0.9999500326274953,-21.787378154128227
8.7095552,1.0000358247510104,-21.96535158066489
8.717123584,1.0001192919280522,-22.14449720625305
8.724692992,1.0001959127790525,-22.324744065095448
8.732261376,1.0002612021067778,-22.505951310125695
8.73982976,1.0003118565024547,-22.687961729644826
8.747398144,1.0003447883259085,-22.870540518919444
8.754966528,1.000358281992805,-23.053446517555663
8.762535936,1.0003515255063804,-23.236403348640604
8.77010432,1.0003249939506162,-23.419133398181543
8.777672704,1.0002799859256717,-23.601440800698843
8.785241088,1.0002190042058128,-23.782977731968916
8.792809472,1.0001453029505958,-23.963627363839525
8.80037888,1.0000632823781996,-24.143236523696064
8.807947264,0.9999772008521326,-24.321709616058584
8.815515648,0.9998920400028278,-24.499016664727222
8.823084032,0.9998122781008308,-24.675201085425808
8.830652416,0.9997426930343627,-24.850387664550254
8.838221824,0.9996868968464434,-25.024712831984086
8.845790208,0.9996480494658935,-25.198412270434392
8.853358592,0.9996283524207679,-25.371709142197783
8.860926976,0.9996290731388726,-25.544897459036736
8.86849536,0.9996499268701451,-25.71822772622988
8.876064768,0.999689958135698,-25.891974565525032
8.883633152,0.9997468093461974,-26.06638190041889
8.891201536,0.9998175654129757,-26.24167056312556
8.89876992,0.9998981101241278,-26.41799593790485
8.906338304,0.9999840552035102,-26.59545057921725
8.913907712,1.0000706442862444,-26.774078294571872
8.921476096,1.0001529664300868,-26.953877521594404
8.92904448,1.0002266017249326,-27.134755363533294
8.936612864,1.0002872075856464,-27.31652141436432
8.944181248,1.000331837245809,-27.49902849049477
8.951750656,1.0003575801747278,-27.68202169008316
8.95931904,1.000363130854367,-27.865238581734495
8.966887424,1.0003482533030448,-28.048379439356744
8.974455808,1.0003136121596885,-28.231240857193896
8.982024192,1.0002611467343947,-28.41347895652597
8.9895936,1.0001938881978465,-28.594935398125443
8.997161984,1.0001153051584324,-28.77539954719176
9.004730368,1.0000298939480785,-28.95474111860182
9.012298752,0.9999425049946797,-29.132956949957446
9.019867136,0.9998576047817563,-29.30998021368387
9.027436544,0.9997804917651963,-29.4858959158646
9.035004928,0.9997150030060001,-29.66087100640889
9.042573312,0.9996649458596493,-29.83507000502976
