freq,mag,phase
6.0,0.9999972062418133,112.9805526402565
6.008,0.9999978901169534,112.88121072445075
6.016,0.9999985501840312,112.78182880336213
6.024,0.9999991868088426,112.68240680555658
6.032,0.99999980035499,112.58294465954552
6.04,1.0,112.48344229378645
6.048,1.0,112.38389963668358
6.056,1.0,112.28431661658827
6.064,1.0,112.18469316179979
6.072,1.0,112.08502920056581
6.08,1.0,111.98532466108303
6.088,1.0,111.88557947149775
6.096,0.9999999999999999,111.78579355990651
6.104,0.9999999999999999,111.68596685435666
6.112,0.9999999999999999,111.58609928284699
6.12,1.0,111.48619077332826
6.128,1.0,111.38624125370394
6.136,1.0,111.28625065183074
6.144,1.0,111.18621889551925
6.152,1.0,111.0861459125345
6.16,0.9999999999999999,110.98603163059671
6.168,1.0,110.88587597738186
6.176,0.9999999999999999,110.78567888052217
6.184,0.9999999999999999,110.68544026760704
6.192,0.9999999999999999,110.58516006618338
6.2,1.0,110.48483820375644
6.208,0.9999999999999998,110.38447460779042
6.216,1.0000000000000002,110.28406920570902
6.224,0.9999999999999999,110.18362192489622
6.232,1.0,110.08313269269684
6.24,0.9999999999999999,109.98260143641726
6.248,1.0,109.882028083326
6.256,1.0,109.78141256065449
6.264,1.0,109.68075479559765
6.272,1.0,109.5800547153146
6.28,1.0,109.4793122469293
6.288,1.0,109.37852731753128
6.296,1.0,109.2776998541763
6.304,0.9999999999999999,109.17682978388703
6.312,0.9999999999999999,109.07591703365372
6.32,1.0,108.97496153043492
6.328,1.0,108.87396320115818
6.336,1.0,108.77292197272075
6.344,1.0,108.67183777199027
6.352,0.9999999999999999,108.57071052580548
6.36,0.9999999999999999,108.46954016097696
6.368,0.9999999999999999,108.36832660428784
6.376,1.0,108.26706978249449
6.384,0.9999999999999999,108.16576962232726
6.392,1.0,108.06442605049128
6.4,0.9999999999999999,107.96303899366708
6.408,0.9999999999999999,107.86160837851139
6.416,1.0,107.7601341316579
6.424,1.0,107.65861617971804
6.432,1.0,107.55705444928157
6.44,1.0,107.45544886691752
6.448,1.0,107.35379935917491
6.456,1.0,107.25210585258344
6.464,0.9999999999999999,107.15036827365437
6.472,0.9999999999999999,107.04858654888119
6.48,1.0,106.94676060474048
6.4879999999999995,1.0,106.8448903676927
6.496,1.0,106.74297576418287
6.504,0.9999999999999999,106.64101672064159
6.5120000000000005,1.0,106.53901316348558
6.52,1.0,106.4369650191187
6.5280000000000005,0.9999999999999999,106.33487221393263
6.536,0.9999999999999998,106.23273467430775
6.5440000000000005,1.0,106.13055232661394
6.552,1.0,106.02832509721149
6.5600000000000005,1.0,105.92605291245174
6.568,0.9999999999999999,105.82373569867819
6.5760000000000005,1.0,105.72137338222706
6.584,0.9999999999999999,105.61896588942842
6.592,1.0,105.51651314660681
6.6,1.0,105.41401508008224
6.608,1.0,105.31147161617106
6.616,1.0,105.20888268118676
6.624,1.0,105.10624820144092
6.632,1.0,105.00356810324402
6.64,1.0,104.90084231290643
6.648,0.9999999999999998,104.79807075673928
6.656,1.0,104.69525336105531
6.664,0.9999999999999999,104.59239005216983
6.672,1.0,104.48948075640163
6.68,1.0,104.38652540007392
6.688,1.0,104.28352390951525
6.696,1.0,104.18047621106042
6.704,1.0,104.07738223105146
6.712,0.9999999999999999,103.97424189583859
6.72,1.0,103.87105513178115
6.728,1.0,103.76782186524854
6.736,0.9999999999999998,103.66454202262128
6.744,0.9999998270385045,103.5612155302919
6.752,0.9999995663509035,103.45784231466598
6.76,0.9999993060281498,103.35442230216314
6.768,0.9999990462175042,103.25095541921796
6.776,0.999998787063756,103.14744159228111
6.784,0.9999985287092245,103.04388074782028
6.792,0.9999982712937557,102.94027281232125
6.8,0.999998014954725,102.83661771228886
6.808,0.9999977598270324,102.73291537424808
6.816,0.9999975060431046,102.62916572474508
6.824,0.9999972537328929,102.52536869034823
6.832,0.9999970030238743,102.42152419764923
6.84,0.9999967540410492,102.31763217326407
6.848,0.9999965069069424,102.2136925438342
6.856,0.999996261741603,102.10970523602755
6.864,0.9999960186626035,102.00567017653967
6.872,0.9999957777850402,101.90158729209477
6.88,0.9999955392215337,101.79745650944687
6.888,0.9999953030822288,101.69327775538093
6.896,0.9999950694747946,101.58905095671386
6.904,0.9999948385044258,101.4847760402958
6.912,0.9999946102738426,101.38045293301113
6.92,0.9999943848832917,101.27608156177972
6.928,0.9999941624305474,101.17166185355798
6.936,0.999993943010912,101.06719373534008
6.944,0.9999937267172173,100.96267713415915
6.952,0.9999935136398265,100.85811197708834
6.96,0.9999933038666341,100.75349819124214
6.968,0.999993097483069,100.64883570377752
6.976,0.9999928945720958,100.54412444189506
6.984,0.9999926952142155,100.4393643328403
6.992,0.9999924994874695,100.3345553039048
7.0,0.9999923074674401,100.22969728242757
7.008,0.9999921192272535,100.12479019579604
7.016,0.9999919348375829,100.01983397144757
7.024,0.9999917543666494,99.91482853687049
7.032,0.999991577880228,99.8097738196055
7.04,0.9999914054416463,99.70466974724688
7.048,0.9999912371117919,99.59951624744376
7.056,0.9999910729491133,99.49431324790139
7.064,0.9999909130096241,99.38906067638253
7.072,0.9999907573469071,99.28375846070861
7.08,0.9999906060121181,99.17840652876114
7.088,0.9999904590539895,99.07300480848305
7.096,0.9999903165188362,98.96755322787986
7.104,0.9999901784505588,98.86205171502121
7.112,0.9999900448906489,98.75650019804206
7.12,0.9999899158781937,98.65089860514412
7.128,0.9999897914498832,98.54524686459719
7.136,0.9999896716400125,98.43954490474049
7.144,0.9999895564804905,98.33379265398406
7.152,0.9999894460008444,98.2279900408102
7.16,0.9999893402282262,98.12213699377476
7.168,0.9999892391874194,98.01623344150859
7.176,0.9999891429008453,97.91027931271897
7.184,0.9999890513885709,97.80427453619099
7.192,0.999988964668315,97.69821904078896
7.2,0.9999888827554566,97.59211275545786
7.208,0.9999888056630426,97.48595560922482
7.216,0.9999887334017955,97.37974753120045
7.224,0.9999886659801227,97.27348845058043
7.232,0.9999886034041239,97.16717829664687
7.24,0.9999885456776013,97.06081699876977
7.248,0.9999884928020679,96.95440448640859
7.256,0.9999884447767586,96.84794068911363
7.264,0.9999884015986384,96.74142553652754
7.272,0.9999883632624134,96.63485895838687
7.28,0.9999883297605416,96.52824088452348
7.288,0.9999883010832442,96.42157124486607
7.296,0.9999882772185157,96.31484996944175
7.304,0.9999882581521363,96.2080769883775
7.312,0.999988243867684,96.10125223190167
7.32,0.9999882343465459,95.99437563034557
7.328,0.999988229567933,95.88744711414495
7.336,0.9999882295088908,95.78046661384157
7.344,0.9999882341443143,95.67343406008469
7.352,0.999988243446961,95.5663493836327
7.36,0.9999882573874664,95.45921251535457
7.368,0.9999882759343574,95.3520233862315
7.376,0.9999882990540676,95.24478192735836
7.384,0.9999883267109528,95.1374880699454
7.392,0.9999883588673069,95.0301417453197
7.4,0.9999883954833791,94.9227428849267
7.4079999999999995,0.9999884365173887,94.81529142033196
7.416,0.9999884819255435,94.70778728322244
7.4239999999999995,0.9999885316620575,94.60023040540841
7.432,0.9999885856791683,94.49262071882467
7.4399999999999995,0.9999886439271565,94.38495815553246
7.448,0.9999887063543632,94.27724264772074
7.4559999999999995,0.9999887729072113,94.16947412770797
7.464,0.9999888435302239,94.0616525279436
7.4719999999999995,0.9999889181660456,93.95377778100959
7.48,0.9999889967554624,93.84584981962212
7.4879999999999995,0.9999890792374244,93.73786857663308
7.496,0.9999891655490669,93.62983398503151
7.504,0.9999892556257326,93.5217459779455
7.5120000000000005,0.9999893494009952,93.41360448864334
7.52,0.9999894468066816,93.30540945053544
7.5280000000000005,0.9999895477728973,93.19716079717561
7.536,0.9999896522280507,93.0888584622628
7.5440000000000005,0.9999897600988763,92.98050237964254
7.552,0.9999898713104627,92.87209248330853
7.5600000000000005,0.9999899857862774,92.76362870740408
7.568,0.9999901034481932,92.65511098622379
7.5760000000000005,0.9999902242165164,92.54653925421489
7.584,0.9999903480100137,92.43791344597896
7.5920000000000005,0.9999904747459412,92.32923349627316
7.6,0.999990604340073,92.22049934001198
7.6080000000000005,0.9999907367067307,92.11171091226853
7.616,0.9999908717588134,92.00286814827616
7.6240000000000006,0.9999910094078289,91.89397098342977
7.632,0.9999911495639244,91.78501935328737
7.640000000000001,0.9999912921359186,91.6760131935714
7.648,0.9999914370313345,91.56695244017034
7.656000000000001,0.9999915841564316,91.45783702913981
7.664,0.9999917334162406,91.34866689670433
7.672,0.9999918847145969,91.2394419792583
7.68,0.9999920379541763,91.13016221336765
7.688,0.9999921930365301,91.02082753577108
7.696,0.9999923498621205,90.91143788338128
7.704,0.9999925083303594,90.80199319328638
7.712,0.9999926683396437,90.6924934027511
7.72,0.9999928297873946,90.58293844921812
7.728,0.9999929925700951,90.4733282703092
7.736,0.9999931565833314,90.36366280382643
7.744,0.9999933217218306,90.25394198775341
7.752,0.9999934878795022,90.14416576025644
7.76,0.9999936549494791,90.03433405968562
7.768,0.99999382282416,89.9244468245759
7.776,0.9999939913952512,89.81450399364824
7.784,0.9999941605538096,89.70450550581066
7.792,0.9999943301902862,89.59445130015911
7.8,0.9999945001945719,89.48434131597865
7.808,0.9999946704560405,89.37417549274424
7.816,0.9999948408635957,89.26395377012172
7.824,0.9999950113057164,89.15367608796869
7.832,0.9999951816705035,89.04334238633535
7.84,0.9999953518457279,88.93295260546529
7.848,0.9999955217188778,88.82250668579626
7.856,0.9999956911772081,88.71200456796089
7.864,0.9999958601077884,88.6014461927874
7.872,0.9999960283975542,88.49083150130024
7.88,0.9999961959333556,88.38016043472061
7.888,0.9999963626020096,88.26943293446716
7.896,0.999996528290351,88.1586489421564
7.904,0.9999966928852838,88.04780839960314
7.912,0.9999968562738349,87.93691124882096
7.92,0.9999970183432064,87.8259574320226
7.928,0.9999971789808288,87.71494689162017
7.936,0.9999973380744169,87.60387957022553
7.944,0.9999974955120218,87.49275541065039
7.952,0.9999976511820878,87.38157435590654
7.96,0.9999978049735083,87.2703363492059
7.968,0.9999979567756794,87.15904133396062
7.976,0.9999981064785586,87.04768925378299
7.984,0.9999982539727215,86.93628005248542
7.992,0.9999983991494166,86.82481367408022
8.0,0.999998541900627,86.71329006277954
8.008,0.9999986821191248,86.601709162995
8.016,0.9999988196985309,86.49007091933731
8.024000000000001,0.999998954533374,86.37837527661607
8.032,0.9999990865191488,86.26662217983915
8.04,0.9999992155523765,86.15481157421219
8.048,0.9999993415306621,86.042943405138
8.056000000000001,0.9999994643527568,85.93101761821595
8.064,0.999999583918616,85.81903415924123
8.072,0.9999997001294612,85.70699297420391
8.08,0.9999998128878382,85.5948940092882
8.088000000000001,0.9999999220976796,85.4827372108714
8.096,0.9999999999999999,85.370522525523
8.104,1.0,85.25824990000334
8.112,1.0,85.1459192812626
8.120000000000001,1.0,85.03353061643949
8.128,1.0,84.92108385285992
8.136,0.9999999999999999,84.80857893803548
8.144,1.0,84.69601581966197
8.152000000000001,1.0,84.5833944456179
8.16,0.9999999999999999,84.47071476396276
8.168,1.0,84.3579767229351
8.176,1.0,84.24518027095095
8.184000000000001,0.9999999999999999,84.13232535660173
8.192,0.9999999999999999,84.01941192865226
8.2,1.0,83.90643993603868
8.208,1.0000000000000002,83.79340932786619
8.216000000000001,1.0,83.68032005340692
8.224,0.9999999999999999,83.56717206209743
8.232,0.9999999999999999,83.45396530353628
8.24,1.0,83.34069972748152
8.248000000000001,1.0,83.22737528384809
8.256,1.0,83.11399192270505
8.264,1.0,83.00054959427275
8.272,0.9999999999999999,82.88704824892
8.280000000000001,1.0,82.773487837161
8.288,1.0,82.65986830965244
8.296,0.9999999999999999,82.54618961719008
8.304,0.9999999999999999,82.43245171070566
8.312,0.9999999999999999,82.31865454126364
8.32,0.9999999999999999,82.20479806005753
8.328,1.0,82.0908822184066
8.336,0.9999999999999999,81.97690696775214
8.344,1.0,81.8628722596539
8.352,0.9999999999999999,81.74877804578612
8.36,1.0,81.63462427793397
8.368,1.0,81.52041090798924
8.376,0.9999999999999999,81.4061378879467
8.384,0.9999999999999999,81.29180516989969
8.392,0.9999999999999999,81.17741270603612
8.4,0.9999999999999999,81.06296044863414
8.408,1.0,80.94844835005783
8.416,1.0,80.83387636275269
8.424,0.9999999999999999,80.71924443924134
8.432,0.9999999999999999,80.60455253211875
8.44,1.0,80.4898005940478
8.448,0.9999999896397551,80.37498857775435
8.456,0.9999998682652373,80.2601164360228
8.464,0.9999997414581734,80.14518412169087
8.472,0.9999996092541894,80.03019158764505
8.48,0.9999994716926711,79.91513878681538
8.488,0.9999993288167809,79.80002567217063
8.496,0.9999991806734755,79.68485219671312
8.504,0.9999990273135171,79.5696183134737
8.512,0.9999988687914861,79.45432397550634
8.52,0.9999987051657914,79.3389691358833
8.528,0.999998536498676,79.22355374768951
8.536,0.9999983628562222,79.10807776401744
8.544,0.999998184308357,78.99254113796172
8.552,0.9999980009288479,78.87694382261381
8.56,0.9999978127953055,78.76128577105646
8.568,0.9999976199891766,78.64556693635848
8.576,0.9999974225957388,78.52978727156902
8.584,0.9999972207040907,78.4139467297123
8.592,0.9999970144071408,78.298045263782
8.6,0.9999968038015944,78.1820828267358
8.608,0.9999965889879343,78.06605937148976
8.616,0.9999963700704062,77.94997485091292
8.624,0.9999961471569928,77.83382921782163
8.632,0.9999959203593929,77.71762242497411
8.64,0.9999956897929929,77.60135442506484
8.648,0.9999954555768379,77.48502517071915
8.656,0.9999952178336007,77.36863461448758
8.664,0.999994976689546,77.2521827088405
8.672,0.999994732274494,77.13566940616252
8.68,0.999994484721781,77.01909465874725
8.688,0.9999942341682155,76.90245841879164
8.696,0.9999939807540356,76.78576063839084
8.704,0.9999937246228578,76.66900126953267
8.712,0.9999934659216307,76.55218026409248
8.72,0.9999932048005793,76.43529757382781
8.728,0.99999294141315,76.31835315037323
8.736,0.9999926759159526,76.20134694523524
8.744,0.9999924084687001,76.08427890978719
8.752,0.9999921392341444,75.96714899526422
8.76,0.9999918683780105,75.84995715275844
8.768,0.9999915960689292,75.73270333321395
8.776,0.9999913224783634,75.6153874874222
8.784,0.9999910477805392,75.49800956601716
8.792,0.9999907721523646,75.38056951947092
8.8,0.9999904957733555,75.26306729808894
8.808,0.9999902188255528,75.14550285200588
8.815999999999999,0.9999899414934399,75.0278761311811
8.824,0.9999896639638569,74.91018708539463
8.832,0.9999893864259136,74.79243566424297
8.84,0.9999891090708993,74.67462181713525
8.847999999999999,0.9999888320921908,74.55674549328926
8.856,0.9999885556851585,74.43880664172772
8.864,0.9999882800470692,74.32080521127487
8.872,0.9999880053769895,74.20274115055284
8.879999999999999,0.9999877318756846,74.08461440797836
8.888,0.9999874597455153,73.96642493175956
8.896,0.9999871891903366,73.848172669893
8.904,0.9999869204153903,73.72985757016083
8.911999999999999,0.9999866536271975,73.61147958012782
8.92,0.9999863890334509,73.49303864713892
8.928,0.9999861268429034,73.37453471831694
8.936,0.9999858672652566,73.25596774056008
8.943999999999999,0.9999856105110472,73.13733766053993
8.952,0.9999853567915322,73.01864442469942
8.96,0.9999851063185744,72.89988797925129
8.968,0.9999848593045232,72.78106827017628
8.975999999999999,0.9999846159620983,72.6621852432217
8.984,0.9999843765042697,72.54323884390028
8.992,0.9999841411441394,72.42422901748908
9.0,0.9999839100948177,72.3051557090286
9.008,0.999983683569305,72.18601886332198
9.016,0.999983461780368,72.06681842493455
9.024000000000001,0.9999832449404175,71.94755433819353
9.032,0.9999830332613859,71.82822654718785
9.04,0.9999828269546034,71.70883499576806
9.048,0.9999826262306747,71.58937962754666
9.056000000000001,0.9999824312993555,71.46986038589858
9.064,0.9999822423694292,71.35027721396165
9.072,0.9999820596485823,71.23063005463737
9.08,0.9999818833432821,71.11091885059199
9.088000000000001,0.9999817136586524,70.99114354425761
9.096,0.9999815507983523,70.87130407783361
9.104,0.999981394964452,70.75140039328805
9.112,0.9999812463573124,70.6314324323595
9.120000000000001,0.9999811051754637,70.51140013655898
9.128,0.9999809716154844,70.39130344717204
9.136,0.9999808458718822,70.27114230526095
9.144,0.9999807281369758,70.15091665166733
9.152000000000001,0.9999806186007768,70.03062642701471
9.16,0.9999805174508735,69.91027157171146
9.168,0.9999804248723156,69.78985202595362
9.176,0.9999803410475011,69.66936772972824
9.184000000000001,0.9999802661560622,69.54881862281677
9.192,0.9999802003747567,69.42820464479853
9.2,0.9999801438773562,69.30752573505433
9.208,0.9999800968345408,69.18678183277049
9.216000000000001,0.999980059413791,69.06597287694284
9.224,0.9999800317792852,68.9450988063809
9.232,0.9999800140917974,68.82415955971214
9.24,0.9999800065085961,68.70315507538663
9.248000000000001,0.9999800091833477,68.58208529168164
9.256,0.99998002226602,68.46095014670641
9.264,0.9999800459027872,68.33974957840714
9.272,0.9999800802359413,68.21848352457195
9.280000000000001,0.9999801254038015,68.09715192283633
9.288,0.9999801815406273,67.97575471068828
9.296,0.9999802487765354,67.85429182547384
9.304,0.9999803272374181,67.73276320440266
9.312000000000001,0.9999804170448646,67.61116878455378
9.32,0.9999805183160841,67.48950850288145
9.328,0.9999806311638333,67.36778229622092
9.336,0.9999807556963444,67.24599010129455
9.344,0.999980892017259,67.12413185471809
9.352,0.9999810402255621,67.00220749300658
9.36,0.9999812004155204,66.88021695258097
9.368,0.9999813726766222,66.75816016977427
9.376,0.9999815570935229,66.63603708083822
9.384,0.9999817537459899,66.51384762194961
9.392,0.9999819627088545,66.39159172921714
9.4,0.9999821840519634,66.26926933868779
9.408,0.9999824178401354,66.14688038635381
9.416,0.9999826641331196,66.02442480815931
9.424,0.999982922985559,65.9019025400072
9.432,0.9999831944469549,65.77931351776593
9.44,0.9999834785616356,65.65665767727656
9.448,0.9999837753687277,65.53393495435941
9.456,0.9999840849021316,65.4111452848213
9.464,0.9999844071904986,65.28828860446231
9.472,0.9999847422572128,65.16536484908289
9.48,0.9999850901203743,65.04237395449067
9.488,0.9999854507927872,64.91931585650774
9.496,0.99998582428195,64.79619049097727
9.504,0.9999862105900484,64.67299779377086
9.512,0.9999866097139534,64.5497377007952
9.52,0.9999870216452186,64.42641014799932
9.528,0.9999874463700853,64.30301507138117
9.536,0.9999878838694871,64.17955240699486
9.544,0.9999883341190582,64.0560220909573
9.552,0.9999887970891459,63.9324240594552
9.56,0.9999892727448252,63.808758248751694
9.568,0.999989761045915,63.685024595193305
9.576,0.999990261947,63.56122303521638
9.584,0.9999907753974531,63.43735350535403
9.592,0.9999913013414612,63.313415942242464
9.6,0.9999918397180542,63.189410282627684
9.608,0.9999923904611359,63.065336463371835
9.616,0.9999929534995183,62.941194421459706
9.624,0.9999935287569581,62.81698409400489
9.632,0.9999941161521958,62.692705418256224
9.64,0.999994715598997,62.56835833160376
9.648,0.9999953270061965,62.44394277158498
9.656,0.9999959502777449,62.319458675890615
9.664,0.9999965853127577,62.19490598237079
9.672,0.999997232005564,62.07028462904052
9.68,0.9999978902457637,61.9455945540857
9.688,0.9999985599182782,61.82083569586846
9.696,0.9999992409034117,61.69600799293292
9.704,0.9999999330769086,61.5711113840103
9.712,1.0,61.44614580802449
9.72,1.0,61.321111204097
9.728,1.0,61.1960075115522
9.736,1.0,61.070834669922135
9.744,1.0,60.94559261895152
9.752,1.0,60.82028129860224
9.76,1.0,60.6949006490582
9.768,1.0,60.56945061072961
9.776,0.9999999999999999,60.443931124257496
9.784,0.9999999999999999,60.31834213051777
9.792,0.9999999999999999,60.19268357062555
9.8,1.0,60.06695538593894
9.808,0.9999999999999999,59.94115751806303
9.816,1.0,59.815289908853565
9.824,0.9999999999999999,59.68935250042065
9.832,1.0,59.56334523513201
9.84,1.0,59.437268055616634
9.847999999999999,0.9999999999999999,59.31112090476776
9.856,1.0,59.18490372574606
9.864,1.0,59.05861646198265
9.872,0.9999999999999999,58.93225905718187
9.879999999999999,1.0,58.80583145532397
