freq,mag,phase
6.0,1.0001372442540175,-35.2323424496447
6.009673728,1.0002026112055058,-35.6226052018021
6.019346944,1.000256906578654,-36.01381563777777
6.029020672,1.000298167971235,-36.405847864663336
6.038693888,1.0003245485548362,-36.79852482393135
6.048367616,1.0003342524057872,-37.1916494294082
6.058041344,1.000327211036879,-37.584990183684596
6.06771456,1.0003034685509613,-37.97832722840693
6.077388288,1.0002640841256916,-38.37142876920502
6.087061504,1.00021132475623,-38.76418862432844
6.096735232,1.000147854085109,-39.1563612670571
6.10640896,1.0000765633684183,-39.547892791885324
6.116082176,1.0000012397701734,-39.938617741674705
6.125755904,0.9999253240190921,-40.328578919718574
6.13542912,0.9998533921049672,-40.71779895533766
6.145102848,0.9997885310760188,-41.106309098825
6.154776064,0.9997342540038547,-41.49422419056571
6.164449792,0.9996931870455624,-41.88171100830327
6.17412352,0.9996676308083041,-42.26901325531032
6.183796736,0.9996589162154175,-42.656237871314715
6.193470464,0.9996674806387488,-43.04366186051357
6.20314368,0.9996927473137399,-43.43149201764652
6.212817408,0.9997337204544082,-43.8199740548495
6.222491136,0.9997884083090236,-44.20926013703663
6.232164352,0.9998536717652233,-44.5995075260515
6.24183808,0.9999267443277491,-44.99088090916341
6.251511296,1.0000034457102187,-45.383383403720025
6.261185024,1.0000803307293158,-45.77708960774238
6.270858752,1.0001532028023838,-46.171998643621315
6.280531968,1.0002183489458472,-46.56798303264947
6.290205696,1.000272791614396,-46.964987681898805
6.299878912,1.0003134513838698,-47.36274533767451
6.30955264,1.0003381391215023,-47.76115801057946
6.319226368,1.0003458053181338,-48.160055203549604
6.328899584,1.0003360352131347,-48.55904084783594
6.338573312,1.0003091086601203,-48.95804044577681
6.348246528,1.0002662856529245,-49.356795450395055
6.357920256,1.0002101279998816,-49.75510143030731
6.367593472,1.000142991431673,-50.15279389839354
6.3772672,1.0000683482663528,-50.549814179398425
6.386940928,0.9999901103848758,-50.94603190873376
6.396614144,0.9999120480262326,-51.34142495533889
6.406287872,0.9998384134260959,-51.73606133824873
6.415961088,0.9997726634875108,-52.129973992647244
6.425634816,0.9997182322758462,-52.523266038185504
6.435308544,0.9996778894770425,-52.9161968087484
6.44498176,0.9996539038390854,-53.308909213203414
6.454655488,0.9996472643252777,-53.701595899529806
6.464328704,0.9996584817576504,-54.09448739642471
6.474002432,0.9996869679096042,-54.48788131311721
6.48367616,0.9997316115725523,-54.881940605379846
6.493349376,0.9997897619221396,-55.27683213355744
6.503023104,0.9998587100252566,-55.67277524090169
6.51269632,0.999934923165677,-56.069858919663005
6.522370048,1.000014729778205,-56.46812592268084
6.532043776,1.0000939551940506,-56.867646264598775
6.541716992,1.000168459412332,-57.26838328805656
6.55139072,1.0002347062203933,-57.67021276154387
6.561063936,1.0002892490551443,-58.073054219189835
6.570737664,1.0003290910462947,-58.47670228813299
6.58041088,1.0003523647540238,-58.880991600511955
6.590084608,1.0003579259573363,-59.28566861655764
6.599758336,1.000345278903552,-59.690500152508584
6.609431552,1.0003152086115277,-60.09527855881616
6.61910528,1.0002689787150671,-60.4997630587346
6.628778496,1.0002089066130655,-60.903771847093864
6.638452224,1.000138173742772,-61.30711821552097
6.648125952,1.0000600976996161,-61.709722045029515
6.657799168,0.9999789289290287,-62.111486694541924
6.667472896,0.9998986616021742,-62.51241975375226
6.677146112,0.9998230537881189,-62.91258618959891
6.68681984,0.9997563891679476,-63.3119729936504
6.696493568,0.9997017620614399,-63.71076668778466
6.706166784,0.9996621089470433,-64.10917024755199
6.715840512,0.9996394689512962,-64.50739055051552
6.725513728,0.9996350589429206,-64.90559122592379
6.735187456,0.9996490158908787,-65.3040950525432
6.744861184,0.999680994669516,-65.70304860944611
6.7545344,0.9997289544040228,-66.10275211108738
6.764208128,0.9997908042238055,-66.50338112725797
6.773881344,0.9998633739025156,-66.90504526999686
6.783555072,0.9999431270057906,-67.30790850480788
6.793228288,1.0000258474725874,-67.71205818471066
6.802902016,1.000107477829636,-68.11746259326809
6.812575744,1.0001838572564954,-68.52410051178627
6.82224896,1.000251118165557,-68.93188413625789
6.831922688,1.0003057475549597,-69.34064257324685
6.841595904,1.0003451500431302,-69.75023242254424
6.851269632,1.000366899823135,-70.16044564808223
6.86094336,1.0003704010661365,-70.57098925768854
6.870616576,1.0003549117153103,-70.98173778327563
6.880290304,1.0003215631247098,-71.3923326374389
6.88996352,1.0002716423282363,-71.8026049876746
6.899637248,1.0002079522627585,-72.21232013322341
6.909310976,1.0001336231416587,-72.62138446586235
6.918984192,1.0000521453788291,-73.02963306242304
6.92865792,0.9999676433646725,-73.43701955833613
6.938331136,0.9998847600359351,-73.8435298724405
6.948004864,0.9998074530129866,-74.24921636769358
6.957678592,0.9997396195667178,-74.65415529736364
6.967351808,0.9996847523192798,-75.05844500017604
6.977025536,0.9996457664339781,-75.4623980902532
6.986698752,0.9996244720556626,-75.86616145638413
6.99637248,0.9996222378476324,-76.26992802591337
7.006045696,0.9996389197108422,-76.67399648334421
7.015719424,0.9996741132486651,-77.07858491685752
7.025393152,0.9997258700530441,-77.48394523902736
7.035066368,0.9997915644569279,-77.89030341340026
7.044740096,0.9998679874275713,-78.29774628646963
7.054413312,0.9999511320019562,-78.7064339605542
7.06408704,1.00003711795351,-79.11644771743579
7.073760768,1.0001213873755155,-79.5277229200181
7.083433984,1.000199674446437,-79.9402937261119
7.093107712,1.0002681111966374,-80.35399161866466
7.102780928,1.0003230277372692,-80.7687458743015
7.112454656,1.0003618084470194,-81.1842887139028
7.122128384,1.0003823650213084,-81.60042496598074
7.1318016,1.0003836306502532,-82.01692064641308
7.141475328,1.000365378052726,-82.43349004401263
7.151148544,1.0003286355404288,-82.8499449814757
7.160822272,1.0002750725217853,-83.26602499413242
7.170496,1.0002074395340448,-83.68148609325493
7.180169216,1.000129248486204,-84.09624872401595
7.189842944,1.0000441494372048,-84.51015236373762
7.19951616,0.9999565956736746,-84.92315082562422
7.209189888,0.9998710035818911,-85.33519664327858
7.218863616,0.9997915922096138,-85.74641216045782
7.228536832,0.9997224791698782,-86.15684600187443
7.23821056,0.9996673642371577,-86.56667647819299
7.247883776,0.9996288320163175,-86.97608761820942
7.257557504,0.9996088572924196,-87.38531794417419
7.26723072,0.9996087033807202,-87.79459908601083
7.276904448,0.9996282800651128,-88.20423499943523
7.286578176,0.9996667369565599,-88.61443831812859
7.296251392,0.9997220708131066,-89.02546016646691
7.30592512,0.999791773973028,-89.43742908689974
7.315598336,0.9998719707073391,-89.85060437319115
7.325272064,0.9999588462574086,-90.26508520002996
7.334945792,1.0000481984443288,-90.68086683775338
7.344619008,1.0001351977060668,-91.09803912448255
7.354292736,1.0002156077096078,-91.51646491940465
7.363965952,1.0002853399587595,-91.9360827250764
7.37363968,1.0003407690800676,-92.35670056159164
7.383313408,1.0003790182385697,-92.77815218804984
7.392986624,1.0003982824089424,-93.20018437343055
7.402660352,1.0003973732290834,-93.62252770716995
7.412333568,1.0003764246465716,-94.04494397074133
7.422007296,1.0003361889172384,-94.46717522837416
7.431681024,1.0002790268248223,-94.8889729747429
7.44135424,1.0002075104426575,-95.3101517544306
7.451027968,1.0001252047658988,-95.73053198234071
7.460701184,1.000036357152703,-96.15002471317264
7.470374912,0.999945312448063,-96.5684883053561
7.480048128,0.9998568004163784,-96.98604554585049
7.489721856,0.9997752692037883,-97.40271366641257
7.499395584,0.9997047550610304,-97.81855336154109
7.5090688,0.9996489870533288,-98.23377090608602
7.518742528,0.9996108800599947,-98.64858327622221
7.528415744,0.999592292753667,-99.0631949779301
7.538089472,0.9995941075769839,-99.47793371656017
7.5477632,0.9996165244450448,-99.89298501491665
7.557436416,0.9996583295179193,-100.30864961815256
7.567110144,0.9997175494150594,-100.7251550072987
7.57678336,0.9997911281736104,-101.14275338976988
7.586457088,0.999875486568848,-101.56153552880137
7.596130816,0.9999663355756199,-101.98165652963148
7.605804032,1.0000591187270418,-102.40312427290766
7.61547776,1.0001491383142775,-102.82601005012742
7.625150976,1.0002318081682582,-103.25020310161803
7.634824704,1.0003029397201648,-103.67559290076518
7.644498432,1.0003589294491064,-104.10201363583579
7.654171648,1.000397019647912,-104.52924114761043
7.663845376,1.000414920100338,-104.95703772847124
7.673518592,1.0004120315125988,-105.38513771317194
7.68319232,1.0003882671384023,-105.8132349728554
7.692865536,1.0003447623013235,-106.24111421732464
7.702539264,1.0002836803864168,-106.66854023698853
7.712212992,1.0002080209382722,-107.09525691985397
7.721886208,1.0001215924910827,-107.52114134120723
7.731559936,1.000028719063348,-107.94604569357743
7.741233152,0.9999340824761295,-108.36993382981134
7.75090688,0.9998424503519285,-108.79281149301534
7.760580608,0.99975850750072,-109.2147247086731
7.770253824,0.9996865472871549,-109.63581769089001
7.779927552,0.9996300619412105,-110.05626912756213
7.789600768,0.99959210545859,-110.47627758804126
7.799274496,0.9995745850280914,-110.89615514768444
7.808948224,0.9995785574183152,-111.31609934030537
7.81862144,0.9996038316899107,-111.73640663769979
7.828295168,0.9996490971748991,-112.15734820012736
7.837968384,0.9997121115804162,-112.57919154289637
7.847642112,0.9997899081368671,-113.00216969252644
7.85731584,0.9998785079729682,-113.42632753486146
7.866989056,0.9999733894361806,-113.85192185047144
7.876662784,1.0000698800297048,-114.27894003101797
7.886336,1.0001630825322505,-114.70734236343095
7.896009728,1.0002482376546395,-115.13710132411667
7.905682944,1.0003211530169078,-115.56807805651545
7.915356672,1.000377941217938,-116.00009289559145
7.9250304,1.0004157635843893,-116.43290645451215
7.934703616,1.0004326727475596,-116.8662722609283
7.944377344,1.0004276790003572,-117.29990559466417
7.95405056,1.0004011586771324,-117.733543318507
7.963724288,1.0003541077732105,-118.16685943077405
7.973398016,1.0002890750853575,-118.5997013813185
7.983071232,1.0002092229026809,-119.03176662578214
7.99274496,1.0001184319554157,-119.462920136663
8.002418176,1.0000214877137934,-119.89302879194581
8.012091904,0.9999228979136894,-120.32206639967758
8.021765632,0.999827991324445,-120.75005945334901
8.031438848,0.9997414203697427,-121.17699289896629
8.041112576,0.9996675156017136,-121.60310112688555
8.050785792,0.9996102611053097,-122.02852289654962
8.06045952,0.999572442544001,-122.45351731457164
8.070133248,0.9995560108565807,-122.87832168337783
8.079806464,0.9995619241545494,-123.30326514058126
8.089480192,0.9995899745167581,-123.72856616124434
8.099153408,0.9996387116623136,-124.15452944281276
8.108827136,0.9997057670947511,-124.58143843597927
8.118500352,0.9997877911507519,-125.00947601587583
8.12817408,0.9998808205947385,-125.43882649207804
8.137847808,0.9999801246939529,-125.86959492402823
8.147521024,1.0000805909014403,-126.30182015808751
8.157194752,1.0001772621677978,-126.73549775956647
8.166867968,1.0002652333914999,-127.17057436253948
8.176541696,1.0003399859822022,-127.60689685239409
8.186215424,1.0003977834011895,-128.0442124167014
8.19588864,1.0004355725133542,-128.48235126082054
8.205562368,1.0004515053132086,-128.92104088116247
8.215235584,1.0004445958419597,-129.3599381596491
8.224909312,1.000415090660449,-129.79878941127515
8.23458304,1.0003646606819934,-130.2373359924723
8.244256256,1.0002954853246881,-130.67526585867455
8.253929984,1.0002112462222315,-131.1123783690588
8.2636032,1.0001158883611536,-131.54850613067816
8.273276928,1.0000143670050248,-131.98355519309078
8.282950656,0.9999117819251105,-132.4174351668574
8.292623872,0.9998131665579858,-132.85019620973435
8.3022976,0.9997237387659118,-133.28189416011932
8.311970816,0.9996478600588956,-133.7126806916492
8.321644544,0.999589408253835,-134.14275960594242
8.331318272,0.9995515621106498,-134.57237820256086
8.340991488,0.9995359887289729,-135.00180955222098
8.350665216,0.9995438717429657,-135.43134090540244
8.360338432,0.9995747013650446,-135.8612831220616
8.37001216,0.9996270887606058,-136.2919661223346
8.379685376,0.9996982690008823,-136.7235726005059
8.389359104,0.9997849020988172,-137.15635199074217
8.399032832,0.9998826325606195,-137.5904900654009
8.408706048,0.9999864628760514,-138.02610525029897
8.418379776,1.0000912107446605,-138.46320736424633
8.428052992,1.0001916396960533,-138.90183537888666
8.43772672,1.0002826857838143,-139.34186542833794
8.447400448,1.0003596328675053,-139.78314974637925
8.457073664,1.0004186417184515,-140.22546211390326
8.466747392,1.0004566082354083,-140.66859339506973
8.476420608,1.0004716104111762,-141.11219898971981
8.486094336,1.0004628023969764,-141.5560439665595
8.495768064,1.0004305838261658,-141.99978813083732
8.50544128,1.0003764666817863,-142.44316121775907
8.515115008,1.0003030828853452,-142.88585567643773
8.524788224,1.0002141086106564,-143.32765372278598
8.534461952,1.0001140255183631,-143.7684079652281
8.54413568,1.0000077030424264,-144.20799495080345
8.553808896,0.9999005979444318,-144.646317412921
8.563482624,0.999798212771649,-145.08348043307055
8.57315584,0.9997054211807243,-145.51952736007843
8.582829568,0.9996271722265334,-145.954610205175
8.592502784,0.9995674228972594,-146.3889337516972
8.602176512,0.9995292273720219,-146.8227720054623
8.61185024,0.9995146022109517,-147.25641071525055
8.621523968,0.9995242756791595,-147.69016051532265
8.631196672,0.9995579203073913,-148.1243594232778
8.6408704,0.9996139660762687,-148.55924388209854
8.650544128,0.9996895724843242,-148.9951203750886
8.660217856,0.999780882171635,-149.43222055330563
8.669891584,0.9998835510341282,-149.87073482626212
8.679564288,0.9999923712601292,-150.31077276636867
8.689238016,1.0001017791855435,-150.75237745511026
8.698911744,1.0002063248227544,-151.19547261220225
8.708585472,1.0003007115740694,-151.6400506516553
8.7182592,1.0003801582062353,-152.08588261284856
8.727931904,1.0004405613587537,-152.53277091782675
8.737605632,1.0004789275244688,-152.98044104797523
8.74727936,1.000493223567753,-153.4286183286657
8.756953088,1.0004825545102,-153.87698120927405
8.766626816,1.0004474065060132,-154.32519639906144
8.77629952,1.0003895614920877,-154.77295682247978
8.785973248,1.0003117532423367,-155.21999894350085
8.795646976,1.0002178969191584,-155.6660587039234
8.805320704,1.0001126521877852,-156.11100135135513
8.814994432,1.0000012166408048,-156.55466153743592
8.824667136,0.9998893543514478,-156.9970194357905
8.834340864,0.9997825330411357,-157.43810996827372
8.844014592,0.9996861861894296,-157.87801948587207
8.85368832,0.9996053752129365,-158.31691231651538
8.863362048,0.9995439787567462,-158.7550179009772
8.873034752,0.9995052898023961,-159.1925888490974
8.88270848,0.9994913657531417,-159.6299464477054
8.892382208,0.9995029118539831,-160.0674091675381
8.902055936,0.9995395253269785,-160.50529707546315
8.91172864,0.999599374663894,-160.94394605533006
8.921402368,0.9996794415594794,-161.38362899546775
8.931076096,0.9997758751844136,-161.82456605047764
8.940749824,0.9998838948441312,-162.2669488583017
8.950423552,0.9999979378290402,-162.71091180676447
8.960096256,1.0001124066909355,-163.15646738744383
8.969769984,1.000221544615703,-163.60361087173823
8.979443712,1.000319690489478,-164.05222933931753
8.98911744,1.0004019892060574,-164.50211767698295
8.998791168,1.0004641809971224,-164.95311245502
9.008463872,1.0005030606586183,-165.4048729656571
9.0181376,1.0005166871563322,-165.85712386207803
9.027811328,1.0005042138636242,-166.30952873198876
9.037485056,1.0004661006275006,-166.76171449631056
9.047158784,1.0004044026843093,-167.21337375561671
9.056831488,1.000321857815914,-167.6642881884557
9.066505216,1.0002227656678895,-168.1141046069739
9.076178944,1.0001120531632588,-168.5627081597791
9.085852672,0.9999951859505815,-169.00997358318986
9.0955264,0.9998780012317108,-169.45585168695592
9.105199104,0.9997663655220136,-169.90036015609874
9.114872832,0.999666133666292,-170.34361387299566
9.12454656,0.9995822319772072,-170.7857466686237
9.134220288,0.9995190104751381,-171.2270798255894
9.143894016,0.999479592828132,-171.66786224786134
9.15356672,0.9994661587554439,-172.10836130869316
9.163240448,0.9994796477677347,-172.54897469532762
9.172914176,0.999519177778827,-172.99004171306007
9.182587904,0.9995829489619154,-173.43188635570908
9.192261632,0.9996679242963619,-173.87479266012608
9.201934336,0.9997698406175928,-174.3190202825579
9.211608064,0.9998835205805383,-174.764713958395
9.221281792,1.0000033821930567,-175.21207571747934
9.23095552,1.0001232434969585,-175.66104471336777
9.240629248,1.0002373210552042,-176.11166291607998
9.250301952,1.0003396425941493,-176.56378659687735
9.25997568,1.0004251979644347,-177.017251483422
9.269649408,1.0004894991585056,-177.4717975323332
9.279323136,1.0005291790971431,-177.92714103035436
9.288996864,1.0005422439518932,-178.38290230325853
9.298669568,1.0005279299403658,-178.8388096725467
9.308343296,1.0004867673956064,-179.29446102844733
9.318017024,1.0004209504919475,-179.74952860947934
9.327690752,1.0003335532884685,179.7962704085056
9.337363456,1.0002289159138602,179.34319903164098
9.347037184,1.00011219783565,178.89146267957216
9.356710912,0.999989318579654,178.4411760342369
9.36638464,0.9998662901234948,177.99239439899083
9.376058368,0.9997494426117007,177.54503151920449
9.385731072,0.9996448309039316,177.09903716340943
9.3954048,0.9995574310787944,176.6541686330578
9.405078528,0.9994919506931104,176.21022985749832
9.414752256,0.9994517173726023,175.76689045798796
9.424425984,0.9994388464343076,175.32379800594086
9.434098688,0.9994539856574615,174.88063428160783
9.443772416,0.9994966561285037,174.43700427084588
9.453446144,0.9995647622390047,173.99256602097566
9.463119872,0.9996547825749417,173.5470339182238
9.4727936,0.9997624479220122,173.10014888048113
9.482466304,0.999882340987934,172.6517124174165
9.492140032,1.0000085079363528,172.2015617971288
9.50181376,1.0001344897258577,171.74973599709762
9.511487488,1.0002540106837654,171.2962310636366
9.521161216,1.000361150429312,170.84114143699958
9.53083392,1.0004502006104912,170.38470491148067
9.540507648,1.0005167690401158,169.92716711996408
9.550181376,1.00055750904163,169.46884613224185
9.559855104,1.0005701222057979,169.01006437525953
9.569528832,1.0005539829569379,168.5512308895852
9.579201536,1.000509775916667,168.09267876680056
9.588875264,1.0004395482815214,167.6347960777845
9.598548992,1.0003468734007255,167.17784024543184
9.60822272,1.000236061037886,166.72212632520092
9.617896448,1.000112867023025,166.2678539153254
9.627569152,0.9999834029180735,165.8150979681372
9.63724288,0.9998541616209963,165.36398601172525
9.646916608,0.9997315965214006,164.9144010962981
9.656590336,0.999621818533822,164.46624527390395
9.666264064,0.9995306288475214,164.0193309741104
9.675936768,0.9994626708091169,163.57337632296287
9.685610496,0.99942115603714,163.12807861721004
9.695284224,0.999408619930395,162.68306693949168
9.704957952,0.9994257678497521,162.23796998043383
9.71463168,0.9994716842132771,161.79240855183642
9.724304384,0.999544203452183,161.3460367732239
9.733978112,0.9996398629486134,160.89852235450448
9.74365184,0.9997538402679651,160.44956237027608
9.753325568,0.9998804971696301,159.9990008036227
9.762999296,1.000013412658584,159.54669803586913
9.772672,1.0001461104852256,159.09260906130976
9.782345728,1.0002716776167218,158.63676324314346
9.792019456,1.0003840362678715,158.17933951854113
9.801693184,1.0004772265530062,157.72050998745536
9.811365888,1.00054649883104,157.26052937305897
9.821039616,1.000588473678935,156.7997860261815
9.830713344,1.0006007536236121,156.33861351374827
9.840387072,1.0005826614365405,155.8773954069352
9.8500608,1.000535038697655,155.41654087445087
9.859733504,1.0004601166334433,154.95636503066982
9.869407232,1.000361616617018,154.49727873858063
