freq,mag,phase
6.0,0.9999966838993698,54.95757786563084
6.008,0.9999957717343548,54.777334479350294
6.016,0.9999948935511594,54.597042606051545
6.024,0.9999940488172913,54.416702237916056
6.032,0.9999932370036227,54.23631336727443
6.04,0.9999924575843933,54.05587598660726
6.048,0.9999917100372128,53.87539008854609
6.056,0.9999909938430649,53.694855665874194
6.064,0.9999903084863101,53.5142727115275
6.072,0.9999896534546885,53.33364121859546
6.08,0.9999890282393225,53.15296118032193
6.088,0.9999884323347211,52.97223259010597
6.096,0.9999878652387799,52.79145544150274
6.104,0.9999873264527872,52.61062972822437
6.112,0.9999868154814241,52.429755444140724
6.12,0.9999863318327682,52.248832583280304
6.128,0.9999858750182964,52.06786113983116
6.136,0.999985444552887,51.88684110814149
6.144,0.9999850399548216,51.705772482720725
6.152,0.9999846607457884,51.52465525824018
6.16,0.9999843064508844,51.34348942953392
6.168,0.9999839765986173,51.1622749915996
6.176,0.9999836707209067,50.981011939599234
6.184,0.999983388353089,50.79970026886
6.192,0.9999831290339158,50.61833997487506
6.2,0.999982892305559,50.436931053304306
6.208,0.9999826777136114,50.25547349997518
6.216,0.9999824848070873,50.07396731088346
6.224,0.9999823131384266,49.892412482194
6.232,0.9999821622634957,49.71080901024149
6.24,0.9999820317415876,49.52915689153133
6.248,0.9999819211354257,49.3474561227402
6.256,0.9999818300111635,49.165706700717024
6.264,0.9999817579383873,48.98390862248352
6.272,0.999981704490117,48.80206188523506
6.28,0.9999816692428065,48.620166486341404
6.288,0.9999816517763467,48.438222423347355
6.296,0.9999816516740655,48.256229693973566
6.304,0.9999816685227282,48.07418829611722
6.312,0.99998170191254,47.89209822785273
6.32,0.9999817514371462,47.70995948743246
6.328,0.9999818166936326,47.527772073287416
6.336,0.9999818972825266,47.34553598402798
6.344,0.9999819928077979,47.16325121844459
6.352,0.9999821028768595,46.98091777550829
6.36,0.999982227100567,46.79853565437165
6.368,0.9999823650932201,46.616104854369205
6.376,0.999982516472563,46.43362537501828
6.384,0.9999826808597838,46.25109721601955
6.392,0.9999828578795151,46.068520377257734
6.4,0.9999830471598349,45.88589485880224
6.408,0.9999832483322652,45.703220660907746
6.416,0.9999834610317728,45.52049778401496
6.424,0.9999836848967694,45.33772622875111
6.432,0.9999839195691104,45.154905995930605
6.44,0.9999841646940953,44.97203708655574
6.448,0.9999844199204682,44.78911950181709
6.456,0.9999846849004145,44.60615324309438
6.464,0.9999849592895635,44.42313831195685
6.472,0.999985242746986,44.240074710163945
6.48,0.9999855349351936,44.056962439665895
6.4879999999999995,0.9999858355201384,43.87380150260424
6.496,0.999986144171212,43.69059190131241
6.504,0.999986460561244,43.507333638316354
6.5120000000000005,0.9999867843665018,43.324026716334956
6.52,0.9999871152666883,43.14067113828075
6.5280000000000005,0.999987452944941,42.95726690726021
6.536,0.999987797087831,42.77381402657461
6.5440000000000005,0.9999881473853616,42.59031249972019
6.552,0.9999885035309661,42.40676233038898
6.5600000000000005,0.9999888652215065,42.22316352246908
6.568,0.9999892321572706,42.03951608004534
6.5760000000000005,0.999989604041973,41.855820007399636
6.584,0.9999899805827495,41.67207530901167
6.592,0.9999903614901582,41.488281989559084
6.6,0.9999907464781749,41.30444005391819
6.608,0.9999911352641924,41.12054950716437
6.616,0.9999915275690175,40.93661035457248
6.624,0.9999919231168679,40.752622601617325
6.632,0.9999923216353718,40.56858625397416
6.64,0.999992722855562,40.38450131751901
6.648,0.9999931265118756,40.20036779832916
6.656,0.9999935323421504,40.016185702683615
6.664,0.9999939400876213,39.83195503706341
6.672,0.9999943494929181,39.64767580815208
6.68,0.9999947603060612,39.46334802283603
6.688,0.9999951722784588,39.27897168820494
6.696,0.9999955851649039,39.0945468115521
6.704,0.9999959987235705,38.910073400374856
6.712,0.9999964127160081,38.72555146237488
6.72,0.999996826907141,38.5409810054586
6.728,0.9999972410652621,38.35636203773749
6.736,0.9999976549620293,38.17169456752847
6.744,0.9999980683724619,37.98697860335415
6.752,0.9999984810749355,37.80221415394325
6.76,0.9999988928511785,37.617401228230825
6.768,0.9999993034862665,37.43253983535865
6.776,0.9999997127686183,37.24762998467544
6.784,1.0,37.062671685737214
6.792,1.0,36.87766494830749
6.8,1.0,36.69260978235765
6.808,1.0,36.50750619806717
6.816,0.9999999999999999,36.322354205823814
6.824,1.0,36.13715381622397
6.832,0.9999999999999999,35.951905040072866
6.84,1.0,35.76660788838478
6.848,1.0,35.581262372383236
6.856,0.9999999999999999,35.39586850350132
6.864,1.0,35.21042629338178
6.872,1.0,35.024935753877266
6.88,1.0,34.83939689705052
6.888,0.9999999999999999,34.65380973517456
6.896,0.9999999999999999,34.468174280732896
6.904,1.0,34.282490546419545
6.912,1.0,34.09675854513939
6.92,1.0,33.910978290008146
6.928,0.9999999999999999,33.72514979435262
6.936,1.0,33.53927307171079
6.944,1.0,33.353348135831965
6.952,1.0,33.16737500067683
6.96,0.9999999999999999,32.981353680417584
6.968,1.0,32.79528418943812
6.976,1.0,32.60916654233394
6.984,0.9999999999999999,32.42300075391241
6.992,1.0,32.236786839192725
7.0,1.0,32.050524813406014
7.008,1.0,31.864214691995386
7.016,1.0,31.67785649061595
7.024,0.9999999999999999,31.491450225134923
7.032,0.9999999999999999,31.30499591163158
7.04,0.9999999999999999,31.118493566397337
7.048,0.9999999999999999,30.931943205935752
7.056,1.0,30.74534484696248
7.064,0.9999999999999999,30.558698506405346
7.072,0.9999999999999999,30.372004201404273
7.08,1.0,30.18526194931135
7.088,1.0,29.99847176769068
7.096,1.0000000000000002,29.811633674318433
7.104,1.0,29.624747687182808
7.112,1.0,29.43781382448393
7.12,1.0,29.250832104633826
7.128,0.9999999999999999,29.063802546256387
7.136,1.0,28.87672516818721
7.144,1.0,28.689599989473603
7.152,1.0,28.502427029374445
7.16,1.0,28.315206307360114
7.168,1.0,28.127937843112363
7.176,0.9999999999999999,27.940621656524257
7.184,0.9999999999999999,27.753257767699985
7.192,1.0,27.565846196954773
7.2,1.0,27.378386964814766
7.208,1.0,27.190880092016837
7.216,1.0,27.003325599508507
7.224,1.0,26.815723508447732
7.232,0.9999999999999999,26.628073840202774
7.24,1.0,26.440376616352005
7.248,0.9999999999999999,26.252631858683795
7.256,0.9999999999999999,26.06483958919626
7.264,1.0,25.876999830097088
7.272,0.9999999999999998,25.689112603803387
7.28,1.0,25.50117793294147
7.288,0.9999999999999999,25.31319584034661
7.296,1.0,25.125166349062837
7.304,1.0,24.937089482342802
7.312,1.0,24.748965263647428
7.32,0.9999999999999999,24.56079371664579
7.328,1.0,24.372574865214805
7.336,0.9999999999999999,24.184308733439003
7.344,1.0,23.995995345610325
7.352,1.0,23.80763472622784
7.36,1.0,23.619226899997496
7.368,1.0,23.430771891831828
7.376,0.9999999999999999,23.242269726849745
7.384,1.0,23.053720430376245
7.392,1.0,22.8651240279421
7.4,1.0,22.676480545283635
7.4079999999999995,1.0,22.487790008342422
7.416,1.0,22.299052443264937
7.4239999999999995,1.0,22.110267876402432
7.432,0.9999999999999999,21.921436334310393
7.4399999999999995,0.9999999999999999,21.732557843748538
7.448,0.9999999999999999,21.543632431680194
7.4559999999999995,0.9999999999999998,21.354660125272325
7.464,0.9999999999999999,21.16564095189491
7.4719999999999995,0.9999999999999999,20.976574939120948
7.48,1.0,20.787462114725813
7.4879999999999995,0.9999999999999999,20.598302506687272
7.496,1.0,20.409096143184858
7.504,1.0,20.21984305259987
7.5120000000000005,0.9999999999999999,20.030543263514726
7.52,1.0,19.84119680471298
7.5280000000000005,1.0,19.651803705178633
7.536,1.0,19.46236399409621
7.5440000000000005,1.0,19.27287770085005
7.552,1.0,19.08334485502432
7.5600000000000005,1.0,18.89376548640242
7.568,1.0,18.704139624966878
7.5760000000000005,1.0,18.514467300898822
7.584,1.0,18.324748544577908
7.5920000000000005,1.0,18.134983386581684
7.6,1.0,17.945171857685605
7.6080000000000005,1.0,17.7553139888624
7.616,0.9999999999999999,17.565409811282077
7.6240000000000006,0.9999999999999999,17.375459356311225
7.632,1.0,17.18546265551312
7.640000000000001,0.9999999999999998,16.995419740647034
7.648,0.9999999999999999,16.805330643668253
7.656000000000001,1.0,16.615195396727454
7.664,1.0,16.425014032170736
7.672,1.0,16.234786582538998
7.68,1.0,16.044513080567906
7.688,1.0,15.85419355918743
7.696,0.9999999999999999,15.663828051521696
7.704,1.0,15.473416590888544
7.712,1.0,15.282959210799415
7.72,0.9999999999999999,15.092455944958974
7.728,0.9999999999999999,14.901906827264872
7.736,1.0,14.71131189180752
7.744,1.0,14.520671172869783
7.752,1.0,14.329984704926758
7.76,1.0,14.139252522645576
7.768,1.0,13.948474660885095
7.776,1.0,13.757651154695722
7.784,1.0,13.566782039319193
7.792,0.9999999999999999,13.375867350188374
7.8,1.0,13.184907122927024
7.808,1.0,12.993901393349633
7.816,0.9999999999999999,12.802850197461257
7.824,0.9999999999999999,12.611753571457305
7.832,1.0,12.420611551723416
7.84,0.999999743500017,12.22942417483529
7.848,0.9999993004549527,12.03819147755853
7.856,0.9999988537870058,11.846913496848568
7.864,0.9999984036189439,11.65559026985048
7.872,0.999997950074391,11.464221833898922
7.88,0.9999974932777949,11.27280822651803
7.888,0.9999970333543905,11.08134948542132
7.896,0.9999965704301657,10.889845648511644
7.904,0.999996104631826,10.698296753881111
7.912,0.9999956360867582,10.506702839811052
7.92,0.9999951649229964,10.315063944772
7.928,0.9999946912691838,10.123380107423664
7.936,0.9999942152545385,9.931651366614927
7.944,0.9999937370088161,9.739877761383868
7.952,0.9999932566622747,9.548059330957784
7.96,0.9999927743456365,9.35619611475324
7.968,0.9999922901900532,9.16428815237612
7.976,0.9999918043270667,8.972335483621709
7.984,0.9999913168885748,8.78033814847479
7.992,0.9999908280067916,8.58829618710974
8.0,0.9999903378142124,8.396209639890676
8.008,0.9999898464435749,8.20407854737159
8.016,0.9999893540278226,8.011902950296433
8.024000000000001,0.9999888607000659,7.819682889599469
8.032,0.9999883665935467,7.627418406405368
8.04,0.9999878718415982,7.43510954202934
8.048,0.999987376577609,7.242756337977451
8.056000000000001,0.9999868809349839,7.050358835946965
8.064,0.9999863850471065,6.857917077826522
8.072,0.9999858890473009,6.665431105696365
8.08,0.9999853930687943,6.472900961828717
8.088000000000001,0.9999848972446783,6.280326688688204
8.096,0.9999844017078703,6.087708328932137
8.104,0.9999839065910758,5.895045925410781
8.112,0.9999834120267509,5.702339521167844
8.120000000000001,0.9999829181470634,5.509589159440979
8.128,0.9999824250838537,5.316794883662139
8.136,0.9999819329685986,5.123956737457939
8.144,0.999981441932372,4.931074764650232
8.152000000000001,0.9999809521058061,4.738149009256696
8.16,0.9999804636190556,4.545179515491268
8.168,0.9999799766017566,4.352166327764617
8.176,0.9999794911829917,4.159109490684777
8.184000000000001,0.9999790074912497,3.966009049057867
8.192,0.9999785256543894,3.7728650478885646
8.2,0.9999780457996015,3.579677532380706
8.208,0.9999775680533705,3.386446547938016
8.216000000000001,0.9999770925414377,3.1931721401648763
8.224,0.9999766193887638,2.9998543548669487
8.232,0.9999761487194918,2.80649323805183
8.24,0.9999756806569104,2.6130888359298776
8.248000000000001,0.9999752153234156,2.419641194915095
8.256,0.9999747528404763,2.226150361625829
8.264,0.9999742933285952,2.032616382885521
8.272,0.999973836907276,1.8390393057236472
8.280000000000001,0.9999733836949829,1.6454191773766635
8.288,0.9999729338091088,1.451756045288832
8.296,0.9999724873659376,1.2580499571130512
8.304,0.9999720444806095,1.0643009607118807
8.312,0.9999716052670847,0.8705091041586622
8.32,0.9999711698381117,0.6766744357381718
8.328,0.9999707383051888,0.4827970039480188
8.336,0.9999703107785332,0.28887685749932207
8.344,0.9999698873670451,0.09491404531812034
8.352,0.999969468178275,-0.09909138345389021
8.36,0.9999690533183909,-0.29313937945789476
8.368,0.9999686428921443,-0.4872298931171662
8.376,0.9999682370028385,-0.6813628746355976
8.384,0.9999678357522973,-0.8755382739968237
8.392,0.9999674392408313,-1.0697560409627154
8.4,0.9999670475672083,-1.2640161250724773
8.408,0.9999666608286221,-1.4583184756410699
8.416,0.9999662791206614,-1.652663041758306
8.424,0.9999659025372811,-1.8470497722871668
8.432,0.9999655311707717,-2.041478615862914
8.44,0.999965165111731,-2.2359495208913582
8.448,0.9999648044490348,-2.4304624355478635
8.456,0.9999644492698097,-2.625017307775678
8.464,0.9999640996594062,-2.819614085284822
8.472,0.9999637557013692,-3.0142527155504064
8.48,0.9999634174774144,-3.2089331458114807
8.488,0.9999630850674013,-3.403655323069332
8.496,0.9999627585493078,-3.598419194086268
8.504,0.9999624379992055,-3.7932247053838735
8.512,0.999962123491236,-3.9880718032418225
8.52,0.9999618150975873,-4.182960433696013
8.528,0.9999615128884706,-4.377890542537435
8.536,0.9999612169320986,-4.572862075310201
8.544,0.9999609272946635,-4.7678749773104
8.552,0.9999606440403163,-4.962929193584172
8.56,0.9999603672311466,-5.1580246689264255
8.568,0.999960096927163,-5.353161347878951
8.576,0.9999598331862741,-5.548339174729109
8.584,0.9999595760642705,-5.743558093507883
8.592,0.9999593256148074,-5.938818047988617
8.6,0.9999590818893878,-6.1341189816849555
8.608,0.999958844937346,-6.329460837849629
8.616,0.9999586148058345,-6.524843559472386
8.624,0.9999583915398061,-6.720267089278704
8.632,0.9999581751820038,-6.915731369727711
8.64,0.9999579657729448,-7.111236343010945
8.648,0.9999577633509108,-7.306781951050257
8.656,0.9999575679519356,-7.50236813549643
8.664,0.9999573796097938,-7.6979948377272756
8.672,0.9999571983559936,-7.893661998846116
8.68,0.999957024219765,-8.089369559679872
8.688,0.9999568572280538,-8.285117460777611
8.696,0.9999566974055134,-8.48090564240859
8.704,0.9999565447744994,-8.676734044560822
8.712,0.9999563993550633,-8.872602606939093
8.72,0.9999562611649476,-9.06851126896358
8.728,0.9999561302195835,-9.26445996976782
8.736,0.9999560065320866,-9.460448648197413
8.744,0.9999558901132563,-9.656477242807885
8.752,0.9999557809715716,-9.852545691863511
8.76,0.9999556791131953,-10.048653933335178
8.768,0.9999555845419724,-10.244801904899155
8.776,0.9999554972594303,-10.440989543935055
8.784,0.9999554172647832,-10.637216787524608
8.792,0.9999553445549362,-10.83348357244956
8.8,0.9999552791244869,-11.029789835190574
8.808,0.9999552209657327,-11.22613551192519
8.815999999999999,0.999955170068676,-11.422520538526564
8.824,0.9999551264210317,-11.618944850561807
8.832,0.9999550900082343,-11.815408383290295
8.84,0.9999550608134482,-12.011911071662281
8.847999999999999,0.9999550388175754,-12.208452850317464
8.856,0.999955023999268,-12.405033653583413
8.864,0.9999550163349384,-12.601653415473994
8.872,0.9999550157987732,-12.798312069688034
8.879999999999999,0.9999550223627447,-12.995009549608024
8.888,0.9999550359966265,-13.191745788298611
8.896,0.9999550566680081,-13.388520718505134
8.904,0.9999550843423116,-13.585334272652384
8.911999999999999,0.9999551189828075,-13.78218638284343
8.92,0.9999551605506336,-13.979076980858167
8.928,0.9999552090048133,-14.176005998152073
8.936,0.999955264302274,-14.372973365855044
8.943999999999999,0.9999553263978705,-14.569979014770276
8.952,0.9999553952444022,-14.767022875373067
8.96,0.999955470792639,-14.96410487780964
8.968,0.9999555529913418,-15.161224951896138
8.975999999999999,0.9999556417872876,-15.358383027117588
8.984,0.9999557371252933,-15.555579032626968
8.992,0.9999558389482419,-15.75281289724409
9.0,0.9999559471971073,-15.950084549454788
9.008,0.999956061810984,-16.14739391741007
9.016,0.9999561827271116,-16.344740928925315
9.024000000000001,0.999956309880906,-16.54212551147931
9.032,0.999956443205987,-16.739547592213597
9.04,0.9999565826342102,-16.937007097931925
9.048,0.9999567280956957,-17.134503955099508
9.056000000000001,0.9999568795188606,-17.332038089842285
9.064,0.9999570368304517,-17.52960942794647
9.072,0.9999571999555785,-17.727217894858182
9.08,0.9999573688177446,-17.9248634156829
9.088000000000001,0.9999575433388851,-18.122545915184894
9.096,0.9999577234393988,-18.320265317787108
9.104,0.9999579090381854,-18.518021547570847
9.112,0.9999581000526813,-18.715814528275452
9.120000000000001,0.9999582963988954,-18.91364418329811
9.128,0.9999584979914476,-19.111510435693738
9.136,0.9999587047436052,-19.309413208175034
9.144,0.9999589165673227,-19.507352423112355
9.152000000000001,0.9999591333732797,-19.7053280025337
9.16,0.9999593550709208,-19.903339868124874
9.168,0.9999595815684956,-20.101387941229746
9.176,0.9999598127730985,-20.299472142850377
9.184000000000001,0.9999600485907083,-20.497592393647253
9.192,0.9999602889262331,-20.69574861393962
9.2,0.9999605336835468,-20.893940723706102
9.208,0.9999607827655359,-21.092168642584955
9.216000000000001,0.999961036074138,-21.290432289874598
9.224,0.9999612935103876,-21.48873158453419
9.232,0.999961554974455,-21.68706644518454
9.24,0.999961820365694,-21.885436790108542
9.248000000000001,0.9999620895826823,-22.083842537251982
9.256,0.999962362523267,-22.282283604224432
9.264,0.9999626390846071,-22.480759908300275
9.272,0.9999629191632178,-22.679271366419542
9.280000000000001,0.9999632026550171,-22.877817895188905
9.288,0.9999634894553667,-23.076399410882818
9.296,0.99996377945912,-23.27501582944485
9.304,0.9999640725606648,-23.473667066488712
9.312000000000001,0.9999643686539671,-23.672353037299608
9.32,0.99996466763262,-23.87107365683553
9.328,0.999964969389884,-24.069828839728945
9.336,0.9999652738187349,-24.268618500287992
9.344,0.999965580811908,-24.46744255249811
9.352,0.9999658902619416,-24.666300910023825
9.36,0.9999662020612242,-24.86519348621014
9.368,0.9999665161020372,-25.064120194084673
9.376,0.9999668322766009,-25.263080946358986
9.384,0.9999671504771175,-25.46207565543101
9.392,0.9999674705958184,-25.661104233386425
9.4,0.9999677925250047,-25.860166592001207
9.408,0.9999681161570925,-26.059262642743196
9.416,0.9999684413846591,-26.258392296774673
9.424,0.9999687681004829,-26.45755546495417
9.432,0.999969096197589,-26.656752057839036
9.44,0.9999694255692916,-26.855981985687453
9.448,0.9999697561092364,-27.05524515846118
9.456,0.9999700877114441,-27.254541485827545
9.464,0.9999704202703509,-27.453870877162345
9.472,0.9999707536808499,-27.653233241552133
9.48,0.9999710878383357,-27.85262848779701
9.488,0.9999714226387411,-28.052056524413082
9.496,0.9999717579785795,-28.25151725963547
9.504,0.9999720937549863,-28.451010601420734
9.512,0.9999724298657554,-28.650536457450123
9.52,0.9999727662093802,-28.85009473513205
9.528,0.9999731026850922,-29.049685341605436
9.536,0.9999734391928979,-29.24930818374229
9.544,0.9999737756336173,-29.448963168151227
9.552,0.9999741119089199,-29.64865020118007
9.56,0.9999744479213631,-29.848369188919452
9.568,0.9999747835744246,-30.048120037205656
9.576,0.9999751187725411,-30.247902651624162
9.584,0.9999754534211399,-30.44771693751265
9.592,0.9999757874266751,-30.647562799964632
9.6,0.9999761206966591,-30.84744014383258
9.608,0.9999764531396957,-31.04734887373157
9.616,0.9999767846655135,-31.247288894042494
9.624,0.9999771151849942,-31.44726010891596
9.632,0.9999774446102053,-31.647262422275396
9.64,0.9999777728544305,-31.847295737821067
9.648,0.9999780998321948,-32.047359959033315
9.656,0.9999784254592975,-32.24745498917662
9.664,0.9999787496528375,-32.4475807313029
9.672,0.9999790723312405,-32.64773708825568
9.68,0.9999793934142835,-32.84792396267344
9.688,0.9999797128231226,-33.048141256993816
9.696,0.9999800304803158,-33.248388873457095
9.704,0.9999803463098476,-33.448666714110345
9.712,0.9999806602371495,-33.648974680811136
9.72,0.9999809721891262,-33.84931267523163
9.728,0.9999812820941724,-34.04968059886228
9.736,0.999981589882196,-34.250078353016164
9.744,0.9999818954846368,-34.45050583883258
9.752,0.9999821988344845,-34.65096295728147
9.76,0.9999824998662982,-34.85144960916707
9.768,0.9999827985162216,-35.05196569513235
9.776,0.9999830947220003,-35.25251111566279
9.784,0.9999833884229968,-35.453085771090684
9.792,0.9999836795602048,-35.6536895615991
9.8,0.9999839680762634,-35.8543223872262
