freq,mag,phase
6.0,0.9999999999999999,106.8576073616791
6.008,0.9999999999999999,106.75722603633665
6.016,1.0,106.6568339813319
6.024,1.0,106.55643118351243
6.032,1.0,106.4560176297361
6.04,1.0,106.35559330687106
6.048,0.9999999999999999,106.25515820179594
6.056,0.9999999999999999,106.15471230139975
6.064,1.0,106.05425559258215
6.072,1.0,105.95378806225334
6.08,0.9999999999999999,105.85330969733424
6.088,1.0,105.7528204847565
6.096,0.9999999999999999,105.65232041146261
6.104,0.9999999999999999,105.55180946440598
6.112,1.0000000000000002,105.4512876305509
6.12,1.0,105.35075489687274
6.128,0.9999999999999999,105.25021125035799
6.136,1.0,105.14965667800426
6.144,1.0,105.04909116682039
6.152,1.0000000000000002,104.9485147038265
6.16,1.0000000000000002,104.84792727605415
6.168,1.0,104.74732887054623
6.176,0.9999999765769088,104.64671947435718
6.184,0.999999950729409,104.54609907455303
6.192,0.9999999241633626,104.44546765821136
6.2,0.999999896915929,104.34482521242151
6.208,0.9999998690238671,104.24417172428453
6.216,0.9999998405235367,104.14350718091333
6.224,0.9999998114509018,104.0428315694327
6.232,0.9999997818415296,103.9421448769794
6.24,0.9999997517305937,103.84144709070215
6.248,0.9999997211528757,103.74073819776179
6.256,0.9999996901427651,103.64001818533134
6.264,0.999999658734263,103.53928704059598
6.272,0.9999996269609817,103.43854475075318
6.28,0.9999995948561473,103.33779130301275
6.288,0.999999562452601,103.23702668459688
6.296,0.9999995297828009,103.1362508827403
6.304,0.9999994968788228,103.03546388469015
6.312,0.9999994637723622,102.93466567770622
6.32,0.9999994304947355,102.833856249061
6.328,0.9999993970768825,102.73303558603959
6.336,0.9999993635493661,102.63220367593993
6.344,0.9999993299423764,102.53136050607279
6.352,0.9999992962857294,102.43050606376183
6.36,0.9999992626088708,102.32964033634367
6.368,0.9999992289408758,102.22876331116792
6.376,0.9999991953104527,102.12787497559734
6.384,0.9999991617459416,102.02697531700775
6.392,0.9999991282753188,101.92606432278824
6.4,0.9999990949261965,101.82514198034112
6.408,0.9999990617258253,101.72420827708201
6.416,0.9999990287010945,101.62326320043998
6.424,0.9999989958785354,101.52230673785746
6.432,0.9999989632843209,101.42133887679041
6.44,0.9999989309442696,101.32035960470836
6.448,0.9999988988838444,101.21936890909441
6.456,0.9999988671281556,101.11836677744543
6.464,0.9999988357019625,101.0173531972719
6.472,0.9999988046296755,100.91632815609817
6.48,0.9999987739353552,100.81529164146244
6.4879999999999995,0.9999987436427169,100.71424364091678
6.496,0.9999987137751304,100.61318414202724
6.504,0.9999986843556221,100.51211313237387
6.5120000000000005,0.9999986554068762,100.41103059955081
6.52,0.9999986269512364,100.3099365311664
6.5280000000000005,0.9999985990107083,100.20883091484305
6.536,0.9999985716069593,100.10771373821748
6.5440000000000005,0.9999985447613211,100.00658498894073
6.552,0.9999985184947918,99.90544465467815
6.5600000000000005,0.9999984928280365,99.80429272310953
6.568,0.9999984677813886,99.70312918192913
6.5760000000000005,0.9999984433748529,99.6019540188457
6.584,0.9999984196281053,99.50076722158265
6.592,0.999998396560496,99.39956877787792
6.6,0.9999983741910494,99.29835867548418
6.608,0.9999983525384675,99.19713690216886
6.616,0.9999983316211295,99.09590344571417
6.624,0.9999983114570953,98.99465829391715
6.632,0.9999982920641054,98.89340143458978
6.64,0.9999982734595829,98.79213285555895
6.648,0.9999982556606363,98.69085254466658
6.656,0.9999982386840592,98.58956048976967
6.664,0.9999982225463333,98.48825667874027
6.672,0.999998207263629,98.38694109946567
6.68,0.9999981928518071,98.28561373984833
6.688,0.9999981793264208,98.18427458780599
6.696,0.9999981667027174,98.0829236312717
6.704,0.999998154995639,97.98156085819392
6.712,0.9999981442198246,97.88018625653648
6.72,0.9999981343896118,97.77879981427871
6.728,0.999998125519038,97.67740151941547
6.736,0.9999981176218425,97.57599135995717
6.744,0.9999981107114668,97.47456932392988
6.752,0.9999981048010582,97.37313539937531
6.76,0.9999980999034689,97.27168957435092
6.768,0.9999980960312604,97.17023183692991
6.776,0.9999980931967019,97.06876217520134
6.784,0.9999980914117744,96.96728057727013
6.792,0.9999980906881712,96.86578703125711
6.8,0.9999980910372994,96.7642815252991
6.808,0.9999980924702823,96.66276404754888
6.816,0.9999980949979588,96.56123458617537
6.824,0.9999980986308885,96.45969312936357
6.832,0.9999981033793495,96.35813966531464
6.84,0.9999981092533421,96.25657418224596
6.848,0.9999981162625909,96.15499666839115
6.856,0.9999981244165443,96.05340711200012
6.864,0.9999981337243777,95.95180550133918
6.872,0.9999981441949942,95.85019182469098
6.88,0.9999981558370266,95.74856607035464
6.888,0.9999981686588386,95.6469282266458
6.896,0.9999981826685277,95.54527828189654
6.904,0.9999981978739242,95.44361622445564
6.912,0.9999982142825947,95.34194204268839
6.92,0.9999982319018438,95.24025572497682
6.928,0.9999982507387142,95.13855725971968
6.936,0.9999982707999894,95.03684663533241
6.944,0.9999982920921947,94.93512384024734
6.952,0.9999983146216002,94.8333888629136
6.96,0.999998338394219,94.73164169179722
6.968,0.9999983634158132,94.62988231538117
6.976,0.999998389691891,94.52811072216538
6.984,0.9999984172277124,94.42632690066684
6.992,0.9999984460282876,94.32453083941955
7.0,0.9999984760983801,94.2227225269747
7.008,0.9999985074425078,94.12090195190056
7.016,0.9999985400649446,94.01906910278262
7.024,0.9999985739697221,93.9172239682236
7.032,0.999998609160631,93.81536653684351
7.04,0.9999986456412231,93.71349679727966
7.048,0.9999986834148117,93.61161473818673
7.056,0.9999987224844745,93.50972034823681
7.064,0.9999987628530546,93.40781361611943
7.072,0.9999988045231615,93.3058945305416
7.08,0.9999988474971735,93.20396308022782
7.088,0.9999988917772392,93.10201925392023
7.096,0.9999989373652785,93.00006304037852
7.104,0.9999989842629842,92.89809442838002
7.112,0.9999990324718238,92.79611340671978
7.12,0.9999990819930417,92.69411996421056
7.128,0.9999991328276594,92.59211408968285
7.136,0.9999991849764777,92.490095771985
7.144,0.9999992384400788,92.38806499998316
7.152,0.9999992932188264,92.28602176256136
7.16,0.9999993493128694,92.18396604862154
7.168,0.9999994067221414,92.08189784708365
7.176,0.9999994654463625,91.97981714688557
7.184,0.9999995254850429,91.87772393698323
7.192,0.9999995868374817,91.77561820635063
7.2,0.99999964950277,91.67349994397989
7.208,0.9999997134797921,91.57136913888125
7.216,0.9999997787672273,91.46922578008315
7.224,0.9999998453635511,91.3670698566322
7.232,0.9999999132670363,91.26490135759333
7.24,0.999999982475756,91.16272027204968
7.248,0.9999999999999999,91.06052658910279
7.256,1.0,90.95832029787249
7.264,1.0,90.85610138749706
7.272,0.9999999999999999,90.75386984713316
7.28,0.9999999999999998,90.65162566595598
7.288,0.9999999999999999,90.5493688331591
7.296,0.9999999999999999,90.44709933795474
7.304,0.9999999999999998,90.34481716957363
7.312,1.0,90.24252231726513
7.32,1.0,90.14021477029718
7.328,0.9999999999999999,90.03789451795647
7.336,1.0,89.93556154954834
7.344,1.0,89.83321585439684
7.352,1.0,89.73085742184485
7.36,1.0,89.62848624125402
7.368,0.9999999999999999,89.52610230200482
7.376,0.9999999999999999,89.42370559349656
7.384,0.9999999999999999,89.32129610514755
7.392,0.9999999999999999,89.2188738263949
7.4,1.0,89.11643874669475
7.4079999999999995,1.0,89.01399085552225
7.416,0.9999999999999999,88.91153014237146
7.4239999999999995,1.0,88.80905659675565
7.432,1.0,88.70657020820704
7.4399999999999995,1.0,88.60407096627704
7.448,1.0,88.50155886053615
7.4559999999999995,0.9999999999999999,88.3990338805741
7.464,0.9999999999999999,88.29649601599976
7.4719999999999995,0.9999999999999999,88.19394525644131
7.48,1.0,88.09138159154607
7.4879999999999995,0.9999999999999999,87.9888050109808
7.496,1.0,87.88621550443145
7.504,1.0,87.78361306160339
7.5120000000000005,1.0,87.68099767222134
7.52,0.9999999999999999,87.57836932602945
7.5280000000000005,0.9999999999999999,87.47572801279124
7.536,1.0,87.37307372228975
7.5440000000000005,1.0,87.27040644432746
7.552,1.0,87.16772616872645
7.5600000000000005,1.0,87.0650328853282
7.568,1.0,86.96232658399389
7.5760000000000005,1.0,86.85960725460419
7.584,0.9999999999999999,86.75687488705948
7.5920000000000005,1.0,86.65412947127972
7.6,1.0,86.55137099720459
7.6080000000000005,0.9999999999999999,86.44859945479341
7.616,1.0,86.34581483402529
7.6240000000000006,0.9999999999999999,86.24301712489901
7.632,1.0,86.14020631743321
7.640000000000001,0.9999999999999999,86.03738240166624
7.648,0.9999999999999999,85.93454536765637
7.656000000000001,1.0,85.83169520548158
7.664,1.0,85.72883190523989
7.672,1.0,85.62595545704907
7.68,1.0,85.52306585104688
7.688,1.0,85.42016307739098
7.696,1.0,85.31724712625905
7.704,1.0,85.2143179878487
7.712,1.0,85.1113756523776
7.72,1.0,85.0084201100834
7.728,1.0,84.90545135122386
7.736,0.9999999999999999,84.80246936607675
7.744,1.0000000000000002,84.69947414494001
7.752,0.9999999999999999,84.59646567813164
7.76,0.9999999999999999,84.49344395598982
7.768,1.0,84.39040896887289
7.776,0.9999999999999999,84.28736070715932
7.784,1.0,84.18429916124789
7.792,0.9999999999999999,84.0812243215575
7.8,0.9999999999999999,83.97813617852735
7.808,1.0,83.87503472261689
7.816,1.0,83.77191994430585
7.824,0.9999999999999999,83.66879183409429
7.832,1.0,83.56565038250255
7.84,1.0,83.46249558007136
7.848,1.0,83.3593274173618
7.856,1.0,83.25614588495527
7.864,1.0,83.15295097345367
7.872,0.9999999999999999,83.04974267347926
7.88,0.9999999999999999,82.94652097567474
7.888,1.0,82.84328587070326
7.896,1.0,82.74003734924845
7.904,0.9999999999999999,82.63677540201445
7.912,0.9999999999999999,82.53350001972586
7.92,1.0,82.43021119312785
7.928,0.9999999999999999,82.32690891298607
7.936,1.0,82.22359317008682
7.944,1.0,82.12026395523687
7.952,1.0,82.01692125926364
7.96,1.0,81.91356507301516
7.968,1.0,81.81019538736003
7.976,0.9999999999999999,81.70681219318753
7.984,1.0,81.60341548140761
7.992,1.0,81.5000052429508
8.0,0.9999999999999999,81.39658146876842
8.008,0.9999999999999999,81.29314414983241
8.016,1.0,81.18969327713543
8.024000000000001,0.9999999999999998,81.0862288416909
8.032,1.0,80.98275083453298
8.04,0.9999999999999998,80.87925924671652
8.048,1.0,80.77575406931717
8.056000000000001,0.9999999999999999,80.6722352934314
8.064,1.0,80.56870291017646
8.072,1.0,80.46515691069034
8.08,1.0,80.36159728613188
8.088000000000001,0.9999999999999999,80.25802402768079
8.096,1.0,80.15443712653763
8.104,1.0,80.05083657392376
8.112,1.0,79.94722236108139
8.120000000000001,0.9999999999999999,79.84359447927369
8.128,0.9999999999999999,79.7399529197847
8.136,1.0,79.6362976739193
8.144,1.0,79.53262873300334
8.152000000000001,0.9999999999999998,79.42894608838358
8.16,1.0,79.32524973142773
8.168,0.9999999999999998,79.22153965352442
8.176,0.9999999999999999,79.1178158460832
8.184000000000001,0.9999999999999999,79.01407830053468
8.192,0.9999999999999999,78.9103270083304
8.2,1.0,78.80656196094283
8.208,0.9999999999999999,78.7027831498655
8.216000000000001,0.9999999999999999,78.59899056661293
8.224,0.9999999999999999,78.49518420272065
8.232,0.9999999999999999,78.3913640497452
8.24,1.0,78.28753009926416
8.248000000000001,1.0,78.18368234287614
8.256,0.9999999999999999,78.0798207722008
8.264,1.0,77.97594537887888
8.272,1.0,77.87205615457209
8.280000000000001,0.9999999999999999,77.76815309096332
8.288,0.9999999999999999,77.66423617975651
8.296,0.9999999999999999,77.56030541267664
8.304,1.0,77.45636078146978
8.312,0.9999999999999999,77.35240227790317
8.32,1.0,77.24842989376506
8.328,1.0,77.14444362086489
8.336,0.9999999999999999,77.04044345103316
8.344,0.9999999999999999,76.93642937612154
8.352,0.9999999999999999,76.83240138800276
8.36,0.9999999999999999,76.7283594785708
8.368,1.0,76.6243036397406
8.376,0.9999999999999999,76.52023386344845
8.384,1.0,76.41615014165161
8.392,1.0,76.31205246632862
8.4,1.0,76.20794082947909
8.408,0.9999999999999999,76.10381522312387
8.416,0.9999999999999999,75.99967563930488
8.424,0.9999999999999999,75.89552207008535
8.432,0.9999999999999998,75.7913545075495
8.44,0.9999999999999998,75.6871729438029
8.448,0.9999999999999999,75.58297737097222
8.456,1.0,75.47876778120532
8.464,1.0,75.37454416667123
8.472,1.0,75.27030651956021
8.48,0.9999999999999999,75.16605483208366
8.488,1.0,75.06178909647426
8.496,1.0,74.95750930498579
8.504,0.9999999999999999,74.8532154498933
8.512,0.9999999999999999,74.74890752349296
8.52,0.9999999999999999,74.64458551810228
8.528,1.0,74.54024942605979
8.536,1.0,74.43589923972542
8.544,0.9999999999999999,74.33153495148011
8.552,0.9999999999999999,74.22715655372618
8.56,1.0,74.12276403888704
8.568,0.9999999999999999,74.01835739940736
8.576,0.9999999999999999,73.913936627753
8.584,0.9999999999999999,73.80950171641105
8.592,1.0,73.70505265788975
8.6,0.9999999999999998,73.60058944471864
8.608,1.0,73.49611206944836
8.616,1.0,73.39162052465086
8.624,1.0,73.28711480291919
8.632,1.0,73.18259489686773
8.64,1.0,73.0780607991319
8.648,0.9999999999999999,72.97351250236848
8.656,1.0,72.86894999925535
8.664,0.9999999999999998,72.76437328249165
8.672,0.9999999999999999,72.65978234479762
8.68,0.9999999999999999,72.55517717891482
8.688,0.9999999999999999,72.45055777760588
8.696,1.0,72.34592413365475
8.704,0.9999999999999999,72.2412762398664
8.712,1.0,72.13661408906715
8.72,1.0,72.03193767410436
8.728,1.0,71.92724698784666
8.736,1.0,71.82254202318381
8.744,1.0,71.71782277302677
8.752,1.0,71.61308923030761
8.76,1.0,71.50834138797963
8.768,1.0,71.40357923901719
8.776,0.9999999999999999,71.29880277641593
8.784,1.0,71.19401199319252
8.792,1.0,71.08920688238486
8.8,1.0,70.9843874370519
8.808,1.0,70.87955365027383
8.815999999999999,1.0,70.77470551515188
8.824,1.0,70.66984302480842
8.832,1.0,70.56496617238693
8.84,1.0,70.46007495105208
8.847999999999999,1.0,70.35516935398955
8.856,0.9999999999999999,70.25024937440612
8.864,1.0,70.14531500552971
8.872,1.0,70.04036624060933
8.879999999999999,0.9999999999999999,69.93540307291502
8.888,1.0,69.83042549573788
8.896,1.0,69.72543350239017
8.904,1.0,69.62042708620515
8.911999999999999,1.0,69.51540624053709
8.92,0.9999999999999999,69.41037095876132
8.928,1.0,69.30532123427423
8.936,0.9999999999999999,69.20025706049329
8.943999999999999,0.9999999999999999,69.09517843085689
8.952,1.0,68.99008533882441
8.96,1.0,68.88497777787637
8.968,1.0,68.77985574151417
8.975999999999999,1.0,68.67471922326023
8.984,1.0,68.5695682166579
8.992,0.9999999999999999,68.46440271527156
9.0,1.0,68.35922271268659
9.008,1.0,68.25402820250918
9.016,0.9999999999999999,68.14881917836651
9.024000000000001,1.0,68.04359563390675
9.032,0.9999999999999999,67.93835756279894
9.04,1.0,67.83310495873303
9.048,1.0,67.72783781541985
9.056000000000001,1.0,67.62255612659114
9.064,0.9999999999999998,67.51725988599956
9.072,0.9999999999999999,67.41194908741856
9.08,1.0,67.30662372464246
9.088000000000001,1.0,67.20128379148643
9.096,0.9999999999999998,67.09592928178654
9.104,0.9999999999999999,66.99056018939959
9.112,1.0,66.8851765082032
9.120000000000001,1.0,66.77977823209581
9.128,1.0000000000000002,66.67436535499671
9.136,1.0,66.56893787084587
9.144,1.0,66.46349577360402
9.152000000000001,1.0,66.35803905725271
9.16,1.0,66.25256771579421
9.168,0.9999999999999998,66.14708174325146
9.176,0.9999999999999999,66.04158113366813
9.184000000000001,1.0,65.93606588110865
9.192,1.0,65.83053597965811
9.2,1.0,65.72499142342222
9.208,1.0,65.61943220652735
9.216000000000001,1.0,65.51385832312063
9.224,0.9999999999999999,65.4082697673697
9.232,0.9999999999999999,65.30266653346288
9.24,1.0,65.19704861560903
9.248000000000001,0.9999999999999999,65.09141600803771
9.256,0.9999999999999999,64.98576870499896
9.264,1.0,64.88010670076345
9.272,0.9999999999999999,64.77442998962228
9.280000000000001,1.0,64.6687385658872
9.288,1.0,64.56303242389049
9.296,1.0,64.45731155798485
9.304,1.0,64.35157596254345
9.312000000000001,1.0,64.24582563196002
9.32,1.0,64.14006056064875
9.328,0.9999999999999999,64.03428074304419
9.336,1.0,63.928486173601314
9.344,1.0,63.822676846795616
9.352,0.9999999999999999,63.716852757122865
9.36,0.9999999999999999,63.611013899099284
9.368,1.0,63.50516026726142
9.376,1.0,63.39929185616616
9.384,1.0,63.29340866039072
9.392,1.0,63.18751067453269
9.4,1.0,63.08159789320984
9.408,0.9999999999999999,62.97567031106034
9.416,0.9999999999999999,62.86972792274252
9.424,0.9999999999999999,62.763770722935014
9.432,1.0,62.65779870633664
9.44,0.9999999999999999,62.55181186766649
9.448,0.9999999999999999,62.44581020166375
9.456,1.0,62.33979370308789
9.464,0.9999999999999999,62.23376236671844
9.472,1.0,62.12771618735512
9.48,0.9999999999999999,62.02165515981773
9.488,0.9999999999999999,61.91557927894626
9.496,1.0,61.80948853960065
9.504,1.0,61.70338293666103
9.512,0.9999999999999999,61.59726246502746
9.52,1.0,61.491127119620124
9.528,1.0,61.384976895379175
9.536,1.0,61.27881178726476
9.544,1.0,61.172631790256936
9.552,1.0,61.066436899355864
9.56,1.0,60.96022710958144
9.568,0.9999999999999999,60.854002415973646
9.576,1.0,60.74776281359222
9.584,1.0,60.641508297516886
9.592,1.0,60.53523886284712
9.6,1.0,60.42895450470232
9.608,0.9999999999999999,60.32265521822163
9.616,1.0000000000000002,60.21634099856402
9.624,1.0,60.11001184090821
9.632,1.0,60.00366774045271
9.64,1.0,59.89730869241572
9.648,1.0,59.7909346920352
9.656,1.0,59.68454573456871
9.664,1.0,59.57814181529359
9.672,1.0,59.47172292950673
9.68,1.0,59.365289072524746
9.688,1.0,59.25884023968375
9.696,1.0,59.15237642633956
9.704,1.0,59.045897627867426
9.712,1.0,58.939403839662255
9.72,1.0,58.8328950571384
9.728,0.9999999999999999,58.726371275729754
9.736,1.0,58.61983249088967
9.744,0.9999999999999999,58.51327869809097
9.752,1.0,58.40670989282588
9.76,0.9999999999999999,58.30012607060605
9.768,0.9999999999999999,58.19352722696253
9.776,1.0,58.086913357445766
9.784,1.0,57.98028445762546
9.792,1.0,57.87364052309071
9.8,0.9999999999999998,57.76698154944988
9.808,1.0,57.660307532330656
9.816,1.0,57.55361846737988
9.824,1.0,57.44691435026375
9.832,1.0,57.34019517666758
9.84,1.0,57.23346094229591
9.847999999999999,0.9999999999999999,57.126711642872436
9.856,1.0,57.01994727413996
9.864,1.0,56.91316783186044
9.872,0.9999999999999999,56.80637331181493
9.879999999999999,1.0,56.699563709803535
9.888,1.0,56.59273902164536
9.896,1.0,56.48589924317861
9.904,0.9999999999999999,56.379044370260466
9.911999999999999,1.0,56.27217439876707
9.92,1.0,56.16528932459347
9.928,1.0,56.05838914365372
9.936,1.0,55.951473851880735
9.943999999999999,1.0,55.84454344522633
9.952,1.0,55.73759791966111
9.96,1.0,55.630637271174585
9.968,1.0,55.52366149577506
9.975999999999999,1.0,55.41667058948958
9.984,1.0,55.30966454836393
9.992,0.9999999999999999,55.2026433684627
10.0,1.0,55.09560704586917
10.008,1.0,54.98855557668527
10.016,1.0,54.88148895703155
10.024000000000001,1.0,54.77440718304729
10.032,1.0,54.667310250890324
10.04,1.0,54.560198156737066
10.048,1.0,54.453070896782485
10.056000000000001,1.0,54.34592846724007
10.064,1.0,54.238770864341916
10.072,0.9999999999999999,54.131598084338464
10.08,0.9999999999999999,54.024410123498654
10.088000000000001,1.0,53.917206978109895
10.096,1.0,53.80998864447801
10.104,0.9999999999999999,53.70275511892712
10.112,0.9999999999999999,53.59550639779977
10.120000000000001,0.9999999999999999,53.48824247745681
10.128,1.0,53.38096335427745
10.136,0.9999999999999999,53.273669024659064
10.144,1.0,53.166359485017345
10.152000000000001,1.0,53.05903473178622
10.16,1.0,52.95169476141783
10.168,0.9999999999999999,52.844339570382445
10.176,1.0000000000000002,52.73696915516846
10.184000000000001,1.0,52.629583512282494
10.192,0.9999999999999999,52.52218263824919
10.2,0.9999999999999999,52.41476652961127
10.208,1.0,52.30733518292945
10.216000000000001,0.9999999999999999,52.19988859478258
10.224,1.0,52.09242676176745
10.232,1.0,51.98494968049875
10.24,1.0,51.877457347609166
10.248000000000001,0.9999999999999999,51.769949759749316
10.256,0.9999999999999999,51.66242691358769
10.264,1.0,51.55488880581061
