freq,mag,phase
6.0,0.9999988907980687,153.7640364056794
6.008,0.9999986060600632,153.3600389612581
6.016,0.9999983311165488,152.95544587539314
6.024,0.9999980658141344,152.55025024893928
6.032,0.9999978100004518,152.14444515116398
6.04,0.9999975635241518,151.73802361981342
6.048,0.9999973262349056,151.33097866118362
6.056,0.999997097983398,150.92330325019645
6.064,0.9999968786213305,150.51499033048123
6.072,0.9999966680014163,150.10603281446166
6.08,0.9999964659773788,149.69642358344828
6.088,0.9999962724039503,149.28615548773726
6.096,0.9999960871368696,148.87522134671443
6.104,0.9999959100328781,148.46361394896638
6.112,0.9999957409497211,148.05132605239714
6.12,0.9999955797461435,147.63835038435215
6.128,0.9999954262818894,147.22467964174842
6.136,0.999995280417697,146.81030649121215
6.144,0.9999951420152982,146.39522356922325
6.152,0.9999950109374176,145.97942348226738
6.16,0.9999948870477698,145.56289880699543
6.168,0.9999947702110548,145.14564209039114
6.176,0.9999946602929598,144.72764584994644
6.184,0.9999945571601543,144.30890257384516
6.192,0.9999944606802886,143.88940472115547
6.2,0.9999943707219919,143.46914472203053
6.208,0.9999942871548712,143.04811497791857
6.216,0.9999942098495076,142.62630786178198
6.224,0.9999941386774551,142.2037157183259
6.232,0.9999940735112393,141.78033086423628
6.24,0.9999940142243521,141.35614558842815
6.248,0.9999939606912538,140.931152152304
6.256,0.9999939127873697,140.50534279002258
6.264,0.9999938703890877,140.07870970877835
6.272,0.9999938333737557,139.65124508909201
6.28,0.9999938016196821,139.22294108511238
6.288,0.9999937750061302,138.7937898249295
6.296,0.9999937534133214,138.36378341089986
6.304,0.9999937367224292,137.93291391998355
6.312,0.9999937248155777,137.5011734040938
6.32,0.9999937175758459,137.0685538904594
6.328,0.9999937148872547,136.63504738199975
6.336,0.9999937166347769,136.20064585771343
6.344,0.9999937227043297,135.76534127308028
6.352,0.9999937329827726,135.32912556047742
6.36,0.9999937473579089,134.89199062960947
6.368,0.9999937657184836,134.45392836795313
6.376,0.999993787954179,134.0149306412168
6.384,0.9999938139556185,133.5749892938154
6.392,0.9999938436143616,133.13409614936054
6.4,0.9999938768229041,132.6922430111665
6.408,0.9999939134746753,132.2494216627726
6.416,0.9999939534640415,131.80562386848197
6.424,0.9999939966862987,131.36084137391717
6.432,0.9999940430376776,130.91506590659307
6.44,0.9999940924153389,130.4682891765072
6.448,0.9999941447173739,130.02050287674822
6.456,0.9999941998428045,129.57169868412254
6.464,0.9999942576915809,129.12186825979967
6.472,0.9999943181645824,128.67100324997645
6.48,0.999994381163617,128.21909528656101
6.4879999999999995,0.9999944465914199,127.76613598787617
6.496,0.9999945143516552,127.31211695938296
6.504,0.9999945843489133,126.85702979442534
6.5120000000000005,0.9999946564887128,126.40086607499472
6.52,0.9999947306774987,125.94361737251708
6.5280000000000005,0.9999948068226445,125.48527524866044
6.536,0.9999948848324498,125.02583125616586
6.5440000000000005,0.9999949646161441,124.5652769396995
6.552,0.9999950460838838,124.10360383672902
6.5600000000000005,0.9999951291467541,123.64080347842167
6.568,0.999995213716769,123.17686739056779
6.5760000000000005,0.9999952997068734,122.7117870945269
6.584,0.9999953870309414,122.24555410819947
6.592,0.999995475603779,121.77815994702256
6.6,0.9999955653411254,121.30959612499174
6.608,0.9999956561596508,120.8398541557081
6.616,0.9999957479769626,120.3689255534517
6.624,0.9999958407116017,119.89680183428138
6.632,0.9999959342830465,119.4234745171617
6.64,0.9999960286117148,118.94893512511706
6.648,0.9999961236189635,118.47317518641393
6.656,0.9999962192270913,117.9961862357707
6.664,0.9999963153593402,117.51795981559685
6.672,0.999996411939898,117.03848747726039
6.68,0.9999965088938984,116.55776078238536
6.688,0.9999966061474257,116.07577130417843
6.696,0.999996703627516,115.59251062878648
6.704,0.9999968012621575,115.10797035668412
6.712,0.9999968989802956,114.6221421040926
6.72,0.9999969967118347,114.1350175044298
6.728,0.9999970943876398,113.6465882097923
6.736,0.9999971919395408,113.15684589246938
6.744,0.9999972893003329,112.6657822464894
6.752,0.9999973864037827,112.1733889891996
6.76,0.9999974831846289,111.67965786287839
6.768,0.9999975795785865,111.18458063638184
6.776,0.9999976755223489,110.68814910682391
6.784,0.9999977709535931,110.19035510129083
6.792,0.9999978658109816,109.69119047859031
6.8,0.999997960034167,109.19064713103556
6.808,0.999998053563794,108.68871698626461
6.816,0.9999981463415057,108.18539200909508
6.824,0.9999982383099454,107.680664203415
6.832,0.9999983294127609,107.1745256141095
6.84,0.9999984195946088,106.66696832902404
6.848,0.9999985088011601,106.15798448096423
6.856,0.9999985969791015,105.64756624973252
6.864,0.9999986840761413,105.13570586420204
6.872,0.9999987700410146,104.62239560442762
6.88,0.9999988548234855,104.10762780379453
6.888,0.9999989383743545,103.59139485120461
6.896,0.9999990206454602,103.07368919330052
6.904,0.9999991015896863,102.55450333672776
6.912,0.9999991811609658,102.03382985043491
6.92,0.9999992593142843,101.51166136801189
6.928,0.9999993360056868,100.98799059006673
6.936,0.999999411192282,100.46281028664052
6.944,0.9999994848322469,99.93611329966068
6.952,0.9999995568848321,99.4078925454326
6.96,0.999999627310367,98.8781410171699
6.968,0.9999996960702656,98.34685178756241
6.976,0.9999997631270292,97.8140180113831
6.984,0.999999828444255,97.27963292813249
6.992,0.9999998919866386,96.74368986472155
7.0,0.9999999537199801,96.2061822381921
7.008,1.0,95.6671035584751
7.016,1.0,95.12644743118635
7.024,1.0,94.5842075604591
7.032,1.0,94.04037775181399
7.04,0.9999999999999999,93.49495191506517
7.048,0.9999999999999999,92.94792406726283
7.056,1.0,92.39928833567153
7.064,1.0,91.84903896078379
7.072,1.0,91.29717029936857
7.08,1.0,90.74367682755432
7.088,1.0,90.18855314394557
7.096,1.0,89.6317939727729
7.104,1.0,89.07339416707536
7.112,0.9999999999999999,88.51334871191489
7.12,0.9999999999999999,87.95165272762164
7.128,1.0,87.38830147306989
7.136,0.9999999999999999,86.82329034898326
7.144,1.0,86.25661490126855
7.152,0.9999999999999999,85.6882708243775
7.16,1.0,85.11825396469477
7.168,0.9999999999999999,84.54656032395206
7.176,1.0,83.9731860626665
7.184,1.0,83.39812750360252
7.192,1.0,82.82138113525586
7.2,0.9999999999999998,82.24294361535868
7.208,1.0,81.66281177440413
7.216,1.0,81.08098261918931
7.224,1.0,80.49745333637493
7.232,1.0,79.91222129606041
7.24,1.0,79.3252840553727
7.248,0.9999999999999999,78.73663936206735
7.256,0.9999999999999999,78.14628515813992
7.264,1.0,77.55421958344637
7.272,1.0,76.96044097933026
7.28,0.9999999999999999,76.36494789225519
7.288,1.0,75.76773907744037
7.296,1.0,75.16881350249741
7.304,0.9999999999999999,74.56817035106636
7.312,0.9999999999999999,73.96580902644872
7.32,1.0,73.36172915523557
7.328,0.9999999999999999,72.75593059092802
7.336,0.9999999999999999,72.14841341754851
7.344,0.9999999999999999,71.53917795323973
7.352,1.0,70.92822475384939
7.36,1.0,70.31555461649815
7.368,1.0,69.70116858312814
7.376,1.0,69.08506794402936
7.384,0.9999999999999999,68.46725424134166
7.392,1.0,67.84772927252926
7.4,1.0,67.22649509382533
7.4079999999999995,1.0,66.6035540236434
7.416,0.9999999999999999,65.97890864595293
7.4239999999999995,1.0,65.35256181361716
7.432,1.0,64.7245166516872
7.4399999999999995,1.0,64.09477656065395
7.448,0.9999999964887607,63.463345219649845
7.4559999999999995,0.9999999366188821,62.8302265896018
7.464,0.9999998749780091,62.19542491632814
7.4719999999999995,0.9999998116019129,61.558944733580255
7.48,0.9999997465274466,60.920790866021704
7.4879999999999995,0.9999996797925338,60.28096843214562
7.496,0.999999611436154,59.639482847123126
7.504,0.9999995414983263,58.99633982558314
7.5120000000000005,0.999999470020096,58.35154538431664
7.52,0.9999993970435151,57.70510584490582
7.5280000000000005,0.9999993226116288,57.05702783627028
7.536,0.9999992467684534,56.40731829713202
7.5440000000000005,0.9999991695589613,55.75598447839024
7.552,0.9999990910290605,55.10303394540795
7.5600000000000005,0.9999990112255737,54.448474580201875
7.568,0.9999989301962177,53.79231458353696
7.5760000000000005,0.9999988479895834,53.134562476917466
7.584,0.9999987646551108,52.47522710447569
7.5920000000000005,0.9999986802430688,51.814317634750424
7.6,0.9999985948045286,51.15184356235626
7.6080000000000005,0.9999985083913412,50.48781470953585
7.616,0.9999984210561111,49.8222412275961
7.6240000000000006,0.9999983328521711,49.15513359822088
7.632,0.9999982438335535,48.48650263466087
7.640000000000001,0.9999981540549656,47.8163594827933
7.648,0.9999980635717587,47.144715622052665
7.656000000000001,0.9999979724399003,46.471582866224665
7.664,0.9999978807159449,45.796973364104936
7.672,0.9999977884570028,45.12089960001505
7.68,0.9999976957207093,44.44337439417676
7.688,0.9999976025651927,43.764410902938735
7.696,0.9999975090490429,43.08402261885435
7.704,0.9999974152312775,42.40222337060753
7.712,0.9999973211713076,41.7190273227838
7.72,0.999997226928905,41.03444897548436
7.728,0.9999971325641668,40.3485031637801
7.736,0.9999970381374786,39.66120505700395
7.744,0.9999969437094809,38.97257015787893
7.752,0.9999968493410304,38.282614301479505
7.76,0.9999967550931645,37.591353654024964
7.768,0.9999966610270632,36.89880471150222
7.776,0.9999965672040103,36.20498429811682
7.784,0.9999964736853567,35.50990956457016
7.792,0.9999963805324801,34.8135979861617
7.8,0.9999962878067474,34.116067360714844
7.808,0.9999961955694731,33.41733580632514
7.816,0.9999961038818805,32.71742175892995
7.824,0.9999960128050627,32.01634396969872
7.832,0.9999959223999411,31.314121502243115
7.84,0.9999958327272243,30.610773729646535
7.848,0.9999957438473678,29.9063203313126
7.856,0.9999956558205341,29.20078128963267
7.864,0.9999955687065509,28.49417688647201
7.872,0.9999954825648698,27.78652769947524
7.88,0.999995397454525,27.077854598191053
7.888,0.9999953134340941,26.368178740017147
7.896,0.9999952305616545,25.65752156596575
7.904,0.9999951488947438,24.945904796251003
7.912,0.9999950684903195,24.233350425699204
7.92,0.9999949894047178,23.519880718983245
7.928,0.9999949116936125,22.805518205682812
7.936,0.9999948354119762,22.090285675172122
7.944,0.9999947606140395,21.37420617133709
7.952,0.9999946873532517,20.657302987123984
7.96,0.9999946156822423,19.93959965892214
7.968,0.9999945456527817,19.22111996078293
7.976,0.9999944773157426,18.501887898478007
7.984,0.9999944107210635,17.78192770339956
7.992,0.9999943459177106,17.061263826305808
8.0,0.9999942829536416,16.3399209309149
8.008,0.9999942218757697,15.617923887350996
8.016,0.9999941627299287,14.895297765445441
8.024000000000001,0.9999941055608379,14.17206782789864
8.032,0.9999940504120691,13.448259523304321
8.04,0.9999939973260138,12.72389847904176
8.048,0.9999939463438492,11.999010494040764
8.056000000000001,0.9999938975055099,11.273621531423379
8.064,0.9999938508496555,10.547757711026463
8.072,0.9999938064136424,9.821445301810527
8.08,0.9999937642334946,9.09471071416064
8.088000000000001,0.9999937243438763,8.36758049208378
8.096,0.9999936867780684,7.6400813053074685
8.104,0.9999936515679381,6.912239941285604
8.112,0.9999936187439207,6.184083297117828
8.120000000000001,0.9999935883349915,5.455638371387451
8.128,0.9999935603686475,4.726932255922996
8.136,0.9999935348708867,3.9979921274900256
8.144,0.9999935118661862,3.2688452394199
8.152000000000001,0.9999934913774874,2.5395189131806943
8.16,0.9999934734261767,1.810040529896181
8.168,0.9999934580320717,1.0804375218193256
8.176,0.9999934452134064,0.35073736376757975
8.184000000000001,0.9999934349868176,-0.37903243547444565
8.192,0.9999934273673347,-1.10884434177929
8.2,0.9999934223683693,-1.838670804320549
8.208,0.999993420001705,-2.568484264229671
8.216000000000001,0.9999934202774925,-3.2982571632593927
8.224,0.9999934232042408,-4.027961952448309
8.232,0.9999934287888141,-4.757571100779193
8.24,0.9999934370364294,-5.487057103824166
8.248000000000001,0.9999934479506514,-6.216392492370605
8.256,0.9999934615333963,-6.945549841022332
8.264,0.9999934777849283,-7.67450177676875
8.272,0.9999934967038655,-8.40322098751506
8.280000000000001,0.9999935182871816,-9.131680230567959
8.288,0.9999935425302108,-9.85985234107105
8.296,0.9999935694266546,-10.587710240383275
8.304,0.9999935989685906,-11.315226944393594
8.312,0.9999936311464795,-12.042375571766412
8.32,0.9999936659491764,-12.769129352113664
8.328,0.9999937033639419,-13.495461634083457
8.336,0.9999937433764565,-14.22134589336506
8.344,0.9999937859708328,-14.94675574059896
8.352,0.9999938311296316,-15.671664929192174
8.36,0.9999938788338795,-16.396047363027947
8.368,0.9999939290630844,-17.11987710407009
8.376,0.9999939817952569,-17.843128379851663
8.384,0.9999940370069282,-18.56577559084818
8.392,0.9999940946731726,-19.287793317725715
8.4,0.99999415476763,-20.009156328464073
8.408,0.9999942172625274,-20.72983958534607
8.416,0.9999942821287036,-21.44981825181317
8.424,0.999994349335637,-22.169067699178825
8.432,0.9999944188514679,-22.887563513200465
8.44,0.9999944906430271,-23.605281500501484
8.448,0.9999945646758653,-24.322197694844732
8.456,0.999994640914279,-25.03828836324913
8.464,0.9999947193213428,-25.7535300119514
8.472,0.9999947998589368,-26.467899392204863
8.48,0.9999948824877793,-27.18137350591763
8.488,0.9999949671674584,-27.893929611122623
8.496,0.9999950538564638,-28.60554522728211
8.504,0.9999951425122191,-29.316198140419587
8.512,0.9999952330911158,-30.025866408082013
8.52,0.999995325548547,-30.734528364125758
8.528,0.9999954198389411,-31.442162623329626
8.536,0.9999955159157974,-32.14874808582862
8.544,0.9999956137317215,-32.8542639413723
8.552,0.9999957132384585,-33.55868967340178
8.56,0.9999958143869309,-34.26200506294956
8.568,0.9999959171272739,-34.96419019235658
8.576,0.9999960214088712,-35.665225448811306
8.584,0.9999961271803922,-36.36509152770527
8.592,0.9999962343898265,-37.06376943581049
8.6,0.999996342984524,-37.761240494273494
8.608,0.9999964529112277,-38.457486341431604
8.616,0.9999965641161126,-39.152488935446875
8.624,0.9999966765448227,-39.84623055676326
8.632,0.999996790142505,-40.53869381038299
8.64,0.9999969048538487,-41.229861627968134
8.648,0.9999970206231207,-41.91971726976344
8.656,0.9999971373942014,-42.608244326346885
8.664,0.9999972551106211,-43.29542672020413
8.672,0.9999973737155953,-43.98124870713387
8.68,0.9999974931520618,-44.66569487748051
8.688,0.9999976133627131,-45.34875015720108
8.696,0.9999977342900344,-46.030399808763576
8.704,0.9999978558763374,-46.710629431883525
8.712,0.9999979780637921,-47.389424964096406
8.72,0.9999981007944647,-48.066772681172836
8.728,0.9999982240103478,-48.74265919737436
8.736,0.9999983476533951,-49.41707146555717
8.744,0.999998471665553,-50.08999677712152
8.752,0.9999985959887939,-50.76142276181429
8.76,0.9999987205651464,-51.431337387383145
8.768,0.9999988453367262,-52.09972895908942
8.776,0.9999989702457687,-52.76658611907822
8.784,0.999999095234657,-53.431897845613655
8.792,0.999999220245951,-54.09565345217721
8.8,0.9999993452224181,-54.75784258643752
8.808,0.999999470107059,-55.418455229089666
8.815999999999999,0.9999995948431377,-56.0774816925722
8.824,0.9999997193742062,-56.734912619661124
8.832,0.999999843644132,-57.39073898194613
8.84,0.9999999675971233,-58.04495207819266
8.847999999999999,1.0,-58.697543532592576
8.856,1.0,-59.34850529290657
8.864,1.0,-59.997829628501954
8.872,1.0,-60.64550912828996
8.879999999999999,1.0,-61.29153669856559
8.888,0.9999999999999999,-61.9359055607527
8.896,1.0,-62.5786092490583
8.904,1.0,-63.21964160804045
8.911999999999999,0.9999999999999999,-63.858996790091915
8.92,1.0,-64.49666925284339
8.928,0.9999999999999999,-65.13265375648922
8.936,0.9999999999999999,-65.76694536104053
8.943999999999999,1.0,-66.3995394235078
8.952,1.0,-67.03043159501617
8.96,1.0,-67.65961781785705
8.968,1.0,-68.28709432248017
8.975999999999999,0.9999999999999999,-68.91285762442814
8.984,1.0,-69.53690452121714
8.992,0.9999999999999999,-70.15923208916638
9.0,1.0,-70.77983768018099
9.008,1.0,-71.39871891848996
9.016,1.0,-72.01587369734244
9.024000000000001,0.9999999999999999,-72.63130017566527
9.032,0.9999999999999999,-73.24499677468567
9.04,1.0,-73.8569621745211
9.048,1.0,-74.4671953107388
9.056000000000001,0.9999999999999999,-75.07569537088833
9.064,0.9999999999999999,-75.68246179100998
9.072,0.9999999999999999,-76.28749425212186
9.08,1.0,-76.89079267668707
9.088000000000001,1.0,-77.4923572250643
9.096,1.0,-78.09218829194504
9.104,0.9999999999999999,-78.69028650277896
9.112,1.0,-79.2866527101896
9.120000000000001,1.0,-79.88128799038286
9.128,1.0,-80.47419363955142
9.136,1.0,-81.06537117027644
9.144,0.9999999999999999,-81.65482230792836
9.152000000000001,0.9999999999999999,-82.24254898706913
9.16,1.0,-82.8285533478586
9.168,1.0,-83.4128377324665
9.176,1.0,-83.99540468149085
9.184000000000001,1.0,-84.57625693038608
9.192,1.0,-85.15539740590201
9.2,1.0,-85.7328292225357
9.208,1.0,-86.30855567899702
9.216000000000001,0.9999999999999999,-86.88258025468964
9.224,1.0,-87.45490660621009
9.232,1.0,-88.02553856386531
9.24,1.0,-88.5944801282099
9.248000000000001,1.0,-89.16173546660451
9.256,1.0,-89.72730890979777
9.264,1.0,-90.29120494853161
9.272,1.0,-90.85342823017156
9.280000000000001,1.0,-91.41398355536278
9.288,1.0,-91.972875874714
9.296,1.0,-92.53011028550962
9.304,1.0,-93.08569202845025
9.312000000000001,1.0,-93.63962648442336
9.32,0.9999999999999999,-94.19191917130534
9.328,0.9999999999999999,-94.74257574079508
9.336,1.0,-95.29160197527946
9.344,1.0,-95.83900378473196
9.352,0.9999999999999999,-96.38478720364596
9.36,1.0,-96.92895838800092
9.368,0.9999999999999999,-97.47152361226513
9.376,0.9999999999999999,-98.01248926643218
9.384,0.9999999999999999,-98.55186185309509
9.392,1.0,-99.08964798455523
9.4,1.0,-99.62585437996967
9.408,0.9999999999999999,-100.16048786253386
9.416,1.0,-100.69355535670378
9.424,1.0,-101.22506388545393
9.432,1.0,-101.75502056757539
9.44,1.0,-102.28343261500987
9.448,1.0,-102.81030733022483
9.456,0.9999999999999999,-103.33565210362474
9.464,1.0,-103.85947441100336
9.472,0.9999999999999999,-104.38178181103282
9.48,0.9999999999999999,-104.90258194279372
9.488,0.9999999999999999,-105.42188252334239
9.496,0.9999999999999999,-105.93969134531883
9.504,0.9999999999999999,-106.45601627459222
9.512,0.9999999999999999,-106.97086524794686
9.52,1.0,-107.48424627080566
9.528,1.0,-107.99616741499413
9.536,1.0,-108.50663681654143
9.544,0.9999999999999999,-109.01566267352193
9.552,0.9999999999999999,-109.52325324393352
9.56,0.9999999999999999,-110.02941684361629
9.568,0.9999999999999999,-110.53416184420733
9.576,0.9999999999999999,-111.03749667113588
9.584,1.0,-111.53942980165408
9.592,1.0,-112.03996976290745
9.6,0.9999999999999999,-112.53912513004101
9.608,0.9999999999999999,-113.03690452434418
9.616,0.9999999999999999,-113.53331661143095
9.624,1.0,-114.02837009945846
9.632,1.0,-114.52207373738014
9.64,0.9999999999999999,-115.01443631323673
9.648,0.9999999999999999,-115.5054666524813
9.656,0.9999999999999999,-115.99517361634138
9.664,1.0,-116.48356610021463
9.672,1.0,-116.97065303210094
9.68,1.0,-117.45644337106722
9.688,1.0,-117.94094610574827
9.696,1.0,-118.42417025287928
9.704,1.0,-118.90612485586384
9.712,1.0,-119.38681898337302
9.72,1.0,-119.86626172797891
9.728,0.9999999999999999,-120.34446220481874
9.736,0.9999999999999999,-120.82142955029249
9.744,1.0,-121.29717292079063
9.752,1.0,-121.77170149145424
9.76,1.0,-122.24502445496452
9.768,0.9999999999999999,-122.71715102036431
9.776,0.9999999999999999,-123.18809041190754
9.784,0.9999999999999999,-123.65785186794042
9.792,0.9999999999999999,-124.12644463980966
9.8,0.9999999999999999,-124.59387799080149
9.808,0.9999999999999999,-125.06016119510696
9.816,1.0,-125.52530353681723
9.824,1.0,-125.98931430894456
9.832,0.9999999999999999,-126.45220281247205
9.84,0.9999999999999999,-126.91397835542867
9.847999999999999,0.9999999999999999,-127.3746502519919
9.856,0.9999999999999999,-127.8342278216156
9.864,0.9999999999999999,-128.29272038818334
