freq,mag,phase
6.0,0.999996175297077,103.65412964825454
6.008,0.9999970394089044,103.54094332495185
6.016,0.9999978798391269,103.42771281345733
6.024,0.9999986968303907,103.31443806748004
6.032,0.9999994906242711,103.20111904079728
6.04,0.9999999999999998,103.08775568725524
6.048,0.9999999999999999,102.97434796076955
6.056,0.9999999999999998,102.86089581532602
6.064,0.9999999999999999,102.74739920498116
6.072,1.0,102.63385808386293
6.08,0.9999999999999999,102.52027240617124
6.088,0.9999999999999999,102.40664212617874
6.096,1.0,102.29296719823125
6.104,1.0,102.17924757674868
6.112,0.9999999999999999,102.06548321622537
6.12,0.9999999999999999,101.95167407123097
6.128,1.0,101.83782009641094
6.136,0.9999999999999999,101.72392124648732
6.144,0.9999999999999999,101.6099774762592
6.152,1.0,101.49598874060358
6.16,1.0,101.38195499447586
6.168,1.0,101.26787619291053
6.176,1.0,101.15375229102193
6.184,1.0,101.03958324400477
6.192,1.0,100.92536900713483
6.2,1.0,100.81110953576967
6.208,0.9999999999999999,100.69680478534927
6.216,0.9999999999999999,100.58245471139664
6.224,1.0,100.46805926951856
6.232,1.0,100.35361841540623
6.24,1.0,100.23913210483595
6.248,1.0,100.12460029366972
6.256,1.0,100.01002293785602
6.264,1.0,99.89539999343046
6.272,0.9999999999999999,99.78073141651642
6.28,0.9999999999999999,99.66601716332576
6.288,0.9999999999999999,99.5512571901595
6.296,1.0,99.43645145340854
6.304,1.0,99.3215999095543
6.312,0.9999999999999999,99.20670251516944
6.32,0.9999999999999999,99.09175922691857
6.328,1.0000000000000002,98.97677000155892
6.336,1.0,98.86173479594103
6.344,1.0,98.74665356700952
6.352,1.0000000000000002,98.63152627180372
6.36,0.9999999999999999,98.51635286745842
6.368,1.0,98.40113331120457
6.376,0.9999999999999999,98.28586756037002
6.384,1.0,98.1705555723802
6.392,1.0,98.05519730475885
6.4,1.0,97.93979271512877
6.408,1.0,97.82434176121251
6.416,1.0,97.70884440083314
6.424,1.0,97.59330059191495
6.432,1.0,97.47771029248422
6.44,1.0,97.36207346066995
6.448,0.9999999999999999,97.2463900547045
6.456,0.9999999999999999,97.1306600329246
6.464,1.0,97.01488335377178
6.472,1.0,96.89905997579338
6.48,1.0,96.78318985764317
6.4879999999999995,0.9999999999999999,96.66727295808217
6.496,1.0,96.55130923597935
6.504,1.0,96.43529865031253
6.5120000000000005,1.0,96.319241160169
6.52,1.0,96.20313672474646
6.5280000000000005,1.0,96.08698530335361
6.536,1.0,95.97078685541116
6.5440000000000005,1.0,95.85454134045243
6.552,1.0,95.73824871812428
6.5600000000000005,1.0,95.62190894818781
6.568,0.9999999999999999,95.5055219905193
6.5760000000000005,1.0,95.3890878051108
6.584,1.0,95.27260635207129
6.592,1.0,95.15607759162711
6.6,0.9999999999999999,95.03950148412308
6.608,1.0,94.92287799002321
6.616,1.0,94.80620706991161
6.624,1.0,94.68948868449318
6.632,1.0,94.5727227945947
6.64,1.0,94.45590936116547
6.648,0.9999999999999999,94.33904834527829
6.656,0.9999999999999999,94.2221397081303
6.664,1.0,94.10518341104387
6.672,0.9999999999999998,93.98817941546746
6.68,1.0,93.87112768297652
6.688,1.0,93.75402817527443
6.696,0.9999999999999999,93.63688085419332
6.704,1.0000000000000002,93.51968568169504
6.712,1.0,93.40244261987208
6.72,1.0,93.28515163094846
6.728,1.0,93.16781267728074
6.736,1.0,93.05042572135888
6.744,1.0,92.93299072580722
6.752,1.0,92.8155076533855
6.76,0.9999999999999999,92.69797646698972
6.768,1.0,92.5803971296532
6.776,1.0,92.46276960454757
6.784,0.9999999999999999,92.34509385498374
6.792,1.0,92.22736984441288
6.8,0.9999999999999999,92.10959753642746
6.808,1.0,91.99177689476237
6.816,0.9999995952663511,91.87390788329576
6.824,0.9999991184431335,91.75599046605029
6.832,0.9999986375769339,91.63802460719407
6.84,0.9999981528171108,91.52001027104177
6.848,0.9999976643124941,91.40194742205566
6.856,0.9999971722114008,91.28383602484678
6.864,0.9999966766616568,91.16567604417598
6.872,0.9999961778106137,91.04746744495507
6.88,0.9999956758051698,90.92921019224792
6.888,0.9999951707917911,90.81090425127164
6.896,0.9999946629165329,90.69254958739768
6.904,0.999994152325062,90.57414616615304
6.912,0.9999936391626801,90.45569395322147
6.92,0.9999931235743494,90.33719291444459
6.928,0.9999926057047166,90.21864301582318
6.936,0.9999920856981404,90.10004422351831
6.944,0.9999915636987182,89.98139650385266
6.952,0.9999910398503159,89.86269982331171
6.96,0.9999905142965974,89.74395414854503
6.968,0.9999899871810557,89.62515944636756
6.976,0.9999894586470452,89.50631568376082
6.984,0.9999889288378181,89.38742282787436
6.992,0.9999883978965556,89.26848084602693
7.0,0.9999878659664093,89.14948970570792
7.008,0.9999873331905378,89.03044937457864
7.016,0.9999867997121473,88.91135982047368
7.024,0.9999862656745346,88.7922210114023
7.032,0.999985731221131,88.67303291554984
7.04,0.9999851964955485,88.55379550127905
7.048,0.9999846616416286,88.43450873713155
7.056,0.9999841268034925,88.31517259182922
7.064,0.9999835921255948,88.19578703427565
7.072,0.9999830577527787,88.07635203355757
7.08,0.9999825238303351,87.95686755894627
7.088,0.9999819905040618,87.8373335798991
7.096,0.999981457920329,87.71775006606089
7.104,0.9999809262261468,87.59811698726543
7.112,0.9999803955692335,87.47843431353694
7.12,0.9999798660980931,87.35870201509157
7.128,0.9999793379620887,87.23892006233878
7.136,0.9999788113115271,87.11908842588284
7.144,0.9999782862977437,86.99920707652431
7.152,0.9999777630731919,86.87927598526146
7.16,0.999977241791537,86.7592951232917
7.168,0.9999767226077588,86.63926446201292
7.176,0.9999762056782521,86.519183973025
7.184,0.9999756911609402,86.39905362813107
7.192,0.9999751792153895,86.27887339933883
7.2,0.9999746700029312,86.15864325886186
7.208,0.9999741636867914,86.03836317912082
7.216,0.9999736604322249,85.91803313274461
7.224,0.9999731604066595,85.79765309257151
7.232,0.9999726637798465,85.67722303165012
7.24,0.9999721707240188,85.55674292324036
7.248,0.9999716814140606,85.43621274081426
7.256,0.9999711960276826,85.31563245805665
7.264,0.9999707147456097,85.1950020488658
7.272,0.9999702377517806,85.07432148735374
7.28,0.9999697652335529,84.95359074784658
7.288,0.9999692973819269,84.83280980488446
7.296,0.9999688343917783,84.71197863322156
7.304,0.9999683764621043,84.59109720782546
7.312,0.9999679237962869,84.47016550387659
7.32,0.9999674766023658,84.34918349676708
7.328,0.999967035093336,84.22815116209956
7.336,0.9999665994874536,84.10706847568522
7.344,0.9999661700085668,83.98593541354168
7.352,0.9999657468864638,83.86475195189024
7.36,0.9999653303572406,83.74351806715262
7.368,0.9999649206636929,83.62223373594706
7.376,0.9999645180557319,83.50089893508371
7.384,0.999964122790823,83.37951364155923
7.392,0.9999637351344526,83.25807783255054
7.4,0.999963355360625,83.13659148540765
7.4079999999999995,0.9999629837523877,83.01505457764526
7.416,0.9999626206023892,82.89346708693313
7.4239999999999995,0.9999622662134713,82.77182899108544
7.432,0.9999619208993011,82.65014026804806
7.4399999999999995,0.9999615849850357,82.52840089588464
7.448,0.999961258808035,82.40661085276047
7.4559999999999995,0.9999609427186138,82.28477011692439
7.464,0.9999606370808425,82.1628786666882
7.4719999999999995,0.9999603422733979,82.04093648040372
7.48,0.9999600586904646,81.91894353643636
7.4879999999999995,0.9999597867426943,81.79689981313608
7.496,0.9999595268582211,81.67480528880404
7.504,0.9999592794837412,81.55265994165552
7.5120000000000005,0.9999590450856571,81.43046374977811
7.52,0.9999588241512898,81.30821669108482
7.5280000000000005,0.9999586171901624,81.18591874326125
7.536,0.9999584247353628,81.0635698837067
7.5440000000000005,0.9999582473449788,80.94117008946772
7.552,0.9999580856036206,80.8187193371639
7.5600000000000005,0.9999579401240223,80.69621760290445
7.568,0.9999578115487334,80.57366486219513
7.5760000000000005,0.9999577005518959,80.45106108983333
7.584,0.9999576078411128,80.32840625979136
7.5920000000000005,0.9999575341594005,80.20570034508495
7.6,0.9999574802872356,80.08294331762666
7.6080000000000005,0.9999574470446787,79.96013514806125
7.616,0.9999574352935837,79.83727580558201
7.6240000000000006,0.9999574459398739,79.71436525772441
7.632,0.9999574799358825,79.59140347013613
7.640000000000001,0.9999575382827371,79.468390406319
7.648,0.9999576220327738,79.3453260273412
7.656000000000001,0.9999577322919496,79.22221029151468
7.664,0.9999578702222272,79.09904315403575
7.672,0.999958037043887,78.97582456658263
7.68,0.9999582340377173,78.85255447686718
7.688,0.9999584625470178,78.72923282813437
7.696,0.9999587239793394,78.60585955860473
7.704,0.99995901980786,78.48243460085361
7.712,0.9999593515722858,78.3589578811211
7.72,0.9999597208791252,78.23542931854581
7.728,0.9999601294011712,78.11184882431554
7.736,0.9999605788759781,77.98821630072806
7.744,0.9999610711030845,77.86453164015444
7.752,0.999961607939685,77.74079472389859
7.76,0.9999621912943963,77.61700542094651
7.768,0.999962823118698,77.49316358660023
7.776,0.9999635053955609,77.36926906099298
7.784,0.9999642401246853,77.2453216674846
7.792,0.9999650293036885,77.12132121093953
7.8,0.9999658749044718,76.997267475895
7.808,0.9999667788439054,76.87316022463256
7.816,0.9999677429478441,76.74899919517551
7.824,0.999968768907389,76.62478409924489
7.832,0.99996985822621,76.50051462022057
7.84,0.9999710121576625,76.37619041117166
7.848,0.9999722316303885,76.25181109304076
7.856,0.9999735171611052,76.12737625309268
7.864,0.9999748687533764,76.00288544376814
7.872,0.9999762857813631,75.87833818211698
7.88,0.9999777668579309,75.75373395002528
7.888,0.9999793096870333,75.62907219549139
7.896,0.9999809109011427,75.50435233524873
7.904,0.9999825658856247,75.37957375907314
7.912,0.9999842685934556,75.25473583614423
7.92,0.9999860113555956,75.12983792384769
7.928,0.9999877846946369,75.00487937939798
7.936,0.9999895771520197,74.87985957461973
7.944,0.9999913751420447,74.75477791413492
7.952,0.9999931628488594,74.62963385705206
7.96,0.9999949221852669,74.50442694203066
7.968,0.9999966328341057,74.37915681529131
7.976,0.999998272393491,74.25382326076522
7.984,0.9999998166457537,74.12842623113855
7.992,1.0,74.00296587808397
8.0,1.0,73.87744257953516
8.008,1.0,73.75185696152232
8.016,1.0,73.62620991193211
8.024000000000001,1.0,73.50050258366639
8.032,1.0,73.37473638511307
8.04,1.0,73.24891295663525
8.048,1.0,73.12303413289229
8.056000000000001,1.0,72.99710189212728
8.064,1.0,72.87111829492365
8.072,0.9999999999999999,72.74508541614628
8.08,1.0,72.61900527464014
8.088000000000001,1.0000000000000002,72.49287976560554
8.096,0.9999991136442419,72.36671060033447
8.104,0.9999971400612987,72.24049925721035
8.112,0.9999949743874453,72.1142469466703
8.120000000000001,0.9999926455961508,71.98795459140258
8.128,0.999990183675397,71.86162282161727
8.136,0.9999876186314106,71.73525198398274
8.144,0.9999849796117113,71.60884216189746
8.152000000000001,0.9999822941821286,71.48239320423231
8.16,0.9999795877746156,71.3559047595239
8.168,0.9999768833068394,71.2293763127645
8.176,0.9999742009619976,71.1028072223266
8.184000000000001,0.9999715581087317,70.97619675508008
8.192,0.9999689693362169,70.84954411832048
8.2,0.9999664465780195,70.72284848765763
8.208,0.9999639992992895,70.59610903047071
8.216000000000001,0.9999616347245356,70.46932492489901
8.224,0.999959358086777,70.34249537459809
8.232,0.9999571728827845,70.21561961966363
8.24,0.999955081122895,70.08869694421732
8.248000000000001,0.9999530835672872,69.96172668118344
8.256,0.9999511799434929,69.83470821477484
8.264,0.9999493691422318,69.70764098117009
8.272,0.9999476493904316,69.58052446780995
8.280000000000001,0.9999460184015927,69.45335821168044
8.288,0.9999444735045367,69.32614179688865
8.296,0.9999430117521393,69.19887485177958
8.304,0.9999416300119549,69.07155704579034
8.312,0.9999403250407729,68.94418808619268
8.32,0.9999390935451284,68.81676771483647
8.328,0.9999379322297105,68.6892957049764
8.336,0.9999368378354592,68.56177185823752
8.344,0.9999358071689808,68.4341960017572
8.352,0.9999348371247129,68.30656798552418
8.36,0.9999339247011093,68.17888767992537
8.368,0.9999330670119265,68.05115497350126
8.376,0.9999322612935415,67.92336977090643
8.384,0.9999315049090937,67.7955319910657
8.392,0.9999307953500991,67.66764156551548
8.4,0.9999301302360992,67.53969843691722
8.408,0.999929507312789,67.41170255772987
8.416,0.9999289244490016,67.28365388902745
8.424,0.9999283796328498,67.15555239944898
8.432,0.9999278709672746,67.02739806426729
8.44,0.9999273966651924,66.89919086456568
8.448,0.9999269550444023,66.77093078651046
8.456,0.999926544522372,66.64261782070967
8.464,0.9999261636110047,66.51425196164804
8.472,0.9999258109114578,66.38583320719053
8.48,0.9999254851090636,66.25736155814569
8.488,0.9999251849684054,66.12883701788284
8.496,0.9999249093285661,66.00025959199641
8.504,0.9999246570985789,65.87162928801199
8.512,0.9999244272530824,65.74294611512924
8.52,0.9999242188281993,65.61421008399734
8.528,0.9999240309176282,65.48542120651875
8.536,0.9999238626689557,65.35657949567864
8.544,0.999923713280183,65.22768496539575
8.552,0.999923581996457,65.0987376303934
8.56,0.9999234681070043,64.96973750608701
8.568,0.9999233709422557,64.840684608487
8.576,0.9999232898711552,64.71157895411453
8.584,0.9999232242986426,64.58242055992922
8.592,0.999923173663298,64.4532094432664
8.6,0.9999231374351468,64.32394562178392
8.608,0.9999231151136059,64.19462911341591
8.616,0.9999231062255701,64.06525993633426
8.624,0.9999231103236256,63.935838108915114
8.632,0.9999231269843852,63.80636364971139
8.64,0.9999231558069355,63.67683657742922
8.648,0.999923196411388,63.547256910908715
8.656,0.9999232484375309,63.41762466910795
8.664,0.9999233115435695,63.2879398710902
8.672,0.9999233854049543,63.158202536013555
8.68,0.9999234697132862,63.02841268312294
8.688,0.9999235641752973,62.89857033174402
8.696,0.9999236685118993,62.76867550127897
8.704,0.9999237824572964,62.63872821120349
8.712,0.9999239057581571,62.50872848106522
8.72,0.9999240381728417,62.37867633048322
8.728,0.9999241794706814,62.24857177914849
8.736,0.9999243294313045,62.11841484682491
8.744,0.9999244878440079,61.988205553351456
8.752,0.9999246545071703,61.857943918644295
8.76,0.9999248292277009,61.72762996270003
8.768,0.9999250118205295,61.59726370559872
8.776,0.9999252021081233,61.46684516750774
8.784,0.9999253999200413,61.33637436868554
8.792,0.9999256050925118,61.20585132948584
8.8,0.9999258174680407,61.075276070361795
8.808,0.9999260368950427,60.94464861187061
8.815999999999999,0.9999262632274973,60.81396897467775
8.824,0.999926496324626,60.683237179561615
8.832,0.9999267360505892,60.552453247418214
8.84,0.9999269822742018,60.42161719926568
8.847999999999999,0.9999272348686685,60.290729056248715
8.856,0.9999274937113337,60.15978883964333
8.864,0.9999277586834467,60.02879657086134
8.872,0.9999280296699419,59.89775227145479
8.879999999999999,0.9999283065592333,59.76665596312034
8.888,0.9999285892430185,59.63550766770363
8.896,0.9999288776160987,59.50430740720359
8.904,0.999929171576206,59.373055203776694
8.911999999999999,0.999929471023842,59.241751079740816
8.92,0.9999297758621268,59.11039505757949
8.928,0.9999300859966576,58.97898715994575
8.936,0.9999304013353717,58.84752740966605
8.943999999999999,0.9999307217884227,58.716015829743824
8.952,0.9999310472680613,58.58445244336333
8.96,0.9999313776885211,58.45283727389319
8.968,0.9999317129659163,58.321170344889715
8.975999999999999,0.9999320530181397,58.189451680100476
8.984,0.99993239776477,58.05768130346739
8.992,0.9999327471269835,57.92585923913014
9.0,0.9999331010274707,57.79398551142915
9.008,0.9999334593903574,57.662060144908544
9.016,0.9999338221411299,57.53008316431923
9.024000000000001,0.9999341892065667,57.39805459462166
9.032,0.9999345605146717,57.26597446098875
9.04,0.9999349359946107,57.13384278880826
9.048,0.9999353155766538,57.00165960368564
9.056000000000001,0.9999356991921193,56.86942493144661
9.064,0.999936086773322,56.737138798139526
9.072,0.9999364782535215,56.60480123003769
9.08,0.999936873566878,56.47241225364173
9.088000000000001,0.9999372726484062,56.33997189568202
9.096,0.9999376754339332,56.207480183120666
9.104,0.9999380818600611,56.0749371431536
9.112,0.999938491864127,55.94234280321274
9.120000000000001,0.9999389053841692,55.809697190968045
9.128,0.9999393223588938,55.677000334329335
9.136,0.999939742727642,55.54425226144814
9.144,0.9999401664303611,55.41145300071964
9.152000000000001,0.9999405934075771,55.27860258078438
9.16,0.9999410236003664,55.145701030530056
9.168,0.9999414569503308,55.01274837909305
9.176,0.9999418933995747,54.87974465586008
9.184000000000001,0.9999423328906822,54.746689890469895
9.192,0.999942775366695,54.61358411281477
9.2,0.9999432207710934,54.48042735304186
9.208,0.9999436690477765,54.34721964155463
9.216000000000001,0.9999441201410445,54.213961009014525
9.224,0.9999445739955818,54.08065148634209
9.232,0.9999450305564406,53.94729110471827
9.24,0.9999454897690269,53.81387989558576
9.248000000000001,0.9999459515790845,53.680417890650354
9.256,0.999946415932683,53.54690512188199
9.264,0.9999468827762045,53.41334162151597
9.272,0.9999473520563315,53.27972742205409
9.280000000000001,0.9999478237200357,53.1460625562658
9.288,0.9999482977145678,53.01234705718931
9.296,0.9999487739874472,52.878580958132474
9.304,0.9999492524864515,52.744764292673906
9.312000000000001,0.9999497331596101,52.61089709466406
9.32,0.9999502159551935,52.47697939822607
9.328,0.9999507008217068,52.34301123775663
9.336,0.9999511877078818,52.20899264792705
9.344,0.9999516765626704,52.074923663684096
9.352,0.999952167335238,51.940804320250734
9.36,0.9999526599749576,51.80663465312715
9.368,0.9999531544314045,51.67241469809133
9.376,0.99995365065435,51.538144491200136
9.384,0.9999541485937578,51.40382406878975
9.392,0.9999546481997781,51.26945346747672
9.4,0.9999551494227451,51.1350327241584
9.408,0.9999556522131716,51.000561876013954
9.416,0.9999561565217457,50.86604096050468
9.424,0.9999566622993282,50.731470015375066
9.432,0.9999571694969487,50.59684907865309
9.44,0.9999576780658026,50.46217818865111
9.448,0.9999581879572499,50.327457383966276
9.456,0.9999586991228113,50.19268670348129
9.464,0.9999592115141674,50.057866186364784
9.472,0.9999597250831556,49.922995872072136
9.48,0.9999602397817692,49.78807580034573
9.488,0.9999607555621557,49.65310601121576
9.496,0.9999612723766151,49.51808654500047
9.504,0.9999617901775995,49.38301744230691
9.512,0.9999623089177117,49.2478987440312
9.52,0.9999628285497039,49.11273049135917
9.528,0.999963349026478,48.97751272576669
9.536,0.9999638703010842,48.84224548902021
9.544,0.9999643923267212,48.706928823177066
9.552,0.9999649150567361,48.57156277058608
9.56,0.9999654384446229,48.43614737388772
9.568,0.9999659624440245,48.30068267601474
9.576,0.9999664870087313,48.16516872019235
9.584,0.9999670120926815,48.029605549938765
9.592,0.9999675376499625,47.89399320906535
9.6,0.9999680636348107,47.758331741677225
9.608,0.9999685900016118,47.622621192173284
9.616,0.9999691167049007,47.48686160524683
9.624,0.9999696436993644,47.35105302588564
9.632,0.9999701709398402,47.21519549937244
9.64,0.9999706983813189,47.079289071285004
9.648,0.9999712259789435,46.9433337874967
9.656,0.999971753688012,46.80732969417646
9.664,0.9999722814639779,46.67127683778926
9.672,0.9999728092624499,46.53517526509625
9.68,0.9999733370391959,46.39902502315508
9.688,0.9999738647501418,46.26282615932002
9.696,0.9999743923513741,46.12657872124234
9.704,0.9999749197991407,45.99028275687029
9.712,0.9999754470498523,45.85393831444957
9.72,0.9999759740600844,45.7175454425233
9.728,0.9999765007865782,45.58110418993236
9.736,0.9999770271862426,45.444614605815424
9.744,0.9999775532161551,45.30807673960931
9.752,0.999978078833564,45.17149064104892
9.76,0.9999786039958908,45.034856360167616
9.768,0.9999791286607295,44.89817394729715
9.776,0.9999796527858513,44.761443453068004
9.784,0.9999801763292041,44.6246649284093
9.792,0.9999806992489151,44.487838424549146
9.8,0.9999812215032929,44.35096399301451
9.808,0.9999817430508292,44.21404168563159
9.816,0.9999822638502004,44.07707155452561
9.824,0.9999827838602691,43.94005365212123
