freq,mag,phase
6.0,0.9999984701646188,116.7977710879163
6.008,0.999999128123543,116.70995240113047
6.016,0.9999997579735214,116.6221268516372
6.024,1.0,116.5342943921536
6.032,1.0,116.44645497544533
6.04,1.0,116.35860855432756
6.048,1.0,116.27075508166585
6.056,1.0,116.18289451037708
6.064,1.0,116.0950267934303
6.072,0.9999999999999999,116.00715188384771
6.08,1.0,115.91926973470547
6.088,1.0,115.83138029913454
6.096,1.0,115.74348353032183
6.104,0.9999999999999999,115.65557938151078
6.112,1.0,115.56766780600238
6.12,0.9999999999999999,115.47974875715609
6.128,1.0,115.39182218839066
6.136,1.0,115.30388805318496
6.144,1.0,115.21594630507894
6.152,1.0,115.12799689767444
6.16,1.0,115.0400397846361
6.168,1.0,114.95207491969212
6.176,1.0,114.8641022566353
6.184,1.0,114.77612174932374
6.192,1.0,114.68813335168166
6.2,1.0,114.60013701770043
6.208,0.9999999999999999,114.5121327014393
6.216,1.0,114.42412035702618
6.224,1.0,114.33609993865865
6.232,0.9999999999999999,114.24807140060462
6.24,1.0,114.1600346972033
6.248,0.9999999999999999,114.071989782866
6.256,1.0,113.98393661207683
6.264,1.0,113.89587513939372
6.272,1.0000000000000002,113.8078053194491
6.28,1.0,113.71972710695081
6.288,0.9999999999999999,113.6316404566828
6.296,1.0,113.54354532350615
6.304,0.9999999999999999,113.45544166235952
6.312,1.0,113.36732942826039
6.32,0.9999999999999999,113.27920857630552
6.328,1.0,113.19107906167193
6.336,1.0,113.10294083961764
6.344,1.0,113.01479386548245
6.352,1.0,112.92663809468874
6.36,0.9999999999999999,112.8384734827423
6.368,1.0,112.75029998523303
6.376,1.0,112.66211755783581
6.384,1.0,112.57392615631115
6.392,0.9999999999999999,112.48572573650613
6.4,0.9999999999999999,112.39751625435507
6.408,1.0,112.30929766588025
6.416,1.0,112.22106992719283
6.424,1.0,112.13283299449346
6.432,1.0,112.0445868240731
6.44,1.0,111.95633137231373
6.448,0.9999999999999999,111.86806659568924
6.456,1.0,111.77979245076601
6.464,0.9999999999999998,111.69150889420368
6.472,0.9999999999999999,111.60321588275603
6.48,0.9999999999999999,111.51491337327158
6.4879999999999995,1.0,111.42660132269432
6.496,1.0,111.33827968806452
6.504,0.9999999999999999,111.24994842651945
6.5120000000000005,1.0,111.16160749529405
6.52,1.0,111.07325685172172
6.5280000000000005,1.0,110.98489645323491
6.536,1.0,110.89652625736603
6.5440000000000005,1.0,110.80814622174796
6.552,0.9999999999999999,110.71975630411497
6.5600000000000005,0.9999997982234937,110.63135646230316
6.568,0.9999994595623951,110.54294665425148
6.5760000000000005,0.9999991180679618,110.45452683800208
6.584,0.9999987739825644,110.36609697170137
6.592,0.9999984275454828,110.27765701360033
6.6,0.9999980789929159,110.18920692205555
6.608,0.9999977285579927,110.10074665552973
6.616,0.9999973764707852,110.01227617259232
6.624,0.9999970229583179,109.92379543192033
6.632,0.9999966682445814,109.83530439229892
6.64,0.9999963125505428,109.74680301262214
6.648,0.9999959560941548,109.65829125189344
6.656,0.999995599090372,109.56976906922664
6.664,0.9999952417511587,109.48123642384621
6.672,0.9999948842855018,109.39269327508819
6.68,0.9999945268994233,109.30413958240082
6.688,0.9999941697959897,109.21557530534507
6.696,0.9999938131753259,109.12700040359543
6.704,0.9999934572346264,109.0384148369404
6.712,0.9999931021681662,108.94981856528334
6.72,0.9999927481673129,108.86121154864288
6.728,0.9999923954205404,108.77259374715365
6.736,0.9999920441134376,108.68396512106705
6.744,0.9999916944287234,108.59532563075163
6.752,0.999991346546256,108.50667523669385
6.76,0.9999910006430469,108.4180138994987
6.768,0.9999906568932737,108.32934157989028
6.776,0.9999903154682863,108.24065823871248
6.784,0.9999899765366285,108.15196383692953
6.792,0.9999896402640414,108.06325833562656
6.8,0.9999893068134812,107.97454169601032
6.808,0.9999889763451283,107.8858138794097
6.816,0.9999886490164002,107.79707484727635
6.824,0.9999883249819664,107.70832456118531
6.832,0.9999880043937551,107.61956298283549
6.84,0.9999876874009719,107.53079007405039
6.848,0.9999873741501082,107.44200579677856
6.856,0.9999870647849534,107.3532101130943
6.864,0.9999867594466099,107.26440298519812
6.872,0.9999864582735031,107.17558437541742
6.88,0.9999861614013967,107.08675424620692
6.888,0.999985868963401,106.9979125601494
6.896,0.9999855810899897,106.9090592799561
6.904,0.9999852979090103,106.82019436846737
6.912,0.9999850195456965,106.73131778865321
6.92,0.9999847461226824,106.64242950361381
6.928,0.9999844777600128,106.55352947658008
6.936,0.9999842145751596,106.46461767091418
6.944,0.9999839566830306,106.37569405011017
6.952,0.9999837041959839,106.28675857779443
6.96,0.9999834572238417,106.1978112177262
6.968,0.9999832158739017,106.10885193379818
6.976,0.9999829802509501,106.01988069003697
6.984,0.9999827504572756,105.9308974506037
6.992,0.9999825265926808,105.84190217979442
7.0,0.9999823087544968,105.75289484204072
7.008,0.9999820970375946,105.66387540191015
7.016,0.9999818915343989,105.57484382410685
7.024,0.9999816923349006,105.4858000734719
7.032,0.999981499526671,105.396744114984
7.04,0.9999813131948743,105.30767591375981
7.048,0.9999811334222797,105.21859543505444
7.056,0.9999809602892763,105.12950264426209
7.064,0.9999807938738848,105.04039750691643
7.072,0.9999806342517714,104.95127998869107
7.08,0.9999804814962612,104.8621500554001
7.088,0.9999803356783515,104.77300767299846
7.096,0.9999801968667241,104.68385280758257
7.104,0.9999800651277589,104.59468542539067
7.112,0.9999799405255488,104.50550549280331
7.12,0.9999798231219117,104.41631297634382
7.128,0.9999797129764033,104.32710784267879
7.136,0.9999796101463315,104.23789005861848
7.144,0.9999795146867699,104.14865959111734
7.152,0.9999794266505715,104.05941640727428
7.16,0.9999793460883805,103.9701604743334
7.168,0.999979273048648,103.88089175968412
7.176,0.999979207577644,103.79161023086186
7.184,0.999979149719472,103.7023158555483
7.192,0.9999790995160817,103.61300860157189
7.2,0.9999790570072831,103.52368843690827
7.208,0.9999790222307601,103.43435532968066
7.216,0.9999789952220849,103.34500924816028
7.224,0.9999789760147297,103.25565016076682
7.232,0.9999789646400825,103.16627803606872
7.24,0.9999789611274597,103.07689284278372
7.248,0.9999789655041205,102.98749454977916
7.256,0.9999789777952798,102.89808312607238
7.264,0.9999789980241232,102.8086585408312
7.272,0.9999790262118198,102.71922076337421
7.28,0.9999790623775368,102.62976976317118
7.288,0.9999791065384529,102.54030550984352
7.296,0.999979158709772,102.45082797316448
7.304,0.9999792189047382,102.36133712305974
7.312,0.9999792871346488,102.2718329296076
7.32,0.9999793634088685,102.18231536303944
7.328,0.9999794477348433,102.09278439374009
7.336,0.9999795401181144,102.00323999224808
7.344,0.9999796405623332,101.91368212925617
7.352,0.9999797490692742,101.82411077561152
7.36,0.99997986563885,101.73452590231615
7.368,0.9999799902691242,101.64492748052722
7.376,0.9999801229563267,101.55531548155741
7.384,0.9999802636948675,101.4656898768753
7.392,0.9999804124773506,101.37605063810553
7.4,0.9999805692945886,101.2863977370293
7.4079999999999995,0.9999807341356167,101.19673114558464
7.416,0.9999809069877065,101.10705083586664
7.4239999999999995,0.9999810878363815,101.01735678012798
7.432,0.9999812766654296,100.92764895077896
7.4399999999999995,0.9999814734569193,100.837927320388
7.448,0.9999816781912125,100.7481918616819
7.4559999999999995,0.9999818908469802,100.65844254754616
7.464,0.9999821114012143,100.56867935102518
7.4719999999999995,0.9999823398292458,100.47890224532264
7.48,0.9999825761047559,100.38911120380175
7.4879999999999995,0.9999828201997923,100.29930619998558
7.496,0.9999830720847822,100.20948720755725
7.504,0.9999833317285487,100.11965420036029
7.5120000000000005,0.9999835990983234,100.02980715239885
7.52,0.9999838741597613,99.93994603783804
7.5280000000000005,0.9999841568769559,99.85007083100406
7.536,0.9999844472124539,99.76018150638465
7.5440000000000005,0.9999847451272691,99.67027803862912
7.552,0.9999850505808967,99.5803604025488
7.5600000000000005,0.9999853635313284,99.49042857311719
7.568,0.9999856839350674,99.40048252547017
7.5760000000000005,0.9999860117471424,99.31052223490627
7.584,0.9999863469211221,99.22054767688704
7.5920000000000005,0.9999866894091303,99.13055882703698
7.6,0.9999870391618606,99.04055566114408
7.6080000000000005,0.9999873961285904,98.95053815515979
7.616,0.9999877602571963,98.86050628519945
7.6240000000000006,0.9999881314941693,98.77046002754228
7.632,0.9999885097846277,98.68039935863183
7.640000000000001,0.9999888950723336,98.59032425507596
7.648,0.9999892872997072,98.5002346936472
7.656000000000001,0.999989686407841,98.41013065128283
7.664,0.9999900923365156,98.32001210508524
7.672,0.9999905050242133,98.22987903232185
7.68,0.9999909244081344,98.13973141042557
7.688,0.9999913504242105,98.04956921699478
7.696,0.9999917830071204,97.95939242979367
7.704,0.9999922220903052,97.86920102675221
7.712,0.9999926676059816,97.7789949859665
7.72,0.9999931194851589,97.68877428569886
7.728,0.9999935776576524,97.59853890437793
7.736,0.9999940420520989,97.50828882059895
7.744,0.9999945125959715,97.41802401312378
7.752,0.999994989215595,97.32774446088112
7.76,0.9999954718361604,97.23745014296665
7.768,0.99999596038174,97.14714103864311
7.776,0.9999964547753024,97.0568171273405
7.784,0.9999969549387273,96.96647838865616
7.792,0.9999974607928215,96.8761248023549
7.8,0.9999979722573329,96.78575634836913
7.808,0.9999984892509654,96.69537300679897
7.816,0.9999990116913954,96.60497475791236
7.824,0.999999539495285,96.51456158214513
7.832,0.9999999999999999,96.4241334601012
7.84,1.0,96.33369037255252
7.848,0.9999999999999999,96.24323230043933
7.856,0.9999999999999998,96.15275922487007
7.864,0.9999999999999999,96.06227112712163
7.872,1.0,95.97176798863934
7.88,0.9999999999999999,95.88124979103705
7.888,1.0,95.79071651609716
7.896,0.9999999999999999,95.70016814577079
7.904,1.0,95.60960466217776
7.912,0.9999999999999998,95.51902604760664
7.92,1.0,95.42843228451486
7.928,1.0,95.33782335552866
7.936,1.0,95.24719924344322
7.944,1.0,95.15655993122266
7.952,0.9999999999999998,95.06590540200008
7.96,0.9999999999999999,94.97523563907758
7.968,1.0,94.88455062592627
7.976,1.0,94.79385034618629
7.984,0.9999999999999999,94.70313478366685
7.992,1.0,94.61240392234623
8.0,1.0,94.52165774637173
8.008,0.9999999999999999,94.43089624005977
8.016,1.0,94.34011938789573
8.024000000000001,1.0,94.24932717453412
8.032,1.0,94.15851958479848
8.04,1.0,94.06769660368126
8.048,0.9999999999999998,93.97685821634396
8.056000000000001,0.9999999999999999,93.88600440811702
8.064,0.9999999999999999,93.79513516449978
8.072,1.0,93.70425047116045
8.08,1.0,93.61335031393604
8.088000000000001,1.0,93.52243467883234
8.096,0.9999999999999999,93.43150355202393
8.104,0.9999999999999999,93.34055691985397
8.112,1.0,93.24959476883416
8.120000000000001,1.0,93.15861708564485
8.128,1.0,93.06762385713478
8.136,0.9999999999999999,92.97661507032099
8.144,0.9999999999999999,92.88559071238886
8.152000000000001,0.9999999999999999,92.79455077069196
8.16,1.0,92.70349523275192
8.168,0.9999999999999999,92.6124240862584
8.176,1.0,92.52133731906883
8.184000000000001,1.0,92.43023491920854
8.192,1.0,92.3391168748705
8.2,0.9999999999999998,92.2479831744151
8.208,1.0,92.1568338063702
8.216000000000001,0.9999999999999999,92.06566875943098
8.224,0.9999999999999999,91.9744880224597
8.232,0.9999999999999999,91.88329158448558
8.24,1.0,91.7920794347047
8.248000000000001,1.0,91.70085156247988
8.256,1.0,91.60960795734043
8.264,0.9999999999999999,91.518348608982
8.272,0.9999999999999999,91.42707350726639
8.280000000000001,1.0,91.33578264222155
8.288,0.9999999999999999,91.24447600404115
8.296,0.9999999999999999,91.15315358308457
8.304,1.0,91.0618153698766
8.312,0.9999999999999999,90.97046135510733
8.32,1.0,90.87909152963186
8.328,1.0,90.7877058844702
8.336,1.0,90.6963044108069
8.344,1.0,90.60488709999105
8.352,1.0,90.5134539435358
8.36,1.0,90.42200493311832
8.368,1.0,90.3305400605795
8.376,0.9999999999999999,90.2390593179237
8.384,1.0,90.14756269731849
8.392,1.0,90.05605019109444
8.4,1.0,89.96452179174479
8.408,0.9999999999999999,89.8729774919253
8.416,1.0,89.78141728445381
8.424,1.0,89.68984116231016
8.432,1.0,89.5982491186357
8.44,1.0000000000000002,89.50664114673322
8.448,1.0,89.41501724006642
8.456,1.0,89.32337739225983
8.464,0.9999999999999999,89.23172159709833
8.472,0.9999999999999999,89.14004984852696
8.48,1.0,89.04836214065047
8.488,0.9999999999999999,88.95665846773319
8.496,1.0,88.86493882419845
8.504,1.0,88.7732032046285
8.512,0.9999999999999999,88.68145160376392
8.52,1.0,88.58968401650347
8.528,1.0,88.4979004379036
8.536,1.0,88.4061008631782
8.544,1.0,88.31428528769808
8.552,0.9999999999999999,88.22245370699076
8.56,1.0,88.13060611673997
8.568,1.0,88.03874251278536
8.576,1.0,87.94686289112192
8.584,1.0,87.85496724789989
8.592,1.0,87.763055579424
8.6,0.9999999999999999,87.67112788215334
8.608,1.0,87.57918415270072
8.616,0.9999999999999999,87.4872243878325
8.624,1.0,87.39524858446781
8.632,1.0,87.30325673967847
8.64,1.0,87.21124885068828
8.648,1.0,87.1192249148727
8.656,0.9999999999999999,87.0271849297583
8.664,0.9999999999999998,86.93512889302245
8.672,1.0,86.84305680249257
8.68,0.9999999999999999,86.75096865614601
8.688,0.9999999999999999,86.65886445210919
8.696,1.0000000000000002,86.56674418865741
8.704,1.0,86.47460786421414
8.712,1.0,86.38245547735063
8.72,1.0,86.29028702678535
8.728,0.9999999999999999,86.19810251138351
8.736,0.9999999999999999,86.10590193015638
8.744,0.9999999999999999,86.01368528226098
8.752,1.0,85.92145256699933
8.76,0.9999999999999999,85.8292037838181
8.768,0.9999999999999998,85.73693893230781
8.776,1.0,85.64465801220248
8.784,1.0,85.55236102337891
8.792,1.0,85.4600479658562
8.8,0.9999999999999999,85.3677188397951
8.808,0.9999999999999998,85.27537364549745
8.815999999999999,1.0,85.18301238340553
8.824,1.0,85.09063505410145
8.832,0.9999999999999999,84.99824165830667
8.84,1.0,84.90583219688115
8.847999999999999,0.9999999999999999,84.81340667082289
8.856,0.9999999999999999,84.72096508126718
8.864,1.0,84.62850742948604
8.872,1.0,84.53603371688754
8.879999999999999,0.9999999999999999,84.4435439450151
8.888,1.0,84.35103811554673
8.896,1.0,84.25851623029462
8.904,1.0,84.16597829120423
8.911999999999999,0.9999999999999999,84.07342430035361
8.92,1.0,83.98085425995276
8.928,0.9999999999999999,83.8882681723429
8.936,0.9999999999999999,83.79566603999577
8.943999999999999,1.0,83.70304786551284
8.952,1.0,83.61041365162457
8.96,1.0000000000000002,83.51776340118982
8.968,1.0,83.42509711719492
8.975999999999999,1.0,83.33241480275295
8.984,1.0,83.23971646110303
8.992,0.9999999999999999,83.14700209560947
9.0,1.0,83.0542717097611
9.008,1.0,82.96152530717033
9.016,1.0,82.86876289157237
9.024000000000001,1.0,82.77598446682461
9.032,1.0,82.68319003690549
9.04,1.0,82.590379605914
9.048,0.9999999999999999,82.49755317806851
9.056000000000001,0.9999999999999999,82.40471075770621
9.064,1.0,82.31185234928216
9.072,1.0,82.2189779573683
9.08,1.0,82.12608758665273
9.088000000000001,1.0,82.03318124193886
9.096,1.0000000000000002,81.94025892814442
9.104,0.9999999999999998,81.8473206503005
9.112,0.9999999999999999,81.75436641355085
9.120000000000001,1.0,81.66139622315076
9.128,0.9999999999999999,81.56841008446636
9.136,1.0,81.47540800297342
9.144,1.0,81.38238998425658
9.152000000000001,1.0,81.28935603400838
9.16,1.0,81.1963061580283
9.168,1.0,81.10324036222175
9.176,1.0,81.0101586525991
9.184000000000001,1.0,80.91706103527471
9.192,0.9999999999999999,80.82394751646603
9.2,1.0,80.73081810249232
9.208,1.0,80.63767279977394
9.216000000000001,1.0,80.54451161483115
9.224,1.0,80.4513345542832
9.232,1.0,80.35814162484714
9.24,0.9999999999999998,80.26493283333677
9.248000000000001,0.9999999999999999,80.1717081866618
9.256,1.0,80.07846769182659
9.264,1.0,79.98521135592908
9.272,0.9999999999999999,79.8919391861597
9.280000000000001,0.9999999999999999,79.79865118980037
9.288,0.9999999999999999,79.70534737422331
9.296,0.9999999999999999,79.61202774688995
9.304,1.0,79.5186923153497
9.312000000000001,0.9999999999999999,79.42534108723899
9.32,1.0,79.3319740702801
9.328,1.0,79.23859127227983
9.336,0.9999999999999999,79.14519270112848
9.344,1.0,79.05177836479868
9.352,1.0,78.95834827134412
9.36,1.0,78.86490242889852
9.368,0.9999999999999999,78.77144084567414
9.376,1.0,78.67796352996095
9.384,0.9999999999999999,78.584470490125
9.392,0.9999999999999999,78.49096173460761
9.4,0.9999999999999999,78.39743727192369
9.408,0.9999999999999998,78.3038971106609
9.416,1.0,78.2103412594781
9.424,0.9999999999999999,78.11676972710417
9.432,1.0,78.02318252233682
9.44,0.9999999999999999,77.92957965404119
9.448,0.9999999999999999,77.83596113114858
9.456,1.0,77.74232696265516
9.464,1.0,77.64867715762064
9.472,0.9999999999999999,77.55501172516698
9.48,1.0,77.46133067447697
9.488,1.0,77.36763401479303
9.496,1.0,77.27392175541564
9.504,1.0,77.18019390570225
9.512,0.9999999999999999,77.08645047506562
9.52,0.9999999999999999,76.9926914729727
9.528,1.0,76.89891690894301
9.536,1.0,76.80512679254747
9.544,1.0,76.71132113340674
9.552,0.9999999999999999,76.61749994119006
9.56,0.9999999999999999,76.52366322561359
9.568,0.9999999999999998,76.42981099643913
9.576,1.0,76.33594326347263
9.584,1.0,76.2420600365627
9.592,1.0,76.1481613255992
9.6,1.0,76.05424714051175
9.608,1.0,75.96031749126819
9.616,0.9999999999999998,75.86637238787326
9.624,1.0,75.77241184036686
9.632,0.9999999999999998,75.6784358588228
9.64,1.0,75.58444445334705
9.648,0.9999999999999999,75.49043763407643
9.656,1.0,75.39641541117689
9.664,1.0,75.30237779484213
9.672,0.9999999999999999,75.20832479529194
9.68,1.0,75.11425642277074
9.688,1.0,75.02017268754588
9.696,1.0,74.92607359990632
9.704,0.9999999999999999,74.83195917016069
9.712,0.9999999999999998,74.73782940863609
9.72,1.0,74.64368432567618
9.728,1.0,74.54952393163985
9.736,0.9999999999999999,74.45534823689935
9.744,1.0000000000000002,74.36115725183893
9.752,0.9999999999999999,74.26695098685299
9.76,0.9999999999999999,74.17272945234468
9.768,0.9999999999999999,74.07849265872407
9.776,1.0,73.98424061640662
9.784,1.0,73.8899733358115
9.792,0.9999999999999999,73.79569082736002
9.8,0.9999999999999999,73.70139310147376
9.808,0.9999999999999999,73.6070801685732
9.816,0.9999999999999998,73.51275203907582
9.824,1.0,73.41840872339458
9.832,0.9999999999999999,73.32405023193606
9.84,1.0,73.22967657509902
9.847999999999999,1.0,73.1352877632725
9.856,0.9999999999999999,73.04088380683424
9.864,1.0,72.94646471614898
9.872,0.9999999999999999,72.85203050156674
9.879999999999999,0.9999999999999999,72.75758117342106
9.888,1.0,72.66311674202743
9.896,0.9999999999999999,72.56863721768144
9.904,0.9999999999999998,72.4741426106572
9.911999999999999,1.0,72.37963293120548
9.92,1.0,72.28510818955209
9.928,0.9999999999999999,72.19056839589615
9.936,1.0,72.0960135604084
9.943999999999999,1.0,72.00144369322933
9.952,0.9999999999999999,71.90685880446763
9.96,1.0,71.81225890419839
9.968,0.9999999999999998,71.71764400246137
9.975999999999999,0.9999999999999999,71.6230141092593
9.984,1.0,71.52836923455608
9.992,0.9999999999999999,71.43370938827513
10.0,1.0,71.33903458029778
10.008,1.0,71.2443448204612
10.016,1.0,71.14964011855696
10.024000000000001,0.9999999999999999,71.05492048432932
10.032,1.0,70.96018592747336
10.04,1.0,70.86543645763338
10.048,0.9999999999999999,70.770672084401
10.056000000000001,1.0,70.67589281731378
10.064,0.9999999999999999,70.58109866585322
10.072,0.9999999999999999,70.48628963944317
10.08,1.0,70.39146574744808
10.088000000000001,0.9999999999999999,70.29662699917142
10.096,1.0,70.20177340385393
10.104,1.0,70.10690497067185
10.112,1.0,70.01202170873536
10.120000000000001,1.0,69.91712362708687
10.128,0.9999999999999999,69.8222107346994
10.136,0.9999999999999999,69.72728304047486
10.144,0.9999991688797905,69.63234055324236
10.152000000000001,0.9999980563912931,69.53738328175676
10.16,0.9999969418562854,69.44241123469689
10.168,0.9999958254499547,69.34742442066391
10.176,0.9999947073486727,69.2524228481798
