freq,mag,phase
6.0,0.9999986867932029,89.33500754655442
6.008,0.9999991603267204,89.20683669005118
6.016,0.9999996164412065,89.0786374762206
6.024,1.0,88.95040987379284
6.032,1.0,88.82215385149802
6.04,1.0,88.69386937806681
6.048,1.0,88.56555642223063
6.056,0.9999999999999999,88.43721495272204
6.064,0.9999999999999999,88.30884493827521
6.072,1.0,88.1804463476261
6.08,1.0,88.05201914951303
6.088,1.0,87.92356331267683
6.096,1.0,87.79507880586142
6.104,1.0,87.666565597814
6.112,1.0,87.53802365728545
6.12,1.0,87.40945295303077
6.128,1.0,87.28085345380931
6.136,1.0,87.15222512838527
6.144,0.9999999999999999,87.02356794552794
6.152,1.0,86.8948818740121
6.16,1.0,86.76616688261838
6.168,1.0,86.63742294013363
6.176,1.0,86.50865001535124
6.184,1.0,86.3798480770715
6.192,1.0,86.25101709410197
6.2,0.9999999999999999,86.12215703525786
6.208,1.0,85.99326786936228
6.216,1.0,85.86434956524671
6.224,0.9999999999999999,85.7354020917513
6.232,0.9999999999999999,85.60642541772513
6.24,0.9999999999999999,85.4774195120268
6.248,1.0,85.34838434352447
6.256,0.9999999999999999,85.21931988109647
6.264,1.0,85.09022609363146
6.272,1.0,84.96110295002892
6.28,0.9999999999999999,84.83195041919933
6.288,1.0,84.70276847006474
6.296,0.9999999999999999,84.57355707155888
6.304,0.9999999999999999,84.44431619262765
6.312,0.9999999999999999,84.31504580222942
6.32,0.9999999999999999,84.18574586933536
6.328,1.0,84.0564163629298
6.336,0.9999999999999999,83.92705725201053
6.344,1.0,83.79766850558919
6.352,1.0,83.6682500926916
6.36,1.0,83.53880198235804
6.368,1.0,83.40932414364369
6.376,0.9999999999999999,83.27981654561883
6.384,0.9999999999999999,83.15027915736931
6.392,1.0,83.0207119479968
6.4,0.9999999999999999,82.89111488661914
6.408,1.0,82.76148794237066
6.416,1.0,82.63183108440256
6.424,1.0,82.5021442818832
6.432,1.0,82.37242750399844
6.44,1.0,82.24268071995196
6.448,0.9999999999999998,82.11290389896557
6.456,1.0,81.98309701027962
6.464,1.0,81.85326002315324
6.472,1.0,81.72339290686466
6.48,1.0,81.5934956307116
6.4879999999999995,1.0,81.4635681640116
6.496,0.9999999999999999,81.3336104761022
6.504,0.9999999999999999,81.20362253634148
6.5120000000000005,0.9999999999999999,81.0736043141082
6.52,0.9999999999999999,80.94355577880219
6.5280000000000005,0.9999999999999999,80.81347689984469
6.536,1.0,80.68336764667863
6.5440000000000005,1.0,80.55322798876895
6.552,1.0,80.42305789560301
6.5600000000000005,1.0,80.29285733669069
6.568,1.0,80.16262628156493
6.5760000000000005,1.0,80.03236469978192
6.584,1.0,79.9020725609215
6.592,1.0,79.77174983458734
6.6,0.9999999999999999,79.64139649040736
6.608,1.0,79.51101249803402
6.616,0.9999999999999999,79.38059782714464
6.624,1.0,79.25015244744161
6.632,0.9999999999999999,79.11967632865287
6.64,1.0,78.98916944053207
6.648,0.9999999999999999,78.85863175285891
6.656,0.9999998787122122,78.7280632354395
6.664,0.9999996433525827,78.59746385810661
6.672,0.999999406473726,78.46683359071997
6.68,0.9999991682034591,78.3361724031666
6.688,0.9999989286681188,78.20548026536115
6.696,0.9999986879925653,78.07475714724605
6.704,0.9999984463001858,77.94400301879202
6.712,0.9999982037129004,77.81321784999814
6.72,0.9999979603511661,77.68240161089237
6.728,0.999997716333981,77.55155427153169
6.736,0.9999974717788892,77.4206758020024
6.744,0.9999972268019849,77.2897661724206
6.752,0.9999969815179179,77.15882535293217
6.76,0.9999967360398972,77.02785331371334
6.768,0.9999964904796959,76.89685002497086
6.776,0.9999962449476564,76.76581545694226
6.784,0.9999959995526945,76.63474957989627
6.792,0.9999957544023037,76.50365236413292
6.8,0.9999955096025611,76.37252377998398
6.808,0.9999952652581315,76.24136379781322
6.816,0.999995021472271,76.11017238801664
6.824,0.9999947783468343,75.97894952102276
6.832,0.9999945359822766,75.84769516729297
6.84,0.999994294477661,75.71640929732173
6.848,0.9999940539306615,75.58509188163694
6.856,0.9999938144375687,75.45374289080014
6.864,0.999993576093294,75.3223622954068
6.872,0.9999933389913753,75.19095006608663
6.88,0.9999931032239816,75.05950617350386
6.888,0.9999928688819173,74.92803058835749
6.896,0.9999926360546282,74.79652328138154
6.904,0.9999924048302054,74.66498422334541
6.912,0.9999921752953913,74.53341338505406
6.92,0.9999919475355836,74.40181073734833
6.928,0.9999917216348407,74.27017625110521
6.936,0.9999914976758876,74.13850989723811
6.944,0.9999912757401191,74.00681164669706
6.952,0.9999910559076066,73.8750814704691
6.96,0.9999908382571021,73.74331933957845
6.968,0.9999906228660441,73.61152522508681
6.976,0.9999904098105616,73.47969909809363
6.984,0.999990199165481,73.34784092973635
6.992,0.9999899910043294,73.21595069119068
7.0,0.9999897853993406,73.08402835367086
7.008,0.999989582421461,72.9520738884299
7.016,0.9999893821403532,72.82008726675986
7.024,0.9999891846244024,72.68806845999207
7.032,0.9999889899407222,72.55601743949751
7.04,0.9999887981551576,72.42393417668686
7.048,0.999988609332293,72.29181864301091
7.056,0.9999884235354554,72.15967080996079
7.064,0.999988240826721,72.02749064906817
7.072,0.9999880612669196,71.89527813190553
7.08,0.9999878849156411,71.76303323008642
7.088,0.9999877118312395,71.63075591526575
7.096,0.9999875420708395,71.49844615913996
7.104,0.9999873756903414,71.36610393344729
7.112,0.9999872127444261,71.23372920996805
7.12,0.9999870532865616,71.10132196052486
7.128,0.9999868973690071,70.96888215698283
7.136,0.99998674504282,70.8364097712499
7.144,0.9999865963578596,70.70390477527702
7.152,0.9999864513627945,70.57136714105839
7.16,0.9999863101051069,70.43879684063171
7.168,0.9999861726310982,70.30619384607843
7.176,0.9999860389858956,70.17355812952395
7.184,0.9999859092134561,70.04088966313788
7.192,0.9999857833565731,69.90818841913425
7.2,0.9999856614568822,69.77545436977178
7.208,0.9999855435548659,69.6426874873541
7.216,0.9999854296898603,69.50988774422994
7.224,0.9999853199000596,69.37705511279337
7.232,0.9999852142225234,69.24418956548413
7.24,0.9999851126931801,69.11129107478764
7.248,0.9999850153468349,68.97835961323544
7.256,0.9999849222171745,68.84539515340532
7.264,0.9999848333367725,68.71239766792154
7.272,0.9999847487370955,68.57936712945502
7.28,0.999984668448509,68.44630351072367
7.288,0.9999845925002836,68.31320678449246
7.296,0.9999845209205993,68.1800769235738
7.304,0.9999844537365531,68.04691390082758
7.312,0.9999843909741636,67.91371768916152
7.32,0.9999843326583779,67.78048826153135
7.328,0.9999842788130762,67.64722559094098
7.336,0.9999842294610786,67.51392965044276
7.344,0.9999841846241505,67.38060041313767
7.352,0.9999841443230094,67.24723785217552
7.36,0.9999841085773291,67.11384194075514
7.368,0.9999840774057482,66.98041265212467
7.376,0.999984050825873,66.84694995958166
7.384,0.9999840288542864,66.71345383647335
7.392,0.9999840115065509,66.57992425619682
7.4,0.9999839987972182,66.44636119219919
7.4079999999999995,0.9999839907398318,66.3127646179779
7.416,0.9999839873469349,66.17913450708079
7.4239999999999995,0.9999839886300761,66.04547083310639
7.432,0.9999839945998154,65.91177356970405
7.4399999999999995,0.99998400526573,65.77804269057424
7.448,0.9999840206364208,65.64427816946855
7.4559999999999995,0.9999840407195183,65.51047998019011
7.464,0.9999840655216891,65.37664809659361
7.4719999999999995,0.9999840950486407,65.24278249258556
7.48,0.99998412930513,65.10888314212447
7.4879999999999995,0.9999841682949672,64.97495001922104
7.496,0.9999842120210228,64.8409830979383
7.504,0.9999842604852345,64.70698235239193
7.5120000000000005,0.9999843136886121,64.57294775675018
7.52,0.9999843716312444,64.43887928523439
7.5280000000000005,0.9999844343123063,64.30477691211885
7.536,0.9999845017300627,64.17064061173124
7.5440000000000005,0.9999845738818776,64.0364703584526
7.552,0.9999846507642179,63.90226612671767
7.5600000000000005,0.9999847323726613,63.7680278910149
7.568,0.9999848187019023,63.6337556258868
7.5760000000000005,0.9999849097457567,63.49944930592995
7.584,0.9999850054971718,63.36510890579532
7.5920000000000005,0.999985105948229,63.23073440018828
7.6,0.9999852110901513,63.09632576386894
7.6080000000000005,0.9999853209133108,62.96188297165213
7.616,0.9999854354072335,62.827405998407755
7.6240000000000006,0.9999855545606072,62.69289481906079
7.632,0.999985678361286,62.558349408591575
7.640000000000001,0.999985806796299,62.42376974203585
7.648,0.999985939851854,62.28915579448506
7.656000000000001,0.999986077513347,62.15450754108635
7.664,0.9999862197653666,62.01982495704292
7.672,0.9999863665917005,61.88510801761392
7.68,0.9999865179753427,61.750356698114864
7.688,0.9999866738984999,61.615570973917606
7.696,0.999986834342598,61.48075082045061
7.704,0.9999869992882882,61.34589621319896
7.712,0.9999871687154533,61.21100712770468
7.72,0.9999873426032162,61.07608353956674
7.728,0.999987520929943,60.94112542444124
7.736,0.9999877036732532,60.80613275804159
7.744,0.9999878908100237,60.67110551613863
7.752,0.9999880823163967,60.53604367456078
7.76,0.9999882781677852,60.4009472091941
7.768,0.9999884783388816,60.26581609598263
7.776,0.9999886828036618,60.13065031092824
7.784,0.9999888915353934,59.99544983009103
7.792,0.9999891045066426,59.860214629589294
7.8,0.9999893216892792,59.724944685599766
7.808,0.9999895430544851,59.589639974357624
7.816,0.9999897685727599,59.454300472156774
7.824,0.9999899982139283,59.31892615534981
7.832,0.9999902319471456,59.18351700034833
7.84,0.9999904697409057,59.04807298362283
7.848,0.9999907115630474,58.912594081703084
7.856,0.999990957380761,58.77708027117808
7.864,0.9999912071605951,58.64153152869615
7.872,0.9999914608684629,58.505947830965255
7.88,0.9999917184696502,58.3703291547529
7.888,0.999991979928821,58.23467547688635
7.896,0.9999922452100249,58.09898677425279
7.904,0.9999925142767034,57.963263023799286
7.912,0.999992787091697,57.827504202533056
7.92,0.9999930636172522,57.69171028752154
7.928,0.9999933438150286,57.55588125589245
7.936,0.9999936276461044,57.4200170848339
7.944,0.999993915070985,57.284117751594565
7.952,0.9999942060496083,57.14818323348373
7.96,0.9999945005413531,57.01221350787143
7.968,0.9999947985050442,56.8762085521885
7.976,0.9999950998989614,56.74016834392676
7.984,0.9999954046808442,56.60409286063903
7.992,0.9999957128079009,56.467982079939276
8.0,0.9999960242368133,56.33183597950265
8.008,0.9999963389237457,56.19565453706573
8.016,0.99999665682435,56.05943773042637
8.024000000000001,0.9999969778937747,55.923185537444034
8.032,0.9999973020866695,55.78689793603983
8.04,0.9999976293571948,55.650574904196404
8.048,0.9999979596590262,55.51421641995826
8.056000000000001,0.9999982929453632,55.37782246143176
8.064,0.9999986291689359,55.24139300678527
8.072,0.9999989682820115,55.104928034249085
8.08,0.9999993102364015,54.96842752211562
8.088000000000001,0.9999996549834694,54.83189144873955
8.096,1.0,54.6953197925378
8.104,0.9999999999999999,54.5587125319896
8.112,1.0,54.4220696456366
8.120000000000001,1.0,54.28539111208298
8.128,1.0,54.14867690999553
8.136,1.0,54.011927018103606
8.144,0.9999999999999999,53.87514141519926
8.152000000000001,0.9999999999999999,53.73832008013737
8.16,1.0,53.60146299183572
8.168,0.9999999999999999,53.46457012927489
8.176,1.0,53.32764147149844
8.184000000000001,1.0,53.19067699761304
8.192,1.0,53.05367668678848
8.2,1.0,52.91664051825759
8.208,0.9999999999999999,52.77956847131649
8.216000000000001,1.0,52.64246052532458
8.224,1.0,52.505316659704576
8.232,1.0,52.368136853942595
8.24,1.0,52.2309210875881
8.248000000000001,0.9999999999999999,52.09366934025414
8.256,1.0,51.956381591617294
8.264,1.0,51.81905782141771
8.272,1.0,51.68169800945906
8.280000000000001,1.0,51.544302135608845
8.288,1.0,51.40687017979826
8.296,1.0,51.269402122022164
8.304,0.9999999999999999,51.1318979423393
8.312,1.0,50.99435762087224
8.32,1.0,50.85678113780738
8.328,1.0,50.71916847339516
8.336,1.0,50.58151960794982
8.344,1.0,50.44383452184971
8.352,1.0,50.30611319553709
8.36,1.0,50.16835560951838
8.368,1.0,50.03056174436397
8.376,1.0,49.89273158070848
8.384,1.0,49.75486509925052
8.392,1.0,49.61696228075299
8.4,1.0,49.47902310604288
8.408,1.0,49.34104755601148
8.416,1.0000000000000002,49.203035611614204
8.424,1.0,49.0649872538708
8.432,0.9999999999999999,48.926902463865176
8.44,1.0,48.788781222745726
8.448,1.0,48.65062351172491
8.456,1.0,48.51242931207968
8.464,0.9999999999999999,48.3741986051512
8.472,1.0,48.23593137234508
8.48,1.0000000000000002,48.097627595131165
8.488,1.0,47.95928725504378
8.496,1.0,47.82091033368155
8.504,0.9999999999999999,47.68249681270753
8.512,1.0,47.54404667384904
8.52,1.0,47.405559898897984
8.528,0.9999999999999998,47.26703646971046
8.536,0.9999999999999999,47.12847636820713
8.544,1.0,46.98987957637288
8.552,1.0,46.85124607625719
8.56,1.0,46.712575849973724
8.568,0.9999999999999999,46.57386887970073
8.576,0.9999999999999999,46.43512514768066
8.584,1.0,46.296344636220546
8.592,0.9999999999999999,46.15752732769159
8.6,0.9999999999999999,46.018673204529556
8.608,1.0,45.87978224923442
8.616,1.0,45.7408544443706
8.624,1.0,45.60188977256677
8.632,0.9999999999999999,45.46288821651604
8.64,1.0,45.323849758975754
8.648,1.0,45.184774382767614
8.656,1.0,45.04566207077753
8.664,1.0,44.906512805955806
8.672,1.0,44.76732657131684
8.68,1.0,44.62810334993947
8.688,1.0,44.488843124966515
8.696,1.0,44.34954587960522
8.704,0.9999999999999999,44.21021159712684
8.712,1.0,44.07084026086692
8.72,1.0,43.93143185422498
8.728,1.0,43.791986360664836
8.736,1.0,43.65250376371422
8.744,1.0,43.51298404696508
8.752,0.9999999999999999,43.37342719407323
8.76,0.9999999999999998,43.23383318875866
8.768,1.0,43.094202014805205
8.776,0.9999999999999999,42.954533656060775
8.784,1.0,42.81482809643709
8.792,1.0,42.67508531990987
8.8,1.0,42.53530531051859
8.808,1.0,42.395488052366666
8.815999999999999,1.0,42.25563352962126
8.824,1.0,42.11574172651325
8.832,1.0,41.97581262733737
8.84,1.0,41.835846216452
8.847999999999999,1.0,41.695842478279175
8.856,0.9999999999999999,41.555801397304556
8.864,1.0000000000000002,41.415722958077424
8.872,1.0,41.2756071452107
8.879999999999999,1.0,41.1354539433807
8.888,1.0,40.995263337327316
8.896,1.0,40.855035311853854
8.904,1.0,40.71476985182714
8.911999999999999,0.9999999999999999,40.57446694217724
8.92,1.0,40.434126567897664
8.928,1.0,40.29374871404519
8.936,0.9999999999999999,40.153333365739925
8.943999999999999,1.0,40.01288050816518
8.952,0.9999999999999999,39.87239012656738
8.96,1.0,39.73186220625622
8.968,0.9999999999999999,39.59129673260454
8.975999999999999,1.0,39.45069369104813
8.984,0.9999999999999998,39.3100530670859
8.992,1.0,39.1693748462798
9.0,1.0,39.028659014254764
9.008,0.9999999999999999,38.88790555669855
9.016,1.0,38.747114459361896
9.024000000000001,1.0,38.60628570805838
9.032,1.0,38.46541928866447
9.04,1.0,38.32451518711931
9.048,0.9999999999999999,38.183573389424836
9.056000000000001,1.0,38.042593881645736
9.064,1.0,37.9015766499094
9.072,1.0,37.760521680405816
9.08,1.0,37.619428959387555
9.088000000000001,1.0,37.478298473169836
9.096,0.9999999999999998,37.33713020813048
9.104,1.0,37.19592415070972
9.112,1.0,37.05468028741029
9.120000000000001,0.9999999999999999,36.913398604797464
9.128,1.0,36.772079089498945
9.136,1.0,36.63072172820474
9.144,1.0,36.48932650766733
9.152000000000001,1.0,36.34789341470149
9.16,0.9999999999999999,36.20642243618445
9.168,0.9999999999999999,36.06491355905561
9.176,1.0,35.923366770316676
9.184000000000001,1.0,35.781782057031705
9.192,0.9999999999999999,35.640159406327
9.2,0.9999999999999999,35.49849880539103
9.208,0.9999999999999999,35.35680024147448
9.216000000000001,1.0,35.215063701890315
9.224,1.0,35.07328917401368
9.232,1.0,34.931476645281904
9.24,0.9999999999999999,34.789626103194415
9.248000000000001,1.0,34.64773753531293
9.256,1.0,34.50581092926132
9.264,1.0,34.363846272725574
9.272,1.0,34.221843553453866
9.280000000000001,0.9999999999999999,34.07980275925657
9.288,0.9999999999999999,33.93772387800629
9.296,1.0,33.79560689763771
9.304,0.9999999999999998,33.653451806147785
9.312000000000001,1.0,33.51125859159567
9.32,1.0000000000000002,33.36902724210281
9.328,1.0,33.22675774585282
9.336,1.0,33.084450091091625
9.344,1.0,32.94210426612749
9.352,1.0000000000000002,32.79972025933093
9.36,1.0,32.65729805913494
9.368,0.9999999999999999,32.51483765403483
9.376,0.9999999999999999,32.372339032588414
9.384,0.9999999999999999,32.22980218341589
9.392,0.9999999999999999,32.08722709520014
9.4,1.0,31.944613756686483
9.408,0.9999999999999999,31.801962156683015
9.416,1.0,31.659272284060357
9.424,1.0,31.516544127752116
9.432,1.0,31.373777676754518
9.44,1.0,31.23097292012685
9.448,1.0,31.08812984699123
9.456,1.0,30.945248446533018
9.464,1.0,30.80232870800053
9.472,1.0000000000000002,30.659370620705502
9.48,1.0,30.51637417402284
9.488,1.0,30.373339357391025
9.496,1.0,30.230266160311963
9.504,1.0,30.08715457235136
9.512,1.0,29.94400458313851
9.52,1.0,29.800816182366816
9.528,0.9999999999999999,29.65758935979354
9.536,1.0,29.5143241052402
9.544,0.9999999999999999,29.37102040859257
9.552,1.0,29.22767825980096
9.56,1.0,29.08429764888018
9.568,1.0,28.940878565909923
9.576,0.9999999999999999,28.797421001034714
9.584,1.0,28.65392494446434
9.592,1.0,28.510390386473702
9.6,0.9999999999999999,28.366817317403353
9.608,1.0,28.223205727659437
9.616,0.9999999999999999,28.079555607714052
9.624,1.0,27.935866948105303
9.632,1.0,27.79213973943776
9.64,0.9999999999999999,27.64837397238239
9.648,0.9999999999999999,27.5045696376771
9.656,1.0,27.360726726126675
9.664,1.0,27.21684522860333
9.672,1.0,27.072925136046692
9.68,1.0,26.928966439464354
9.688,0.9999999999999998,26.784969129931863
9.696,0.9999999999999999,26.640933198593267
9.704,1.0,26.496858636661205
9.712,1.0,26.35274543541741
9.72,0.9999999999999999,26.208593586212828
9.728,1.0,26.064403080468125
9.736,0.9999999999999999,25.920173909673842
9.744,1.0,25.775906065391002
9.752,0.9999999999999999,25.63159953925112
9.76,0.9999999999999999,25.48725432295692
9.768,0.9999999999999999,25.342870408282423
9.776,0.9999999999999999,25.198447787073583
9.784,0.9999999999999999,25.053986451248484
9.792,1.0,24.909486392797934
9.8,1.0,24.764947603785643
9.808,1.0,24.620370076348994
9.816,1.0,24.47575380269913
9.824,0.9999999999999999,24.331098775121752
9.832,0.9999999999999999,24.186404985977266
9.84,1.0,24.041672427701535
9.847999999999999,1.0,23.896901092806235
9.856,0.9999999999999998,23.752090973879316
9.864,1.0,23.607242063585666
9.872,0.9999999999999999,23.46235435466762
9.879999999999999,1.0,23.31742783994534
9.888,1.0000000000000002,23.17246251231749
9.896,0.9999999999999999,23.02745836476189
9.904,0.9999999999999999,22.88241539033601
9.911999999999999,1.0,22.73733358217747
9.92,1.0,22.592212933504797
9.928,0.9999999999999999,22.447053437618038
9.936,0.9999999999999999,22.30185508789938
9.943999999999999,1.0,22.156617877813698
9.952,1.0,22.01134180090931
9.96,1.0,21.866026850818724
9.968,1.0,21.72067302125927
9.975999999999999,1.0,21.575280306033683
9.984,1.0,21.42984869903098
9.992,0.9999999999999999,21.284378194227212
10.0,1.0,21.13886878568611
10.008,1.0,20.993320467559865
10.016,0.9999999999999999,20.847733234089915
10.024000000000001,0.9999999999999999,20.702107079607806
10.032,0.9999999999999998,20.556441998535963
10.04,1.0,20.41073798538841
10.048,1.0,20.264995034771662
10.056000000000001,1.0,20.119213141385703
10.064,0.9999999999999999,19.973392300024706
10.072,1.0,19.827532505577874
10.08,1.0,19.681633753030408
10.088000000000001,0.9999999999999999,19.535696037464465
10.096,0.9999999999999999,19.389719354059984
10.104,0.9999999999999999,19.243703698095608
10.112,0.9999999999999998,19.09764906494962
10.120000000000001,1.0000000000000002,18.951555450101047
10.128,1.0,18.80542284913048
10.136,1.0,18.659251257721042
10.144,0.9999999999999999,18.513040671659446
10.152000000000001,1.0000000000000002,18.366791086837065
10.16,0.9999999999999999,18.220502499250838
10.168,1.0,18.074174905004302
10.176,1.0,17.927808300308673
10.184000000000001,0.9999999999999999,17.781402681483947
10.192,1.0,17.63495804495991
10.2,1.0,17.488474387277133
10.208,1.0,17.341951705088153
10.216000000000001,1.0,17.19538999515859
