freq,mag,phase
6.0,0.9999964416391353,-39.016089154049695
6.008,0.9999977644453439,-39.40427461097061
6.016,0.999999019147366,-39.79208974455416
6.024,1.0,-40.179531166571685
6.032,1.0,-40.566595521429676
6.04,1.0,-40.95327948631198
6.048,1.0,-41.339579771316366
6.056,1.0,-41.725493119585124
6.064,1.0,-42.11101630743017
6.072,0.9999999999999999,-42.496146144452304
6.08,1.0,-42.88087947365482
6.088,1.0,-43.265213171551515
6.096,1.0,-43.649144148268896
6.104,1.0,-44.03266934764298
6.112,1.0000000000000002,-44.41578574731036
6.12,0.9999999999999999,-44.79849035879373
6.128,1.0,-45.18078022758196
6.136,1.0,-45.56265243320466
6.144,1.0,-45.94410408930113
6.152,1.0,-46.32513234368407
6.16,1.0,-46.70573437839785
6.168,1.0,-47.08590740977131
6.176,0.9999999999999999,-47.46564868846544
6.184,0.9999999999999999,-47.84495549951554
6.192,0.9999999999999999,-48.22382516236836
6.2,0.9999999999999999,-48.602255030913874
6.208,1.0,-48.980242493511966
6.216,0.9999999999999999,-49.357784973014134
6.224,1.0,-49.73487992677981
6.232,1.0,-50.11152484668797
6.24,0.9999999999999999,-50.48771725914363
6.248,1.0,-50.86345472507937
6.256,1.0,-51.2387348399521
6.264,1.0,-51.61355523373491
6.272,0.9999999999999999,-51.987913570904155
6.28,0.9999999999999999,-52.36180755042187
6.288,1.0,-52.73523490571337
6.296,1.0,-53.108193404640446
6.304,0.9999999999999999,-53.48068084946977
6.312,0.9999999999999999,-53.852695076836916
6.32,1.0,-54.224233957705906
6.328,1.0,-54.5952953973243
6.336,0.9999999999999999,-54.96587733517403
6.344,1.0,-55.335977744917834
6.352,1.0,-55.705594634341516
6.36,0.9999999999999999,-56.074726045292074
6.368,1.0,-56.44337005361166
6.376,0.9999999999999998,-56.81152476906741
6.384,1.0,-57.17918833527744
6.392,1.0,-57.54635892963279
6.4,0.9999999999999999,-57.91303476321554
6.408,1.0,-58.27921408071303
6.416,1.0,-58.64489516032846
6.424,1.0,-59.01007631368769
6.432,1.0,-59.37475588574239
6.44,1.0,-59.73893225466971
6.448,1.0,-60.102603831768384
6.456,1.0,-60.465769061351416
6.464,1.0,-60.82842642063533
6.472,0.9999999999999999,-61.19057441962613
6.48,1.0,-61.55221160100198
6.4879999999999995,1.0,-61.91333653999273
6.496,1.0,-62.2739478442564
6.504,0.9999997782075501,-62.63404415375209
6.5120000000000005,0.9999992182957913,-62.99362414061084
6.52,0.9999986556571222,-63.35268650900227
6.5280000000000005,0.9999980907917607,-63.71122999499978
6.536,0.9999975241864563,-64.06925336644144
6.5440000000000005,0.9999969563146593,-64.42675542278957
6.552,0.9999963876366921,-64.78373499498619
6.5600000000000005,0.9999958185999169,-65.14019094530722
6.568,0.9999952496389091,-65.49612216721292
6.5760000000000005,0.9999946811756251,-65.85152758519675
6.584,0.9999941136195729,-66.20640615463095
6.592,0.9999935473679846,-66.56075686161063
6.6,0.9999929828059828,-66.91457872279462
6.608,0.9999924203067536,-67.26787078524477
6.616,0.9999918602317148,-67.62063212626265
6.624,0.9999913029306863,-67.97286185322423
6.632,0.999990748742058,-68.32455910341254
6.64,0.9999901979929601,-68.6757230438481
6.648,0.9999896509994315,-69.02635287111765
6.656,0.9999891080665866,-69.37644781120078
6.664,0.9999885694887845,-69.72600711929472
6.672,0.9999880355497949,-70.07503007963754
6.68,0.9999875065229661,-70.42351600532939
6.688,0.9999869826713902,-70.7714642381521
6.696,0.9999864642480678,-71.11887414838732
6.704,0.9999859514960752,-71.46574513463294
6.712,0.9999854446487257,-71.81207662361808
6.72,0.9999849439297352,-72.15786807001666
6.728,0.999984449553384,-72.50311895625944
6.736,0.9999839617246781,-72.84782879234493
6.744,0.9999834806395121,-73.19199711564882
6.752,0.9999830064848275,-73.53562349073236
6.76,0.9999825394387738,-73.8787075091494
6.768,0.9999820796708652,-74.2212487892524
6.776,0.99998162734214,-74.56324697599742
6.784,0.9999811826053158,-74.9047017407479
6.792,0.9999807456049459,-75.24561278107774
6.8,0.9999803164775735,-75.5859798205732
6.808,0.9999798953518862,-75.92580260863416
6.816,0.9999794823488676,-76.26508092027437
6.824,0.9999790775819483,-76.60381455592112
6.832,0.999978681157158,-76.94200334121398
6.84,0.9999782931732734,-77.27964712680308
6.848,0.9999779137219663,-77.61674578814662
6.856,0.9999775428879514,-77.95329922530783
6.864,0.9999771807491313,-78.28930736275146
6.872,0.9999768273767415,-78.62477014913974
6.88,0.9999764828354935,-78.95968755712782
6.888,0.9999761471837165,-79.29405958315904
6.896,0.9999758204734993,-79.62788624725951
6.904,0.9999755027508286,-79.96116759283272
6.912,0.9999751940557284,-80.29390368645365
6.92,0.9999748944223967,-80.62609461766267
6.928,0.9999746038793411,-80.95774049875946
6.936,0.9999743224495123,-81.28884146459654
6.944,0.999974050150439,-81.61939767237271
6.952,0.9999737869943578,-81.94940930142666
6.96,0.9999735329883446,-82.27887655303026
6.968,0.9999732881344435,-82.60779965018203
6.976,0.9999730524297941,-82.9361788374006
6.984,0.9999728258667568,-83.2640143805183
6.992,0.9999726084330401,-83.59130656647476
7.0,0.9999724001118215,-83.91805570311075
7.008,0.9999722008818711,-84.24426211896225
7.016,0.9999720107176714,-84.56992616305463
7.024,0.9999718295895366,-84.89504820469706
7.032,0.9999716574637304,-85.21962863327745
7.04,0.9999714943025839,-85.54366785805736
7.048,0.9999713400646068,-85.86716630796761
7.056,0.9999711947046044,-86.19012443140392
7.064,0.999971058173789,-86.51254269602329
7.072,0.999970930419888,-86.83442158854058
7.08,0.9999708113872573,-87.15576161452573
7.088,0.9999707010169853,-87.4765632982013
7.096,0.9999705992470004,-87.79682718224075
7.104,0.999970506012177,-88.11655382756705
7.112,0.9999704212444368,-88.43574381315202
7.12,0.999970344872853,-88.7543977358163
7.128,0.9999702768237491,-89.07251621002972
7.136,0.9999702170207989,-89.39009986771265
7.144,0.9999701653851233,-89.7071493580378
7.152,0.9999701218353874,-90.02366534723274
7.16,0.9999700862878953,-90.33964851838326
7.168,0.9999700586566822,-90.65509957123743
7.176,0.9999700388536086,-90.97001922201031
7.184,0.9999700267884476,-91.28440820318959
7.192,0.9999700223689778,-91.59826726334212
7.2,0.9999700255010672,-91.91159716692096
7.208,0.9999700360887621,-92.2243986940736
7.216,0.9999700540343713,-92.5366726404509
7.224,0.9999700792385496,-92.84841981701692
7.232,0.9999701116003787,-93.15964104985969
7.24,0.9999701510174506,-93.47033718000286
7.248,0.9999701973859434,-93.7805090632184
7.256,0.9999702506007025,-94.09015756984014
7.264,0.9999703105553156,-94.39928358457827
7.272,0.9999703771421875,-94.70788800633495
7.28,0.9999704502526154,-95.01597174802082
7.288,0.9999705297768609,-95.32353573637253
7.296,0.9999706156042203,-95.63058091177143
7.304,0.9999707076230957,-95.93710822806307
7.312,0.9999708057210637,-96.24311865237802
7.32,0.9999709097849415,-96.5486131649535
7.328,0.9999710197008538,-96.85359275895637
7.336,0.9999711353542975,-97.15805844030693
7.344,0.999971256630205,-97.46201122750404
7.352,0.9999713834130057,-97.76545215145127
7.36,0.9999715155866884,-98.06838225528412
7.368,0.9999716530348596,-98.37080259419854
7.376,0.9999717956408022,-98.67271423528034
7.384,0.9999719432875334,-98.97411825733607
7.392,0.9999720958578601,-99.27501575072478
7.4,0.9999722532344336,-99.57540781719105
7.4079999999999995,0.9999724152998035,-99.8752955696993
7.416,0.99997258193647,-100.17468013226922
7.4239999999999995,0.999972753026935,-100.47356263981204
7.432,0.9999729284537526,-100.7719442379689
7.4399999999999995,0.9999731080995772,-101.06982608294915
7.448,0.999973291847212,-101.36720934137135
7.4559999999999995,0.9999734795796557,-101.66409519010384
7.464,0.999973671180147,-101.96048481610815
7.4719999999999995,0.9999738665322104,-102.25637941628224
7.48,0.9999740655196987,-102.55178019730617
7.4879999999999995,0.9999742680268353,-102.84668837548783
7.496,0.9999744739382559,-103.14110517661109
7.504,0.9999746831390478,-103.4350318357841
7.5120000000000005,0.9999748955147896,-103.7284695972898
7.52,0.9999751109515892,-104.02141971443672
7.5280000000000005,0.9999753293361202,-104.31388344941207
7.536,0.9999755505556587,-104.60586207313499
7.5440000000000005,0.9999757744981177,-104.89735686511207
7.552,0.9999760010520823,-105.18836911329329
7.5600000000000005,0.9999762301068402,-105.47890011392988
7.568,0.9999764615524168,-105.76895117143279
7.5760000000000005,0.9999766952796042,-106.0585235982332
7.584,0.9999769311799923,-106.34761871464327
7.5920000000000005,0.9999771691459975,-106.63623784871946
7.6,0.9999774090708922,-106.92438233612557
7.6080000000000005,0.9999776508488304,-107.21205351999856
7.616,0.9999778943748763,-107.49925275081434
7.6240000000000006,0.9999781395450278,-107.7859813862558
7.632,0.9999783862562432,-108.07224079108136
7.640000000000001,0.9999786344064646,-108.35803233699538
7.648,0.9999788838946394,-108.64335740251924
7.656000000000001,0.9999791346207461,-108.92821737286428
7.664,0.9999793864858114,-109.21261363980528
7.672,0.9999796393919342,-109.49654760155602
7.68,0.9999798932423039,-109.7800206626453
7.688,0.9999801479412197,-110.0630342337947
7.696,0.9999804033941091,-110.34558973179738
7.704,0.9999806595075454,-110.62768857939814
7.712,0.9999809161892643,-110.9093322051748
7.72,0.9999811733481795,-111.19052204342074
7.728,0.9999814308943992,-111.4712595340285
7.736,0.9999816887392393,-111.75154612237502
7.744,0.9999819467952381,-112.03138325920767
7.752,0.9999822049761695,-112.31077240053175
7.76,0.9999824631970553,-112.58971500749907
7.768,0.9999827213741764,-112.8682125462979
7.776,0.9999829794250858,-113.14626648804384
7.784,0.9999832372686168,-113.42387830867222
7.792,0.9999834948248943,-113.70104948883152
7.8,0.9999837520153438,-113.97778151377784
7.808,0.9999840087627001,-114.25407587327095
7.816,0.9999842649910153,-114.52993406147104
7.824,0.9999845206256657,-114.80535757683704
7.832,0.9999847755933592,-115.08034792202585
7.84,0.9999850298221415,-115.3549066037929
7.848,0.9999852832414026,-115.62903513289376
7.856,0.9999855357818793,-115.90273502398695
7.864,0.9999857873756633,-116.17600779553788
7.872,0.9999860379562027,-116.44885496972393
7.88,0.9999862874583068,-116.72127807234072
7.888,0.999986535818149,-116.99327863270938
7.896,0.9999867829732683,-117.26485818358506
7.904,0.9999870288625727,-117.53601826106654
7.912,0.9999872734263405,-117.8067604045069
7.92,0.9999875166062211,-118.07708615642531
7.928,0.9999877583452348,-118.34699706241996
7.936,0.9999879985877743,-118.61649467108205
7.944,0.9999882372796041,-118.88558053391087
7.952,0.999988474367859,-119.1542562052299
7.96,0.999988709801044,-119.42252324210408
7.968,0.9999889435290321,-119.6903832042581
7.976,0.999989175503062,-119.95783765399574
7.984,0.999989405675737,-120.22488815612029
7.992,0.9999896340010205,-120.49153627785599
8.0,0.9999898604342338,-120.7577835887704
8.008,0.9999900849320532,-121.02363166069809
8.016,0.9999903074525043,-121.28908206766512
8.024000000000001,0.9999905279549597,-121.55413638581456
8.032,0.9999907464001327,-121.8187961933329
8.04,0.9999909627500738,-122.083063070378
8.048,0.9999911769681638,-122.34693859900737
8.056000000000001,0.9999913890191096,-122.6104243631077
8.064,0.9999915988689378,-122.87352194832545
8.072,0.9999918064849884,-123.13623294199847
8.08,0.9999920118359076,-123.39855893308844
8.088000000000001,0.9999922148916416,-123.66050151211405
8.096,0.9999924156234303,-123.92206227108561
8.104,0.9999926140037979,-124.18324280344044
8.112,0.9999928100065469,-124.44404470397905
8.120000000000001,0.9999930036067494,-124.70446956880222
8.128,0.999993194780738,-124.9645189952492
8.136,0.9999933835060997,-125.2241945818369
8.144,0.9999935697616652,-125.48349792819974
8.152000000000001,0.9999937535275001,-125.74243063503032
8.16,0.9999939347848962,-126.00099430402135
8.168,0.9999941135163625,-126.25919053780835
8.176,0.9999942897056143,-126.51702093991304
8.184000000000001,0.9999944633375646,-126.7744871146876
8.192,0.9999946343983129,-127.03159066726008
8.2,0.9999948028751362,-127.28833320348059
8.208,0.9999949687564775,-127.54471632986815
8.216000000000001,0.9999951320319352,-127.80074165355833
8.224,0.9999952926922534,-128.05641078225204
8.232,0.9999954507293091,-128.31172532416508
8.24,0.9999956061361029,-128.56668688797842
8.248000000000001,0.9999957589067462,-128.8212970827889
8.256,0.9999959090364505,-129.0755575180617
8.264,0.9999960565215159,-129.3294698035826
8.272,0.999996201359318,-129.5830355494119
8.280000000000001,0.9999963435482975,-129.83625636583827
8.288,0.9999964830879479,-130.0891338633339
8.296,0.9999966199788018,-130.3416696525107
8.304,0.9999967542224206,-130.59386534407648
8.312,0.9999968858213809,-130.84572254879242
8.32,0.999997014779262,-131.09724287743137
8.328,0.9999971411006333,-131.34842794073626
8.336,0.9999972647910416,-131.59927934938023
8.344,0.9999973858569984,-131.84979871392633
8.352,0.9999975043059666,-132.09998764478925
8.36,0.9999976201463471,-132.34984775219635
8.368,0.9999977333874667,-132.59938064615076
8.376,0.9999978440395632,-132.84858793639393
8.384,0.9999979521137741,-133.09747123237003
8.392,0.9999980576221214,-133.34603214319003
8.4,0.9999981605774989,-133.59427227759738
8.408,0.9999982609936588,-133.84219324393334
8.416,0.9999983588851982,-134.08979665010412
8.424,0.9999984542675442,-134.33708410354757
8.432,0.9999985471569415,-134.58405721120158
8.44,0.9999986375704387,-134.83071757947206
8.448,0.9999987255258735,-135.07706681420262
8.456,0.9999988110418592,-135.32310652064385
8.464,0.9999988941377711,-135.56883830342426
8.472,0.9999989748337323,-135.8142637665209
8.48,0.9999990531506002,-136.05938451323127
8.488,0.9999991291099514,-136.30420214614549
8.496,0.9999992027340687,-136.54871826711923
8.504,0.999999274045927,-136.792934477247
8.512,0.9999993430691783,-137.03685237683658
8.52,0.9999994098281392,-137.28047356538312
8.528,0.9999994743477748,-137.523799641545
8.536,0.999999536653686,-137.76683220311895
8.544,0.9999995967720959,-138.00957284701698
8.552,0.9999996547298334,-138.25202316924285
8.56,0.9999997105543221,-138.49418476486989
8.568,0.999999764273563,-138.73605922801863
8.576,0.9999998159161229,-138.97764815183584
8.584,0.9999998655111196,-139.21895312847306
8.592,0.9999999130882066,-139.45997574906676
8.6,0.9999999586775611,-139.70071760371795
8.608,0.9999999999999999,-139.94118028147338
8.616,0.9999999999999999,-140.1813653703061
8.624,0.9999999999999999,-140.42127445709792
8.632,1.0,-140.66090912762064
8.64,1.0,-140.9002709665196
8.648,1.0,-141.13936155729616
8.656,1.0,-141.37818248229186
8.664,1.0,-141.61673532267218
8.672,1.0,-141.85502165841146
8.68,1.0000000000000002,-142.0930430682774
8.688,1.0,-142.33080112981744
8.696,1.0,-142.56829741934385
8.704,1.0,-142.80553351192086
8.712,1.0,-143.04251098135106
8.72,1.0000000000000002,-143.27923140016304
8.728,1.0,-143.515696339599
8.736,1.0,-143.75190736960297
8.744,1.0,-143.98786605880932
8.752,1.0,-144.22357397453212
8.76,0.9999999999999999,-144.4590326827541
8.768,1.0,-144.69424374811697
8.776,1.0,-144.9292087339114
8.784,0.9999999999999999,-145.16392920206792
8.792,1.0,-145.3984067131477
8.8,1.0,-145.6326428263343
8.808,1.0,-145.8666390994252
8.815999999999999,1.0,-146.10039708882454
8.824,1.0000000000000002,-146.33391834953522
8.832,1.0,-146.56720443515204
8.84,1.0,-146.8002568978551
8.847999999999999,1.0,-147.03307728840352
8.856,1.0,-147.26566715612967
8.864,1.0,-147.49802804893315
8.872,1.0,-147.73016151327593
8.879999999999999,0.9999999999999999,-147.9620690941775
8.888,1.0,-148.19375233521032
8.896,1.0,-148.4252127784953
8.904,1.0,-148.65645196469836
8.911999999999999,0.9999999999999999,-148.8874714330268
8.92,1.0,-149.11827272122602
8.928,1.0,-149.34885736557663
8.936,0.9999999999999999,-149.579226900892
8.943999999999999,1.0,-149.80938286051588
8.952,0.9999999999999998,-150.0393267763208
8.96,1.0,-150.2690601787059
8.968,1.0,-150.498584596596
8.975999999999999,1.0,-150.7279015574406
8.984,1.0,-150.95701258721294
8.992,1.0,-151.18591921040965
9.0,1.0,-151.41462295005053
9.008,1.0,-151.6431253276789
9.016,1.0,-151.87142786336176
9.024000000000001,0.9999999999999999,-152.09953207569066
9.032,1.0,-152.3274394817825
9.04,1.0,-152.55515159728085
9.048,1.0,-152.78266993635762
9.056000000000001,1.0,-153.0099960117144
9.064,1.0,-153.2371313345848
9.072,1.0,-153.46407741473672
9.08,1.0,-153.6908357604748
9.088000000000001,0.9999999999999999,-153.91740787864313
9.096,1.0,-154.1437952746283
9.104,0.9999999999999999,-154.3699994523628
9.112,1.0,-154.59602191432847
9.120000000000001,0.9999999999999999,-154.82186416156006
9.128,1.0,-155.0475276936493
9.136,0.9999999999999999,-155.27301400874936
9.144,0.9999999999999999,-155.49832460357896
9.152000000000001,0.9999999999999999,-155.72346097342702
9.16,0.9999999999999999,-155.94842461215774
9.168,1.0,-156.17321701221556
9.176,1.0,-156.39783966463057
9.184000000000001,1.0,-156.6222940590238
9.192,1.0,-156.8465816836132
9.2,1.0,-157.0707040252195
9.208,1.0,-157.2946625692723
9.216000000000001,0.9999999999999999,-157.51845879981647
9.224,1.0,-157.74209419951845
9.232,1.0,-157.96557024967345
9.24,1.0,-158.18888843021205
9.248000000000001,1.0,-158.41205021970725
9.256,0.9999999999999998,-158.63505709538197
9.264,1.0,-158.85791053311647
9.272,1.0,-159.08061200745615
9.280000000000001,1.0,-159.30316299161896
9.288,1.0,-159.5255649575039
9.296,1.0,-159.74781937569912
9.304,1.0,-159.9699277154902
9.312000000000001,1.0,-160.19189144486856
9.32,1.0,-160.4137120305405
9.328,1.0,-160.63539093793585
9.336,1.0,-160.85692963121716
9.344,1.0,-161.07832957328853
9.352,1.0,-161.29959222580564
9.36,0.9999999999999999,-161.52071904918452
9.368,1.0,-161.74171150261185
9.376,1.0,-161.96257104405424
9.384,1.0,-162.1832991302687
9.392,1.0,-162.40389721681225
9.4,0.9999999999999999,-162.6243667580527
9.408,0.9999999999999999,-162.84470920717865
9.416,1.0,-163.06492601621028
9.424,0.9999999999999998,-163.28501863600977
9.432,0.9999999999999999,-163.50498851629249
9.44,1.0,-163.72483710563762
9.448,1.0,-163.94456585149948
9.456,1.0,-164.1641762002185
9.464,0.9999999999999999,-164.3836695970329
9.472,1.0,-164.6030474860898
9.48,1.0,-164.82231131045714
9.488,1.0,-165.0414625121351
9.496,1.0,-165.26050253206833
9.504,1.0,-165.47943281015742
9.512,1.0,-165.69825478527162
9.52,1.0,-165.91696989526022
9.528,0.9999999999999999,-166.13557957696577
9.536,0.9999999999999999,-166.3540852662357
9.544,0.9999999999999999,-166.57248839793544
9.552,1.0,-166.79079040596068
9.56,1.0000000000000002,-167.00899272325046
9.568,0.9999999999999999,-167.22709678179956
9.576,0.9999999999999999,-167.44510401267206
9.584,1.0,-167.66301584601388
9.592,1.0,-167.8808337110663
9.6,1.0,-168.09855903617887
9.608,1.0,-168.31619324882325
9.616,0.9999999999999999,-168.53373777560623
9.624,1.0,-168.7511940422835
9.632,0.9999999999999999,-168.9685634737732
9.64,1.0,-169.18584749416982
9.648,1.0,-169.40304752675777
9.656,0.9999999999999999,-169.6201649940256
9.664,0.9999999999999999,-169.83720131767961
9.672,1.0,-170.05415791865843
9.68,1.0,-170.27103621714673
9.688,0.9999999999999999,-170.48783763258976
9.696,0.9999999999999999,-170.70456358370754
9.704,1.0,-170.9212154885094
9.712,1.0,-171.13779476430835
9.72,1.0,-171.35430282773578
9.728,1.0,-171.5707410947559
9.736,1.0,-171.78711098068078
9.744,0.9999999999999999,-172.0034139001847
9.752,0.9999999999999999,-172.2196512673196
9.76,0.9999999999999999,-172.43582449552935
9.768,0.9999999999999999,-172.65193499766536
9.776,1.0,-172.86798418600122
9.784,1.0,-173.08397347224818
9.792,1.0,-173.29990426756993
9.8,1.0,-173.51577798259842
9.808,1.0000000000000002,-173.73159602744857
9.816,0.9999999999999999,-173.94735981173434
9.824,1.0,-174.16307074458356
9.832,1.0,-174.3787302346539
9.84,1.0,-174.59433969014805
9.847999999999999,0.9999999999999999,-174.80990051882978
9.856,1.0,-175.0254141280394
9.864,1.0000000000000002,-175.24088192470927
9.872,1.0,-175.45630531538004
9.879999999999999,1.0,-175.67168570621624
9.888,0.9999999999999999,-175.88702450302225
9.896,1.0,-176.10232311125816
9.904,1.0,-176.3175829360558
9.911999999999999,0.9999999999999999,-176.53280538223487
9.92,0.9999999999999999,-176.74799185431905
