freq,mag,phase
6.0,0.9999967703443599,-72.71624582169193
6.008,0.9999983577655815,-73.0846475009606
6.016,0.9999998551211589,-73.45246632452296
6.024,0.9999999999999998,-73.81970186934451
6.032,0.9999999999999999,-74.18635374486372
6.04,0.9999999999999999,-74.5524215927372
6.048,0.9999999999999999,-74.91790508658391
6.056,0.9999999999999999,-75.28280393172795
6.064,0.9999999999999998,-75.64711786494055
6.072,0.9999999999999999,-76.01084665418075
6.08,1.0,-76.37399009833553
6.088,1.0,-76.73654802695877
6.096,1.0,-77.09852030000962
6.104,0.9999999999999999,-77.45990680758995
6.112,0.9999999999999999,-77.8207074696813
6.12,1.0,-78.18092223588116
6.128,1.0,-78.5405510851388
6.136,0.9999999999999999,-78.89959402549042
6.144,1.0,-79.25805109379408
6.152,0.9999999999999999,-79.61592235546432
6.16,1.0,-79.97320790420618
6.168,1.0,-80.32990786174935
6.176,1.0,-80.68602237758195
6.184,0.9999999999999999,-81.0415516286842
6.192,0.9999999999999999,-81.39649581926201
6.2,1.0,-81.75085518048073
6.208,0.9999999999999999,-82.1046299701986
6.216,1.0,-82.45782047270073
6.224,1.0,-82.81042699843277
6.232,0.9999999999999999,-83.16244988373523
6.24,0.9999999999999999,-83.51388949057763
6.248,0.9999999999999999,-83.86474620629322
6.256,1.0,-84.21502044331403
6.264,0.9999999999999999,-84.5647126389061
6.272,0.9999999999999999,-84.91382325490537
6.28,1.0,-85.26235277745391
6.288,1.0,-85.61030171673683
6.296,1.0,-85.95767060671957
6.304,0.9999999999999999,-86.30446000488591
6.312,1.0,-86.65067049197656
6.32,1.0,-86.99630267172856
6.328,0.9999999999999999,-87.34135717061538
6.336,0.9999999999999999,-87.68583463758756
6.344,1.0,-88.02973574381453
6.352,1.0,-88.37306118242702
6.36,0.9999999999999998,-88.71581166826034
6.368,0.9999999999999999,-89.05798793759875
6.376,1.0,-89.39959074792064
6.384,1.0,-89.74062087764469
6.392,1.0,-90.08107912587708
6.4,0.9999999999999998,-90.42096631215975
6.408,1.0,-90.76028327621975
6.416,0.9999999999999999,-91.09903087771957
6.424,1.0,-91.4372099960088
6.432,1.0,-91.77482152987677
6.44,1.0,-92.11186639730649
6.448,0.9999999999999999,-92.44834553522972
6.456,0.9999998826612483,-92.78425989928334
6.464,0.9999991714079394,-93.11961046356703
6.472,0.9999984551952938,-93.45439822040203
6.48,0.9999977347541364,-93.7886241800915
6.4879999999999995,0.9999970107950373,-94.12228937068194
6.496,0.9999962840086096,-94.4553948377263
6.504,0.9999955550658011,-94.78794164404783
6.5120000000000005,0.9999948246181922,-95.11993086950633
6.52,0.9999940932982843,-95.4513636107646
6.5280000000000005,0.9999933617197919,-95.78224098105757
6.536,0.9999926304779304,-96.11256410996174
6.5440000000000005,0.9999919001497042,-96.44233414316705
6.552,0.9999911712941909,-96.77155224224938
6.5600000000000005,0.9999904444528247,-97.10021958444545
6.568,0.9999897201496794,-97.4283373624282
6.5760000000000005,0.9999889988917463,-97.75590678408487
6.584,0.9999882811692142,-98.08292907229537
6.592,0.9999875674557438,-98.40940546471344
6.6,0.999986858208742,-98.7353372135484
6.608,0.9999861538696349,-99.06072558534905
6.616,0.9999854548641369,-99.38557186078884
6.624,0.9999847616025194,-99.70987733445295
6.632,0.999984074479876,-100.0336433146268
6.64,0.9999833938763875,-100.35687112308604
6.648,0.9999827201575829,-100.6795620948886
6.656,0.999982053674599,-101.00171757816791
6.664,0.9999813947644384,-101.3233389339281
6.672,0.9999807437502245,-101.64442753584072
6.68,0.9999801009414547,-101.96498477004312
6.688,0.9999794666342511,-102.28501203493855
6.696,0.9999788411116105,-102.60451074099788
6.704,0.9999782246436482,-102.92348231056313
6.712,0.9999776174878449,-103.24192817765244
6.72,0.999977019889287,-103.55984978776705
6.728,0.999976432080907,-103.87724859769965
6.736,0.9999758542837204,-104.19412607534471
6.744,0.9999752867070612,-104.5104836995103
6.752,0.9999747295488134,-104.82632295973181
6.76,0.9999741829956439,-105.14164535608711
6.768,0.9999736472232273,-105.45645239901368
6.776,0.9999731223964745,-105.77074560912739
6.784,0.999972608669754,-106.08452651704282
6.792,0.9999721061871144,-106.39779666319546
6.8,0.9999716150825022,-106.71055759766566
6.808,0.999971135479978,-107.02281088000404
6.816,0.9999706674939307,-107.33455807905898
6.824,0.9999702112292904,-107.6458007728054
6.832,0.9999697667817343,-107.95654054817564
6.84,0.999969334237897,-108.2667790008917
6.848,0.9999689136755731,-108.57651773529953
6.856,0.9999685051639198,-108.88575836420468
6.864,0.999968108763656,-109.19450250870989
6.872,0.9999677245272611,-109.5027517980543
6.88,0.9999673524991683,-109.81050786945428
6.888,0.9999669927159591,-110.1177723679461
6.896,0.9999666452065515,-110.4245469462301
6.904,0.9999663099923899,-110.73083326451672
6.912,0.9999659870876292,-111.03663299037409
6.92,0.9999656764993194,-111.34194779857732
6.928,0.9999653782275851,-111.64677937095948
6.936,0.999965092265806,-111.95112939626416
6.944,0.9999648186007911,-112.25499956999988
6.952,0.9999645572129545,-112.55839159429586
6.96,0.9999643080764858,-112.86130717775966
6.968,0.9999640711595202,-113.1637480353364
6.976,0.9999638464243055,-113.46571588816963
6.984,0.9999636338273669,-113.76721246346362
6.992,0.9999634333196694,-114.06823949434774
7.0,0.9999632448467787,-114.3687987197418
7.008,0.9999630683490187,-114.66889188422367
7.016,0.9999629037616276,-114.96852073789795
7.024,0.9999627510149115,-115.26768703626651
7.032,0.9999626100343962,-115.5663925401006
7.04,0.9999624807409754,-115.86463901531441
7.048,0.9999623630510595,-116.16242823284036
7.056,0.9999622568767184,-116.45976196850575
7.064,0.9999621621258264,-116.75664200291114
7.072,0.999962078702201,-117.0530701213102
7.08,0.9999620065057422,-117.34904811349098
7.088,0.9999619454325687,-117.64457777365898
7.096,0.9999618953751523,-117.93966090032147
7.104,0.9999618562224502,-118.23429929617333
7.112,0.9999618278600343,-118.5284947679846
7.12,0.99996181017022,-118.82224912648938
7.128,0.9999618030321925,-119.11556418627606
7.136,0.9999618063221292,-119.4084417656794
7.144,0.9999618199133234,-119.70088368667358
7.152,0.9999618436763037,-119.99289177476719
7.16,0.999961877478951,-120.28446785889928
7.168,0.9999619211866164,-120.57561377133699
7.176,0.9999619746622334,-120.86633134757471
7.184,0.9999620377664309,-121.15662242623445
7.192,0.9999621103576443,-121.44648884896769
7.2,0.9999621922922214,-121.73593246035865
7.208,0.999962283424532,-122.02495510782896
7.216,0.9999623836070691,-122.31355864154362
7.224,0.9999624926905549,-122.60174491431829
7.232,0.999962610524039,-122.88951578152815
7.24,0.999962736954999,-123.17687310101778
7.248,0.9999628718294377,-123.46381873301273
7.256,0.9999630149919776,-123.75035454003209
7.264,0.999963166285956,-124.03648238680242
7.272,0.9999633255535157,-124.32220414017331
7.28,0.9999634926356961,-124.6075216690337
7.288,0.9999636673725216,-124.89243684422993
7.296,0.999963849603088,-125.1769515384848
7.304,0.9999640391656485,-125.46106762631791
7.312,0.9999642358976962,-125.74478698396754
7.32,0.9999644396360464,-126.02811148931316
7.328,0.9999646502169176,-126.31104302179989
7.336,0.9999648674760087,-126.5935834623635
7.344,0.9999650912485768,-126.8757346933572
7.352,0.9999653213695129,-127.15749859847921
7.36,0.9999655576734151,-127.43887706270168
7.368,0.9999657999946618,-127.7198719722007
7.376,0.9999660481674817,-128.0004852142877
7.384,0.9999663020260239,-128.2807186773416
7.392,0.9999665614044244,-128.5605742507426
7.4,0.9999668261368746,-128.84005382480657
7.4079999999999995,0.9999670960576839,-129.11915929072103
7.416,0.999967371001345,-129.39789254048196
7.4239999999999995,0.9999676508025949,-129.67625546683163
7.432,0.9999679352964759,-129.95424996319812
7.4399999999999995,0.999968224318394,-130.23187792363487
7.448,0.9999685177041792,-130.50914124276244
7.4559999999999995,0.9999688152901389,-130.78604181571032
7.464,0.9999691169131152,-131.06258153806084
7.4719999999999995,0.9999694224105375,-131.33876230579278
7.48,0.999969731620477,-131.6145860152276
7.4879999999999995,0.9999700443816949,-131.89005456297497
7.496,0.999970360533695,-132.16516984588108
7.504,0.9999706799167719,-132.43993376097632
7.5120000000000005,0.9999710023720578,-132.71434820542515
7.52,0.9999713277415685,-132.98841507647614
7.5280000000000005,0.9999716558682499,-133.26213627141365
7.536,0.9999719865960206,-133.53551368750982
7.5440000000000005,0.999972319769815,-133.80854922197815
7.552,0.999972655235625,-134.08124477192726
7.5600000000000005,0.9999729928405401,-134.35360223431647
7.568,0.9999733324327867,-134.62562350591145
7.5760000000000005,0.9999736738617664,-134.89731048324145
7.584,0.9999740169780929,-135.16866506255687
7.5920000000000005,0.999974361633628,-135.43968913978833
7.6,0.9999747076815159,-135.71038461050586
7.6080000000000005,0.999975054976218,-135.98075336987984
7.616,0.9999754033735453,-136.2507973126418
7.6240000000000006,0.9999757527306898,-136.52051833304725
7.632,0.999976102906255,-136.789918324838
7.640000000000001,0.9999764537602874,-137.05899918120684
7.648,0.999976805154303,-137.32776279476133
7.656000000000001,0.9999771569513158,-137.5962110574901
7.664,0.9999775090158657,-137.86434586072855
7.672,0.9999778612140429,-138.1321690951265
7.68,0.9999782134135136,-138.39968265061557
7.688,0.9999785654835444,-138.66688841637824
7.696,0.9999789172950245,-138.9337882808169
7.704,0.9999792687204886,-139.20038413152463
7.712,0.9999796196341381,-139.46667785525543
7.72,0.999979969911862,-139.7326713378965
7.728,0.9999803194312558,-139.99836646444044
7.736,0.9999806680716404,-140.26376511895836
7.744,0.9999810157140816,-140.52886918457375
7.752,0.9999813622414052,-140.7936805434373
7.76,0.9999817075382148,-141.0582010767018
7.768,0.9999820514909069,-141.32243266449848
7.776,0.999982393987686,-141.58637718591342
7.784,0.9999827349185787,-141.8500365189649
7.792,0.999983074175446,-142.11341254058163
7.8,0.9999834116519983,-142.37650712658112
7.808,0.9999837472438051,-142.63932215164922
7.816,0.9999840808483065,-142.9018594893199
7.824,0.9999844123648247,-143.16412101195596
7.832,0.9999847416945726,-143.42610859073022
7.84,0.9999850687406646,-143.68782409560743
7.848,0.9999853934081226,-143.94926939532652
7.856,0.9999857156038859,-144.21044635738392
7.864,0.9999860352368174,-144.471356848017
7.872,0.9999863522177103,-144.7320027321885
7.88,0.9999866664592938,-144.99238587357127
7.888,0.9999869778762388,-145.2525081345336
7.896,0.9999872863851624,-145.51237137612534
7.904,0.9999875919046315,-145.77197745806438
7.912,0.9999878943551673,-146.0313282387238
7.92,0.999988193659247,-146.2904255751193
7.928,0.9999884897413075,-146.54927132289757
7.936,0.9999887825277459,-146.80786733632502
7.944,0.9999890719469224,-147.06621546827688
7.952,0.9999893579291591,-147.3243175702271
7.96,0.9999896404067417,-147.58217549223835
7.968,0.999989919313919,-147.8397910829532
7.976,0.9999901945869013,-148.0971661895851
7.984,0.9999904661638601,-148.3543026579101
7.992,0.999990733984926,-148.61120233225932
8.0,0.9999909979921862,-148.86786705551162
8.008,0.9999912581296817,-149.1242986690866
8.016,0.9999915143434053,-149.38049901293863
8.024000000000001,0.999991766581296,-149.63646992555056
8.032,0.9999920147932371,-149.89221324392855
8.04,0.99999225893105,-150.14773080359723
8.048,0.9999924989484904,-150.40302443859488
8.056000000000001,0.9999927348012423,-150.65809598146947
8.064,0.999992966446913,-150.91294726327493
8.072,0.9999931938450259,-151.1675801135681
8.08,0.9999934169570148,-151.4219963604058
8.088000000000001,0.9999936357462167,-151.6761978303423
8.096,0.999993850177865,-151.93018634842736
8.104,0.9999940602190811,-152.1839637382049
8.112,0.9999942658388666,-152.43753182171156
8.120000000000001,0.9999944670080956,-152.69089241947574
8.128,0.9999946636995048,-152.9440473505174
8.136,0.999994855887686,-153.1969984323481
8.144,0.999995043549075,-153.449747480971
8.152000000000001,0.9999952266619431,-153.7022963108819
8.16,0.9999954052063866,-153.95464673506982
8.168,0.999995579164317,-154.20680056501894
8.176,0.9999957485194493,-154.45875961071008
8.184000000000001,0.9999959132572921,-154.71052568062274
8.192,0.9999960733651361,-154.96210058173764
8.2,0.9999962288320423,-155.21348611953965
8.208,0.9999963796488301,-155.46468409802074
8.216000000000001,0.9999965258080661,-155.7156963196834
8.224,0.9999966673040507,-155.96652458554436
8.232,0.9999968041328062,-156.21717069513895
8.24,0.9999969362920638,-156.4676364465253
8.248000000000001,0.9999970637812506,-156.71792363628896
8.256,0.9999971866014761,-156.96803405954802
8.264,0.9999973047555182,-157.21796950995846
8.272,0.9999974182478104,-157.46773177971977
8.280000000000001,0.9999975270844274,-157.71732265958053
8.288,0.9999976312730705,-157.96674393884493
8.296,0.9999977308230527,-158.21599740537914
8.304,0.9999978257452862,-158.465084845618
8.312,0.9999979160522646,-158.7140080445719
8.32,0.9999980017580503,-158.96276878583433
8.328,0.9999980828782574,-159.211368851589
8.336,0.9999981594300379,-159.4598100226182
8.344,0.9999982314320646,-159.70809407831024
8.352,0.9999982989045161,-159.95622279666816
8.36,0.9999983618690608,-160.20419795431806
8.368,0.9999984203488408,-160.45202132651806
8.376,0.999998474368455,-160.69969468716704
8.384,0.9999985239539431,-160.94721980881425
8.392,0.9999985691327691,-161.19459846266847
8.4,0.9999986099338042,-161.44183241860796
8.408,0.9999986463873107,-161.68892344519023
8.416,0.999998678524923,-161.93587330966236
8.424,0.9999987063796327,-162.18268377797114
8.432,0.9999987299857699,-162.42935661477395
8.44,0.9999987493789859,-162.67589358344915
8.448,0.9999987645962362,-162.92229644610757
8.456,0.999998775675762,-163.1685669636032
8.464,0.999998782657073,-163.41470689554507
8.472,0.9999987855809296,-163.66071800030824
8.48,0.9999987844893239,-163.90660203504635
8.488,0.9999987794254623,-164.15236075570266
8.496,0.9999987704337473,-164.39799591702305
8.504,0.9999987575597594,-164.64350927256783
8.512,0.9999987408502375,-164.8889025747244
8.52,0.9999987203530615,-165.1341775747198
8.528,0.9999986961172335,-165.37933602263388
8.536,0.9999986681928582,-165.62437966741177
8.544,0.9999986366311258,-165.8693102568777
8.552,0.9999986014842919,-166.11412953774763
8.56,0.9999985628056585,-166.3588392556435
8.568,0.9999985206495555,-166.60344115510608
8.576,0.9999984750713224,-166.84793697960941
8.584,0.9999984261272871,-167.0923284715744
8.592,0.9999983738747485,-167.33661737238307
8.6,0.999998318371957,-167.58080542239256
8.608,0.9999982596780941,-167.82489436094977
8.616,0.9999981978532547,-168.06888592640564
8.624,0.9999981329584264,-168.31278185612996
8.632,0.9999980650554708,-168.55658388652594
8.64,0.9999979942071036,-168.80029375304534
8.648,0.9999979204768752,-169.0439131902032
8.656,0.9999978439291513,-169.2874439315932
8.664,0.9999977646290932,-169.53088770990286
8.672,0.9999976826426383,-169.7742462569288
8.68,0.9999975980364801,-170.01752130359233
8.688,0.999997510878049,-170.26071457995505
8.696,0.9999974212354922,-170.50382781523447
8.704,0.9999973291776543,-170.7468627378199
8.712,0.9999972347740572,-170.98982107528823
8.72,0.999997138094881,-171.2327045544201
8.728,0.9999970392109432,-171.47551490121583
8.736,0.9999969381936801,-171.7182538409118
8.744,0.9999968351151259,-171.96092309799647
8.752,0.9999967300478944,-172.20352439622712
8.76,0.999996623065157,-172.44605945864595
8.768,0.9999965142406252,-172.6885300075969
8.776,0.9999964036485292,-172.93093776474203
8.784,0.999996291363599,-173.1732844510786
8.792,0.9999961774610439,-173.4155717869552
8.8,0.9999960620165335,-173.65780149208956
8.808,0.9999959451061775,-173.89997528558442
8.815999999999999,0.9999958268065055,-174.14209488594537
8.824,0.9999957071944484,-174.38416201109754
8.832,0.9999955863473176,-174.62617837840267
8.84,0.9999954643427857,-174.8681457046764
8.847999999999999,0.9999953412588666,-175.1100657062056
8.856,0.9999952171738968,-175.3519400987657
8.864,0.9999950921665139,-175.59377059763773
8.872,0.9999949663156386,-175.835558917626
8.879999999999999,0.9999948397004544,-176.07730677307566
8.888,0.9999947124003883,-176.31901587789002
8.896,0.9999945844950908,-176.5606879455481
8.904,0.9999944560644171,-176.80232468912223
8.911999999999999,0.9999943271884066,-177.0439278212959
8.92,0.9999941979472647,-177.28549905438132
8.928,0.9999940684213424,-177.52704010033696
8.936,0.9999939386911176,-177.76855267078543
8.943999999999999,0.9999938088371754,-178.01003847703146
8.952,0.9999936789401885,-178.2514992300795
8.96,0.999993549080899,-178.49293664065152
8.968,0.9999934193400978,-178.73435241920495
8.975999999999999,0.9999932897986071,-178.97574827595068
8.984,0.9999931605372601,-179.2171259208709
8.992,0.9999930316368822,-179.4584870637369
9.0,0.9999929031782715,-179.69983341412703
9.008,0.9999927752421822,-179.94116668144497
9.016,0.9999926479093025,179.81751142506258
9.024000000000001,0.9999925212602371,179.57619919628786
9.032,0.9999923953754897,179.33489492324418
9.04,0.9999922703354422,179.09359689704755
9.048,0.9999921462203382,178.85230340889896
9.056000000000001,0.9999920231102618,178.61101275006655
9.064,0.9999919010851216,178.36972321186718
9.072,0.9999917802246309,178.12843308564868
9.08,0.9999916606082894,177.88714066277174
9.088000000000001,0.9999915423153649,177.64584423459212
9.096,0.999991425424876,177.4045420924425
9.104,0.9999913100155725,177.16323252761453
9.112,0.999991196165918,176.9219138313408
9.120000000000001,0.999991083954072,176.6805842947771
9.128,0.9999909734578721,176.4392422089845
9.136,0.999990864754815,176.1978858649111
9.144,0.9999907579220401,175.9565135533745
9.152000000000001,0.9999906530363104,175.71512356504377
9.16,0.9999905501739969,175.4737141904219
9.168,0.9999904494110586,175.2322837198275
9.176,0.9999903508230269,174.99083044337738
9.184000000000001,0.9999902544849869,174.74935265096877
9.192,0.9999901604715611,174.50784863226173
9.2,0.9999900688568921,174.26631667666103
9.208,0.9999899797146247,174.02475507329896
9.216000000000001,0.9999898931178892,173.7831621110177
9.224,0.9999898091392846,173.54153607835164
9.232,0.9999897278508625,173.29987526350988
9.24,0.9999896493241085,173.0581779543587
9.248000000000001,0.9999895736299274,172.81644243840458
9.256,0.9999895008386254,172.57466700277644
9.264,0.9999894310198942,172.33284993420835
9.272,0.9999893642427947,172.09098951902251
9.280000000000001,0.9999893005757405,171.849084043112
9.288,0.9999892400864813,171.60713179192365
9.296,0.9999891828420878,171.3651310504409
9.304,0.9999891289089348,171.12308010316696
9.312000000000001,0.9999890783526865,170.88097723410772
9.32,0.9999890312382791,170.6388207267552
9.328,0.999988987629907,170.39660886407046
9.336,0.9999889475910061,170.15433992846692
9.344,0.9999889111842379,169.91201220179408
9.352,0.999988878471476,169.66962396532054
9.36,0.9999888495137892,169.4271734997179
9.368,0.9999888243714273,169.184659085044
9.376,0.9999888031038059,168.9420790007271
9.384,0.9999887857694912,168.69943152554927
9.392,0.9999887724261864,168.45671493763052
9.4,0.9999887631307154,168.2139275144126
9.408,0.9999887579390093,167.9710675326434
9.416,0.9999887569060931,167.72813326836064
9.424,0.9999887600860689,167.48512299687673
9.432,0.9999887675321034,167.24203499276257
9.44,0.9999887792964146,166.99886752983258
9.448,0.9999887954302565,166.7556188811289
9.456,0.9999888159839052,166.51228731890632
9.464,0.999988841006647,166.26887111461696
9.472,0.9999888705467631,166.0253685388955
9.48,0.9999889046515177,165.7817778615437
9.488,0.999988943367144,165.5380973515163
9.496,0.9999889867388306,165.2943252769057
9.504,0.9999890348107098,165.05045990492775
9.512,0.9999890876258445,164.80649950190713
9.52,0.9999891452262146,164.56244233326325
9.528,0.9999892076527054,164.31828666349585
9.536,0.9999892749450955,164.07403075617123
9.544,0.9999893471420426,163.82967287390804
9.552,0.9999894242810743,163.58521127836391
9.56,0.9999895063985739,163.3406442302215
9.568,0.99998959352977,163.09596998917533
9.576,0.9999896857087236,162.85118681391825
9.584,0.9999897829683172,162.60629296212855
