freq,mag,phase
6.0,0.9999833511445391,159.2447548862962
6.006536192,1.000013864936824,158.82268886913315
6.013071872,1.0000437694049689,158.40025327971637
6.019608064,1.0000714466270026,157.97741112076622
6.026143744,1.0000954595128118,157.55424281380326
6.032679936,1.0001144681017915,157.13079811611073
6.039215616,1.0001274035774774,156.70714481529856
6.045751808,1.0001336008877943,156.2833673864913
6.052287488,1.0001327197712377,155.85958486400025
6.05882368,1.0001248117401238,155.43585819144556
6.06535936,1.0001101836583774,155.01230139894156
6.071895552,1.0000897129048316,154.58897638513048
6.078431232,1.0000646903467882,154.16599513744117
6.084967424,1.0000362682091077,153.74337266180376
6.091503104,1.0000060249023155,153.3211673173975
6.098039296,0.9999756207960405,152.89938227347523
6.104574976,0.9999466808759785,152.47799000284678
6.111111168,0.9999208703093959,152.056991865445
6.117646848,0.9998996222871579,151.63632296760244
6.12418304,0.9998839546855898,151.21591078551052
6.13071872,0.9998748751580921,150.7956753130402
6.137254912,0.999872795155488,150.3755333122701
6.143791104,0.9998778055001739,149.95540409482905
6.150326784,0.9998897324265479,149.5351493241377
6.156862976,0.9999079121239578,149.11471068921557
6.163398656,0.9999311010561203,148.69398752717558
6.169934848,0.999958493679257,148.27297106560573
6.176470528,0.9999882929158023,147.85157492652593
6.18300672,1.0000189304634155,147.4297691042236
6.1895424,1.0000486796890786,147.00756736217696
6.196078592,1.0000760384941485,146.585009702285
6.202614272,1.000099449198475,146.16211165289175
6.209150464,1.0001175468892745,145.7389476547014
6.215686144,1.0001295312509,145.31560545840955
6.222222336,1.000134542974738,144.89215428116032
6.228758016,1.0001324721436786,144.46869832107788
6.235294208,1.0001233248097237,144.04532771706755
6.241829888,1.000107663881104,143.62213708989546
6.24836608,1.000086331495647,143.1992022103797
6.25490176,1.0000604938738904,142.77661207764956
6.261437952,1.0000313986489464,142.35440321017106
6.267973632,1.000000845783226,141.9326054781657
6.274509824,0.9999704280635756,141.5112215479983
6.281045504,0.9999419189931948,141.0902654860796
6.287581696,0.9999165459475888,140.66968957233013
6.294117888,0.9998960239866023,140.24944825911504
6.300653568,0.9998813566566367,139.82943225788094
6.30718976,0.999873421202748,139.40958816160492
6.31372544,0.9998724464574993,138.9898304876156
6.320261632,0.9998787016835146,138.57003306890252
6.326797312,0.9998916987875469,138.15013813046812
6.333333504,0.9999109265473649,137.73002435564865
6.339869184,0.9999351439232115,137.30964390168558
6.346405376,0.9999631605552781,136.88892015408553
6.352941056,0.9999933014242045,136.46783075775105
6.359477248,1.0000240303689016,136.046357542849
6.366012928,1.00005377055507,135.62444827037174
6.37254912,1.0000806425836837,135.20221218406402
6.3790848,1.0001033481031714,134.77963700366726
6.385620992,1.000120654952438,134.35681442495724
6.392156672,1.0001315005408782,133.93380276067805
6.398692864,1.0001353944638347,133.51071487955437
6.405228544,1.000132209983329,133.08765388807535
6.411764736,1.0001218367212308,132.66467689883868
6.418300416,1.0001050993785288,132.24189186588853
6.424836608,1.0000828808782758,131.81941579833452
6.4313728,1.0000561600682458,131.39725896937256
6.43790848,1.000026714692052,130.97549719274028
6.444444672,0.9999958270751473,130.5541686245765
6.450980352,0.9999654754614345,130.1332566332894
6.457516544,0.9999371007241096,129.71276943551425
6.464052224,0.9999123464031369,129.29264619115935
6.470588416,0.9998926528429323,128.87283967139354
6.477124096,0.9998790475664615,128.45326828106107
6.483660288,0.999872133190954,128.03385142281869
6.490195968,0.9998724581262095,127.61451375498173
6.49673216,0.9998798518052947,127.19512377381237
6.50326784,0.9998940771956234,126.7756193952201
6.509804032,0.9999142471024989,126.35587357101689
6.516339712,0.9999393696997114,125.93584913991708
6.522875904,0.9999679518246973,125.51549489091467
6.529411584,0.9999984767656186,125.0947589911477
6.535947776,1.0000293699984966,124.67358609603824
6.542483456,1.000058793251502,124.25205749191036
6.549019648,1.000085206998611,123.83015170540773
6.555555328,1.0001072522425274,123.40795255994884
6.56209152,1.0001236960487219,122.98550650990727
6.5686272,1.0001335019900601,122.56287795432318
6.575163392,1.000136255946561,122.14020246260014
6.581699584,1.000131790748572,121.71754722639922
6.588235264,1.0001203018744371,121.29501706111736
6.594771456,1.000102457116541,120.87271481849118
6.601307136,1.0000792440963182,120.45068029092086
6.607843328,1.0000518659010142,120.02900620190111
6.614379008,1.00002184479832,119.60774191452953
6.6209152,0.9999908632548199,119.18690993410492
6.62745088,0.9999604972193318,118.76651912265508
6.633987072,0.999932509853443,118.34652271638677
6.640522752,0.9999084082288683,117.92688354138393
6.647058944,0.9998894772613439,117.50757035506832
6.653594624,0.9998767633539907,117.0884733506417
6.660130816,0.9998711023605148,116.66952279293886
6.666666496,0.9998725673147102,116.2506272530957
6.673202688,0.9998811101978492,115.83166785890946
6.679738368,0.9998964477200901,115.4125696562855
6.68627456,0.9999176592387549,114.9932469821243
6.69281024,0.9999436009435657,114.57361207512359
6.699346432,0.9999727343943121,114.15362765084386
6.705882112,1.00000369087626,113.7332480653837
6.712418304,1.000034616648062,113.31247869052424
6.718954496,1.0000638296166664,112.8913192339677
6.725490176,1.0000897743260002,112.46980217940799
6.732026368,1.000111120927996,112.04798286405374
6.738562048,1.0001265384024463,111.62595577960754
6.74509824,1.0001352965749952,111.20374907145575
6.75163392,1.0001367866640307,110.78150703474607
6.758170112,1.0001310713017846,110.35930226169377
6.764705792,1.0001185110275455,109.93725120495424
6.771241984,1.000099591757977,109.515419964825
6.777777664,1.000075442643514,109.09389450335647
6.784313856,1.0000473202110343,108.672728704824
6.790849536,1.0000168723087326,108.25198685431526
6.797385728,0.9999856992678057,107.83168968651964
6.803921408,0.9999554251639162,107.41179923660286
6.8104576,0.9999278724618529,106.99233793242003
6.81699328,0.9999044428552994,106.5732171635079
6.823529472,0.9998863794979557,106.15439682089675
6.830065152,0.9998746761080698,105.73580960176537
6.836601344,0.9998700319952085,105.31734729165015
6.843137024,0.9998727399596447,104.8989099499928
6.849673216,0.9998825864694022,104.48039759407003
6.856208896,0.9998990943966657,104.06175050498686
6.862745088,0.999921224701642,103.64284082356338
6.86928128,0.9999479138170452,103.22363661635903
6.87581696,0.9999777530273452,102.8040439984936
6.882353152,1.0000089809153094,102.38408531204094
6.888888832,1.0000398521243503,101.9637052791698
6.895425024,1.0000688080593942,101.5429247340998
6.901960704,1.0000942430666928,101.12184042150207
6.908496896,1.0001147942836717,100.70043355368547
6.915032576,1.0001293143097154,100.27880655970313
6.921568768,1.0001368694886765,99.8570493058981
6.928104448,1.0001373252779857,99.43525141472541
6.93464064,1.0001304406888816,99.01354766890131
6.94117632,1.0001167162186648,98.59197038568121
6.947712512,1.0000967075280613,98.1706556154167
6.954248192,1.000071542047429,97.74963281654216
6.960784384,1.000042826055562,97.32902186370644
6.967320064,1.0000119438500283,96.90881493809911
6.973856256,0.9999805847654348,96.48903949968971
6.980391936,0.9999506197395075,96.06970415727308
6.986928128,0.9999233606919468,95.6507788770487
6.993463808,0.9999005617899503,95.23220498333508
7.0,0.9998833879834224,94.81391398771682
7.006536192,0.9998727668164283,94.39581581483374
7.013071872,0.9998694141355036,93.97785686102937
7.019608064,0.9998733050108034,93.55988313994905
7.026143744,0.9998843010092635,93.14185245728734
7.032679936,0.99990186196389,92.72364447082917
7.039215616,0.9999250595123721,92.30517807192184
7.045751808,0.9999525296164314,91.8863716758158
7.052287488,0.9999828593946815,91.46720746161631
7.05882368,1.0000142239641279,91.04765693197298
7.06535936,1.0000451678854632,90.62768216449425
7.071895552,1.0000739011006763,90.20733434559199
7.078431232,1.000098844116492,89.78664607296382
7.084967424,1.0001185125272232,89.36566853662072
7.091503104,1.0001320368583224,88.94448363233614
7.098039296,1.000138553423376,88.5231880127799
7.104574976,1.0001377443274495,88.10187018342475
7.111111168,1.0001296502494879,87.68062995795985
7.117646848,1.00011455702153,87.25956322160735
7.12418304,1.0000936159058558,86.8387409532708
7.13071872,1.0000676596766616,86.41827084927608
7.137254912,1.000038204866037,85.99819125917682
7.143791104,1.00000698956314,85.57853829724154
7.150326784,0.9999754795281087,85.15931778310312
7.156862976,0.9999456048393656,84.74054318906897
7.163398656,0.999918887523825,84.32215014831735
7.169934848,0.9998967456353097,83.90411694517536
7.176470528,0.9998805115283317,83.48635153721763
7.18300672,0.9998709746943516,83.06878678578762
7.1895424,0.9998686983966503,82.65131198805494
7.196078592,0.9998738306699806,82.23383833286772
7.202614272,0.9998860784261272,81.81627889848143
7.209150464,0.9999048868078408,81.3985021889674
7.215686144,0.9999289456145688,80.98047637340939
7.222222336,0.9999571706297089,80.56211571302013
7.228758016,0.9999880609299674,80.14336442069717
7.235294208,1.0000197114042517,79.72420474140115
7.241829888,1.0000505657513745,79.3046592633512
7.24836608,1.0000789731990032,78.884718202443
7.25490176,1.0001032762497615,78.46445676514311
7.261437952,1.0001221689782,78.04392319331161
7.267973632,1.000134604672,77.62316789934597
7.274509824,1.0001400031755543,77.2023299285195
7.281045504,1.000137864667734,76.78147920498971
7.287581696,1.0001285504153568,76.3607324491616
7.294117888,1.0001123893407997,75.94015728527809
7.300653568,1.0000902623110024,75.5198818200129
7.30718976,1.0000634891567077,75.09993922719687
7.31372544,1.0000335238022193,74.68040993943855
7.320261632,1.0000018717788335,74.26129424560627
7.326797312,0.9999703109075356,73.8426263513914
7.333333504,0.9999406246814491,73.42439057682135
7.339869184,0.9999143206954691,73.00655694518782
7.346405376,0.9998929540321901,72.58905758737708
7.352941056,0.9998776696695727,72.17182816148345
7.359477248,0.999869311800516,71.75476589633875
7.366012928,0.999868217736489,71.33780017097422
7.37254912,0.9998747066713161,70.92079667881104
7.3790848,0.9998881426010717,70.5036951447932
7.385620992,0.9999079543025213,70.08637864238266
7.392156672,0.9999331283592767,69.66879695494232
7.398692864,0.9999620695593429,69.25083564668893
7.405228544,0.9999933761853593,68.83250875631066
7.411764736,1.0000252793600053,68.41375912617289
7.418300416,1.0000560995246424,67.99459978585728
7.424836608,1.000084118467334,67.57508073736186
7.4313728,1.0001077515497878,67.15522691876177
7.43790848,1.0001257766006841,66.7351051107688
7.444444672,1.0001371955762988,66.31480514308441
7.450980352,1.0001413350264652,65.89441718838958
7.457516544,1.0001379955336107,65.47403830556517
7.464052224,1.0001274468425745,65.05377349279074
7.470588416,1.000110112233112,64.63372641496083
7.477124096,1.0000869678186568,64.21393686335787
7.483660288,1.0000593732537004,63.79453019423229
7.490195968,1.000028741326739,63.37552112824419
7.49673216,0.9999967475296987,62.95696367185124
7.50326784,0.999965150923681,62.538835442197225
7.509804032,0.9999356785723026,62.12115070192172
7.516339712,0.9999099122163954,61.70385467750924
7.522875904,0.9998894069961258,61.28689372971316
7.529411584,0.9998751136564964,60.87016944222835
7.535947776,0.9998678778353188,60.45360757015691
7.542483456,0.9998680953403751,60.037115333792265
7.549019648,0.9998757580865375,59.62059741829616
7.555555328,0.9998904549575044,59.20393517508004
7.56209152,0.9999113605683236,58.78706071185773
7.5686272,0.9999373713590219,58.36988167953697
7.575163392,0.9999671138111851,57.95233279304582
7.581699584,0.9999989222541822,57.534407426831585
7.588235264,1.0000309915669852,57.11605828083549
7.594771456,1.000061647309192,56.6973125462806
7.601307136,1.0000892652059636,56.27816415618436
7.607843328,1.0001122217887934,55.858719729912266
7.614379008,1.0001293187521056,55.43900669985707
7.6209152,1.000139637762751,55.019133171029736
7.62745088,1.0001425803835557,54.599174974566644
7.633987072,1.0001379288428736,54.179266528345096
7.640522752,1.0001260928181035,53.759469687452125
7.647058944,1.000107615050573,53.339896827074774
7.653594624,1.0000834195480266,52.92061628718623
7.660130816,1.0000549325337766,52.50173047889336
7.666666496,1.0000237439703101,52.08325026720392
7.673202688,0.9999914655314018,51.66522557068959
7.679738368,0.9999598308397563,51.24763287986434
7.68627456,0.9999306456187662,50.830463493592454
7.69281024,0.9999055177174611,50.413693534735515
7.699346432,0.9998857943057342,49.997235409257755
7.705882112,0.9998724789793707,49.58102989071699
7.712418304,0.9998664344578281,49.16495242134359
7.718954496,0.9998679624673407,48.74892586913715
7.725490176,0.9998768690052696,48.33284640209669
7.732026368,0.9998928040218177,47.91661292247619
7.738562048,0.9999148532913049,47.5001470486084
7.74509824,0.9999418486505292,47.08337187583367
7.75163392,0.9999722055168906,46.6662261704266
7.758170112,1.0000044611378522,46.24866518364996
7.764705792,1.0000367258423888,45.830702365228596
7.771241984,1.000067181947555,45.4123188570994
7.777777664,1.0000943559869928,44.99356506778321
7.784313856,1.0001165777373822,44.57448388001295
7.790849536,1.0001327680954444,44.155176125938304
7.797385728,1.0001419306956236,43.73570947049599
7.803921408,1.0001436432896074,43.31618707809947
7.8104576,1.0001377345731157,42.89669023753837
7.81699328,1.0001245239812127,42.477368950538505
7.823529472,1.0001047736931417,42.058259248416036
7.830065152,1.000079687654023,41.63947988710726
7.836601344,1.0000504145209446,41.22106947400019
7.843137024,1.0000185850282108,40.80310225909068
7.849673216,0.9999860712152606,40.38557428294755
7.856208896,0.9999544545869512,39.96850764317161
7.862745088,0.9999256142776958,39.55184158497412
7.86928128,0.9999010651664894,39.13557215587999
7.87581696,0.9998821995309649,38.71960737244062
7.882353152,0.9998700361892112,38.30385487069622
7.888888832,0.9998651484210673,37.88825463624341
7.895425024,0.9998679705614982,37.47267331163156
7.901960704,0.9998781953124527,37.057013311722486
7.908496896,0.999895396508488,36.64119223459993
7.915032576,0.9999185838529102,36.22511427648035
7.921568768,0.9999464903133211,35.808691179141846
7.928104448,0.9999774876023423,35.39191186059025
7.93464064,1.0000101818376725,34.97471570338078
7.94117632,1.0000424786495143,34.55709334452308
7.947712512,1.0000728008677433,34.139044817237306
7.954248192,1.0000994373010799,33.72065450846685
7.960784384,1.0001209851689055,33.30194140544654
7.967320064,1.0001361602679908,32.88299031938686
7.973856256,1.0001441199550967,32.4639023749372
7.980391936,1.0001445463858585,32.044772453654375
7.986928128,1.0001372869104714,31.625715194774166
7.993463808,1.0001228172251997,31.206804966560494
8.0,1.0001019870123091,30.788150409882864
8.006536192,1.0000757644785212,30.369831876115352
8.013071872,1.0000456321717053,29.951905049401205
8.019608064,1.000013410481352,29.534410284570413
8.026143744,0.9999805471043832,29.117355305776265
8.032679936,0.999949015679629,28.700770651373393
8.039215616,0.9999206042202792,28.28460041799478
8.045751808,0.9998967051536248,27.868804594430976
8.052287488,0.9998787403110144,27.453287548430954
8.05882368,0.9998677029056102,27.03798537152272
8.06535936,0.9998640172315714,26.622805373530802
8.071895552,0.9998681695139389,26.207634259197377
8.078431232,0.9998797940501122,25.792369581550695
8.084967424,0.9998982125232503,25.3769200954193
8.091503104,0.9999224217003883,24.961188241029
8.098039296,0.9999512965464826,24.545135545219424
8.104574976,0.9999830324391399,24.128674024870957
8.111111168,1.000016044373224,23.711786515025018
8.117646848,1.0000485169428528,23.294490546754794
8.12418304,1.0000785336956435,22.876761885929753
8.13071872,1.0001045423827828,22.458684655296654
8.137254912,1.0001252510843117,22.040292582935002
8.143791104,1.0001394097095508,21.621681790005642
8.150326784,1.0001461418930204,21.20297147675582
8.156862976,1.0001452683134238,20.78421156378912
8.163398656,1.000136679301059,20.365525981496145
8.169934848,1.0001209709195082,19.94702053545204
8.176470528,1.0000989209323643,19.52878990700077
8.18300672,1.000071690041175,19.110897988085778
8.1895424,1.0000407689232902,18.693408992636677
8.196078592,1.0000079044516064,18.276364409377617
8.202614272,0.9999749375391525,17.859774284204438
8.209150464,0.9999435510966568,17.443647405516284
8.215686144,0.9999155188762006,17.027920557939176
8.222222336,0.9998922785982203,16.612546997229973
8.228758016,0.9998753221892495,16.197476613870524
8.235294208,0.9998654410850505,15.782577780372051
8.241829888,0.9998630611959737,15.367797914790525
8.24836608,0.9998685341271087,14.953010722263405
8.25490176,0.999881472459634,14.538090117118701
8.261437952,0.9999011564247833,14.122973209564279
8.267973632,0.999926623775181,13.707589172765877
8.274509824,0.999956353171245,13.291825334984585
8.281045504,0.9999886522811062,12.875647366997548
8.287581696,1.0000220579716115,12.4590415500025
8.294117888,1.0000545520769808,12.042021144184703
8.300653568,1.0000842798190095,11.624592998738656
8.30718976,1.0001097768380403,11.206787550530507
8.31372544,1.000129551649151,10.78870312028838
8.320261632,1.0001425565791495,10.370401524073248
8.326797312,1.0001481508763979,9.95198852780455
8.333333504,1.0001457821425115,9.533577702021127
8.339869184,1.0001359293424326,9.115241320378072
8.346405376,1.000118815340169,8.69710786917202
8.352941056,1.0000955531463054,8.279257673837654
8.359477248,1.000067333852663,7.861774594079977
8.366012928,1.000035736453162,7.444698269021815
8.37254912,1.000002306248282,7.028066861178415
8.3790848,0.9999691796844478,6.611898684295717
8.385620992,0.9999379917246239,6.196179285548021
8.392156672,0.9999103399477051,5.780873288116262
8.398692864,0.9998879348700371,5.365897838613717
8.405228544,0.9998719530690459,4.951228606366893
8.411764736,0.999863223680373,4.536713881643824
8.418300416,0.9998622012396543,4.12227292117969
8.424836608,0.9998691286515331,3.7078143155898657
8.4313728,0.9998833838468733,3.293231920677291
8.43790848,0.9999044466959396,2.87840582498012
8.444444672,0.9999309490568306,2.463276879361113
8.450980352,0.9999615530058782,2.047784672508202
8.457516544,0.9999944773523943,1.6318744192941999
8.464052224,1.0000281569771092,1.215516756181145
8.470588416,1.0000606347702117,0.7987290575420614
8.477124096,1.0000900040422234,0.3815403596324666
8.483660288,1.0001148769317796,-0.03601645165114956
8.490195968,1.0001336564704877,-0.453838066063907
8.49673216,1.000145596529749,-0.871873793511526
8.50326784,1.000149888885083,-1.2899937690473482
8.509804032,1.000146202321777,-1.7080914664307807
8.516339712,1.0001348987100944,-2.12611781688969
8.522875904,1.0001164712526485,-2.543923982047228
8.529411584,1.0000919853585455,-2.9614227742691055
8.535947776,1.000062718205668,-3.3785469282643232
8.542483456,1.0000303403478696,-3.7952392004926305
8.549019648,0.9999966140181674,-4.211490271809774
8.555555328,0.999963319572514,-4.627264280743886
8.56209152,0.9999323000346978,-5.042615696175416
8.5686272,0.9999052210475835,-5.45754627918935
8.575163392,0.9998836562648202,-5.872137839871439
8.581699584,0.9998687087280633,-6.286484702750501
8.588235264,0.9998611877050402,-6.700659629813129
8.594770944,0.9998616167215133,-7.114779294982022
8.601307136,0.9998698798785174,-7.528943625879269
8.607843328,0.9998856118450856,-7.943277953582461
8.61437952,0.9999078241392301,-8.357828541182055
8.620914688,0.9999353911413738,-8.77271818090895
8.62745088,0.9999668932086914,-9.187988373189429
8.633987072,1.0000004806755447,-9.603694359949177
8.640523264,1.0000343969978474,-10.019837539217416
8.647058432,1.0000667276794375,-10.436430105270517
8.653594624,1.0000958144294452,-10.853417883202956
8.660130816,1.0001198426618887,-11.270765865030427
