freq,mag,phase
6.0,1.0,14.478097979199136
6.008,1.0,14.21127710850816
6.016,0.9999999999999999,13.944328461046783
6.024,0.9999999999999999,13.677252337752895
6.032,1.0,13.41004904172321
6.04,0.9999999999999999,13.142718878212468
6.048,1.0,12.875262154632543
6.056,1.0,12.607679180551447
6.064,1.0,12.339970267692193
6.072,0.9999999999999999,12.07213572993161
6.08,0.9999999999999999,11.804175883298983
6.088,0.9999999999999999,11.536091045974619
6.096,1.0,11.267881538288295
6.104,0.9999999999999999,10.999547682717596
6.112,1.0,10.731089803886146
6.12,0.9999999999999999,10.462508228561706
6.128,0.9999999999999999,10.193803285654187
6.136,1.0,9.92497530621354
6.144,1.0,9.65602462342754
6.152,1.0,9.386951572619427
6.16,1.0,9.117756491245496
6.168,0.9999999999999999,8.848439718892497
6.176,0.999999854770521,8.579001597274992
6.184,0.9999993382093738,8.309442470232547
6.192,0.9999988130646117,8.039762683726833
6.2,0.9999982798097337,7.76996258583861
6.208,0.9999977389108171,7.500042526764623
6.216,0.9999971908265586,7.230002858814282
6.224,0.9999966360083107,6.959843936406403
6.232,0.999996074900124,6.689566116065645
6.24,0.9999955079387838,6.419169756418975
6.248,0.999994935553852,6.148655218191932
6.256,0.9999943581677071,5.878022864204809
6.264,0.9999937761955829,5.607273059368718
6.272,0.9999931900456115,5.3364061706815535
6.28,0.9999926001188626,5.065422567223777
6.288,0.9999920068093857,4.794322620154186
6.296,0.9999914105042509,4.5231067027054745
6.304,0.9999908115835918,4.251775190179703
6.312,0.9999902104206454,3.980328459943711
6.32,0.999989607381797,3.7087668914243173
6.328,0.9999890028266205,3.437090866103462
6.336,0.999988397107923,3.1653007675132283
6.344,0.9999877905717863,2.893396981230743
6.352,0.9999871835576107,2.6213798948729314
6.36,0.9999865763981592,2.3492498980911973
6.368,0.9999859694196002,2.077007382565957
6.376,0.999985362941552,1.8046527420010792
6.384,0.9999847572771271,1.5321863721181828
6.392,0.9999841527329764,1.2596086706508205
6.4,0.9999835496093329,0.9869200373385776
6.408,0.9999829482000592,0.7141208739210108
6.416,0.9999823487926897,0.4412115841314912
6.424,0.9999817516684775,0.16819257369092827
6.432,0.999981157102439,-0.10493574969862664
6.44,0.9999805653634007,-0.3781729763604872
6.448,0.9999799767140441,-0.6515186946499754
6.456,0.9999793914109518,-0.9249724909611555
6.464,0.999978809704655,-1.1985339497337009
6.472,0.9999782318396779,-1.4722026534598833
6.48,0.9999776580545862,-1.7459781826916592
6.4879999999999995,0.9999770885820332,-2.0198601160478606
6.496,0.9999765236488063,-2.2938480302216884
6.504,0.9999759634758753,-2.5679414999878083
6.5120000000000005,0.999975408278439,-2.842140098210385
6.52,0.9999748582659724,-3.1164433958502706
6.5280000000000005,0.9999743136422752,-3.3908509619732996
6.536,0.9999737746055193,-3.6653623637577
6.5440000000000005,0.9999732413482962,-3.939977166502634
6.552,0.9999727140576662,-4.214694933635824
6.5600000000000005,0.9999721929152054,-4.489515226722334
6.568,0.9999716780970557,-4.764437605472439
6.5760000000000005,0.9999711697739719,-5.039461627750613
6.584,0.9999706681113701,-5.314586849583645
6.592,0.9999701732693792,-5.589812825169816
6.6,0.9999696854028862,-5.86513910688741
6.608,0.9999692046615879,-6.140565245303804
6.616,0.9999687311900389,-6.416090789184508
6.624,0.9999682651277009,-6.691715285502347
6.632,0.9999678066089926,-6.967438279446744
6.64,0.9999673557633387,-7.243259314433134
6.648,0.9999669127152198,-7.519177932112468
6.656,0.9999664775842217,-7.795193672380865
6.664,0.9999660504850856,-8.071306073389334
6.672,0.9999656315277579,-8.347514671553622
6.68,0.9999652208174394,-8.62381900156422
6.688,0.9999648184546365,-8.900218596396385
6.696,0.9999644245352102,-9.176712987320373
6.704,0.9999640391504272,-9.453301703911704
6.712,0.999963662387009,-9.7299842740616
6.72,0.999963294327183,-10.006760223987468
6.728,0.9999629350487336,-10.283629078243555
6.736,0.99996258462505,-10.560590359731664
6.744,0.9999622431251795,-10.83764358971202
6.752,0.9999619106138756,-11.11478828781419
6.76,0.9999615871516507,-11.392023972048177
6.768,0.999961272794825,-11.669350158815543
6.776,0.9999609675955775,-11.946766362920735
6.784,0.9999606716019969,-12.224272097582409
6.792,0.9999603848581318,-12.50186687444495
6.8,0.9999601074040418,-12.77955020359004
6.808,0.9999598392758475,-13.057321593548371
6.816,0.9999595805057819,-13.335180551311417
6.824,0.9999593311222404,-13.613126582343357
6.832,0.9999590911498315,-13.891159190593067
6.84,0.9999588606094277,-14.169277878506223
6.848,0.9999586395182165,-14.447482147037501
6.856,0.9999584278897495,-14.725771495662926
6.864,0.9999582257339952,-15.004145422392215
6.872,0.9999580330573876,-15.282603423781339
6.88,0.9999578498628772,-15.561144994945106
6.888,0.9999576761499829,-15.839769629569865
6.896,0.9999575119148397,-16.118476819926347
6.904,0.9999573571502524,-16.397266056882508
6.912,0.9999572118457433,-16.676136829916555
6.92,0.9999570759876031,-16.955088627130067
6.928,0.999956949558943,-17.23412093526116
6.936,0.9999568325397414,-17.513233239697733
6.944,0.999956724906898,-17.79242502449093
6.952,0.9999566266342804,-18.071695772368546
6.96,0.9999565376927763,-18.351044964748617
6.968,0.9999564580503421,-18.63047208175307
6.976,0.9999563876720539,-18.90997660222148
6.984,0.999956326520156,-19.189558003724894
6.992,0.9999562745541114,-19.46921576257975
7.0,0.9999562317306507,-19.748949353861946
7.008,0.999956198003822,-20.02875825142087
7.016,0.9999561733250397,-20.308641927893646
7.024,0.9999561576431347,-20.58859985471939
7.032,0.9999561509044022,-20.86863150215356
7.04,0.9999561530526514,-21.14873633928245
7.048,0.9999561640292544,-21.428913834037694
7.056,0.9999561837731945,-21.70916345321084
7.064,0.9999562122211152,-21.989484662468165
7.072,0.9999562493073685,-22.269876926365313
7.08,0.9999562949640625,-22.55033970836228
7.088,0.9999563491211112,-22.83087247083824
7.096,0.9999564117062806,-23.111474675106674
7.104,0.9999564826452381,-23.392145781430404
7.112,0.9999565618615988,-23.672885249036757
7.12,0.9999566492769741,-23.95369253613287
7.128,0.9999567448110189,-24.23456709992098
7.136,0.9999568483814782,-24.51550839661382
7.144,0.9999569599042346,-24.79651588145012
7.152,0.9999570792933548,-25.07758900871012
7.16,0.9999572064611363,-25.35872723173126
7.168,0.9999573413181542,-25.63993000292374
7.176,0.9999574837733072,-25.921196773786424
7.184,0.9999576337338634,-26.202526994922565
7.192,0.9999577911055064,-26.48392011605576
7.2,0.9999579557923812,-26.765375586045877
7.208,0.9999581276971389,-27.046892852905113
7.216,0.9999583067209824,-27.32847136381405
7.224,0.9999584927637116,-27.610110565137862
7.232,0.9999586857237681,-27.891809902442503
7.24,0.9999588854982788,-28.173568820510994
7.248,0.9999590919831018,-28.45538676335974
7.256,0.9999593050728696,-28.73726317425502
7.264,0.9999595246610321,-29.019197495729344
7.272,0.9999597506399021,-29.301189169598043
7.28,0.9999599829006973,-29.583237636975838
7.288,0.9999602213335838,-29.865342338293384
7.296,0.9999604658277191,-30.147502713314115
7.304,0.9999607162712942,-30.429718201150862
7.312,0.9999609725515765,-30.71198824028268
7.32,0.9999612345549517,-30.994312268571687
7.328,0.999961502166965,-31.27668972328002
7.336,0.9999617752723639,-31.559120041086636
7.344,0.9999620537551386,-31.841602658104463
7.352,0.9999623374985624,-32.124137009897375
7.36,0.9999626263852343,-32.40672253149721
7.368,0.9999629202971168,-32.689358657421025
7.376,0.9999632191155782,-32.972044821688144
7.384,0.9999635227214322,-33.25478045783749
7.392,0.9999638309949753,-33.53756499894476
7.4,0.9999641438160295,-33.82039787763977
7.4079999999999995,0.9999644610639778,-34.103278526123724
7.416,0.9999647826178053,-34.386206376186756
7.4239999999999995,0.9999651083561357,-34.66918085922504
7.432,0.9999654381572713,-34.95220140625862
7.4399999999999995,0.9999657718992289,-35.23526744794852
7.448,0.9999661094597774,-35.5183784146146
7.4559999999999995,0.9999664507164765,-35.801533736252765
7.464,0.999966795546711,-36.0847328425529
7.4719999999999995,0.9999671438277291,-36.3679751629161
7.48,0.9999674954366775,-36.65126012647274
7.4879999999999995,0.9999678502506378,-36.93458716209966
7.496,0.9999682081466609,-37.217955698438324
7.504,0.9999685690018024,-37.50136516391214
7.5120000000000005,0.9999689326931593,-37.78481498674455
7.52,0.9999692990979008,-38.06830459497646
7.5280000000000005,0.9999696680933049,-38.351833416484354
7.536,0.9999700395567914,-38.63540087899776
7.5440000000000005,0.9999704133659549,-38.91900641011748
7.552,0.9999707893985988,-39.20264943733299
7.5600000000000005,0.9999711675327662,-39.48632938804071
7.568,0.9999715476467739,-39.77004568956154
7.5760000000000005,0.9999719296192431,-40.0537977691591
7.584,0.9999723133291317,-40.33758505405717
7.5920000000000005,0.9999726986557644,-40.62140697145824
7.6,0.9999730854788659,-40.90526294856073
7.6080000000000005,0.9999734736785877,-41.18915241257759
7.616,0.9999738631355416,-41.473074790753664
7.6240000000000006,0.9999742537308272,-41.7570295103842
7.632,0.9999746453460621,-42.041015998832286
7.640000000000001,0.9999750378634109,-42.32503368354731
7.648,0.9999754311656128,-42.60908199208242
7.656000000000001,0.9999758251360122,-42.89316035211303
7.664,0.9999762196585824,-43.17726819145433
7.672,0.9999766146179574,-43.4614049380796
7.68,0.9999770098994561,-43.74557002013797
7.688,0.9999774053891096,-44.0297628659725
7.696,0.999977800973688,-44.31398290413813
7.704,0.9999781965407254,-44.59822956341962
7.712,0.9999785919785463,-44.8825022728495
7.72,0.9999789871762897,-45.166800461726105
7.728,0.9999793820239343,-45.45112355963141
7.736,0.9999797764123234,-45.73547099644904
7.744,0.999980170233187,-46.01984220238215
7.752,0.9999805633791667,-46.30423660797142
7.76,0.999980955743839,-46.588653644112796
7.768,0.9999813472217369,-46.873092742075556
7.776,0.9999817377083726,-47.157553333520056
7.784,0.9999821271002596,-47.44203485051563
7.792,0.9999825152949338,-47.72653672555847
7.8,0.9999829021909753,-48.01105839158931
7.808,0.9999832876880278,-48.295599282011395
7.816,0.9999836716868203,-48.580158830708136
7.824,0.9999840540891858,-48.864736472060905
7.832,0.9999844347980811,-49.14933164096678
7.84,0.999984813717606,-49.43394377285625
7.848,0.999985190753022,-49.71857230371086
7.856,0.9999855658107698,-50.003216670080874
7.864,0.999985938798488,-50.28787630910298
7.872,0.9999863096250304,-50.57255065851779
7.88,0.9999866782004817,-50.85723915668742
7.888,0.9999870444361761,-51.14194124261311
7.896,0.9999874082447123,-51.42665635595261
7.904,0.9999877695399686,-51.711383937037716
7.912,0.9999881282371196,-51.99612342689175
7.92,0.9999884842526504,-52.28087426724682
7.928,0.999988837504372,-52.565635900561325
7.936,0.9999891879114334,-52.85040777003721
7.944,0.9999895353943372,-53.135189319637234
7.952,0.9999898798749529,-53.41997999410228
7.96,0.9999902212765285,-53.70477923896849
7.968,0.9999905595237035,-53.98958650058445
7.976,0.9999908945425212,-54.27440122612832
7.984,0.9999912262604415,-54.55922286362493
7.992,0.9999915546063487,-54.84405086196271
8.0,0.9999918795105667,-55.12888467091075
8.008,0.9999922009048662,-55.413723741135705
8.016,0.999992518722476,-55.6985675242188
8.024000000000001,0.9999928328980928,-55.9834154726724
8.032,0.9999931433678897,-56.26826703995692
8.04,0.999993450069526,-56.55312168049769
8.048,0.9999937529421545,-56.83797884970154
8.056000000000001,0.9999940519264306,-57.122838003973314
8.064,0.9999943469645189,-57.4076986007324
8.072,0.9999946380001014,-57.6925600984296
8.08,0.9999949249783835,-57.97742195656333
8.088000000000001,0.9999952078461011,-58.26228363569586
8.096,0.9999954865515265,-58.54714459746986
8.104,0.9999957610444732,-58.83200430462475
8.112,0.9999960312763021,-59.11686222101281
8.120000000000001,0.9999962971999266,-59.40171781161524
8.128,0.9999965587698157,-59.68657054255829
8.136,0.9999968159419996,-59.97141988112948
8.144,0.9999970686740722,-60.25626529579345
8.152000000000001,0.9999973169251957,-60.541106256207655
8.16,0.9999975606561016,-60.825942233238415
8.168,0.9999977998290958,-61.11077269897671
8.176,0.9999980344080576,-61.395597126753835
8.184000000000001,0.9999982643584449,-61.68041499115683
8.192,0.999998489647293,-61.9652257680442
8.2,0.9999987102432168,-62.250028934561506
8.208,0.9999989261164114,-62.53482396915667
8.216000000000001,0.9999991372386523,-62.81961035159515
8.224,0.9999993435832947,-63.10438756297539
8.232,0.9999995451252741,-63.38915508574406
8.24,0.9999997418411051,-63.673912403711086
8.248000000000001,0.9999999337088796,-63.95865900206459
8.256,1.0,-64.24339436738596
8.264,1.0,-64.52811798766476
8.272,0.9999999999999999,-64.81282935231361
8.280000000000001,0.9999999999999999,-65.0975279521826
8.288,1.0,-65.38221327957416
8.296,1.0,-65.6668848282577
8.304,0.9999999999999999,-65.95154209348401
8.312,0.9999999999999999,-66.23618457199944
8.32,1.0,-66.5208117620607
8.328,1.0,-66.80542316344852
8.336,0.9999999999999999,-67.09001827748234
8.344,0.9999999999999999,-67.37459660703391
8.352,1.0,-67.65915765654168
8.36,1.0,-67.94370093202426
8.368,1.0,-68.2282259410947
8.376,1.0,-68.5127321929737
8.384,0.9999999999999999,-68.79721919850375
8.392,1.0,-69.08168647016215
8.4,1.0,-69.36613352207497
8.408,1.0,-69.65055987002991
8.416,1.0,-69.93496503149001
8.424,1.0,-70.2193485256064
8.432,0.9999999999999999,-70.50370987323186
8.44,1.0,-70.78804859693328
8.448,0.9999999999999999,-71.07236422100502
8.456,0.9999999999999999,-71.35665627148136
8.464,1.0,-71.64092427614948
8.472,0.9999999999999999,-71.92516776456179
8.48,0.9999999999999999,-72.20938626804877
8.488,1.0,-72.49357931973104
8.496,1.0,-72.777746454532
8.504,1.0,-73.06188720918973
8.512,1.0,-73.34600112226953
8.52,1.0,-73.63008773417539
8.528,0.9999999999999999,-73.91414658716258
8.536,0.9999999999999999,-74.1981772253488
8.544,0.9999999999999998,-74.48217919472653
8.552,0.9999999999999999,-74.7661520431741
8.56,1.0,-75.05009532046778
8.568,1.0,-75.33400857829261
8.576,1.0,-75.61789137025431
8.584,1.0,-75.90174325188998
8.592,1.0,-76.18556378067969
8.6,0.9999999999999999,-76.46935251605707
8.608,0.9999999999999999,-76.75310901942065
8.616,1.0,-77.03683285414422
8.624,1.0,-77.32052358558803
8.632,0.9999999999999999,-77.60418078110894
8.64,1.0,-77.88780401007128
8.648,1.0,-78.17139284385694
8.656,1.0,-78.45494685587603
8.664,1.0,-78.73846562157661
8.672,0.9999999999999999,-79.02194871845529
8.68,0.9999999999999999,-79.30539572606668
8.688,0.9999999999999999,-79.58880622603377
8.696,1.0,-79.87217980205722
8.704,1.0,-80.15551603992546
8.712,1.0,-80.43881452752382
8.72,0.9999999999999999,-80.72207485484441
8.728,0.9999999999999999,-81.00529661399504
8.736,1.0,-81.28847939920885
8.744,0.9999999999999999,-81.57162280685303
8.752,0.9999999999999999,-81.85472643543827
8.76,1.0,-82.1377898856272
8.768,1.0,-82.42081276024372
8.776,0.9999999999999998,-82.70379466428118
8.784,1.0,-82.9867352049114
8.792,0.9999999999999999,-83.2696339914928
8.8,0.9999999999999999,-83.5524906355791
8.808,0.9999999999999999,-83.83530475092722
8.815999999999999,1.0,-84.11807595350582
8.824,1.0,-84.40080386150314
8.832,1.0,-84.68348809533484
8.84,0.9999999999999999,-84.96612827765199
8.847999999999999,0.9999999999999999,-85.24872403334888
8.856,0.9999999999999999,-85.53127498957046
8.864,1.0,-85.81378077571989
8.872,1.0,-86.09624102346582
8.879999999999999,1.0,-86.37865536675005
8.888,1.0,-86.6610234417944
8.896,0.9999999999999999,-86.94334488710781
8.904,0.9999999999999999,-87.22561934349329
8.911999999999999,0.9999999242811382,-87.507846454055
8.92,0.9999997769812665,-87.79002586420486
8.928,0.9999996278864547,-88.07215722166904
8.936,0.999999477073465,-88.35424017649463
8.943999999999999,0.9999993246194954,-88.6362743810562
8.952,0.9999991706021556,-88.91825949006197
8.96,0.999999015099451,-89.20019516055997
8.968,0.9999988581897589,-89.48208105194415
8.975999999999999,0.9999986999518097,-89.76391682596062
8.984,0.9999985404646642,-90.04570214671335
8.992,0.9999983798076973,-90.32743668066982
9.0,0.9999982180605719,-90.60912009666686
9.008,0.9999980553032227,-90.89075206591632
9.016,0.9999978916158325,-91.1723322620104
9.024000000000001,0.9999977270788137,-91.45386036092697
9.032,0.999997561772787,-91.73533604103477
9.04,0.9999973957785588,-92.01675898309885
9.048,0.9999972291771039,-92.29812887028541
9.056000000000001,0.9999970620495415,-92.5794453881666
9.064,0.999996894477117,-92.86070822472553
9.072,0.9999967265411791,-93.14191707036103
9.08,0.9999965583231614,-93.42307161789225
9.088000000000001,0.9999963899045601,-93.70417156256293
9.096,0.9999962213669135,-93.98521660204612
9.104,0.9999960527917822,-94.26620643644839
9.112,0.9999958842607277,-94.54714076831404
9.120000000000001,0.999995715855292,-94.82801930262909
9.128,0.9999955476569776,-95.10884174682535
9.136,0.9999953797472263,-95.38960781078445
9.144,0.9999952122073986,-95.67031720684155
9.152000000000001,0.9999950451187547,-95.95096964978882
9.16,0.9999948785624319,-96.23156485687926
9.168,0.9999947126194266,-96.51210254783025
9.176,0.9999945473705726,-96.79258244482683
9.184000000000001,0.9999943828965205,-97.07300427252487
9.192,0.9999942192777197,-97.35336775805436
9.2,0.9999940565943961,-97.63367263102266
9.208,0.9999938949265332,-97.91391862351733
9.216000000000001,0.9999937343538524,-98.19410547010892
9.224,0.999993574955792,-98.47423290785387
9.232,0.9999934168114887,-98.75430067629735
9.24,0.9999932599997574,-99.03430851747575
9.248000000000001,0.9999931045990715,-99.31425617591893
9.256,0.9999929506875435,-99.59414339865295
9.264,0.9999927983429064,-99.87396993520231
9.272,0.9999926476424926,-100.15373553759218
9.280000000000001,0.9999924986632168,-100.43343996035033
9.288,0.9999923514815555,-100.71308296050921
9.296,0.9999922061735282,-100.99266429760816
9.304,0.9999920628146796,-101.27218373369494
9.312000000000001,0.9999919214800584,-101.55164103332753
9.32,0.9999917822442032,-101.83103596357567
9.328,0.9999916451811184,-102.11036829402279
9.336,0.99999151036426,-102.38963779676719
9.344,0.9999913778665156,-102.66884424642323
9.352,0.9999912477601864,-102.94798742012308
9.36,0.9999911201169702,-103.22706709751746
9.368,0.999990995007942,-103.50608306077713
9.376,0.9999908725035371,-103.78503509459348
9.384,0.999990752673535,-104.0639229861799
9.392,0.9999906355870386,-104.34274652527222
9.4,0.9999905213124604,-104.62150550412976
9.408,0.9999904099175028,-104.90019971753568
9.416,0.999990301469143,-105.17882896279797
9.424,0.9999901960336157,-105.45739303974943
9.432,0.9999900936763961,-105.73589175074856
9.44,0.9999899944621831,-106.01432490067944
9.448,0.9999898984548835,-106.29269229695244
9.456,0.9999898057175978,-106.57099374950374
9.464,0.9999897163125997,-106.84922907079616
9.472,0.999989630301325,-107.12739807581833
9.48,0.9999895477443528,-107.4055005820854
9.488,0.9999894687013929,-107.68353640963808
9.496,0.9999893932312667,-107.96150538104308
9.504,0.9999893213918971,-108.23940732139216
9.512,0.9999892532402886,-108.5172420583023
9.52,0.9999891888325173,-108.79500942191459
9.528,0.9999891282237128,-109.07270924489424
9.536,0.9999890714680457,-109.35034136242943
9.544,0.9999890186187134,-109.62790561223096
9.552,0.9999889697279261,-109.90540183453115
9.56,0.9999889248468925,-110.18282987208323
9.568,0.9999888840258079,-110.46018957016008
9.576,0.9999888473138392,-110.73748077655357
9.584,0.9999888147591136,-111.01470334157298
9.592,0.9999887864087037,-111.29185711804439
9.6,0.9999887623086167,-111.56894196130888
9.608,0.9999887425037816,-111.84595772922164
9.616,0.9999887270380364,-112.12290428215024
9.624,0.9999887159541166,-112.39978148297354
9.632,0.9999887092936444,-112.67658919707969
9.64,0.9999887070971142,-112.95332729236506
9.648,0.9999887094038855,-113.22999563923204
9.656,0.9999887162521687,-113.50659411058783
9.664,0.9999887276790159,-113.7831225818421
9.672,0.9999887437203091,-114.0595809309057
9.68,0.9999887644107511,-114.33596903818811
9.688,0.9999887897838546,-114.61228678659609
