freq,mag,phase
6.0,0.9999938155913106,84.39145217800237
6.008,0.9999941717958455,84.24773103432368
6.016,0.9999945178809172,84.10394983224566
6.024,0.9999948540180844,83.9601085218446
6.032,0.9999951803771479,83.81620705348347
6.04,0.9999954971261608,83.67224537781301
6.048,0.9999958044314369,83.52822344577298
6.056,0.9999961024575577,83.3841412085931
6.064,0.9999963913673834,83.23999861779438
6.072,0.9999966713220595,83.09579562519001
6.08,0.9999969424810269,82.95153218288667
6.088,0.9999972050020298,82.80720824328553
6.096,0.9999974590411244,82.66282375908345
6.104,0.9999977047526876,82.51837868327398
6.112,0.9999979422894258,82.37387296914856
6.12,0.9999981718023844,82.22930657029762
6.128,0.9999983934409542,82.08467944061161
6.136,0.9999986073528824,81.93999153428219
6.144,0.9999988136842809,81.79524280580328
6.152,0.9999990125796339,81.6504332099722
6.16,0.9999992041818081,81.5055627018907
6.168,0.9999993886320594,81.36063123696609
6.176,0.9999995660700444,81.21563877091238
6.184,0.999999736633827,81.07058525975127
6.192,0.999999900459888,80.92547065981331
6.2,1.0,80.780294927739
6.208,1.0,80.63505802047979
6.216,1.0,80.48975989529923
6.224,1.0,80.34440050977403
6.232,1.0,80.19897982179512
6.24,1.0,80.05349778956877
6.248,0.9999999999999999,79.90795437161754
6.256,1.0,79.76234952678158
6.264,1.0,79.61668321421942
6.272,1.0,79.47095539340926
6.28,1.0,79.32516602414987
6.288,1.0,79.17931506656177
6.296,1.0,79.03340248108822
6.304,0.9999999999999999,78.88742822849628
6.312,1.0,78.74139226987788
6.32,1.0,78.59529456665085
6.328,1.0,78.44913508056
6.336,0.9999999999999999,78.30291377367814
6.344,1.0,78.1566306084071
6.352,0.9999999999999999,78.01028554747882
6.36,1.0,77.86387855395634
6.368,0.9999999999999999,77.71740959123485
6.376,1.0,77.57087862304277
6.384,1.0,77.42428561344265
6.392,1.0,77.27763052683238
6.4,1.0,77.13091332794602
6.408,1.0,76.98413398185497
6.416,1.0,76.83729245396891
6.424,0.9999999999999999,76.69038871003681
6.432,0.9999999999999999,76.54342271614804
6.44,1.0,76.39639443873322
6.448,0.9999999999999999,76.24930384456539
6.456,0.9999999999999999,76.10215090076083
6.464,1.0,75.9549355747803
6.472,1.0,75.80765783442979
6.48,1.0,75.66031764786172
6.4879999999999995,1.0,75.51291498357577
6.496,1.0,75.36544981041993
6.504,0.9999999999999999,75.21792209759158
6.5120000000000005,1.0,75.07033181463832
6.52,1.0,74.92267893145906
6.5280000000000005,1.0,74.77496341830486
6.536,0.9999999999999999,74.6271852457802
6.5440000000000005,1.0,74.47934438484349
6.552,0.9999999999999999,74.33144080680852
6.5600000000000005,0.9999999999999999,74.18347448334501
6.568,1.0,74.03544538647999
6.5760000000000005,1.0,73.8873534885983
6.584,0.9999999999999999,73.73919876244393
6.592,1.0,73.59098118112077
6.6,1.0,73.44270071809356
6.608,0.9999999999999999,73.29435734718896
6.616,1.0,73.14595104259638
6.624,0.9999999999999999,72.99748177886894
6.632,1.0,72.84894953092443
6.64,1.0,72.70035427404625
6.648,1.0,72.55169598388426
6.656,1.0,72.40297463645582
6.664,1.0,72.25419020814665
6.672,1.0,72.10534267571174
6.68,1.0,71.95643201627625
6.688,1.0,71.80745820733651
6.696,1.0,71.65842122676084
6.704,1.0,71.50932105279048
6.712,1.0,71.36015766404049
6.72,1.0,71.21093103950068
6.728,1.0,71.06164115853643
6.736,1.0,70.91228800088969
6.744,0.9999999999999998,70.76287154667973
6.752,0.9999999999999998,70.61339177640417
6.76,1.0,70.46384867093973
6.768,1.0,70.31424221154317
6.776,1.0,70.1645723798522
6.784,0.9999999999999999,70.01483915788626
6.792,1.0,69.86504252804741
6.8,1.0,69.71518247312126
6.808,0.9999999999999999,69.56525897627772
6.816,1.0,69.41527202107197
6.824,0.9999999999999999,69.26522159144518
6.832,0.9999999999999999,69.11510767172548
6.84,1.0,68.96493024662871
6.848,0.9999999999999999,68.81468930125932
6.856,1.0,68.66438482111116
6.864,1.0,68.51401679206829
6.872,1.0,68.36358520040592
6.88,1.0,68.21309003279111
6.888,0.9999999999999998,68.06253127628364
6.896,0.9999999999999999,67.91190891833679
6.904,1.0,67.76122294679824
6.912,0.9999999999999999,67.61047334991075
6.92,0.999999998172524,67.45966011631309
6.928,0.9999999418580684,67.30878323504066
6.936,0.9999998857989236,67.15784269552654
6.944,0.9999998300220322,67.00683848760202
6.952,0.9999997745535804,66.8557706014976
6.96,0.9999997194190081,66.70463902784357
6.968,0.9999996646430169,66.55344375767095
6.976,0.999999610249578,66.40218478241219
6.984,0.9999995562619399,66.25086209390197
6.992,0.9999995027026382,66.0994756843779
7.0,0.9999994495935022,65.94802554648136
7.008,0.9999993969556638,65.79651167325822
7.016,0.999999344809565,65.64493405815958
7.024,0.9999992931749674,65.4932926950425
7.032,0.9999992420709587,65.34158757817085
7.04,0.9999991915159617,65.18981870221586
7.048,0.9999991415277419,65.03798606225706
7.056,0.9999990921234163,64.88608965378288
7.064,0.9999990433194602,64.73412947269135
7.072,0.9999989951317164,64.58210551529098
7.08,0.9999989475754019,64.43001777830128
7.088,0.9999989006651173,64.2778662588536
7.096,0.9999988544148539,64.12565095449185
7.104,0.999998808838001,63.973371863173035
7.112,0.9999987639473553,63.82102898326818
7.12,0.9999987197551273,63.66862231356285
7.128,0.9999986762729504,63.51615185325794
7.136,0.999998633511887,63.3636176019703
7.144,0.9999985914824384,63.211019559733394
7.152,0.999998550194551,63.05835772699811
7.16,0.9999985096576243,62.90563210463325
7.168,0.9999984698805192,62.75284269392631
7.176,0.9999984308715651,62.59998949658411
7.184,0.9999983926385682,62.447072514733435
7.192,0.9999983551888173,62.294091750921694
7.2,0.9999983185290946,62.14104720811759
7.208,0.9999982826656801,61.987938889711764
7.216,0.9999982476043611,61.83476679951731
7.224,0.999998213350439,61.681530941770625
7.232,0.9999981799087367,61.528231321131805
7.24,0.9999981472836067,61.374867942685476
7.248,0.9999981154789377,61.221440811941235
7.256,0.9999980844981627,61.06794993483437
7.264,0.9999980543442658,60.91439531772641
7.272,0.9999980250197903,60.76077696740578
7.28,0.9999979965268448,60.60709489108833
7.288,0.9999979688671122,60.45334909641801
7.296,0.9999979420418553,60.299539591467344
7.304,0.9999979160519253,60.145666384738135
7.312,0.999997890897768,59.99172948516196
7.32,0.9999978665794313,59.83772890210076
7.328,0.9999978430965731,59.68366464534738
7.336,0.9999978204484674,59.529536725126235
7.344,0.9999977986340118,59.37534515209373
7.352,0.9999977776517344,59.221089937338874
7.36,0.999997757499801,59.06677109238386
7.368,0.9999977381760222,58.912388629184505
7.376,0.9999977196778596,58.75794256013091
7.384,0.9999977020024339,58.60343289804785
7.392,0.9999976851465308,58.448859656195445
7.4,0.999997669106608,58.294222848269584
7.4079999999999995,0.999997653878803,58.13952248840248
7.416,0.9999976394589383,57.98475859116307
7.4239999999999995,0.9999976258425289,57.829931171557746
7.432,0.9999976130247897,57.67504024503059
7.4399999999999995,0.9999976010006412,57.52008582746409
7.448,0.9999975897647163,57.365067935179425
7.4559999999999995,0.9999975793113676,57.20998658493718
7.464,0.9999975696346728,57.05484179393751
7.4719999999999995,0.9999975607284424,56.89963357982102
7.48,0.9999975525862255,56.74436196066874
7.4879999999999995,0.9999975452013169,56.58902695500309
7.496,0.9999975385667622,56.43362858178791
7.504,0.9999975326753662,56.278166860429195
7.5120000000000005,0.9999975275196971,56.12264181077534
7.52,0.9999975230920947,55.96705345311776
7.5280000000000005,0.9999975193846753,55.81140180819112
7.536,0.999997516389339,55.655686897174014
7.5440000000000005,0.9999975140977749,55.49990874168906
7.552,0.9999975125014681,55.34406736380369
7.5600000000000005,0.9999975115917054,55.188162786030176
7.568,0.9999975113595815,55.03219503132636
7.5760000000000005,0.999997511796005,54.87616412309582
7.584,0.9999975128917046,54.72007008518845
7.5920000000000005,0.9999975146372349,54.56391294190063
7.6,0.999997517022982,54.407692717975856
7.6080000000000005,0.9999975200391701,54.251409438604846
7.616,0.9999975236758673,54.09506312942621
7.6240000000000006,0.9999975279229905,53.9386538165265
7.632,0.9999975327703118,53.78218152644084
7.640000000000001,0.9999975382074646,53.62564628615302
7.648,0.9999975442239493,53.46904812309615
7.656000000000001,0.9999975508091374,53.31238706515268
7.664,0.9999975579522795,53.15566314065498
7.672,0.9999975656425083,52.998876378385496
7.68,0.9999975738688469,52.84202680757719
7.688,0.9999975826202115,52.68511445791381
7.696,0.9999975918854194,52.528139359530186
7.704,0.999997601653192,52.37110154301255
7.712,0.9999976119121624,52.214001039398866
7.72,0.9999976226508787,52.056837880179046
7.728,0.9999976338578106,51.89961209729533
7.736,0.9999976455213545,51.74232372314251
7.744,0.9999976576298378,51.58497279056816
7.752,0.9999976701715255,51.42755933287302
7.76,0.9999976831346231,51.27008338381115
7.768,0.9999976965072841,51.1125449775903
7.776,0.9999977102776135,50.954944148871995
7.784,0.9999977244336729,50.797280932771955
7.792,0.9999977389634861,50.63955536486023
7.8,0.9999977538550434,50.48176748116144
7.808,0.9999977690963057,50.323917318155054
7.816,0.9999977846752113,50.16600491277553
7.824,0.9999978005796785,50.00803030241259
7.832,0.999997816797612,49.84999352491142
7.84,0.9999978333169061,49.69189461857285
7.848,0.9999978501254501,49.53373362215355
7.856,0.9999978672111328,49.37551057486625
7.864,0.9999978845618468,49.21722551637987
7.872,0.9999979021654933,49.05887848681975
7.88,0.9999979200099854,48.90046952676779
7.888,0.9999979380832547,48.741998677262615
7.896,0.9999979563732525,48.58346597979974
7.904,0.9999979748679572,48.42487147633173
7.912,0.9999979935553762,48.26621520926832
7.92,0.9999980124235515,48.10749722147657
7.928,0.9999980314605624,47.94871755628099
7.936,0.9999980506545316,47.78987625746369
7.944,0.9999980699936272,47.63097336926446
7.952,0.9999980894660677,47.472008936380924
7.96,0.9999981090601259,47.312983003968604
7.968,0.9999981287641324,47.15389561764107
7.976,0.99999814856648,46.99474682346998
7.984,0.9999981684556265,46.835536667985224
7.992,0.9999981884200999,46.676265198174946
8.0,0.9999982084485003,46.51693246148569
8.008,0.9999982285295052,46.35753850582241
8.016,0.9999982486518716,46.19808337954849
8.024000000000001,0.9999982688044412,46.03856713148598
8.032,0.9999982889761422,45.8789898109155
8.04,0.9999983091559933,45.71935146757622
8.048,0.9999983293331085,45.55965215166602
8.056000000000001,0.9999983494966974,45.39989191384155
8.064,0.9999983696360716,45.24007080521818
8.072,0.9999983897406463,45.08018887736996
8.08,0.999998409799943,44.9202461823297
8.088000000000001,0.9999984298035949,44.76024277258904
8.096,0.9999984497413468,44.60017870109838
8.104,0.9999984696030608,44.44005402126681
8.112,0.9999984893787177,44.279868786962126
8.120000000000001,0.9999985090584216,44.119623052510924
8.128,0.9999985286324001,43.95931687269851
8.136,0.9999985480910093,43.7989503027687
8.144,0.9999985674247368,43.638523398423985
8.152000000000001,0.999998586624202,43.47803621582547
8.16,0.9999986056801619,43.317488811592725
8.168,0.9999986245835109,43.15688124280372
8.176,0.9999986433252854,42.99621356699483
8.184000000000001,0.9999986618966646,42.835485842160736
8.192,0.9999986802889754,42.6746981267544
8.2,0.9999986984936919,42.513850479686795
8.208,0.9999987165024397,42.352942960326935
8.216000000000001,0.9999987343069976,42.19197562850189
8.224,0.9999987518992997,42.0309485444965
8.232,0.9999987692714385,41.8698617690533
8.24,0.9999987864156653,41.70871536337234
8.248000000000001,0.9999988033243942,41.5475093891113
8.256,0.9999988199902027,41.386243908385104
8.264,0.9999988364058346,41.22491898376585
8.272,0.999998852564202,41.063534678282686
8.280000000000001,0.9999988684583859,40.90209105542169
8.288,0.9999988840816394,40.74058817912565
8.296,0.9999988994273894,40.57902611379389
8.304,0.9999989144892374,40.4174049242821
8.312,0.9999989292609622,40.255724675902265
8.32,0.9999989437365207,40.09398543442228
8.328,0.9999989579100499,39.93218726606596
8.336,0.9999989717758686,39.770330237512646
8.344,0.9999989853284782,39.608414415897215
8.352,0.9999989985625648,39.446439868809605
8.36,0.999999011473001,39.284406664294856
8.368,0.9999990240548453,39.12231487085269
8.376,0.9999990363033453,38.96016455743738
8.384,0.9999990482139387,38.797955793457426
8.392,0.9999990597822525,38.63568864877545
8.4,0.9999990710041066,38.473363193707726
8.408,0.9999990818755141,38.310979499024185
8.416,0.9999990923926813,38.148537635947854
8.424,0.9999991025520103,37.98603767615488
8.432,0.9999991123500975,37.823479691773954
8.44,0.9999991217837371,37.6608637553863
8.448,0.9999991308499204,37.498189940025156
8.456,0.9999991395458373,37.33545831917563
8.464,0.9999991478688757,37.17266896677425
8.472,0.9999991558166239,37.00982195720884
8.48,0.9999991633868692,36.846917365317985
8.488,0.9999991705776008,36.68395526639085
8.496,0.9999991773870083,36.52093573616677
8.504,0.9999991838134831,36.35785885083502
8.512,0.9999991898556176,36.19472468703423
8.52,0.9999991955122084,36.031533321852365
8.528,0.9999992007822529,35.868284832826006
8.536,0.999999205664952,35.70497929794032
8.544,0.9999992101597099,35.541616795628364
8.552,0.9999992142661335,35.37819740477103
8.56,0.9999992179840322,35.214721204696296
8.568,0.9999992213134202,35.05118827517921
8.576,0.9999992242545139,34.88759869644113
8.584,0.999999226807733,34.72395254914965
8.592,0.9999992289737003,34.56024991441785
8.6,0.9999992307532413,34.39649087380421
8.608,0.9999992321473843,34.23267550931184
8.616,0.9999992331573601,34.06880390338839
8.624,0.9999992337846011,33.90487613892529
8.632,0.9999992340307425,33.74089229925756
8.64,0.9999992338976191,33.576852468163125
8.648,0.9999992333872681,33.41275672986263
8.656,0.9999992325019261,33.248605169018596
8.664,0.9999992312440298,33.08439787073538
8.672,0.9999992296162151,32.92013492055825
8.68,0.9999992276213167,32.75581640447334
8.688,0.9999992252623661,32.59144240890672
8.696,0.999999222542593,32.42701302072428
8.704,0.9999992194654226,32.262528327230875
8.712,0.9999992160344761,32.09798841617014
8.72,0.9999992122535691,31.93339337572366
8.728,0.9999992081267105,31.76874329451072
8.736,0.9999992036581021,31.604038261587494
8.744,0.9999991988521373,31.43927836644678
8.752,0.9999991937134001,31.274463699017204
8.76,0.9999991882466637,31.10959434966285
8.768,0.9999991824568898,30.944670409182535
8.776,0.9999991763492269,30.779691968809438
8.784,0.9999991699290093,30.61465912021029
8.792,0.9999991632017564,30.449571955485034
8.8,0.9999991561731704,30.284430567166012
8.808,0.9999991488491345,30.119235048217558
8.815999999999999,0.9999991412357132,29.95398549203524
8.824,0.9999991333391499,29.78868199244531
8.832,0.999999125165865,29.623324643704184
8.84,0.9999991167224548,29.457913540497696
8.847999999999999,0.9999991080156899,29.292448777940503
8.856,0.9999990990525132,29.126930451575383
8.864,0.9999990898400388,28.961358657372777
8.872,0.9999990803855497,28.79573349173004
8.879999999999999,0.9999990706964967,28.63005505147067
8.888,0.9999990607804958,28.46432343384376
8.896,0.9999990506453269,28.2985387365234
8.904,0.9999990402989318,28.13270105760792
8.911999999999999,0.9999990297494116,27.966810495619146
8.92,0.9999990190050269,27.80086714950175
8.928,0.9999990080741926,27.634871118622698
8.936,0.9999989969654784,27.468822502770404
8.943999999999999,0.9999989856876054,27.302721402153985
8.952,0.9999989742494448,27.13656791740261
8.96,0.9999989626600152,26.970362149564888
8.968,0.9999989509284809,26.804104200107986
8.975999999999999,0.999998939064148,26.637794170916923
8.984,0.9999989270764654,26.471432164293823
8.992,0.9999989149750188,26.30501828295729
9.0,0.9999989027695314,26.13855263004153
9.008,0.9999988904698592,25.97203530909562
9.016,0.9999988780859904,25.805466424082674
9.024000000000001,0.9999988656280417,25.638846079379288
9.032,0.9999988531062567,25.472174379774547
9.04,0.9999988405310024,25.305451430469294
9.048,0.9999988279127677,25.13867733707533
9.056000000000001,0.9999988152621602,24.971852205614727
9.064,0.9999988025899037,24.804976142518925
9.072,0.9999987899068357,24.63804925462788
9.08,0.9999987772239045,24.47107164918928
9.088000000000001,0.9999987645521666,24.304043433857824
9.096,0.9999987519027839,24.13696471669433
9.104,0.9999987392870212,23.96983560616478
9.112,0.9999987267162431,23.802656211139578
9.120000000000001,0.9999987142019113,23.635426640892792
9.128,0.999998701755582,23.468147005101194
9.136,0.9999986893889019,23.300817413843337
9.144,0.9999986771136069,23.133437977598778
9.152000000000001,0.9999986649415179,22.96600880724723
9.16,0.999998652884539,22.798530014067662
9.168,0.9999986409546531,22.631001709737298
9.176,0.9999986291639198,22.46342400633083
9.184000000000001,0.9999986175244723,22.295797016319558
9.192,0.9999986060485144,22.128120852570447
9.2,0.9999985947483164,21.960395628345097
9.208,0.9999985836362139,21.792621457298956
9.216000000000001,0.9999985727246024,21.62479845348042
9.224,0.999998562025936,21.456926731329833
9.232,0.9999985515527234,21.289006405678506
9.24,0.9999985413175247,21.121037591747825
9.248000000000001,0.9999985313329485,20.95302040514838
9.256,0.9999985216116474,20.784954961878935
9.264,0.9999985121663172,20.616841378325393
9.272,0.999998503009691,20.448679771259908
9.280000000000001,0.9999984941545376,20.28047025783996
9.288,0.9999984856136576,20.112212955607344
9.296,0.99999847739988,19.943907982487055
9.304,0.9999984695260585,19.77555545678643
9.312000000000001,0.9999984620050695,19.607155497194174
9.32,0.9999984548498065,19.438708222779294
9.328,0.999998448073179,19.27021375299003
9.336,0.9999984416881073,19.10167220765289
9.344,0.99999843570752,18.93308370697176
9.352,0.9999984301443506,18.764448371526584
9.36,0.9999984250115332,18.59576632227266
9.368,0.9999984203219998,18.427037680539296
9.376,0.9999984160886767,18.258262568029018
9.384,0.9999984123244806,18.08944110681626
9.392,0.9999984090423159,17.920573419346596
9.4,0.9999984062550699,17.751659628435377
9.408,0.9999984039756099,17.58269985726695
9.416,0.9999984022167809,17.413694229393272
9.424,0.9999984009913999,17.244642868733138
9.432,0.9999984003122536,17.075545899570788
9.44,0.9999984001920946,16.90640344655514
9.448,0.9999984006436378,16.737215634698305
9.456,0.9999984016795567,16.5679825893749
9.464,0.9999984033124801,16.398704436320518
9.472,0.9999984055549883,16.22938130163096
9.48,0.9999984084196097,16.06001331176084
9.488,0.999998411918817,15.890600593522702
9.496,0.9999984160650229,15.721143274085593
9.504,0.9999984208705791,15.551641480974213
9.512,0.9999984263477688,15.382095342067542
9.52,0.9999984325088066,15.212504985597837
9.528,0.9999984393658329,15.042870540149307
9.536,0.9999984469309103,14.87319213465719
9.544,0.9999984552160222,14.703469898406253
9.552,0.9999984642330658,14.533703961029977
9.56,0.9999984739938513,14.363894452509012
9.568,0.999998484510097,14.194041503170324
9.576,0.999998495793426,14.024145243685677
9.584,0.9999985078553623,13.854205805070743
9.592,0.999998520707328,13.684223318683593
9.6,0.9999985343606391,13.514197916223756
9.608,0.9999985488265017,13.344129729730744
9.616,0.9999985641160098,13.17401889158309
9.624,0.9999985802401399,13.003865534496837
9.632,0.9999985972097483,12.833669791524585
9.64,0.9999986150355683,12.663431796053935
9.648,0.9999986337282054,12.493151681806605
9.656,0.9999986532981342,12.322829582836782
9.664,0.9999986737556966,12.152465633530221
9.672,0.9999986951110945,11.982059968602675
9.68,0.9999987173743903,11.8116127230989
9.688,0.999998740555501,11.641124032391087
9.696,0.9999987646641959,11.470594032177873
9.704,0.9999987897100927,11.300022858482771
9.712,0.9999988157026539,11.12941064765315
9.72,0.9999988426511841,10.95875753635864
9.728,0.9999988705648257,10.788063661590131
9.736,0.9999988994525564,10.617329160658153
9.744,0.9999989293231857,10.446554171191863
9.752,0.9999989601853504,10.275738831137419
9.76,0.9999989920475136,10.104883278756938
9.768,0.9999990249179591,9.933987652626886
9.776,0.9999990588047891,9.763052091637014
9.784,0.9999990937159219,9.592076734988709
