freq,mag,phase
6.0,0.9999958847322516,177.85908364287832
6.008,0.9999957107609843,177.5070150819758
6.016,0.9999955405871654,177.1549584810758
6.024,0.9999953741204309,176.80290690216387
6.032,0.9999952112722329,176.45085341300197
6.04,0.9999950519558105,176.09879108684012
6.048,0.999994896086165,175.7467130021288
6.056,0.999994743580031,175.39461224223197
6.064,0.9999945943558515,175.04248189514078
6.072,0.9999944483337524,174.69031505318807
6.08,0.999994305435515,174.33810481276387
6.088,0.9999941655845538,173.98584427403125
6.096,0.9999940287058879,173.63352654064346
6.104,0.9999938947261214,173.2811447194619
6.112,0.9999937635734134,172.92869192027487
6.12,0.9999936351774603,172.5761612555173
6.128,0.9999935094694659,172.22354583999166
6.136,0.9999933863821262,171.87083879058986
6.144,0.9999932658495999,171.518033226016
6.152,0.9999931478074895,171.16512226651065
6.16,0.999993032192817,170.81209903357586
6.168,0.9999929189440033,170.45895664970152
6.176,0.9999928080008484,170.10568823809328
6.184,0.9999926993045073,169.75228692240108
6.192,0.9999925927974703,169.39874582644944
6.2,0.9999924884235444,169.0450580739692
6.208,0.9999923861278293,168.69121678833002
6.216,0.9999922858567005,168.3372150922751
6.224,0.9999921875577881,167.98304610765678
6.232,0.9999920911799567,167.6287029551737
6.24,0.9999919966732926,167.27417875411
6.248,0.9999919039890746,166.9194666220753
6.256,0.9999918130797609,166.56455967474702
6.264,0.9999917238989744,166.20945102561407
6.272,0.9999916364014798,165.85413378572198
6.28,0.9999915505431645,165.49860106342064
6.288,0.999991466281027,165.1428459641126
6.296,0.9999913835731545,164.78686159000446
6.304,0.9999913023787081,164.43064103985915
6.312,0.9999912226579074,164.07417740875098
6.32,0.999991144372009,163.71746378782183
6.328,0.9999910674832972,163.3604932640404
6.336,0.9999909919550636,163.0032589199625
6.344,0.9999909177515914,162.64575383349404
6.352,0.9999908448381379,162.28797107765644
6.36,0.9999907731809291,161.92990372035374
6.368,0.9999907027471315,161.5715448241421
6.376,0.9999906335048423,161.21288744600213
6.384,0.9999905654230813,160.8539246371131
6.392,0.9999904984717669,160.49464944262988
6.4,0.9999904326217047,160.1350549014623
6.408,0.9999903678445767,159.77513404605713
6.416,0.9999903041129252,159.41487990218283
6.424,0.9999902414001365,159.05428548871672
6.432,0.999990179680433,158.69334381743514
6.44,0.9999901189288551,158.33204789280654
6.448,0.999990059121251,157.9703907117872
6.456,0.9999900002342635,157.60836526361993
6.464,0.9999899422453155,157.24596452963627
6.472,0.9999898851325983,156.8831814830611
6.48,0.9999898288750613,156.52000908882096
6.4879999999999995,0.9999897734523954,156.15644030335542
6.496,0.9999897188450277,155.79246807443187
6.504,0.9999896650341034,155.4280853409636
6.5120000000000005,0.9999896120014763,155.06328503283123
6.52,0.9999895597296975,154.69806007070832
6.5280000000000005,0.9999895082020049,154.33240336588966
6.536,0.9999894574023103,153.9663078201244
6.5440000000000005,0.9999894073151918,153.59976632545175
6.552,0.9999893579258755,153.2327717640419
6.5600000000000005,0.9999893092202342,152.8653170080397
6.568,0.9999892611847712,152.49739491941347
6.5760000000000005,0.9999892138066083,152.1289983498069
6.584,0.9999891670734816,151.76012014039642
6.592,0.9999891209737268,151.3907531217519
6.6,0.9999890754962696,151.0208901137024
6.608,0.9999890306306167,150.6505239252061
6.616,0.9999889863668461,150.27964735422532
6.624,0.9999889426955976,149.90825318760585
6.632,0.9999888996080625,149.53633420096148
6.64,0.9999888570959744,149.16388315856335
6.648,0.9999888151516008,148.7908928132343
6.656,0.9999887737677327,148.41735590624882
6.664,0.9999887329376766,148.04326516723765
6.672,0.9999886926552459,147.66861331409856
6.68,0.99998865291475,147.29339305291205
6.688,0.9999886137109877,146.91759707786306
6.696,0.9999885750392391,146.54121807116857
6.704,0.9999885368952537,146.16424870301063
6.712,0.9999884992752458,145.78668163147597
6.72,0.9999884621758852,145.40850950250172
6.728,0.999988425594287,145.02972494982689
6.736,0.9999883895280064,144.65032059495127
6.744,0.9999883539750286,144.27028904709996
6.752,0.9999883189337626,143.8896229031953
6.76,0.9999882844030308,143.50831474783527
6.768,0.9999882503820651,143.12635715327932
6.776,0.999988216870495,142.7437426794409
6.784,0.9999881838683442,142.36046387388774
6.792,0.9999881513760194,141.97651327184929
6.8,0.9999881193943055,141.59188339623216
6.808,0.9999880879243574,141.20656675764295
6.816,0.999988056967692,140.82055585441927
6.824,0.9999880265261828,140.4338431726691
6.832,0.9999879966020505,140.04642118631799
6.84,0.9999879671978581,139.6582823571649
6.848,0.9999879383165027,139.26941913494719
6.856,0.9999879099612091,138.8798239574134
6.864,0.9999878821355229,138.48948925040628
6.872,0.9999878548433027,138.09840742795384
6.88,0.9999878280887154,137.7065708923707
6.888,0.999987801876228,137.3139720343684
6.896,0.9999877762106006,136.92060323317577
6.904,0.9999877510968821,136.52645685666934
6.912,0.9999877265404007,136.13152526151345
6.92,0.9999877025467595,135.73580079331134
6.928,0.99998767912183,135.33927578676634
6.936,0.9999876562717444,134.94194256585402
6.944,0.9999876340028904,134.54379344400522
6.952,0.9999876123219047,134.14482072430047
6.96,0.9999875912356666,133.74501669967574
6.968,0.9999875707512911,133.34437365313963
6.976,0.9999875508761249,132.9428838580027
6.984,0.9999875316177376,132.5405395781188
6.992,0.9999875129839162,132.1373330681386
7.0,0.9999874949826617,131.7332565737759
7.008,0.9999874776221794,131.32830233208645
7.016,0.999987460910874,130.9224625717601
7.024,0.9999874448573444,130.51572951342578
7.032,0.9999874294703783,130.10809536997064
7.04,0.999987414758944,129.69955234687228
7.048,0.9999874007321856,129.29009264254537
7.056,0.9999873873994182,128.87970844870253
7.064,0.9999873747701199,128.46839195072957
7.072,0.9999873628539263,128.0561353280755
7.08,0.9999873516606281,127.64293075465785
7.088,0.9999873412001593,127.22877039928304
7.096,0.9999873314825954,126.81364642608226
7.104,0.9999873225181473,126.39755099496357
7.112,0.9999873143171536,125.98047626207962
7.12,0.9999873068900762,125.5624143803122
7.128,0.9999873002474946,125.14335749977312
7.136,0.999987294400099,124.72329776832228
7.144,0.9999872893586852,124.30222733210279
7.152,0.9999872851341474,123.88013833609364
7.16,0.9999872817374761,123.45702292468026
7.168,0.9999872791797471,123.03287324224314
7.176,0.9999872774721206,122.60768143376468
7.184,0.9999872766258301,122.18143964545477
7.192,0.9999872766521809,121.75414002539543
7.2,0.9999872775625429,121.32577472420458
7.208,0.9999872793683441,120.89633589571956
7.216,0.9999872820810651,120.46581569769997
7.224,0.9999872857122329,120.03420629255132
7.232,0.9999872902734153,119.60149984806877
7.24,0.9999872957762148,119.16768853820136
7.248,0.9999873022322635,118.73276454383789
7.256,0.9999873096532141,118.2967200536136
7.264,0.999987318050738,117.8595472647388
7.272,0.9999873274365176,117.42123838384914
7.28,0.9999873378222371,116.98178562787845
7.288,0.9999873492195815,116.5411812249539
7.296,0.9999873616402278,116.099417415314
7.304,0.9999873750958399,115.65648645224996
7.312,0.9999873895980602,115.21238060306996
7.32,0.999987405158506,114.76709215008788
7.328,0.9999874217887625,114.32061339163535
7.336,0.999987439500376,113.8729366430985
7.344,0.9999874583048466,113.42405423797935
7.352,0.9999874782136249,112.97395852898175
7.36,0.9999874992381039,112.52264188912284
7.368,0.9999875213896114,112.07009671286977
7.376,0.9999875446794068,111.61631541730218
7.384,0.9999875691186703,111.1612904433008
7.392,0.9999875947184996,110.70501425676215
7.4,0.9999876214899037,110.24747934983996
7.4079999999999995,0.9999876494437935,109.7886782422132
7.416,0.999987678590978,109.32860348238121
7.4239999999999995,0.9999877089421566,108.86724764898663
7.432,0.9999877405079107,108.40460335216481
7.4399999999999995,0.9999877732987005,107.9406632349223
7.448,0.9999878073248555,107.47541997454216
7.4559999999999995,0.9999878425965694,107.00886628401878
7.464,0.9999878791238909,106.54099491351951
7.4719999999999995,0.9999879169167197,106.0717986518771
7.48,0.9999879559847981,105.6012703281087
7.4879999999999995,0.9999879963377036,105.12940281296609
7.496,0.9999880379848436,104.65618902051327
7.504,0.9999880809354459,104.18162190973509
7.5120000000000005,0.9999881251985545,103.705694486174
7.52,0.9999881707830205,103.228399803598
7.5280000000000005,0.9999882176974955,102.74973096569683
7.536,0.9999882659504249,102.26968112780995
7.5440000000000005,0.99998831555004,101.78824349868275
7.552,0.9999883665043506,101.30541134225477
7.5600000000000005,0.9999884188211408,100.82117797947659
7.568,0.9999884725079553,100.33553679015849
7.5760000000000005,0.9999885275720986,99.84848121484819
7.584,0.9999885840206253,99.36000475674048
7.5920000000000005,0.9999886418603302,98.87010098361569
7.6,0.9999887010977448,98.37876352981047
7.6080000000000005,0.9999887617391294,97.88598609821709
7.616,0.999988823790462,97.39176246231521
7.6240000000000006,0.9999888872574347,96.89608646823194
7.632,0.9999889521454446,96.3989520368343
7.640000000000001,0.9999890184595873,95.90035316584995
7.648,0.9999890862046479,95.40028393201987
7.656000000000001,0.999989155385095,94.89873849327932
7.664,0.9999892260050716,94.39571109097018
7.672,0.9999892980683897,93.89119605208145
7.68,0.9999893715785206,93.38518779152062
7.688,0.9999894465385892,92.87768081441317
7.696,0.9999895229513645,92.36866971843153
7.704,0.999989600819254,91.8581491961527
7.712,0.9999896801442968,91.34611403744401
7.72,0.9999897609281513,90.8325591318772
7.728,0.999989843172095,90.31747947116997
7.736,0.9999899268770107,89.80087015165486
7.744,0.9999900120433834,89.28272637677496
7.752,0.9999900986712892,88.76304345960608
7.76,0.9999901867603925,88.24181682540475
7.768,0.9999902763099336,87.71904201418162
7.776,0.9999903673187265,87.19471468329974
7.784,0.9999904597851463,86.66883061009693
7.792,0.9999905537071281,86.14138569453206
7.8,0.9999906490821543,85.61237596185399
7.808,0.9999907459072517,85.0817975652929
7.816,0.9999908441789814,84.54964678877327
7.824,0.9999909438934343,84.01592004964739
7.832,0.9999910450462233,83.48061390144912
7.84,0.9999911476324765,82.94372503666656
7.848,0.9999912516468309,82.40525028953303
7.856,0.9999913570834256,81.86518663883533
7.864,0.9999914639358958,81.3235312107385
7.872,0.9999915721973657,80.78028128162565
7.88,0.9999916818604438,80.23543428095243
7.888,0.9999917929172153,79.6889877941144
7.896,0.9999919053592363,79.14093956532663
7.904,0.9999920191775297,78.59128750051426
7.912,0.9999921343625778,78.04002967021258
7.92,0.9999922509043175,77.48716431247571
7.928,0.999992368792135,76.93268983579227
7.936,0.9999924880148606,76.3766048220069
7.944,0.9999926085607642,75.81890802924612
7.952,0.9999927304175492,75.25959839484713
7.96,0.9999928535723497,74.69867503828817
7.968,0.9999929780117249,74.13613726411857
7.976,0.9999931037216555,73.57198456488746
7.984,0.9999932306875398,73.00621662406893
7.992,0.9999933588941893,72.4388333189825
8.0,0.999993488325826,71.86983472370682
8.008,0.999993618966079,71.29922111198513
8.016,0.9999937507979818,70.72699296012009
8.024000000000001,0.999993883803968,70.15315094985753
8.032,0.9999940179658718,69.57769597125542
8.04,0.9999941532649229,69.0006291255371
8.048,0.9999942896817468,68.42195172792714
8.056000000000001,0.9999944271963614,67.84166531046746
8.064,0.999994565788178,67.25977162481124
8.072,0.9999947054359979,66.67627264499255
8.08,0.999994846118013,66.09117057017076
8.088000000000001,0.9999949878118066,65.50446782734662
8.096,0.9999951304943508,64.91616707404727
8.104,0.9999952741420097,64.32627120097867
8.112,0.9999954187305379,63.73478333464378
8.120000000000001,0.9999955642350831,63.141706839923074
8.128,0.9999957106301868,62.54704532261536
8.136,0.9999958578897872,61.950802631936384
8.144,0.9999960059872196,61.35298286297364
8.152000000000001,0.9999961548952215,60.75359035909444
8.16,0.9999963045859339,60.15262971430426
8.168,0.9999964550309045,59.55010577555323
8.176,0.9999966062010934,58.94602364498899
8.184000000000001,0.9999967580668765,58.34038868215302
8.192,0.9999969105980493,57.733206506116844
8.2,0.9999970637638339,57.124482997556655
8.208,0.9999972175328835,56.51422430076405
8.216000000000001,0.9999973718732884,55.90243682558987
8.224,0.9999975267525834,55.2891272493179
8.232,0.9999976821377544,54.674302518466504
8.24,0.9999978379952453,54.05796985051622
8.248000000000001,0.9999979942909668,53.44013673555985
8.256,0.9999981509903045,52.82081093787251
8.264,0.9999983080581283,52.200000497398875
8.272,0.9999984654588006,51.57771373115627
8.280000000000001,0.999998623156187,50.95395923455002
8.288,0.9999987811136668,50.32874588259842
8.296,0.9999989392941435,49.70208283106485
8.304,0.999999097660056,49.073979517495495
8.312,0.9999992561733912,48.4444456621596
8.32,0.9999994147956957,47.813491268888484
8.328,0.9999995734880877,47.18112662581394
8.336,0.9999997322112719,46.54736230600002
8.344,0.9999998909255531,45.91220916796961
8.352,1.0,45.27567835611966
8.36,1.0,44.637781301026884
8.368,1.0,43.99852971963746
8.376,1.0,43.35793561534299
8.384,1.0,42.716011277936346
8.392,0.9999999999999999,42.07276928344977
8.4,0.9999999999999999,41.42822249386847
8.408,0.9999999999999999,40.7823840567231
8.416,0.9999999999999999,40.13526740455398
8.424,1.0,39.486886254250585
8.432,0.9999999999999999,38.83725460625952
8.44,1.0,38.1863867436644
8.448,1.0,37.53429723113151
8.456,1.0,36.88100091372435
8.464,1.0,36.2265129155812
8.472,1.0,35.570848638459395
8.48,0.9999999999999999,34.914023760140196
8.488,1.0,34.25605423269847
8.496,0.9999999999999999,33.59695628063107
8.504,1.0,32.93674639884833
8.512,0.9999999999999999,32.275441350523145
8.52,1.0,31.613058164801902
8.528,1.0,30.94961413437211
8.536,1.0,30.28512681289116
8.544,1.0,29.61961401227155
8.552,0.9999999999999999,28.953093799827077
8.56,1.0,28.2855844952756
8.568,0.9999999999999999,27.61710466760308
8.576,0.9999999999999999,26.947673131784864
8.584,1.0,26.277308945369413
8.592,0.9999999999999999,25.606031404920156
8.6,1.0,24.933860042321463
8.608,1.0,24.2608146209445
8.616,1.0,23.5869151316791
8.624,0.9999999999999999,22.9121817888281
8.632,1.0,22.23663502587007
8.64,1.0,21.560295491087494
8.648,1.0,20.88318404306665
8.656,0.9999999999999999,20.205321746066186
8.664,1.0,19.526729865261213
8.672,0.9999999999999999,18.84742986186033
8.68,0.9999999999999999,18.16744338810225
8.688,1.0,17.486792282129933
8.696,0.9999999999999999,16.80549856274946
8.704,0.9999999999999998,16.12358442407129
8.712,1.0,15.441072230041708
8.72,1.0,14.75798450886251
8.728,1.0,14.074343947306652
8.736,0.9999999999999999,13.390173384928335
8.744,1.0,12.70549580817559
8.752,0.9999999999999999,12.02033434440392
8.76,0.9999999999999999,11.334712255799362
8.768,0.9999999999999999,10.648652933209801
8.776,1.0,9.962179889893076
8.784,0.9999999999999999,9.275316755180837
8.792,1.0,8.588087268067154
8.8,1.0,7.9005152707207476
8.808,0.9999999999999999,7.212624701930192
8.815999999999999,1.0,6.524439590481267
8.824,1.0,5.835984048474884
8.832,0.9999999999999999,5.147282264588049
8.84,0.9999999999999999,4.4583584972819885
8.847999999999999,1.0,3.769237067962567
8.856,1.0,3.079942354098132
8.864,1.0,2.3904987822988866
8.872,1.0,1.7009308213618124
8.879999999999999,1.0,1.0112629752865154
8.888,1.0,0.3215197762673727
8.896,0.9999999999999998,-0.36827422233384355
8.904,1.0,-1.058094453030618
8.911999999999999,0.9999999999999999,-1.7479163412642236
8.92,1.0,-2.437715312460577
8.928,0.9999999999999999,-3.1274667990872564
8.936,0.9999999999999999,-3.817146247706344
8.943999999999999,0.9999999999999999,-4.5067291260176905
8.952,0.9999999999999999,-5.196190929887121
8.96,0.9999999999999999,-5.885507190355334
8.968,1.0,-6.574653480623333
8.975999999999999,0.9999999999999999,-7.263605423009046
8.984,0.9999999999999999,-7.952338695869706
8.992,0.9999999999999999,-8.640829040485931
9.0,0.9999999999999999,-9.32905226790358
9.008,1.0,-10.016984265727986
9.016,0.9999999999999999,-10.704601004865646
9.024000000000001,1.0,-11.391878546209318
9.032,1.0,-12.078793047262925
9.04,1.0,-12.765320768701212
9.048,1.0,-13.451438080859376
9.056000000000001,1.0,-14.137121470149143
9.064,0.9999999999999999,-14.822347545397747
9.072,0.9999999999999999,-15.50709304410548
9.08,1.0,-16.19133483861708
9.088000000000001,1.0,-16.87504994220395
9.096,1.0,-17.558215515054247
9.104,0.9999999999999999,-18.240808870166525
9.112,0.9999999999999999,-18.92280747914307
9.120000000000001,0.9999999999999999,-19.604188977880256
9.128,0.9999999999999999,-20.284931172153065
9.136,1.0,-20.96501204309069
9.144,0.9999999999999999,-21.644409752539108
9.152000000000001,0.9999999999999999,-22.323102648308776
9.16,1.0,-23.001069269305443
9.168,1.0,-23.678288350540786
9.176,0.9999999999999999,-24.35473882801988
9.184000000000001,0.9999999999999999,-25.030399843504206
9.192,0.9999999999999998,-25.705250749148135
9.2,0.9999999999999999,-26.379271112007014
9.208,0.9999999999999999,-27.052440718413763
9.216000000000001,1.0,-27.724739578223488
9.224,1.0,-28.396147928924673
9.232,0.9999999999999999,-29.06664623961547
9.24,1.0,-29.736215214842847
9.248000000000001,1.0,-30.40483579830431
9.256,1.0,-31.072489176411676
9.264,1.0,-31.739156781715707
9.272,0.9999999999999999,-32.404820296190074
9.280000000000001,1.0,-33.0694616543749
9.288,1.0,-33.73306304637998
9.296,1.0,-34.395606920746836
9.304,1.0,-35.05707598716888
9.312000000000001,1.0,-35.71745321907022
9.32,0.9999999999999999,-36.376721856043986
9.328,1.0,-37.03486540614958
9.336,1.0,-37.691867648068936
9.344,1.0,-38.34771263312248
9.352,0.9999999999999999,-39.0023846871471
9.36,0.9999999999999999,-39.655868412233275
9.368,1.0,-40.30814868832667
9.376,1.0,-40.95921067469048
9.384,0.9999999999999999,-41.609039811234204
9.392,1.0,-42.2576218197056
9.4,1.0,-42.904942704751264
9.408,1.0000000000000002,-43.550988754843104
9.416,1.0,-44.19574654307648
9.424,1.0,-44.839202927836844
9.432,1.0,-45.48134505334151
9.44,1.0,-46.12216035005308
9.448,1.0,-46.7616365349717
9.456,0.9999999999999999,-47.3997616118026
9.464,1.0,-48.036523871006054
9.472,1.0,-48.67191188972675
9.48,1.0,-49.30591453160967
9.488,1.0,-49.93852094649944
9.496,0.9999999999999999,-50.5697205700306
9.504,0.9999999999999999,-51.199503123105806
9.512,1.0,-51.82785861126924
9.52,1.0,-52.454777323972856
9.528,1.0,-53.08024983374228
9.536,1.0,-53.704266995240474
9.544,0.9999999999999998,-54.32681994423585
9.552,1.0,-54.94790009647298
9.56,1.0,-55.56749914645279
9.568,1.0,-56.185609066120364
9.576,1.0,-56.80222210346732
9.584,0.9999999999999999,-57.41733078104671
9.592,0.9999999999999999,-58.030927894407704
9.6,1.0,-58.64300651044807
9.608,0.9999999999999999,-59.25355996569143
9.616,1.0,-59.862581864487545
9.624,1.0,-60.47006607714239
9.632,1.0,-61.076006737976684
9.64,0.9999999999999998,-61.68039824331924
9.648,1.0,-62.283235249433865
9.656,0.9999999999999998,-62.88451267038636
9.664,0.9999999999999999,-63.48422567584991
9.672,0.9999999999999999,-64.082369688856
9.68,1.0,-64.67894038348865
9.688,0.9999999999999999,-65.27393368252892
9.696,1.0,-65.86734575504805
9.704,1.0,-66.45917301395576
9.712,1.0,-67.04941211350189
9.72,0.9999999999999999,-67.63805994673805
9.728,1.0,-68.2251136429376
9.736,1.0,-68.81057056498014
9.744,1.0,-69.39442830669894
9.752,1.0,-69.97668469019776
9.76,1.0,-70.55733776313478
9.768,1.0,-71.13638579598049
9.776,1.0,-71.71382727924724
9.784,1.0,-72.2896609206968
9.792,1.0,-72.8638856425239
9.8,1.0,-73.43650057852193
9.808,1.0,-74.0075050712287
9.816,0.9999999999999999,-74.57689866905824
9.824,1.0,-75.14468112341666
9.832,0.9999999999999999,-75.71085238580787
9.84,1.0,-76.275412604927
9.847999999999999,0.9999999999999999,-76.8383621237472
9.856,1.0,-77.39970147659851
9.864,0.9999999999999998,-77.95943138624173
9.872,0.9999999999999999,-78.51755276093967
9.879999999999999,0.9999999127057292,-79.07406669152627
