freq,mag,phase
6.0,0.9999918307761192,178.8113953468277
6.003590656,0.9999662336098665,178.5751307673851
6.007181312,0.999942062615246,178.33924052262276
6.010771968,0.9999215795325944,178.10369136090364
6.014362624,0.9999060468450414,177.86844406006645
6.01795328,0.9998965982882326,177.63340676077843
6.021543936,0.9998934174098778,177.39844127493154
6.025134592,0.9998971679472175,177.1635215677185
6.028725248,0.9999072924403178,176.92853230654612
6.032315904,0.9999232711846897,176.69335338710283
6.03590656,0.9999440875498994,176.45796948595813
6.039497216,0.9999686312722805,176.2222942025462
6.043087872,0.9999951764738146,175.98627538293007
6.046678528,1.000022394936245,175.74988696567368
6.050269184,1.0000484620743457,175.51316399331702
6.05385984,1.0000717833378805,175.27609761430432
6.057450496,1.000090959663733,175.0387473685392
6.061041152,1.0001048994388306,174.8011928291554
6.064631808,1.000112690147452,174.56353460357147
6.068222464,1.0001138870493422,174.3258271905507
6.07181312,1.0001083846326135,174.088159804006
6.075403776,1.0000965528046681,173.85064139469367
6.078994432,1.0000790810452354,173.61338525025914
6.082585088,1.0000569995787594,173.37640942224346
6.086175744,1.0000316288995577,173.13982057762925
6.0897664,1.0000047431660921,172.90361398827804
6.093357056,0.9999776246066703,172.66781873830283
6.096947712,0.9999521903857218,172.43242096857531
6.100538368,0.999929839048146,172.19740068425358
6.104129024,0.99991197243452,171.96269136064998
6.10771968,0.9998996393354719,171.7282083231515
6.111310848,0.9998938379884723,171.49389661547738
6.114901504,0.9998944631779966,171.25964744935945
6.11849216,0.9999018191434649,171.02538995395668
6.122082816,0.9999153886611643,170.79096701679362
6.125673472,0.999934156793825,170.55636648969934
6.129264128,0.9999573418241219,170.32147789760458
6.132854784,0.9999833115190965,170.08630080539984
6.13644544,1.000010613441661,169.85073704966265
6.140036096,1.0000372867377176,169.6148359474721
6.143626752,1.000062269972389,169.37862520202174
6.147217408,1.0000834607272626,169.14205927481166
6.150808064,1.0000999420599666,168.90528037816287
6.15439872,1.0001105689598002,168.6683440749283
6.157989376,1.0001147128093062,168.4313258761412
6.161580032,1.0001120933093266,168.1942824394428
6.165170688,1.0001029654625975,167.9573999771384
6.168761344,1.0000877441958163,167.7207121049997
6.172352,1.0000674254919677,167.48428923908745
6.175942656,1.0000433867364844,167.24822461931265
6.179533312,1.0000168792725284,167.01253091807737
6.183123968,0.9999895156513731,166.7772672946611
6.186714624,0.9999630361730546,166.54241569381588
6.19030528,0.9999390264157768,166.30795399350174
6.193895936,0.9999189354819326,166.0738094243308
6.197486592,0.9999040358864834,165.8399693928032
6.201077248,0.9998951845577606,165.60632379109296
6.204667904,0.9998928851369632,165.37275316648288
6.20825856,0.9998973857006574,165.13922778887624
6.211849216,0.9999082720449103,164.9056246647381
6.215439872,0.9999250747915331,164.67183936855167
6.219030528,0.9999465849772534,164.43783630162798
6.222621184,0.9999715109975249,164.20350977988366
6.22621184,0.9999985815629516,163.96882913505044
6.229802496,1.0000258249847023,163.73381643508543
6.233393152,1.0000518432935148,163.49845183718676
6.236983808,1.0000748638948267,163.26276287038408
6.240574464,1.0000936161527796,163.02681997090912
6.24416512,1.0001069979116646,162.79066887482716
6.247755776,1.0001140914446713,162.55438644360748
6.251346432,1.0001145018038635,162.31808548560167
6.254937088,1.0001081867741468,162.08187659647086
6.258527744,1.000095528186077,161.8458124303048
6.2621184,1.0000772790122945,161.6100091712818
6.265709056,1.000054528514864,161.37453143621963
6.269299712,1.0000288502151315,161.13941326274315
6.272890368,1.0000015602308956,160.90469976792505
6.276481024,0.9999743875462,160.670429629698
6.28007168,0.9999489571669883,160.43655612965233
6.283662336,0.9999269924805315,160.20301045719162
6.287252992,0.9999095933213386,159.9698265196837
6.290843648,0.9998979152803866,159.73687136061926
6.294434304,0.9998926885666167,159.50404513412323
6.29802496,0.9998941582075763,159.27126859145685
6.301615616,0.999902472440682,159.03847107146703
6.305206272,0.9999167548200742,158.80555700777262
6.308796928,0.9999363436447457,158.57242139505703
6.312387584,0.9999601556121901,158.33900529375978
6.31597824,0.9999865371008756,158.10527754550264
6.319568896,1.0000141327862273,157.87119188761747
6.323159552,1.0000408504045366,157.6367513961437
6.326750208,1.0000655826084763,157.40195476239376
6.330340864,1.000086502311448,157.16687115597574
6.333932032,1.0001023726134486,156.93156431175044
6.337522688,1.0001122813926364,156.6961201096626
6.341113344,1.000115723977441,156.4606008158423
6.344704,1.0001122944679348,156.225112210595
6.348294656,1.000102209296021,155.98975953947337
6.351885312,1.0000862382657671,155.75460716436132
6.355475968,1.000065383165229,155.51973800716695
6.359066624,1.0000405967285684,155.28526351257403
6.36265728,1.0000136854687534,155.05114642797224
6.366247936,0.9999861937297968,154.81746466494695
6.369838592,0.9999596986448839,154.5842272878777
6.373429248,0.9999359166865676,154.35133323286178
6.377019904,0.9999162753550807,154.11882228963606
6.38061056,0.999901912304886,153.8865509052439
6.384201216,0.9998937999995287,153.6544851044108
6.387791872,0.9998922946020979,153.4225261432035
6.391382528,0.9998976601287028,153.1905817062643
6.394973184,0.9999092867689267,152.95851806648528
6.39856384,0.9999269147013775,152.72630045436125
6.402154496,0.9999491008978435,152.4938255201293
6.405745152,0.9999746794148716,152.26104233364808
6.409335808,1.0000020121948208,152.027914986755
6.412926464,1.0000294921495314,151.79441827911236
6.41651712,1.0000553852215879,151.56059704463067
6.420107776,1.0000781880009753,151.32644758973495
6.423698432,1.00009649639265,151.0920322561448
6.427289088,1.0001091533863338,150.85744786563805
6.430879744,1.0001154657216935,150.62276091871033
6.4344704,1.0001150312314384,150.38804736286252
6.438061056,1.0001078077706786,150.15344060568725
6.441651712,1.0000943727669738,149.91899524191246
6.445242368,1.0000752411078988,149.68481828701468
6.448833024,1.0000520180125414,149.4509957182144
6.45242368,1.000025752774088,149.21753930662524
6.456014336,0.9999981034191014,148.98450287660162
6.459604992,0.9999709429779203,148.7518739669016
6.463195648,0.9999457233573382,148.51967506852992
6.466786304,0.9999239753577297,148.2878246833063
6.47037696,0.9999071338174123,148.0562988870898
6.473967616,0.9998961579834448,147.82499718955734
6.477558272,0.9998918072502301,147.59382788399776
6.481148928,0.9998941198962179,147.362741510044
6.484739584,0.9999032178210515,147.13156922887072
6.48833024,0.9999183531519874,146.90027928899698
6.491920896,0.9999387950246791,146.66875777904409
6.495511552,0.9999630709454853,146.43696315230096
6.499102208,0.9999899198405736,146.20482314402875
6.502692864,1.0000176478806257,145.97233329793184
6.50628352,1.0000445805087148,145.7394799845255
6.509874176,1.0000689490846135,145.50631041782663
6.513464832,1.0000894389635318,145.2728554448273
6.517055488,1.000104706870081,145.0391521971356
6.520646144,1.000114040829877,144.80535021768992
6.5242368,1.000116466800208,144.57148047221926
6.527827456,1.0001122864171512,144.33766366623567
6.531418112,1.000101299647364,144.1039761515336
6.535008768,1.0000845889210697,143.87051909136392
6.538599424,1.0000627849688632,143.63736416177278
6.54219008,1.0000375951611715,143.40459633826538
6.545780736,1.0000103194943135,143.17221755278214
6.549371392,0.9999825276918626,142.94028978252166
6.552962048,0.9999561210767076,142.7087543851856
6.556553216,0.9999327310488266,142.47761512801986
6.560143872,0.9999134939311786,142.24680788441378
6.563734528,0.9998997096326812,142.01629777912083
6.567325184,0.9998923752556697,141.78594141280556
6.57091584,0.9998917708583719,141.5556839697406
6.574506496,0.9998980435519933,141.3254159616428
6.578097152,0.9999107530832141,141.0950828393405
6.581687808,0.9999289758735749,140.86454033750044
6.585278464,0.9999518825078865,140.63369886603323
6.58886912,0.9999779365057642,140.40258846932915
6.592459776,1.0000056093895189,140.171114001105
6.596050432,1.0000332524971933,139.93930565527063
6.599641088,1.0000589823892847,139.70712286235576
6.603231744,1.0000814085811365,139.47465916944864
6.6068224,1.000099292650478,139.24191643114372
6.610413056,1.0001111670554297,139.00901967469676
6.614003712,1.000116712084536,138.77602028461865
6.617594368,1.0001152478579964,138.54300199656583
6.621185024,1.0001072910853928,138.31012850282428
6.62477568,1.0000929272966057,138.07742491029694
6.628366336,1.0000730312033892,137.84500844473874
6.631956992,1.000049026951478,137.61293521925788
6.635547648,1.0000223694173416,137.38126984740165
6.639138304,0.9999944440590399,137.15000111591428
6.64272896,0.9999672542040354,136.9191614485966
6.646319616,0.9999421840980915,136.688747533946
6.649910272,0.9999208891065842,136.45870141599985
6.653500928,0.9999045728430316,136.22895519061407
6.657091584,0.9998943635202607,135.99940836288397
6.66068224,0.9998907997080752,135.77002235329164
6.664272896,0.9998941189810451,135.5406554051782
6.667863552,0.9999040991055651,135.31122894752357
6.671454208,0.9999201189967556,135.08167390877935
6.675044864,0.9999413276922773,134.85184816532254
6.67863552,0.9999662211733851,134.62177277819808
6.682226176,0.9999935651266402,134.3913468197258
6.685816832,1.0000214963616263,134.1605666844929
6.689407488,1.0000482863703908,133.9294054225062
6.692998144,1.0000724679940947,133.6979386408388
6.6965888,1.0000925363493183,133.46618495583826
6.700179456,1.0001072737694785,133.23424420192424
6.703770112,1.0001155998284061,133.00215013878886
6.707360768,1.0001172541176284,132.77001708908003
6.710951424,1.000112078384623,132.53794736006145
6.71454208,1.0001002495621958,132.30606101272156
6.718132736,1.000082545121836,132.07438101656925
6.721723392,1.000060142645815,131.8430339464972
6.725314048,1.0000343074992888,131.61206809825063
6.728904704,1.0000065932335185,131.38152681780016
6.73249536,0.999978754583808,131.1513807238501
6.736086016,0.999952407225521,130.92168622900112
6.739676672,0.9999292052585138,130.69236345973545
6.743267328,0.9999105183329599,130.46340295492894
6.746857984,0.999897575412695,130.23469164070193
6.75044864,0.9998910053450714,130.00614351931063
6.754039296,0.9998913314817115,129.7776749311205
6.757629952,0.9998984914845043,129.5491872471413
6.761220608,0.9999120736505824,129.3206039144615
6.764811264,0.9999313584303348,129.09181935004614
6.76840192,0.9999548387393039,128.86275628862634
6.771992576,0.999981447978816,128.6333824945432
6.775583232,1.0000094429926045,128.40362616047176
6.7791744,1.0000371283773772,128.1735429447531
6.782765056,1.0000626975504345,127.94311322908648
6.786355712,1.0000848490707188,127.71235830769916
6.789946368,1.0001019899122217,127.48136670422276
6.793537024,1.0001132039538538,127.25021627690353
6.79712768,1.000117886367905,127.01898668321904
6.800718336,1.0001155393816556,126.78778978909415
6.804308992,1.0001065070114683,126.55669560268929
6.807899648,1.0000911902713931,126.32580933105862
6.811490304,1.0000705898210105,126.09519334503514
6.81508096,1.0000459970038333,125.86495294932891
6.818671616,1.0000187123163016,125.63512163002429
6.822262272,0.9999906298032221,125.40571791783526
6.825852928,0.9999633001104716,125.17674652060659
6.829443584,0.9999384389184156,124.94817360455906
6.83303424,0.9999176092328574,124.71997752791518
6.836624896,0.9999019968251662,124.49205788663873
6.840215552,0.9998925085788545,124.26435629346526
6.843806208,0.9998898997324924,124.03678873910195
6.847396864,0.9998942035883921,123.80922653760489
6.85098752,0.9999051240274746,123.58159595238962
6.854578176,0.9999220568258248,123.3538067709335
6.858168832,0.9999440044118845,123.12580020835118
6.861759488,0.9999695887001122,122.8974499424382
6.865350144,0.9999972744485994,122.66876935082284
6.8689408,1.000025418074568,122.4397418246293
6.872531456,1.0000521341410662,122.21034601447651
6.876122112,1.0000760795813297,121.98064026545872
6.879712768,1.0000955690585118,121.7506449990733
6.883303424,1.0001095655215666,121.52044017567675
6.88689408,1.0001170947432088,121.2901457237209
6.890484736,1.0001178002585853,121.05981030482916
6.894075392,1.0001115430912584,120.8295578152423
6.897666048,1.000098768661274,120.59945133921603
6.901256704,1.0000802883069266,120.36963250722987
6.90484736,1.0000570358370071,120.140123787397
6.908438016,1.000030643573508,119.9110119630645
6.912028672,1.0000025794256784,119.68233684803965
6.915619328,0.9999746001821762,119.45408678223842
6.919209984,0.9999484488527262,119.22626402854016
6.92280064,0.999925611354942,118.99879666189888
6.926391296,0.9999075403780859,118.77169374174456
6.929981952,0.9998953466000864,118.54482268030023
6.933572608,0.9998895965903501,118.3181125384392
6.937163264,0.9998909853819877,118.09146829315776
6.94075392,0.999899091099773,117.86480316442972
6.944344576,0.9999136370506685,117.63799167963106
6.947935232,0.9999336840264181,117.41099426108111
6.951525888,0.9999578914161971,117.18370199587652
6.955116544,0.9999851059451033,116.95609022494968
6.9587072,1.0000134744683056,116.72812111806775
6.962297856,1.0000410873162042,116.49978567356234
6.965888512,1.0000665149903227,116.27109768780768
6.969479168,1.0000882214609332,116.04212758892672
6.973069824,1.0001046594795733,115.81290617537432
6.97666048,1.0001151100454386,115.58351554007675
6.980251136,1.0001187696945764,115.35409352035974
6.983841792,1.0001155273307958,115.1246896443669
6.987432448,1.000105355379337,114.89542224751612
6.991023104,1.0000891388011617,114.66636407663817
6.99461376,1.000067696884174,114.43761612505587
6.998204416,1.000042390995453,114.20922801839068
7.001795584,1.000014701245627,113.98126782924555
7.00538624,0.9999863173591392,113.7537246266298
7.008976896,0.9999591317326474,113.52663249470389
7.012567552,0.999934488278718,113.29993831407131
7.016158208,0.9999140781510806,113.0735913809342
7.019748864,0.9998991467655438,112.8475240010346
7.02333952,0.9998906534938514,112.6216898588951
7.026930176,0.9998889639445537,112.39593225202303
7.030520832,0.9998942777633274,112.17020114247048
7.034111488,0.9999061858556881,111.94437637041524
7.037702144,0.9999240237899681,111.71837893772152
7.0412928,0.9999468401123723,111.49212154408863
7.044883456,0.9999730568918533,111.26557085734633
7.048474112,1.0000011292688122,111.03863852807348
7.052064768,1.0000293416767534,110.81136874320742
7.055655424,1.000056140148574,110.58372374770984
7.05924608,1.000079661234293,110.35576219931531
7.062836736,1.0000987328896884,110.12754251042956
7.066427392,1.000111921911214,109.89912341819726
7.070018048,1.0001184638770713,109.67058090733173
7.073608704,1.000118190742183,109.44203929100341
7.07719936,1.0001109671796413,109.21359242002669
7.080790016,1.0000971223324193,108.98534239232433
7.084380672,1.0000777249031954,108.75735142054158
7.087971328,1.0000538257590454,108.52969352058174
7.091561984,1.0000267655360653,108.30244320472431
7.09515264,0.9999983610414007,108.0756094699082
7.098743296,0.9999703270985585,107.8492299486449
7.102333952,0.9999443207691275,107.62326768279603
7.105924608,0.9999217761935077,107.39767890519046
7.109515264,0.9999044284775516,107.17240533282101
7.11310592,0.9998930433071933,106.94738070026439
7.116696576,0.9998883161290008,106.72251066418254
7.120287232,0.9998905812500555,106.49768672460303
7.123877888,0.9998998288472069,106.27282474706942
7.127468544,0.9999153510559802,106.04780806748298
7.1310592,0.9999363310452144,105.82257848937867
7.134649856,0.9999613007452179,105.59704166220939
7.138240512,0.9999889935738042,105.37117707173269
7.141831168,1.0000175064791312,105.14494469806539
7.145421824,1.0000451586823251,104.91833489634158
7.14901248,1.000070421321109,104.69139600232994
7.152603136,1.0000915733076943,104.46416257097296
7.156193792,1.0001074566562584,104.23669973597185
7.159784448,1.000117039083391,104.00910466708581
7.163375104,1.0001196478751042,103.78142065405679
7.16696576,1.0001153635798528,103.55381412888708
7.170556416,1.000104270733657,103.32631578829587
7.174147072,1.0000869706548965,103.0991010383943
7.177737728,1.0000646877350088,102.87219255744452
7.181328384,1.0000387339090815,102.64563833047843
7.18491904,1.0000105257931708,102.41951842208047
7.188509696,0.9999820401964303,102.19384237072337
7.192100352,0.9999548203729238,101.96858749835935
7.195691008,0.9999305687692687,101.74374119672702
7.199281664,0.9999107502395459,101.51922465273024
7.20287232,0.9998966261057324,101.29500041355911
7.206462976,0.9998889480210171,101.07095100359967
7.210053632,0.9998882753156033,100.84701948792976
7.213644288,0.9998946329736874,100.62305545215102
7.217234944,0.9999076615107367,100.39902151565704
7.2208256,0.9999265122934746,100.17477841793702
7.224416768,0.9999500553571006,99.95025958138893
7.228007424,0.999976882240006,99.72541938513166
7.23159808,1.0000053451879687,99.50022806235093
7.235188736,1.0000337628345681,99.27466078918498
7.238779392,1.0000603494950109,99.04873802897374
7.242370048,1.0000835407732727,98.82249557858398
7.245960704,1.0001018567237432,98.5959807706783
7.24955136,1.0001142878603957,98.36928724726215
7.253142016,1.0001198635432513,98.14250974610064
7.256732672,1.0001185307889882,97.91573457366475
7.260323328,1.0001101548037434,97.689049279597
7.263913984,1.0000953225879567,97.46257873850935
7.26750464,1.000074986563944,97.23638522025209
7.271095296,1.0000502249528616,97.0105429176405
7.274685952,1.000022634804405,96.78509799363684
7.278276608,0.9999939549512952,96.56011555123564
7.281867264,0.9999657399684733,96.33554567166958
7.28545792,0.9999400332468773,96.11140178772173
7.289048576,0.9999179691369756,95.88762901163217
7.292639232,0.9999012500007584,95.66418151192559
7.296229888,0.9998907325639661,95.44093091105108
7.299820544,0.9998870881255136,95.21783651355446
7.3034112,0.9998905081887007,94.99477155446282
7.307001856,0.9999008170524736,94.77166193260182
7.310592512,0.9999174114956687,94.548369059422
7.314183168,0.9999392495151785,94.32484536831392
7.317773824,0.9999649796471579,94.10102313931706
7.32136448,0.9999930560720978,93.87685523067516
7.324955136,1.0000217866609296,93.65231079227729
7.328545792,1.0000495656533488,93.42737469524377
7.332136448,1.0000744722626895,93.20213139534526
7.335727104,1.0000951461436134,92.97658339471396
7.33931776,1.0001102278602565,92.75080542780735
7.342908416,1.0001187814546693,92.52490593772721
7.346499072,1.0001204746159944,92.29896112600433
7.350089728,1.0001149552411883,92.07305007555023
7.353680384,1.0001026685576107,91.84733095991923
7.35727104,1.0000845043166813,91.62186581321693
7.360861696,1.000061394010496,91.39671752423587
7.364452352,1.0000346727473794,91.17196185177457
7.368043008,1.000006052969354,90.94761137964032
7.371633664,0.9999773132883574,90.72372777045234
7.37522432,0.999950256711402,90.50025545837026
7.378814976,0.9999263483066992,90.27719604322931
7.382405632,0.9999070510746557,90.05445179566858
7.385996288,0.9998937909900842,89.8320058606115
7.389586944,0.9998871798391128,89.60971230600401
7.3931776,0.9998875590342359,89.38749113883001
7.396768256,0.9998950526261132,89.16526641168869
7.400358912,0.9999091721294256,88.94289316149788
7.403949568,0.9999290099772089,88.72033236234662
7.407540224,0.9999533906200077,88.49750238727228
7.41113088,0.999980865579422,88.27431546056235
7.414721536,1.0000096583710865,88.05077344040484
7.418312192,1.0000381951491508,87.82684037817904
7.421902848,1.000064626451445,87.60254303625649
7.425493504,1.000087306769105,87.37794067867354
7.42908416,1.0001050479474267,87.15309517180114
7.432674816,1.000116472639232,86.92805947669429
7.436265472,1.0001211440505482,86.70294422892934
7.439856128,1.000118542077937,86.47785261643739
7.443446784,1.000109092233388,86.25287068766954
7.447037952,1.0000931205761197,86.02809741791005
7.450628608,1.0000718885887636,85.80362651533365
7.454219264,1.0000463861471778,85.57951302148162
