freq,mag,phase
6.0,0.9999937852772973,-152.20902287165111
6.008,0.9999938918940176,-152.55072324054044
6.016,0.9999939848333822,-152.89209186774602
6.024,0.999994064493338,-153.23313269943316
6.032,0.9999941312651233,-153.57384968244742
6.04,0.99999418553334,-153.91424676424887
6.048,0.9999942276760332,-154.25432789284943
6.056,0.9999942580647638,-154.594097016752
6.064,0.9999942770646817,-154.93355808489252
6.072,0.9999942850346023,-155.27271504658447
6.08,0.9999942823270765,-155.61157185146533
6.088,0.9999942692884687,-155.95013244944573
6.096,0.999994246259022,-156.28840079066092
6.104,0.9999942135729355,-156.6263808254242
6.112,0.9999941715584338,-156.96407650418297
6.12,0.9999941205378391,-157.30149177747657
6.128,0.9999940608276385,-157.63863059589667
6.136,0.9999939927385575,-157.97549691004963
6.144,0.999993916575627,-158.3120946705209
6.152,0.9999938326382511,-158.64842782784152
6.16,0.9999937412202796,-158.98450033245663
6.168,0.9999936426100714,-159.3203161346962
6.176,0.9999935370905628,-159.65587918474745
6.184,0.9999934249393367,-159.99119343262907
6.192,0.9999933064286853,-160.32626282816798
6.2,0.9999931818256778,-160.66109132097736
6.208,0.999993051392224,-160.99568286043646
6.216,0.9999929153851413,-161.33004139567305
6.224,0.9999927740562172,-161.66417087554646
6.232,0.9999926276522711,-161.99807524863326
6.24,0.9999924764152207,-162.33175846321456
6.248,0.9999923205821416,-162.66522446726435
6.256,0.9999921603853328,-162.99847720844025
6.264,0.9999919960523702,-163.3315206340756
6.272,0.9999918278061805,-163.66435869117294
6.28,0.9999916558650884,-163.99699532639949
6.288,0.9999914804428814,-164.32943448608367
6.296,0.9999913017488736,-164.66168011621374
6.304,0.999991119987956,-164.99373616243722
6.312,0.9999909353606626,-165.3256065700623
6.32,0.9999907480632214,-165.65729528406052
6.328,0.999990558287615,-165.9888062490708
6.336,0.999990366221638,-166.3201434094047
6.344,0.9999901720489505,-166.6513107090536
6.352,0.9999899759491364,-166.98231209169631
6.36,0.999989778097752,-167.31315150070898
6.368,0.9999895786663919,-167.64383287917516
6.376,0.9999893778227315,-167.97436016989823
6.384,0.9999891757305869,-168.30473731541414
6.392,0.999988972549967,-168.63496825800593
6.4,0.9999887684371237,-168.96505693971903
6.408,0.9999885635446045,-169.29500730237802
6.416,0.9999883580213064,-169.62482328760416
6.424,0.9999881520125234,-169.95450883683432
6.432,0.9999879456600004,-170.28406789134058
6.44,0.9999877391019777,-170.6135043922516
6.448,0.999987532473247,-170.94282228057403
6.456,0.9999873259051946,-171.27202549721565
6.464,0.9999871195258542,-171.6011179830093
6.472,0.9999869134599498,-171.93010367873737
6.48,0.9999867078289484,-172.25898652515787
6.4879999999999995,0.9999865027511049,-172.58777046303084
6.496,0.9999862983415051,-172.9164594331459
6.504,0.999986094712118,-173.2450573763504
6.5120000000000005,0.999985891971836,-173.573568233579
6.52,0.9999856902265208,-173.90199594588307
6.5280000000000005,0.9999854895790505,-174.23034445446203
6.536,0.999985290129363,-174.5586177006941
6.5440000000000005,0.999985091974496,-174.88681962616934
6.552,0.9999848952086337,-175.2149541727219
6.5600000000000005,0.9999846999231484,-175.5430252824642
6.568,0.9999845062066439,-175.8710368978206
6.5760000000000005,0.9999843141449933,-176.19899296156316
6.584,0.9999841238213864,-176.52689741684617
6.592,0.9999839353163641,-176.85475420724336
6.6,0.9999837487078638,-177.18256727678389
6.608,0.9999835640712567,-177.51034056998995
6.616,0.999983381479388,-177.8380780319146
6.624,0.9999832010026168,-178.16578360818008
6.632,0.9999830227088533,-178.4934612450166
6.64,0.9999828466635984,-178.82111488930173
6.648,0.999982672929979,-179.14874848860018
6.656,0.9999825015687906,-179.47636599120398
6.664,0.9999823326385271,-179.80397134617306
6.672,0.9999821661954243,179.86843149662374
6.68,0.9999820022934923,179.54083858646732
6.688,0.9999818409845503,179.2132459717465
6.696,0.999981682318266,178.88564969991612
6.704,0.9999815263421861,178.55804581745457
6.712,0.9999813731017739,178.23043036982133
6.72,0.9999812226404425,177.90279940141397
6.728,0.9999810749995883,177.57514895552487
6.736,0.9999809302186251,177.24747507429817
6.744,0.9999807883350165,176.919773798686
6.752,0.9999806493843086,176.5920411684048
6.76,0.9999805134001628,176.2642732218914
6.768,0.9999803804143869,175.93646599625902
6.776,0.9999802504569678,175.60861552725305
6.784,0.9999801235561008,175.28071784920684
6.792,0.9999799997382232,174.9527689949974
6.8,0.9999798790280423,174.62476499600086
6.808,0.999979761448566,174.2967018820482
6.816,0.9999796470211337,173.96857568138077
6.824,0.999979535765445,173.6403824206058
6.832,0.9999794276995885,173.312118124652
6.84,0.9999793228400702,172.98377881672516
6.848,0.9999792212018441,172.65536051826413
6.856,0.9999791227983377,172.3268592488961
6.864,0.9999790276414808,171.998271026393
6.872,0.9999789357417338,171.66959186662717
6.88,0.9999788471081126,171.34081778352785
6.888,0.9999787617482176,171.01194478903727
6.896,0.9999786796682595,170.68296889306737
6.904,0.999978600873085,170.3538861034565
6.912,0.9999785253662032,170.0246924259265
6.92,0.9999784531498108,169.69538386403994
6.928,0.9999783842248177,169.3659564191576
6.936,0.9999783185908715,169.0364060903964
6.944,0.9999782562463828,168.7067288745876
6.952,0.9999781971885497,168.37692076623526
6.96,0.9999781414133805,168.04697775747516
6.968,0.9999780889157194,167.7168958380342
6.976,0.9999780396892689,167.3866709951899
6.984,0.9999779937266132,167.05629921373065
6.992,0.9999779510192416,166.72577647591646
7.0,0.9999779115575708,166.3950987614397
7.008,0.9999778753309674,166.06426204738705
7.016,0.9999778423277705,165.73326230820143
7.024,0.9999778125353129,165.4020955156447
7.032,0.9999777859399444,165.07075763876097
7.04,0.9999777625270505,164.73924464384035
7.048,0.9999777422810758,164.40755249438348
7.056,0.9999777251855444,164.07567715106677
7.064,0.9999777112230808,163.743614571708
7.072,0.9999777003754282,163.41136071123296
7.08,0.9999776926234728,163.07891152164265
7.088,0.9999776879472596,162.74626295198112
7.096,0.9999776863260148,162.41341094830443
7.104,0.9999776877381641,162.08035145365
7.112,0.9999776921613528,161.74708040800704
7.12,0.9999776995724632,161.4135937482878
7.128,0.9999777099476358,161.0798874082996
7.136,0.9999777232622854,160.74595731871787
7.144,0.9999777394911219,160.41179940705993
7.152,0.9999777586081672,160.0774095976602
7.16,0.999977780586772,159.74278381164558
7.168,0.9999778053996354,159.40791796691272
7.176,0.9999778330188227,159.07280797810571
7.184,0.9999778634157813,158.73744975659517
7.192,0.9999778965613577,158.40183921045823
7.2,0.9999779324258162,158.06597224445977
7.208,0.9999779709788543,157.7298447600347
7.216,0.9999780121896182,157.39345265527152
7.224,0.999978056026723,157.05679182489715
7.232,0.9999781024582648,156.7198581602627
7.24,0.9999781514518381,156.3826475493308
7.248,0.9999782029745532,156.04515587666432
7.256,0.9999782569930484,155.70737902341583
7.264,0.9999783134735089,155.36931286731922
7.272,0.9999783723816802,155.03095328268222
7.28,0.999978433682884,154.69229614038028
7.288,0.9999784973420315,154.35333730785234
7.296,0.9999785633236414,154.0140726490976
7.304,0.9999786315918505,153.6744980246742
7.312,0.9999787021104319,153.33460929169917
7.32,0.9999787748428058,152.9944023038502
7.328,0.999978849752057,152.65387291136884
7.336,0.9999789268009455,152.31301696106547
7.344,0.9999790059519235,151.97183029632592
7.352,0.9999790871671465,151.63030875711982
7.36,0.999979170408488,151.28844818001073
7.368,0.9999792556375533,150.94624439816815
7.376,0.9999793428156909,150.60369324138097
7.384,0.9999794319040071,150.26079053607333
7.392,0.9999795228633792,149.91753210532218
7.4,0.9999796156544668,149.57391376887648
7.4079999999999995,0.9999797102377253,149.22993134317898
7.416,0.9999798065734183,148.8855806413891
7.4239999999999995,0.9999799046216306,148.5408574734094
7.432,0.9999800043422786,148.19575764591207
7.4399999999999995,0.9999801056951241,147.85027696236963
7.448,0.9999802086397862,147.50441122308604
7.4559999999999995,0.9999803131357518,147.15815622523164
7.464,0.999980419142389,146.8115077628787
7.4719999999999995,0.999980526618957,146.46446162704092
7.48,0.9999806355246192,146.11701360571362
7.4879999999999995,0.9999807458184531,145.76915948391792
7.496,0.9999808574594627,145.42089504374584
7.504,0.9999809704065891,145.0722160644093
7.5120000000000005,0.9999810846187207,144.72311832229008
7.52,0.9999812000547061,144.37359759099402
7.5280000000000005,0.9999813166733618,144.02364964140614
7.536,0.9999814344334872,143.67327024174986
7.5440000000000005,0.9999815532938704,143.3224551576477
7.552,0.9999816732133016,142.9712001521858
7.5600000000000005,0.999981794150583,142.61950098597993
7.568,0.9999819160645387,142.26735341724606
7.5760000000000005,0.9999820389140239,141.91475320187166
7.584,0.9999821626579373,141.56169609349197
7.5920000000000005,0.999982287255228,141.2081778435677
7.6,0.9999824126649086,140.85419420146675
7.6080000000000005,0.9999825388460616,140.49974091454808
7.616,0.9999826657578516,140.14481372824983
7.6240000000000006,0.9999827933595332,139.78940838617922
7.632,0.9999829216104618,139.43352063020703
7.640000000000001,0.9999830504701015,139.07714620056404
7.648,0.9999831798980359,138.72028083594208
7.656000000000001,0.9999833098539754,138.362920273597
7.664,0.999983440297768,138.00506024945665
7.672,0.9999835711894073,137.6466964982306
7.68,0.9999837024890418,137.2878247535249
7.688,0.9999838341569834,136.9284407479594
7.696,0.9999839661537165,136.56854021328908
7.704,0.9999840984399068,136.20811888052907
7.712,0.9999842309764073,135.84717248008315
7.72,0.9999843637242724,135.48569674187627
7.728,0.9999844966447597,135.12368739549083
7.736,0.9999846296993424,134.76114017030673
7.744,0.9999847628497178,134.39805079564547
7.752,0.9999848960578124,134.03441500091827
7.76,0.9999850292857926,133.67022851577798
7.768,0.9999851624960716,133.30548707027563
7.776,0.9999852956513174,132.94018639502042
7.784,0.9999854287144607,132.57432222134463
7.792,0.9999855616487036,132.20789028147226
7.8,0.9999856944175245,131.84088630869232
7.808,0.9999858269846893,131.47330603753645
7.816,0.999985959314257,131.10514520396075
7.824,0.9999860913705861,130.73639954553252
7.832,0.9999862231183447,130.36706480162124
7.84,0.9999863545225155,129.99713671359433
7.848,0.9999864855484041,129.6266110250174
7.856,0.9999866161616459,129.25548348185959
7.864,0.9999867463282132,128.88374983270324
7.872,0.9999868760144227,128.51140582895883
7.88,0.9999870051869412,128.13844722508466
7.888,0.9999871338127937,127.76486977881129
7.896,0.9999872618593698,127.39066925137159
7.904,0.9999873892944305,127.01584140773518
7.912,0.9999875160861149,126.64038201684856
7.92,0.9999876422029457,126.26428685188013
7.928,0.9999877676138379,125.88755169047073
7.936,0.9999878922881033,125.51017231498923
7.944,0.9999880161954579,125.13214451279379
7.952,0.9999881393060279,124.75346407649835
7.96,0.9999882615903558,124.37412680424475
7.968,0.9999883830194072,123.99412849998035
7.976,0.9999885035645758,123.61346497374143
7.984,0.9999886231976908,123.23213204194192
7.992,0.9999887418910214,122.85012552766837
8.0,0.9999888596172836,122.46744126098027
8.008,0.9999889763496461,122.08407507921652
8.016,0.9999890920617358,121.70002282730754
8.024000000000001,0.9999892067276431,121.31528035809389
8.032,0.9999893203219279,120.92984353265037
8.04,0.9999894328196248,120.54370822061617
8.048,0.99998954419625,120.15687030053165
8.056000000000001,0.9999896544278033,119.76932566018128
8.064,0.9999897634907777,119.38107019694237
8.072,0.9999898713621616,118.99209981814022
8.08,0.999989978019444,118.60241044141009
8.088000000000001,0.999990083440622,118.21199799506527
8.096,0.9999901876042031,117.82085841847164
8.104,0.9999902904892115,117.42898766242857
8.112,0.9999903920751929,117.0363816895567
8.120000000000001,0.999990492342218,116.64303647469247
8.128,0.9999905912708896,116.24894800528891
8.136,0.9999906888423442,115.85411228182325
8.144,0.9999907850382596,115.4585253182114
8.152000000000001,0.9999908798408569,115.06218314222967
8.16,0.9999909732329052,114.6650817959426
8.168,0.9999910651977272,114.26721733613795
8.176,0.9999911557192026,113.86858583476891
8.184000000000001,0.9999912447817711,113.46918337940336
8.192,0.9999913323704387,113.06900607367972
8.2,0.9999914184707793,112.66805003776996
8.208,0.9999915030689397,112.2663114088502
8.216000000000001,0.9999915861516431,111.86378634157813
8.224,0.9999916677061926,111.46047100857764
8.232,0.999991747720475,111.05636160093043
8.24,0.9999918261829638,110.65145432867536
8.248000000000001,0.9999919030827231,110.245745421315
8.256,0.9999919784094099,109.83923112832932
8.264,0.9999920521532781,109.43190771969637
8.272,0.999992124305181,109.02377148642117
8.280000000000001,0.9999921948565749,108.61481874107155
8.288,0.9999922637995199,108.20504581832135
8.296,0.9999923311266861,107.79444907550089
8.304,0.9999923968313525,107.38302489315534
8.312,0.999992460907412,106.97076967561057
8.32,0.9999925233493723,106.55767985154566
8.328,0.9999925841523587,106.14375187457422
8.336,0.9999926433121166,105.72898222383168
8.344,0.9999927008250126,105.31336740457175
8.352,0.9999927566880369,104.89690394876861
8.36,0.9999928108988051,104.47958841572836
8.368,0.9999928634555598,104.06141739270635
8.376,0.9999929143571715,103.64238749553347
8.384,0.9999929636031408,103.22249536924858
8.392,0.999993011193599,102.80173768873965
8.4,0.9999930571293102,102.38011115939118
8.408,0.9999931014116697,101.95761251774026
8.416,0.9999931440427087,101.5342385321388
8.424,0.9999931850250912,101.10998600342438
8.432,0.9999932243621169,100.68485176559724
8.44,0.9999932620577209,100.258832686506
8.448,0.9999932981164739,99.83192566853891
8.456,0.999993332543581,99.40412764932445
8.464,0.9999933653448853,98.97543560243696
8.472,0.9999933965268629,98.54584653811142
8.48,0.9999934260966257,98.11535750396362
8.488,0.9999934540619204,97.68396558571902
8.496,0.9999934804311265,97.25166790794691
8.504,0.9999935052132569,96.81846163480317
8.512,0.9999935284179557,96.38434397077836
8.52,0.9999935500554978,95.94931216145407
8.528,0.9999935701367874,95.5133634942645
8.536,0.9999935886733554,95.07649529926604
8.544,0.9999936056773587,94.63870494991224
8.552,0.999993621161579,94.19998986383628
8.56,0.9999936351394176,93.76034750363864
8.568,0.9999936476248975,93.31977537768233
8.576,0.9999936586326572,92.87827104089287
8.584,0.9999936681779488,92.43583209556574
8.592,0.9999936762766375,91.99245619217822
8.6,0.9999936829451951,91.54814103020864
8.608,0.9999936882006988,91.10288435895961
8.616,0.999993692060828,90.6566839783885
8.624,0.9999936945438588,90.20953773994152
8.632,0.9999936956686615,89.76144354739485
8.64,0.9999936954546966,89.31239935769919
8.648,0.9999936939220093,88.86240318183066
8.656,0.9999936910912264,88.41145308564518
8.664,0.9999936869835507,87.95954719073883
8.672,0.9999936816207565,87.50668367531114
8.68,0.9999936750251837,87.05286077503408
8.688,0.9999936672197335,86.59807678392374
8.696,0.999993658227861,86.14233005521727
8.704,0.9999936480735722,85.68561900225188
8.712,0.9999936367814144,85.2279420993491
8.72,0.9999936243764737,84.76929788270044
8.728,0.9999936108843648,84.3096849512578
8.736,0.999993596331227,83.849101967625
8.744,0.9999935807437152,83.38754765895358
8.752,0.9999935641489948,82.92502081783915
8.76,0.9999935465747323,82.4615203032216
8.768,0.9999935280490879,81.99704504128538
8.776,0.9999935086007088,81.53159402636298
8.784,0.9999934882587194,81.06516632183815
8.792,0.999993467052714,80.59776106105164
8.8,0.9999934450127471,80.12937744820623
8.808,0.9999934221693263,79.66001475927361
8.815999999999999,0.9999933985534005,79.1896723429
8.824,0.9999933741963524,78.71834962131273
8.832,0.9999933491299878,78.24604609122602
8.84,0.999993323386527,77.77276132474587
8.847999999999999,0.9999932969985927,77.29849497027357
8.856,0.9999932699992012,76.82324675340838
8.864,0.9999932424217512,76.34701647784837
8.872,0.9999932143000119,75.86980402628878
8.879999999999999,0.9999931856681137,75.39160936131789
8.888,0.9999931565605348,74.91243252631047
8.896,0.9999931270120918,74.43227364631817
8.904,0.9999930970579247,73.95113292895573
8.911999999999999,0.9999930667334882,73.46901066528352
8.92,0.9999930360745359,72.98590723068598
8.928,0.9999930051171108,72.50182308574557
8.936,0.9999929738975295,72.0167587771109
8.943999999999999,0.999992942452371,71.53071493835971
8.952,0.999992910818463,71.04369229085617
8.96,0.999992879032867,70.55569164460191
8.968,0.9999928471328667,70.06671389907983
8.975999999999999,0.999992815155951,69.57676004409089
8.984,0.9999927831398024,69.08583116058354
8.992,0.9999927511222805,68.59392842147531
9.0,0.999992719141408,68.10105309246539
9.008,0.9999926872353558,67.60720653283822
9.016,0.9999926554424274,67.11239019625832
9.024000000000001,0.9999926238010431,66.61660563155509
9.032,0.9999925923497255,66.11985448349711
9.04,0.9999925611270818,65.62213849355537
9.048,0.9999925301717896,65.12345950065603
9.056000000000001,0.9999924995225794,64.6238194419212
9.064,0.9999924692182178,64.12322035339734
9.072,0.9999924392974923,63.62166437077072
9.08,0.9999924097991925,63.1191537300704
9.088000000000001,0.9999923807620945,62.61569076835745
9.096,0.9999923522249428,62.11127792439961
9.104,0.9999923242264336,61.605917739331346
9.112,0.999992296805196,61.09961285729917
9.120000000000001,0.9999922699997756,60.592366026091405
9.128,0.9999922438486158,60.08418009775127
9.136,0.9999922183900395,59.57505802917353
9.144,0.9999921936622321,59.06500288268421
9.152000000000001,0.9999921697032209,58.55401782660292
9.16,0.9999921465508592,58.042106135786376
9.168,0.9999921242428066,57.52927119215351
9.176,0.9999921028165091,57.0155164851916
9.184000000000001,0.9999920823091825,56.50084561244306
9.192,0.9999920627577917,55.985262279971444
9.2,0.9999920441990331,55.46877030280678
9.208,0.9999920266693143,54.95137360537032
9.216000000000001,0.9999920102047349,54.43307622187758
9.224,0.9999919948410697,53.913882296718754
9.232,0.9999919806137457,53.39379608481661
9.24,0.9999919675578256,52.872821951961576
9.248000000000001,0.9999919557079878,52.35096437512337
9.256,0.9999919450985061,51.82822794273796
9.264,0.9999919357632312,51.30461735496999
9.272,0.9999919277355718,50.780137423950784
9.280000000000001,0.9999919210484741,50.25479307399063
9.288,0.9999919157344036,49.728589341764824
9.296,0.9999919118253238,49.20153137647318
9.304,0.99999190935268,48.67362443997329
9.312000000000001,0.9999919083473774,48.14487390688645
9.32,0.9999919088397634,47.61528526467528
9.328,0.999991910859608,47.084864113693314
9.336,0.999991914436085,46.55361616720661
9.344,0.9999919195977528,46.021547251386295
9.352,0.9999919263725359,45.488663305270684
9.36,0.9999919347877064,44.954970380699486
9.368,0.9999919448698655,44.42047464221598
9.376,0.9999919566449254,43.88518236694041
9.384,0.9999919701380894,43.349099944411144
9.392,0.999991985373836,42.812233876395865
9.4,0.9999920023759009,42.27459077667014
9.408,0.9999920211672578,41.73617737076539
9.416,0.999992041770102,41.19700049568339
9.424,0.9999920642058343,40.657067099579876
9.432,0.9999920884950415,40.11638424141385
9.44,0.9999921146574822,39.5749590905657
9.448,0.9999921427120684,39.03279892642036
9.456,0.9999921726768516,38.489911137918845
9.464,0.999992204569004,37.94630322307439
9.472,0.9999922384048064,37.401982788456635
9.48,0.99999227419963,36.856957548639926
9.488,0.9999923119679229,36.31123532561933
9.496,0.9999923517231953,35.76482404819046
9.504,0.9999923934780058,35.21773175129697
9.512,0.9999924372439468,34.6699665753413
9.52,0.9999924830316315,34.12153676546287
9.528,0.9999925308506802,33.5724506707798
9.536,0.9999925807097093,33.022716743597535
9.544,0.9999926326163171,32.47234353858103
9.552,0.9999926865770732,31.92133971189385
9.56,0.999992742597507,31.369714020300734
9.568,0.9999928006820964,30.81747532023727
