freq,mag,phase
6.0,1.000020478254417,29.762814262870936
6.00722688,0.9999746016398011,29.580708955600496
6.014453248,0.9999302748427591,29.39920791352364
6.021680128,0.9998898342863366,29.218322087184934
6.028907008,0.9998557136474132,29.037877370417686
6.036133888,0.9998296241125176,28.85789119853113
6.043360256,0.9998131787803223,28.678173028601545
6.050587136,0.9998072262878254,28.49861298951721
6.057814016,0.999812166997783,28.319015541401562
6.065040896,0.9998276481515693,28.13933187289121
6.072267264,0.9998529280240063,27.959324017393644
6.079494144,0.9998865193170732,27.778937816852334
6.086721024,0.9999266705348507,27.598043479763216
6.093947392,0.9999710246517425,27.41658077276642
6.101174272,1.0000171992337525,27.234490830278414
6.108401152,1.0000626549257114,27.051731448318414
6.115628032,1.0001047217869856,26.868469324948975
6.1228544,1.0001412025846597,26.684592661099092
6.13008128,1.000170012842855,26.50027357020815
6.13730816,1.00018954060221,26.315618540359203
6.144534528,1.000198659406363,26.130807856838427
6.151761408,1.0001968272327995,25.945883879388255
6.158988288,1.000184228071313,25.761038800406258
6.166215168,1.0001614567414727,25.576503578735018
6.173441536,1.000129796156131,25.392264605021435
6.180668416,1.0000910079888614,25.208543613878735
6.187895296,1.000047285682641,25.025332225935443
6.195122176,1.0000009354083992,24.842767537853124
6.202348544,0.9999546808919566,24.660790585427662
6.209575424,0.9999109740747152,24.479456929301662
6.216802304,0.9998723497181915,24.298686581712346
6.224028672,0.9998408693275119,24.11838032289542
6.231255552,0.9998183204027197,23.93839377109522
6.238482432,0.999806073311484,23.7587033925731
6.245709312,0.9998047498622119,23.579059526207523
6.25293568,0.9998143964480448,23.399396089521908
6.26016256,0.9998345804853643,23.219503082501436
6.26738944,0.9998641291809569,23.03925620794704
6.27461632,0.9999014324453065,22.858563822177747
6.281842688,0.9999443535091874,22.67735549478183
6.289069568,0.9999906594507015,22.495499078931232
6.296296448,1.0000376202080605,22.31303008959376
6.303522816,1.0000827100146292,22.12988491773483
6.310749696,1.0001233697132095,21.94616484796184
6.317976576,1.0001574271545708,21.761972714892444
6.325203456,1.0001828802513928,21.577335542201155
6.332429824,1.0001982389079331,21.392382701117985
6.339656704,1.0002028292800136,21.207338966056724
6.346883584,1.0001961984470709,21.0223073552673
6.354109952,1.000178888000482,20.837390258538818
6.361336832,1.000151655906573,20.65279476140773
6.368563712,1.0001160922814953,20.468580352231488
6.375790592,1.0000742394620366,20.28494895127488
6.38301696,1.0000282234262148,20.101875878806908
6.39024384,0.9999807537941497,19.919449556352017
6.39747072,0.9999344560051483,19.737669239505042
6.4046976,0.9998919263036185,19.55644974283716
6.411923968,0.9998554642851949,19.375790175764546
6.419150848,0.9998271883169044,19.19555751570904
6.426377728,0.9998086090291217,19.01564008209021
6.433604096,0.9998008246771379,18.835896131943723
6.440830976,0.9998042389913968,18.656178935511036
6.448057856,0.9998187795783657,18.476351806081187
6.455284736,0.9998435098244003,18.29626439593537
6.462511104,0.9998772074604652,18.11575372407792
6.469737984,0.9999178245818746,17.934747332404253
6.476964864,0.999963325239034,17.753103242009583
6.484191744,1.0000110923469596,17.570895114648863
6.491418112,1.0000584159850419,17.387963447248787
6.498644992,1.0001026926424295,17.204436843855067
6.505871872,1.0001414811304994,17.020349298747114
6.51309824,1.0001726055534415,16.83577281300005
6.52032512,1.0001942840998377,16.650820577307993
6.527552,1.0002053755604785,16.46562515905873
6.53477888,1.0002051163294652,16.280386100457978
6.542005248,1.0001936341257156,16.09520512582285
6.549232128,1.0001715481158986,15.910237776039493
6.556459008,1.0001399958625767,15.725677250095735
6.563685888,1.0001006824253675,15.541537766715757
6.570912256,1.0000559383276333,15.357978996650877
6.578139136,1.0000082334378444,15.175042897450952
6.585366016,0.9999600780010893,14.992770757856709
6.592592384,0.999914223750357,14.811073004467138
6.599819264,0.9998732498127972,14.63003617035495
6.607046144,0.9998393851045623,14.449469642411612
6.614273024,0.9998146247421499,14.26931620246686
6.621499392,0.9998003928393905,14.08938672345283
6.628726272,0.9997972223716566,13.90960399857236
6.635953152,0.9998057096492293,13.729786835956109
6.64317952,0.9998250935474438,13.549772035621908
6.6504064,0.9998544116860035,13.369427195752847
6.65763328,0.9998919602377585,13.188610305709274
6.66486016,0.9999358073466117,13.007235045782481
6.672086528,0.999983464488797,12.825237861257738
6.679313408,1.000032167115483,12.642557119133926
6.686540288,1.0000794662018813,12.459254732509239
6.693767168,1.0001224318988133,12.275331938710428
6.700993536,1.0001588242918116,12.090825570865908
6.708220416,1.0001865433712458,11.90592685508839
6.715447296,1.0002040932128495,11.720651177591618
6.722673664,1.000210616391065,11.535261386713188
6.729900544,1.0002053920766023,11.349850224846678
6.737127424,1.0001888832006194,11.164542373853383
6.744354304,1.0001620699253313,10.979552446698197
6.751580672,1.0001263874616266,10.794955612387604
6.758807552,1.0000835781974187,10.610908913448368
6.766034432,1.0000363930628464,10.427480740648585
6.773261312,0.9999872434111298,10.24467724889116
6.78048768,0.9999389341501516,10.062536209424175
6.78771456,0.9998939758123941,9.881063069293885
6.79494144,0.9998550949891418,9.700114870121688
6.802167808,0.9998244243335518,9.519625913057144
6.809394688,0.9998036247230346,9.339509801792508
6.816621568,0.9997938991777583,9.159597519612873
6.823848448,0.9997957911103279,8.979730690262164
6.831074816,0.9998092335437558,8.79975793040629
6.838301696,0.9998334490137551,8.61949715369716
6.845528576,0.9998671922711752,8.43887192695995
6.852754944,0.9999084928053259,8.257725692094267
6.859981824,0.999955140054197,8.075983793729874
6.867208704,1.000004496725832,7.893560571947891
6.874435584,1.0000538938348194,7.710473942626789
6.881661952,1.0001004445925223,7.526725086900991
6.888888832,1.0001417464396503,7.3423946524203645
6.896115712,1.0001753147790113,7.157532222880241
6.903342592,1.000199282249934,6.972282981043192
6.91056896,1.000212339735402,6.786728596885393
6.91779584,1.000213779730502,6.601108438308293
6.92502272,1.000203575365092,6.415516560975157
6.932249088,1.0001821125332688,6.230180809944287
6.939475968,1.0001505917521847,6.045149826499034
6.946702848,1.0001108390488238,5.860628192703149
6.953929728,1.0000650839834404,5.676667063346223
6.961156096,1.0000157149933862,5.493349661057667
6.968382976,0.9999656124980578,5.310706856231477
6.975609856,0.9999174701648191,5.128695017592637
6.982836736,0.9998741226117225,4.947359276599003
6.990063104,0.9998377765446289,4.766527446567504
6.997289984,0.9998106139483832,4.586154729515904
7.004516864,0.9997941130268091,4.4060224817962155
7.011743232,0.9997892242884854,4.2260688382315
7.018970112,0.9997962163848254,4.046104459965919
7.026196992,0.9998148316960884,3.86591417478894
7.033423872,0.9998439550350746,3.685433601456166
7.04065024,0.9998818907856414,3.5044875883298174
7.04787712,0.9999267012195251,3.322975564545286
7.055104,0.9999757383094525,3.140840200013586
7.062330368,1.0000263947013535,2.9579862459240025
7.069557248,1.000075898328695,2.7744486831258657
7.076784128,1.000121385924021,2.5903052721715776
7.084011008,1.0001603688719372,2.405515096173093
7.091237376,1.0001906122859368,2.2203083781093955
7.098464256,1.0002104116344441,2.0346988703852156
7.105691136,1.0002187200928745,1.848920047184719
7.112918016,1.00021496984869,1.6630787743797013
7.120144384,1.0001994540781707,1.4773953364122563
7.127371264,1.0001730885732953,1.2919832862510354
7.134598144,1.000137181532145,1.106961550078196
7.141824512,1.0000935693825985,0.9225185066357249
7.149051392,1.000045016942456,0.7386566939887566
7.156278272,0.9999940038978383,0.5554622780493476
7.163505152,0.9999434636339781,0.37298948310633373
7.17073152,0.9998961295933031,0.19113625131099765
7.1779584,0.9998545796636251,0.009923608592079834
7.18518528,0.9998213967722949,-0.17080357758918172
7.19241216,0.9997982381462376,-0.3511364692416581
7.199638528,0.9997864967116417,-0.5312464146893463
7.206865408,0.9997867084815837,-0.7112995020833792
7.214092288,0.9997990232903329,-0.8914396498492908
7.221318656,0.9998227854782775,-1.0718012212292873
7.228545536,0.999856605913798,-1.2525488659814012
7.235772416,0.9998985398452457,-1.4338565288501097
7.242999296,0.9999465421604541,-1.6157371446555155
7.250225664,0.9999976356736469,-1.798347662902738
7.257452544,1.0000490560299145,-1.9816467337519932
7.264679424,1.0000980998882816,-2.165610202524867
7.271906304,1.0001419381160253,-2.3502138917939224
7.279132672,1.0001779940435542,-2.5353832136113588
7.286359552,1.0002045203305407,-2.720986646480826
7.293586432,1.0002197947389728,-2.906888968888189
7.3008128,1.000223040269531,-3.0929156655378667
7.30803968,1.000213984106136,-3.278900027520112
7.31526656,1.0001931587575912,-3.464683104150163
7.32249344,1.000161955490536,-3.650158921479781
7.329719808,1.000121567465095,-3.8351233474397417
7.336946688,1.0000746646613057,-4.0194928915703505
7.344173568,1.0000235840717329,-4.203216944978225
7.351399936,0.9999714294657134,-4.3862439772499595
7.358626816,0.9999209353177398,-4.5686065653140036
7.365853696,0.9998748511237803,-4.750299234367311
7.373080576,0.9998359468524985,-4.931368374443814
7.380306944,0.9998061895123582,-5.112027140703825
7.387533824,0.9997874861504221,-5.2923467670576745
7.394760704,0.9997806450973488,-5.472518189068635
7.401987584,0.999786283209697,-5.65263096498757
7.409213952,0.9998040314125094,-5.83294919444558
7.416440832,0.9998328466954437,-6.013566896446942
7.423667712,0.9998713148333322,-6.194656420387805
7.43089408,0.999917020422578,-6.376319149394679
7.43812096,0.9999675508850919,-6.558648025357918
7.44534784,1.0000204057346944,-6.741684751822302
7.45257472,1.0000721941255857,-6.925416367578325
7.459801088,1.0001202721767395,-7.10987312064457
7.467027968,1.0001619326711917,-7.294921249279873
7.474254848,1.0001946962181392,-7.4804891340630775
7.481481728,1.0002169182158123,-7.666434187738691
7.488708096,1.000227324438746,-7.852607626743678
7.495934976,1.0002251728315656,-8.038871739551208
7.503161856,1.0002107241261202,-8.225022177202645
7.510388224,1.0001846721044119,-8.410877073268985
7.517615104,1.0001484840184098,-8.596357452829194
7.524841984,1.0001041531454051,-8.781249674413017
7.532068864,1.0000541775991905,-8.965517628785815
7.539295232,1.0000010751189659,-9.149111797520213
7.546522112,0.9999482296749872,-9.33197075708798
7.553748992,0.9998981783375646,-9.51415889634746
7.56097536,0.9998540864518245,-9.695721459402696
7.56820224,0.9998181263955326,-9.876709653396563
7.57542912,0.9997924711448785,-10.057286834485083
7.582656,0.9997784529825404,-10.237624740873992
7.589882368,0.9997770665826757,-10.417814756776071
7.597109248,0.9997881729423334,-10.598095453116855
7.604336128,0.9998112680126443,-10.778634410779498
7.611563008,0.9998451820253631,-10.95953515989223
7.618789376,0.9998879378106859,-11.140978442479424
7.626016256,0.9999371923657653,-11.323047438591582
7.633243136,0.9999901200822018,-11.505839847391703
7.640469504,1.00004393804984,-11.689326163136842
7.647696384,1.0000955563481553,-11.873529699879914
7.654923264,1.000142028305518,-12.058463933097991
7.662150144,1.0001810158126223,-12.243950127860526
7.669376512,1.0002101860899086,-12.429902586622825
7.676603392,1.0002276190063304,-12.616207385214567
7.683830272,1.0002327868003213,-12.80263208858245
7.691057152,1.000225084429284,-12.989075537943606
7.69828352,1.0002050862378125,-13.175342000277885
7.7055104,1.000173744920113,-13.3612488334809
7.71273728,1.0001329260063945,-13.546679359997983
7.719963648,1.0000847963918253,-13.73152052256053
7.727190528,1.0000320602314183,-13.915674219159321
7.734417408,0.9999775384710436,-14.09912807004736
7.741644288,0.9999246027645807,-14.281826015030424
7.748870656,0.9998757093008691,-14.463850693327421
7.756097536,0.9998339357635966,-14.645239489365665
7.763324416,0.9998015809495242,-14.826164042346484
7.770550784,0.9997802854906158,-15.006724580879128
7.777777664,0.9997715431774593,-15.187062607293308
7.785004544,0.9997755611188311,-15.367365879102556
7.792231424,0.9997924145471161,-15.547837171713427
7.799457792,0.9998209424370966,-15.728620017821099
7.806684672,0.9998597871178881,-15.90983764104342
7.813911552,0.9999065566734263,-16.09166199452871
7.821138432,0.999958937046649,-16.274164685709863
7.8283648,1.0000136786902074,-16.45740307552917
7.83559168,1.0000681397174969,-16.64141961868515
7.84281856,1.0001189690577956,-16.82611067632101
7.850044928,1.0001634909249082,-17.011482551130456
7.857271808,1.0001990887854346,-17.19741568599204
7.864498688,1.0002239612625599,-17.383752410373305
7.871725568,1.0002364473728405,-17.57034580949309
7.878951936,1.0002359352281014,-17.757053699429985
7.886178816,1.0002225757375993,-17.94364245744604
7.893405696,1.0001969542480893,-18.12999672675024
7.900632576,1.0001605265626012,-18.31593870253683
7.907858944,1.0001153018808844,-18.50132665127741
7.915085824,1.000063666537833,-18.686076023526102
7.922312704,1.0000086546534097,-18.870085559653564
7.929539072,0.9999531329431522,-19.053384625178698
7.936765952,0.9999004235772269,-19.23590826369738
7.943992832,0.9998534730282073,-19.417766563401514
7.951219712,0.9998145849957139,-19.599072018033368
7.95844608,0.9997861773830271,-19.779899134941502
7.96567296,0.9997699866014427,-19.960440604189888
7.97289984,0.9997666084121791,-20.140841795367393
7.98012672,0.9997765883519296,-20.321284006279033
7.987353088,0.9997990436705753,-20.50196683341458
7.994579968,0.9998329698875182,-20.68302653588941
8.001806848,0.9998765102064959,-20.864630324853454
8.009033216,0.9999271522425045,-21.046881502305062
8.016260096,0.9999821160662624,-21.229842207175505
8.023486976,1.0000383589963924,-21.413582849926932
8.030713856,1.0000928282470423,-21.598070191243053
8.037940224,1.0001422539228175,-21.78326156983595
8.045167104,1.0001841632344253,-21.969085298462566
8.052393984,1.0002158771349707,-22.1554539258688
8.059620352,1.0002359704985084,-22.342154267474953
8.066847232,1.0002430706746368,-22.529032863059104
8.074074112,1.000236930323107,-22.715972406324052
8.081300992,1.00021761252182,-22.902708617886315
8.08852736,1.00018647586665,-23.089133322841054
8.09575424,1.0001449382113874,-23.27507944440725
8.10298112,1.0000955765910375,-23.46038250196829
8.110208,1.0000408951174853,-23.64499060222622
8.117434368,0.9999840446087032,-23.8288761951998
8.124661248,0.9999281206764031,-24.01196947350177
8.131888128,0.9998764195706292,-24.1943425200053
8.139114496,0.999831649562571,-24.376071310063743
8.146341376,0.9997963750598361,-24.557275373669107
8.153568256,0.9997726381379499,-24.738053040785363
8.160795136,0.9997616163563052,-24.918594461473017
8.168021504,0.9997640128603615,-25.099082065213263
8.175248384,0.9997799225899665,-25.27975499232316
8.182475264,0.9998082511249982,-25.4606629839168
8.189702144,0.9998473784936872,-25.64206077757285
8.196928512,0.9998953895094962,-25.82405273853169
8.204155392,0.9999493778003368,-26.006757781997536
8.211382272,1.000006636190984,-26.190193135677816
8.21860864,1.0000637247130684,-26.374454253742982
8.22583552,1.0001175991054099,-26.55945283894257
8.2330624,1.0001651709940425,-26.745138054917767
8.24028928,1.0002036182370229,-26.93143995851256
8.247515648,1.0002312324499851,-27.118192443827507
8.254742528,1.0002460723092619,-27.305253822656276
8.261969408,1.0002475412429448,-27.49240629274044
8.269195776,1.0002352257014193,-27.67953154530989
8.276422656,1.0002100736062483,-27.866384533963483
8.283649536,1.0001734031453955,-28.052837979981163
8.290876416,1.0001270239629831,-28.238739774464857
8.298102784,1.0000738601812158,-28.423964803708845
8.305329664,1.0000165646548567,-28.60842440104226
8.312556544,0.9999584759397625,-28.792143980960194
8.319783424,0.9999028013215798,-28.975068815985544
8.327009792,0.9998526740699057,-29.15728261630357
8.334236672,0.9998107187949589,-29.338889669964598
8.341463552,0.9997796062576254,-29.5199877020725
8.34868992,0.9997608309346669,-29.700731347984355
8.3559168,0.999755459767475,-29.88135833505807
8.36314368,0.9997639640695737,-30.061973202178795
8.37037056,0.9997857956841543,-30.242821749163696
8.377596928,0.9998199792927902,-30.424035638855557
8.384823808,0.9998641612055821,-30.605818756203785
8.392050688,0.9999164596581794,-30.788250789294448
8.399277568,0.9999735088545649,-30.97140869482657
8.406503936,1.0000324213406406,-31.155375903056587
8.413730816,1.0000896980783782,-31.340172039193394
8.420957696,1.0001423362145838,-31.52570196080435
8.428184064,1.0001873237687107,-31.711880448276705
8.435410944,1.0002222042345241,-31.89863227669409
8.442637824,1.0002447479089684,-32.085790749830245
8.449864704,1.0002541056161527,-32.27315978516944
8.457091072,1.0002494007601583,-32.460583798624086
8.464317952,1.0002310251494235,-32.64785999581764
8.471544832,1.000199935626994,-32.83478295798947
8.4787712,1.000157865828599,-33.02123797085016
8.48599808,1.0001070248722794,-33.20706563390183
8.49322496,1.0000503883898995,-33.39218082412773
8.50045184,0.9999909613411853,-33.576518868357745
8.507678208,0.9999322805741839,-33.76005349482875
8.514905088,0.9998773505026902,-33.94278433091928
8.522131968,0.9998291971519961,-34.1248688665545
8.529358848,0.9997907940292375,-34.30634590883876
8.536585216,0.9997643587034152,-34.48736925554342
8.543812096,0.9997510419571413,-34.668167989723365
8.551038976,0.9997517044186652,-34.848846624048775
8.558265344,0.9997665435119067,-35.02964927161524
8.565492224,0.9997945423622482,-35.210758306420054
8.572719104,0.9998342073441376,-35.392315035832866
8.579945984,0.9998833911770448,-35.57447732609134
8.587172352,0.9999393227525293,-35.757381288019985
8.594399232,0.9999989932976585,-35.941062315712536
8.6016256,1.0000589383323777,-36.12555631672972
8.608852992,1.0001159678897236,-36.31088212956589
8.61607936,1.0001669124119872,-36.4969244345661
8.623305728,1.0002085736240365,-36.683621586698294
8.63053312,1.0002390266774828,-36.8708249638796
8.637759488,1.0002564531982745,-37.05834716887814
8.64498688,1.0002597336338943,-37.246029964005196
8.652213248,1.0002487637086266,-37.433665552039024
8.659439616,1.0002241832660153,-37.62107157770415
8.666667008,1.0001870441782672,-37.80807089580007
8.673893376,1.0001397793507265,-37.99449552303541
8.681119744,1.000084830097004,-38.180234262391316
8.688347136,1.0000252157793423,-38.365190189718035
8.695573504,0.9999641719272753,-38.54937982447207
8.702799872,0.9999053171081852,-38.732707870298725
8.710027264,0.9998518290405836,-38.91530206300352
8.717253632,0.9998067263891135,-39.09720413589861
8.724481024,0.9997723955667329,-39.27860286206048
8.731707392,0.9997509300698354,-39.45960820171417
8.73893376,0.9997436273263334,-39.64041638270328
8.746161152,0.9997505771947497,-39.82123802095001
8.75338752,0.9997717471385197,-40.00225612971793
8.760613888,0.9998058261225425,-40.1836594629969
8.76784128,0.9998510642930589,-40.36558940736882
8.775067648,0.9999048322135222,-40.548206317616355
8.782294016,0.9999642046771638,-40.73160320067672
8.789521408,1.000025884882968,-40.91581790766876
8.796747776,1.0000863895464374,-41.10087787450069
8.803975168,1.0001423187847511,-41.286745695451195
8.811201536,1.0001906926491508,-41.473342121723135
8.818427904,1.0002287504353529,-41.66052330355089
8.825655296,1.0002543061896605,-41.8481301384784
8.832881664,1.0002658642030196,-42.03604125554908
8.840108032,1.000262836814266,-42.22397713121929
8.847335424,1.000245391063185,-42.411796174552514
8.854561792,1.0002143045317515,-42.59934128971969
8.86178816,1.000171598047119,-42.78630778448396
8.869015552,1.0001193276835916,-42.97269641160766
8.87624192,1.0000605842133616,-43.158314950215654
8.883469312,0.9999984013927546,-43.34316202166388
8.89069568,0.9999365776642188,-43.5271263508924
8.897922048,0.9998781760274142,-43.71029337908284
