freq,mag,phase
6.0,0.9999854032603718,94.17536604208014
6.008,0.9999854870305189,94.02581196375118
6.016,0.9999855666287215,93.87611061586975
6.024,0.9999856421415341,93.72626181379374
6.032,0.999985713654693,93.57626537353062
6.04,0.9999857812531188,93.42612111174388
6.048,0.9999858450209199,93.27582884575946
6.056,0.9999859050413944,93.12538839357225
6.064,0.9999859613970333,92.97479957385255
6.072,0.999986014169524,92.82406220595263
6.08,0.9999860634397512,92.67317610991334
6.088,0.9999861092878028,92.52214110647063
6.096,0.9999861517929692,92.37095701706215
6.104,0.9999861910337493,92.219623663834
6.112,0.999986227087851,92.06814086964732
6.12,0.9999862600321954,91.91650845808499
6.128,0.9999862899429193,91.76472625345842
6.136,0.999986316895378,91.61279408081423
6.144,0.9999863409641483,91.46071176594111
6.152,0.9999863622230312,91.3084791353766
6.16,0.9999863807450546,91.15609601641393
6.168,0.9999863966024775,91.00356223710885
6.176,0.9999864098667903,90.85087762628665
6.184,0.9999864206087208,90.69804201354894
6.192,0.9999864288982347,90.5450552292807
6.2,0.99998643480454,90.39191710465722
6.208,0.9999864383960888,90.23862747165113
6.216,0.9999864397405811,90.08518616303938
6.224,0.9999864389049671,89.93159301241039
6.232,0.9999864359554509,89.77784785417107
6.24,0.9999864309574934,89.62395052355397
6.248,0.9999864239758134,89.46990085662442
6.256,0.9999864150743931,89.31569869028769
6.264,0.9999864043164803,89.1613438622962
6.272,0.99998639176459,89.00683621125675
6.28,0.9999863774805094,88.85217557663775
6.288,0.9999863615252995,88.69736179877653
6.296,0.9999863439592986,88.54239471888661
6.304,0.9999863248421254,88.3872741790651
6.312,0.9999863042326816,88.23200002229993
6.32,0.9999862821891553,88.0765720924774
6.328,0.999986258769024,87.92099023438948
6.336,0.999986234029057,87.76525429374126
6.344,0.9999862080253193,87.60936411715846
6.352,0.9999861808131747,87.45331955219488
6.36,0.9999861524472878,87.29712044733994
6.368,0.9999861229816276,87.1407666520262
6.376,0.9999860924694712,86.98425801663693
6.384,0.999986060963406,86.82759439251375
6.392,0.9999860285153327,86.67077563196418
6.4,0.9999859951764694,86.51380158826933
6.408,0.9999859609973536,86.35667211569154
6.416,0.9999859260278455,86.19938706948211
6.424,0.9999858903171321,86.04194630588901
6.432,0.999985853913729,85.88434968216457
6.44,0.9999858168654835,85.72659705657333
6.448,0.9999857792195793,85.5686882883998
6.456,0.9999857410225379,85.41062323795624
6.464,0.9999857023202224,85.25240176659057
6.472,0.9999856631578409,85.09402373669418
6.48,0.999985623579949,84.93548901170988
6.4879999999999995,0.9999855836304535,84.77679745613976
6.496,0.9999855433526154,84.61794893555309
6.504,0.9999855027890528,84.45894331659446
6.5120000000000005,0.9999854619817443,84.29978046699148
6.52,0.9999854209720327,84.14046025556311
6.5280000000000005,0.9999853798006263,83.9809825522274
6.536,0.9999853385076051,83.82134722800978
6.5440000000000005,0.9999852971324212,83.66155415505096
6.552,0.9999852557139035,83.50160320661513
6.5600000000000005,0.9999852142902599,83.34149425709799
6.568,0.9999851728990817,83.18122718203506
6.5760000000000005,0.999985131577346,83.0208018581096
6.584,0.9999850903614196,82.86021816316112
6.592,0.9999850492870609,82.69947597619317
6.6,0.9999850083894246,82.53857517738199
6.608,0.999984967703064,82.37751564808447
6.616,0.9999849272619351,82.21629727084657
6.624,0.9999848870993985,82.05491992941151
6.632,0.9999848472482243,81.89338350872822
6.64,0.999984807740594,81.7316878949595
6.648,0.9999847686081044,81.56983297549054
6.656,0.9999847298817711,81.40781863893717
6.664,0.9999846915920312,81.24564477515429
6.672,0.9999846537687468,81.0833112752443
6.68,0.9999846164412086,80.92081803156553
6.688,0.9999845796381388,80.75816493774066
6.696,0.9999845433876939,80.5953518886652
6.704,0.9999845077174703,80.43237878051606
6.712,0.9999844726545042,80.26924551075983
6.72,0.9999844382252777,80.10595197816157
6.728,0.9999844044557207,79.9424980827932
6.736,0.999984371371215,79.77888372604205
6.744,0.9999843389965971,79.61510881061953
6.752,0.9999843073561613,79.4511732405696
6.76,0.9999842764736642,79.28707692127749
6.768,0.9999842463723267,79.12281975947825
6.776,0.9999842170748388,78.9584016632654
6.784,0.9999841886033611,78.79382254209965
6.792,0.99998416097953,78.62908230681747
6.8,0.9999841342244601,78.46418086963983
6.808,0.9999841083587474,78.29911814418095
6.816,0.9999840834024735,78.13389404545694
6.824,0.9999840593752087,77.96850848989449
6.832,0.9999840362960148,77.80296139533978
6.84,0.999984014183449,77.63725268106708
6.848,0.9999839930555674,77.47138226778759
6.856,0.9999839729299281,77.30535007765819
6.864,0.9999839538235951,77.1391560342903
6.872,0.9999839357531413,76.9728000627586
6.88,0.9999839187346514,76.80628208960991
6.888,0.999983902783727,76.63960204287207
6.896,0.9999838879154881,76.47275985206262
6.904,0.9999838741445782,76.30575544819784
6.912,0.9999838614851659,76.1385887638015
6.92,0.9999838499509506,75.97125973291374
6.928,0.9999838395551641,75.80376829110007
6.936,0.9999838303105745,75.6361143754601
6.944,0.9999838222294907,75.46829792463656
6.952,0.999983815323764,75.30031887882417
6.96,0.9999838096047939,75.1321771797786
6.968,0.9999838050835294,74.96387277082532
6.976,0.9999838017704733,74.79540559686859
6.984,0.9999837996756861,74.62677560440049
6.992,0.9999837988087892,74.4579827415097
7.0,0.9999837991789681,74.28902695789053
7.008,0.9999838007949761,74.11990820485197
7.016,0.9999838036651382,73.95062643532655
7.024,0.9999838077973534,73.78118160387935
7.032,0.9999838131991006,73.61157366671702
7.04,0.9999838198774383,73.44180258169668
7.048,0.9999838278390122,73.27186830833502
7.056,0.9999838370900563,73.10177080781718
7.064,0.9999838476363963,72.9315100430058
7.072,0.9999838594834547,72.7610859784501
7.08,0.9999838726362532,72.59049858039472
7.088,0.999983887099416,72.41974781678883
7.096,0.9999839028771742,72.24883365729511
7.104,0.9999839199733689,72.07775607329879
7.112,0.9999839383914544,71.90651503791653
7.12,0.9999839581345024,71.73511052600567
7.128,0.999983979205205,71.56354251417297
7.136,0.9999840016058786,71.39181098078375
7.144,0.9999840253384675,71.21991590597094
7.152,0.9999840504045466,71.04785727164395
7.16,0.9999840768053264,70.87563506149779
7.168,0.9999841045416549,70.70324926102202
7.176,0.9999841336140228,70.53069985750976
7.184,0.9999841640225657,70.35798684006664
7.192,0.9999841957670687,70.18511019961981
7.2,0.9999842288469689,70.01206992892698
7.208,0.9999842632613597,69.83886602258531
7.216,0.9999842990089947,69.66549847704043
7.224,0.9999843360882898,69.49196729059543
7.232,0.9999843744973287,69.31827246341973
7.24,0.9999844142338649,69.14441399755815
7.248,0.9999844552953259,68.97039189693974
7.256,0.9999844976788169,68.79620616738684
7.264,0.9999845413811237,68.62185681662388
7.272,0.9999845863987178,68.44734385428637
7.28,0.9999846327277575,68.27266729192986
7.288,0.999984680364094,68.09782714303869
7.296,0.9999847293032733,67.92282342303501
7.304,0.9999847795405407,67.74765614928764
7.312,0.9999848310708435,67.57232534112084
7.32,0.9999848838888353,67.39683101982327
7.328,0.9999849379888794,67.22117320865681
7.336,0.9999849933650522,67.04535193286527
7.344,0.9999850500111467,66.86936721968344
7.352,0.9999851079206769,66.69321909834557
7.36,0.9999851670868797,66.51690760009448
7.368,0.99998522750272,66.34043275819003
7.376,0.9999852891608942,66.1637946079181
7.384,0.999985352053832,65.98699318659916
7.392,0.9999854161737025,65.81002853359712
7.4,0.9999854815124158,65.63290069032784
7.4079999999999995,0.9999855480616279,65.45560970026804
7.416,0.9999856158127426,65.27815560896371
7.4239999999999995,0.9999856847569172,65.10053846403902
7.432,0.999985754885064,64.92275831520462
7.4399999999999995,0.9999858261878555,64.74481521426655
7.448,0.9999858986557268,64.56670921513454
7.4559999999999995,0.9999859722788799,64.38844037383076
7.464,0.9999860470472864,64.21000874849821
7.4719999999999995,0.9999861229506926,64.03141439940937
7.48,0.9999861999786203,63.85265738897444
7.4879999999999995,0.9999862781203739,63.67373778175011
7.496,0.9999863573650407,63.49465564444766
7.504,0.9999864377014968,63.31541104594164
7.5120000000000005,0.9999865191184086,63.136004057277994
7.52,0.9999866016042385,62.956434751682664
7.5280000000000005,0.9999866851472461,62.77670320456963
7.536,0.999986769735494,62.59680949354951
7.5440000000000005,0.9999868553568491,62.41675369843744
7.552,0.999986941998988,62.23653590126172
7.5600000000000005,0.9999870296493995,62.0561561862716
7.568,0.9999871182953882,61.87561463994582
7.5760000000000005,0.9999872079240779,61.69491135100043
7.584,0.9999872985224156,61.514046410397135
7.5920000000000005,0.9999873900771745,61.333019911351094
7.6,0.9999874825749581,61.151831949339304
7.6080000000000005,0.999987576002202,60.97048262210822
7.616,0.9999876703451797,60.78897202968202
7.6240000000000006,0.9999877655900046,60.60730027437029
7.632,0.9999878617226337,60.42546746077611
7.640000000000001,0.9999879587288711,60.24347369580372
7.648,0.9999880565943717,60.06131908866653
7.656000000000001,0.9999881553046441,59.879003750894654
7.664,0.9999882548450546,59.69652779634286
7.672,0.9999883552008301,59.513891341198104
7.68,0.9999884563570618,59.331094503987224
7.688,0.9999885582987091,59.14813740558461
7.696,0.9999886610106017,58.965020169219656
7.704,0.9999887644774441,58.78174292048434
7.712,0.9999888686838184,58.59830578734075
7.72,0.9999889736141891,58.414708900128346
7.728,0.9999890792529036,58.230952391571485
7.736,0.999989185584198,58.047036396786766
7.744,0.9999892925922004,57.8629610532902
7.752,0.9999894002609321,57.678726501004576
7.76,0.9999895085743141,57.49433288226655
7.768,0.9999896175161668,57.30978034183382
7.776,0.999989727070217,57.1250690268923
7.784,0.9999898372200986,56.940199087063036
7.792,0.9999899479493564,56.755170674409236
7.8,0.9999900592414503,56.56998394344325
7.808,0.9999901710797577,56.38463905113336
7.816,0.9999902834475771,56.19913615691076
7.824,0.9999903963281321,56.01347542267615
7.832,0.9999905097045722,55.82765701280657
7.84,0.999990623559979,55.64168109416204
7.848,0.9999907378773679,55.45554783609211
7.856,0.9999908526396912,55.269257410442485
7.864,0.9999909678298418,55.08280999156148
7.872,0.9999910834306565,54.89620575630644
7.88,0.9999911994249184,54.70944488405009
7.888,0.9999913157953608,54.52252755668687
7.896,0.9999914325246707,54.33545395863919
7.904,0.9999915495954901,54.14822427686359
7.912,0.9999916669904212,53.96083870085682
7.92,0.9999917846920291,53.773297422662026
7.928,0.9999919026828439,53.58560063687457
7.936,0.999992020945364,53.39774854064809
7.944,0.9999921394620608,53.20974133370027
7.952,0.9999922582153795,53.0215792183187
7.96,0.9999923771877437,52.833262399366525
7.968,0.9999924963615576,52.644791084288194
7.976,0.99999261571921,52.456165483114944
7.984,0.9999927352430756,52.26738580847039
7.992,0.9999928549155201,52.07845227557591
8.0,0.9999929747189015,51.88936510225608
8.008,0.9999930946355738,51.700124508943944
8.016,0.9999932146478898,51.51073071868614
8.024000000000001,0.9999933347382046,51.32118395714828
8.032,0.9999934548888773,51.13148445261989
8.04,0.9999935750822746,50.94163243601929
8.048,0.9999936953007743,50.751628140898696
8.056000000000001,0.999993815526767,50.561471803449066
8.064,0.9999939357426596,50.37116366250485
8.072,0.9999940559308782,50.18070395954848
8.08,0.9999941760738701,49.99009293871529
8.088000000000001,0.9999942961541085,49.79933084679787
8.096,0.9999944161540929,49.608417933250614
8.104,0.9999945360563535,49.41735445019391
8.112,0.9999946558434532,49.226140652418536
8.120000000000001,0.9999947754979904,49.03477679739
8.128,0.999994895002603,48.84326314525246
8.136,0.9999950143399682,48.651599958832776
8.144,0.9999951334928088,48.4597875036445
8.152000000000001,0.9999952524438924,48.267826047891795
8.16,0.999995371176037,48.075715862473174
8.168,0.9999954896721114,47.883457220985065
8.176,0.9999956079150392,47.69105039972552
8.184000000000001,0.9999957258878002,47.49849567769776
8.192,0.9999958435734344,47.30579333661359
8.2,0.9999959609550433,47.112943660896526
8.208,0.9999960780157928,46.91994693768522
8.216000000000001,0.9999961947389164,46.72680345683663
8.224,0.999996311107716,46.53351351092898
8.232,0.9999964271055668,46.34007739526467
8.24,0.9999965427159171,46.1464954078732
8.248000000000001,0.9999966579222928,45.952767849513975
8.256,0.9999967727082983,45.75889502367897
8.264,0.9999968870576207,45.56487723659518
8.272,0.9999970009540295,45.370714797227116
8.280000000000001,0.9999971143813818,45.1764080172794
8.288,0.9999972273236224,44.98195721119882
8.296,0.9999973397647873,44.787362696176515
8.304,0.9999974516890054,44.59262479215011
8.312,0.9999975630805014,44.39774382180579
8.32,0.999997673923597,44.202720110579904
8.328,0.9999977842027138,44.007553986661065
8.336,0.9999978939023763,43.8122457809915
8.344,0.9999980030072113,43.61679582726895
8.352,0.9999981115019535,43.4212044619477
8.36,0.9999982193714453,43.22547202424043
8.368,0.999998326600639,43.02959885611901
8.376,0.9999984331746002,42.83358530231602
8.384,0.999998539078509,42.63743171032538
8.392,0.999998644297661,42.44113843040378
8.4,0.999998748817472,42.24470581557093
8.408,0.9999988526234764,42.04813422161085
8.416,0.9999989557013326,41.85142400707188
8.424,0.9999990580368215,41.65457553326771
8.432,0.9999991596158526,41.45758916427731
8.44,0.9999992604244616,41.260465266945566
8.448,0.9999993604488145,41.063204210883086
8.456,0.9999994596752092,40.865806368466615
8.464,0.9999995580900776,40.668272114838516
8.472,0.9999996556799856,40.47060182790703
8.48,0.9999997524316372,40.27279588834562
8.488,0.9999998483318746,40.07485467959281
8.496,0.9999999433676805,39.8767785878514
8.504,1.0,39.678568002088085
8.512,1.0,39.480223314032386
8.52,0.9999999999999999,39.281744918176145
8.528,1.0,39.08313321177204
8.536,1.0,38.884388594832934
8.544,1.0,38.68551147013024
8.552,0.9999999999999999,38.48650224319289
8.56,1.0,38.287361322305536
8.568,0.9999999999999999,38.08808911850728
8.576,0.9999999999999999,37.888686045589516
8.584,1.0,37.68915252009458
8.592,1.0,37.489488961313356
8.6,0.9999999999999999,37.28969579128344
8.608,0.9999999999999999,37.08977343478676
8.616,1.0,36.88972231934738
8.624,1.0,36.689542875228874
8.632,1.0,36.4892355354319
8.64,0.9999999999999999,36.28880073569129
8.648,0.9999999999999999,36.08823891447344
8.656,1.0,35.88755051297306
8.664,0.9999999999999999,35.68673597511037
8.672,1.0,35.4857957475276
8.68,0.9999999999999999,35.284730279585915
8.688,1.0,35.08354002336162
8.696,0.9999999999999999,34.88222543364286
8.704,1.0,34.680786967925606
8.712,1.0,34.4792250864101
8.72,1.0,34.277540251996456
8.728,1.0,34.075732930281006
8.736,0.9999999999999999,33.87380358955152
8.744,0.9999999999999999,33.671752700783344
8.752,0.9999999999999999,33.4695807376344
8.76,1.0,33.26728817644101
8.768,1.0,33.0648754962126
8.776,1.0,32.862343178627306
8.784,1.0,32.65969170802644
8.792,1.0,32.456921571409765
8.8,0.9999999999999999,32.25403325842976
8.808,1.0,32.05102726138658
8.815999999999999,1.0,31.847904075222132
8.824,1.0,31.644664197514498
8.832,1.0,31.441308128472233
8.84,1.0,31.23783637092822
8.847999999999999,1.0,31.034249430333517
8.856,1.0,30.830547814751156
8.864,1.0,30.62673203484993
8.872,0.9999999999999999,30.4228026038977
8.879999999999999,1.0,30.218760037754702
8.888,1.0,30.014604854866832
8.896,1.0,29.81033757625882
8.904,1.0,29.605958725527067
8.911999999999999,1.0,29.40146882883241
8.92,1.0,29.196868414892823
8.928,1.0,28.9921580149761
8.936,0.9999999999999999,28.7873381628921
8.943999999999999,1.0,28.58240939498498
8.952,1.0,28.377372250125376
8.96,1.0,28.172227269702518
8.968,0.9999999999999999,27.96697499761598
8.975999999999999,1.0,27.7616159802673
8.984,1.0,27.55615076655166
8.992,1.0,27.35057990784945
9.0,1.0,27.14490395801746
9.008,0.9999999999999999,26.93912347337998
9.016,0.9999999999999999,26.733239012719917
9.024000000000001,0.9999999999999999,26.527251137269822
9.032,0.9999999999999999,26.32116041070255
9.04,0.9999999999999999,26.114967399121788
9.048,1.0,25.908672671052667
9.056000000000001,1.0,25.7022767974322
9.064,0.9999999999999999,25.495780351599457
9.072,1.0,25.289183909285498
9.08,1.0,25.082488048603476
9.088000000000001,1.0,24.875693350038514
9.096,1.0,24.668800396437344
9.104,0.9999999999999999,24.46180977299773
9.112,1.0,24.25472206725798
9.120000000000001,1.0,24.047537869086344
9.128,1.0,23.84025777067006
9.136,1.0,23.632882366504248
9.144,1.0,23.425412253380962
9.152000000000001,0.9999999999999999,23.217848030377937
9.16,1.0,23.010190298847192
9.168,1.0,22.802439662403344
9.176,0.9999999999999999,22.59459672691214
9.184000000000001,1.0,22.386662100478677
9.192,1.0,22.178636393435465
9.2,1.0,21.970520218330265
9.208,1.0,21.762314189913983
9.216000000000001,0.9999999999999999,21.5540189251285
9.224,0.9999999999999999,21.345635043094116
9.232,1.0,21.13716316509688
9.24,0.9999999999999999,20.928603914575987
9.248000000000001,0.9999999999999999,20.719957917111095
9.256,0.9999999999999999,20.511225800409232
9.264,1.0,20.30240819429157
9.272,1.0,20.093505730680423
9.280000000000001,0.9999999999999999,19.884519043585925
9.288,1.0,19.67544876909247
9.296,0.9999999999999999,19.46629554534507
9.304,1.0,19.257060012535675
9.312000000000001,1.0,19.047742812889474
9.32,0.9999999999999999,18.8383445906508
9.328,0.9999999999999999,18.628865992068945
9.336,0.9999999999999999,18.419307665384064
9.344,0.9999999999999999,18.20967026081295
9.352,0.9999999999999999,17.99995443053424
9.36,0.9999999999999998,17.790160828674246
9.368,1.0,17.5802901112918
9.376,0.9999999999999999,17.370342936363887
9.384,1.0,17.160319963770267
9.392,0.9999999999999999,16.950221855278798
9.4,1.0,16.74004927452988
9.408,0.9999999999999999,16.529802887021532
9.416,0.9999999999999999,16.31948336009356
9.424,1.0,16.10909136291244
9.432,0.9999999999999999,15.898627566455302
9.44,1.0,15.68809264349446
9.448,1.0,15.477487268581205
9.456,1.0,15.266812118030204
9.464,0.9999999999999999,15.05606786990296
9.472,0.9999999999999999,14.845255203992007
9.48,0.9999999999999999,14.634374801804173
9.488,1.0,14.423427346544544
9.496,1.0,14.212413523099478
9.504,1.0,14.001334018020394
9.512,1.0,13.790189519506537
9.52,1.0,13.578980717388548
9.528,1.0,13.367708303111064
9.536,0.9999999999999999,13.15637296971601
9.544,1.0,12.944975411825029
9.552,0.9999999999999999,12.73351632562256
9.56,1.0,12.52199640883806
9.568,0.9999999999999999,12.310416360728864
9.576,1.0,12.098776882062207
9.584,0.9999999999999999,11.887078675097918
9.592,1.0,11.675322443570193
9.6,1.0,11.46350889267012
9.608,1.0,11.251638729027258
9.616,1.0,11.039712660691938
9.624,1.0,10.827731397116697
9.632,1.0,10.615695649138367
9.64,0.9999999999999999,10.403606128959304
9.648,1.0,10.191463550129317
9.656,1.0,9.979268627526722
9.664,0.9999999999999998,9.767022077340048
9.672,1.0,9.554724617048935
9.68,1.0,9.342376965405702
9.688,1.0,9.129979842416011
9.696,1.0000000000000002,8.917533969320276
9.704,1.0,8.705040068574187
9.712,0.9999999999999999,8.492498863829923
9.72,1.0000000000000002,8.279911079916515
9.728,0.9999999999999999,8.067277442820897
9.736,1.0,7.8545986796681335
9.744,1.0,7.641875518702261
9.752,1.0,7.429108689266382
9.76,0.9999999619511866,7.21629892178339
9.768,0.9999998707003397,7.0034469477358385
9.776,0.9999997786772696,6.79055349964658
9.784,0.9999996858936628,6.577619311058467
9.792,0.999999592361261,6.3646451165148274
9.8,0.9999994980918652,6.151631651539046
9.808,0.9999994030973293,5.938579652614891
9.816,0.99999930738956,5.725489857165968
9.824,0.9999992109805145,5.512363003535897
9.832,0.9999991138821983,5.299199830967641
9.84,0.9999990161066631,5.086001079583564
9.847999999999999,0.9999989176660048,4.872767490364657
9.856,0.9999988185723622,4.659499805130242
9.864,0.9999987188379135,4.446198766517526
9.872,0.9999986184748757,4.232865117960914
9.879999999999999,0.9999985174955015,4.019499603671278
9.888,0.9999984159120776,3.806102968615342
