freq,mag,phase
6.0,0.9999922787927332,66.55733831094793
6.008,0.999992326155518,66.39671454458804
6.016,0.9999923688212534,66.23605966362254
6.024,0.9999924069085029,66.0753736678919
6.032,0.9999924405343229,65.9146565574233
6.04,0.9999924698142731,65.75390833243101
6.048,0.9999924948624254,65.59312899331654
6.056,0.9999925157913735,65.43231854066903
6.064,0.9999925327122425,65.27147697526537
6.072,0.999992545734699,65.11060429807054
6.08,0.9999925549669593,64.94970051023779
6.088,0.9999925605157999,64.78876561310896
6.096,0.999992562486567,64.62779960821467
6.104,0.9999925609831852,64.46680249727454
6.112,0.9999925561081681,64.30577428219748
6.12,0.9999925479626267,64.14471496508186
6.128,0.9999925366462791,63.983624548215765
6.136,0.9999925222574604,63.82250303407722
6.144,0.9999925048931317,63.66135042533444
6.152,0.9999924846488902,63.50016672484595
6.16,0.9999924616189773,63.338951935660894
6.168,0.9999924358962886,63.17770606101921
6.176,0.9999924075723844,63.01642910435182
6.184,0.9999923767374975,62.855121069280855
6.192,0.999992343480543,62.69378195961983
6.2,0.9999923078891282,62.532411779373874
6.208,0.999992270049561,62.371010532739895
6.216,0.9999922300468602,62.209578224106764
6.224,0.9999921879647646,62.048114858055534
6.232,0.9999921438857411,61.88662043935956
6.24,0.999992097890996,61.72509497298477
6.248,0.9999920500604825,61.56353846408974
6.256,0.999992000472911,61.40195091802596
6.264,0.9999919492057577,61.24033234033791
6.272,0.9999918963352745,61.07868273676328
6.28,0.9999918419364976,60.91700211323312
6.288,0.9999917860832568,60.75529047587206
6.296,0.9999917288481853,60.5935478309983
6.304,0.9999916703027274,60.43177418512391
6.312,0.9999916105171501,60.26996954495499
6.32,0.9999915495605493,60.10813391739167
6.328,0.9999914875008612,59.94626730952841
6.336,0.9999914244048707,59.78436972865399
6.344,0.999991360338219,59.62244118225181
6.352,0.9999912953654162,59.46048167799988
6.36,0.9999912295498465,59.298491223770995
6.368,0.9999911629537795,59.1364698276329
6.376,0.9999910956383787,58.974417497848364
6.384,0.9999910276637105,58.812334242875295
6.392,0.9999909590887527,58.650220071366896
6.4,0.999990889971404,58.48807499217171
6.408,0.9999908203684931,58.32589901433385
6.416,0.9999907503357875,58.16369214709292
6.424,0.9999906799280016,58.001454399884274
6.432,0.9999906091988072,57.83918578233907
6.44,0.9999905382008403,57.67688630428433
6.448,0.9999904669857118,57.51455597574305
6.456,0.9999903956040156,57.352194806934335
6.464,0.9999903241053372,57.18980280827337
6.472,0.9999902525382629,57.02737999037166
6.48,0.9999901809503884,56.864926364036926
6.4879999999999995,0.999990109388327,56.70244194027335
6.496,0.9999900378977198,56.53992673028153
6.504,0.9999899665232429,56.37738074545866
6.5120000000000005,0.9999898953086167,56.21480399739838
6.52,0.9999898242966145,56.05219649789117
6.5280000000000005,0.9999897535290715,55.88955825892405
6.536,0.999989683046893,55.72688929268096
6.5440000000000005,0.9999896128900627,55.564189611542496
6.552,0.9999895430976525,55.4014592280863
6.5600000000000005,0.9999894737078293,55.23869815508678
6.568,0.9999894047578652,55.07590640551542
6.5760000000000005,0.9999893362841454,54.91308399254052
6.584,0.9999892683221759,54.75023092952768
6.592,0.9999892009065933,54.587347230039335
6.6,0.9999891340711723,54.42443290783508
6.608,0.9999890678488345,54.26148797687168
6.616,0.9999890022716564,54.09851245130297
6.624,0.9999889373708795,53.935506345480036
6.632,0.999988873176915,53.772469673951036
6.64,0.9999888097193563,53.60940245146142
6.648,0.9999887470269845,53.44630469295378
6.656,0.9999886851277777,53.283176413567936
6.664,0.9999886240489191,53.12001762864092
6.672,0.9999885638168051,52.95682835370701
6.68,0.9999885044570539,52.79360860449764
6.688,0.9999884459945136,52.6303583969415
6.696,0.9999883884532695,52.46707774716445
6.704,0.9999883318566534,52.30376667148957
6.712,0.9999882762272505,52.14042518643707
6.72,0.9999882215869094,51.97705330872436
6.728,0.9999881679567477,51.813651055265915
6.736,0.9999881153571617,51.65021844317341
6.744,0.9999880638078341,51.486755489755545
6.752,0.9999880133277412,51.323262212518046
6.76,0.9999879639351623,51.15973862916373
6.768,0.9999879156476853,50.996184757592346
6.776,0.9999878684822174,50.83260061590058
6.784,0.9999878224549911,50.66898622238205
6.792,0.9999877775815719,50.5053415955272
6.8,0.9999877338768675,50.34166675402329
6.808,0.9999876913551347,50.177961716754304
6.816,0.999987650029986,50.014226502800966
6.824,0.9999876099143999,49.850461131440596
6.832,0.9999875710207269,49.68666562214714
6.84,0.9999875333606967,49.52283999459102
6.848,0.9999874969454277,49.358984268639084
6.856,0.9999874617854324,49.1950984643546
6.864,0.9999874278906269,49.031182601997145
6.872,0.9999873952703369,48.86723670202246
6.88,0.9999873639333059,48.7032607850825
6.888,0.9999873338877033,48.53925487202524
6.896,0.9999873051411308,48.37521898389465
6.904,0.9999872777006301,48.211153141930595
6.912,0.9999872515726909,48.047057367568755
6.92,0.9999872267632568,47.88293168244045
6.928,0.9999872032777347,47.718776108372694
6.936,0.9999871811210004,47.55459066738796
6.944,0.9999871602974066,47.390375381704146
6.952,0.9999871408107899,47.226130273734434
6.96,0.9999871226644784,47.061855366087215
6.968,0.9999871058612984,46.897550681565946
6.976,0.999987090403581,46.733216243169046
6.984,0.9999870762931711,46.568852074089804
6.992,0.9999870635314326,46.40445819771621
7.0,0.999987052119256,46.24003463763088
7.008,0.9999870420570662,46.0755814176109
7.016,0.999987033344828,45.91109856162769
7.024,0.9999870259820544,45.74658609384693
7.032,0.999987019967813,45.58204403862831
7.04,0.9999870153007324,45.41747242052554
7.048,0.9999870119790094,45.252871264286114
7.056,0.9999870100004171,45.088240594851136
7.064,0.9999870093623092,44.923580437355305
7.072,0.9999870100616283,44.75889081712662
7.08,0.9999870120949129,44.59417175968634
7.088,0.9999870154583029,44.42942329074876
7.096,0.9999870201475473,44.264645436221095
7.104,0.99998702615801,44.09983822220329
7.112,0.9999870334846768,43.93500167498789
7.12,0.9999870421221626,43.770135821059824
7.128,0.9999870520647165,43.605240687096305
7.136,0.9999870633062287,43.440316299966604
7.144,0.999987075840238,43.27536268673188
7.152,0.9999870896599371,43.11037987464505
7.16,0.9999871047581798,42.945367891150575
7.168,0.9999871211274851,42.78032676388427
7.176,0.9999871387600475,42.61525652067311
7.184,0.9999871576477397,42.45015718953511
7.192,0.9999871777821203,42.28502879867908
7.2,0.9999871991544399,42.11987137650439
7.208,0.9999872217556472,41.95468495160092
7.216,0.9999872455763951,41.789469552748685
7.224,0.999987270607047,41.624225208917764
7.232,0.9999872968376816,41.45895194926803
7.24,0.9999873242581016,41.293649803148995
7.248,0.9999873528578368,41.12831880009957
7.256,0.9999873826261517,40.962958969847804
7.264,0.9999874135520509,40.79757034231079
7.272,0.9999874456242851,40.63215294759438
7.28,0.999987478831357,40.46670681599291
7.288,0.9999875131615263,40.301231977989126
7.296,0.999987548602817,40.135728464253766
7.304,0.9999875851430221,39.97019630564556
7.312,0.9999876227697089,39.804635533210785
7.32,0.9999876614702259,39.63904617818321
7.328,0.9999877012317069,39.47342827198372
7.336,0.9999877420410781,39.307781846220166
7.344,0.9999877838850627,39.142106932687135
7.352,0.9999878267501862,38.976403563365636
7.36,0.9999878706227828,38.81067177042292
7.368,0.9999879154890003,38.64491158621222
7.376,0.999987961334805,38.47912304327245
7.384,0.9999880081459882,38.313306174328055
7.392,0.9999880559081704,38.14746101228867
7.4,0.9999881046068066,37.98158759024893
7.4079999999999995,0.999988154227193,37.81568594148815
7.416,0.9999882047544706,37.64975609947004
7.4239999999999995,0.9999882561736305,37.48379809784265
7.432,0.9999883084695204,37.31781197043776
7.4399999999999995,0.9999883616268478,37.15179775127096
7.448,0.9999884156301867,36.98575547454112
7.4559999999999995,0.999988470463981,36.81968517463028
7.464,0.9999885261125512,36.65358688610326
7.4719999999999995,0.999988582560098,36.48746064370753
7.48,0.9999886397907081,36.321306482372684
7.4879999999999995,0.9999886977883574,36.1551244372105
7.496,0.9999887565369189,35.98891454351434
7.504,0.9999888160201639,35.822676836759065
7.5120000000000005,0.9999888762217696,35.65641135260056
7.52,0.999988937125322,35.49011812687574
7.5280000000000005,0.9999889987143212,35.32379719560191
7.536,0.9999890609721865,35.15744859497676
7.5440000000000005,0.9999891238822594,34.991072361377846
7.552,0.999989187427811,34.82466853136246
7.5600000000000005,0.9999892515920425,34.658237141667186
7.568,0.9999893163580943,34.49177822920778
7.5760000000000005,0.999989381709046,34.32529183107858
7.584,0.999989447627924,34.15877798455258
7.5920000000000005,0.9999895140977043,33.992236727080694
7.6,0.9999895811013169,33.825668096291864
7.6080000000000005,0.9999896486216503,33.65907212999233
7.616,0.9999897166415568,33.49244886616572
7.6240000000000006,0.999989785143854,33.32579834297238
7.632,0.9999898541113316,33.15912059874933
7.640000000000001,0.9999899235267546,32.99241567200968
7.648,0.9999899933728669,32.82568360144262
7.656000000000001,0.9999900636323956,32.65892442591273
7.664,0.9999901342880553,32.49213818446001
7.672,0.9999902053225519,32.32532491629921
7.68,0.9999902767185863,32.15848466081979
7.688,0.9999903484588581,31.991617457585416
7.696,0.9999904205260707,31.824723346333645
7.704,0.9999904929029335,31.65780236697562
7.712,0.999990565572166,31.490854559595732
7.72,0.9999906385165018,31.323879964451244
7.728,0.9999907117186939,31.156878621971924
7.736,0.9999907851615146,30.989850572759813
7.744,0.9999908588277622,30.822795857588734
7.752,0.9999909327002635,30.655714517404036
7.76,0.9999910067618776,30.48860659332221
7.768,0.9999910809954987,30.3214721266305
7.776,0.9999911553840605,30.15431115878664
7.784,0.9999912299105383,29.98712373141838
7.792,0.9999913045579546,29.819909886323227
7.8,0.9999913793093793,29.652669665468018
7.808,0.9999914541479356,29.485403110988567
7.816,0.9999915290568022,29.318110265189336
7.824,0.9999916040192166,29.150791170543027
7.832,0.999991679018478,28.983445869690218
7.84,0.9999917540379509,28.816074405439
7.848,0.9999918290610678,28.648676820764635
7.856,0.9999919040713325,28.481253158809103
7.864,0.9999919790523233,28.313803462880816
7.872,0.9999920539876949,28.14632777645418
7.88,0.9999921288611826,27.978826143169208
7.888,0.9999922036566047,27.811298606831226
7.896,0.999992278357865,27.643745211410344
7.904,0.9999923529489562,27.476166001041232
7.912,0.9999924274139621,27.3085610200226
7.92,0.9999925017370612,27.140930312816877
7.928,0.999992575902528,26.973273924049828
7.936,0.9999926498947368,26.805591898510126
7.944,0.9999927236981639,26.637884281148974
7.952,0.9999927972973905,26.47015111707972
7.96,0.9999928706771045,26.30239245157745
7.968,0.999992943822104,26.134608330078592
7.976,0.9999930167172983,25.966798798180513
7.984,0.9999930893477125,25.798963901641123
7.992,0.999993161698487,25.631103686378484
8.0,0.9999932337548828,25.46321819847036
8.008,0.9999933055022817,25.2953074841539
8.016,0.9999933769261895,25.127371589825067
8.024000000000001,0.9999934480122381,24.959410562038457
8.032,0.9999935187461874,24.79142444750674
8.04,0.9999935891139272,24.62341329310023
8.048,0.9999936591014809,24.455377145846498
8.056000000000001,0.999993728695005,24.287316052930056
8.064,0.9999937978807939,24.119230061691862
8.072,0.9999938666452793,23.95111921962883
8.08,0.9999939349750342,23.782983574393484
8.088000000000001,0.9999940028567736,23.614823173793596
8.096,0.999994070277357,23.44663806579172
8.104,0.9999941372237895,23.27842829850468
8.112,0.9999942036832247,23.110193920203205
8.120000000000001,0.9999942696429657,22.941934979311597
8.128,0.9999943350904668,22.77365152440723
8.136,0.9999944000133353,22.605343604220035
8.144,0.9999944643993337,22.437011267632137
8.152000000000001,0.9999945282363806,22.268654563677508
8.16,0.9999945915125523,22.10027354154151
8.168,0.9999946542160848,21.93186825056027
8.176,0.9999947163353752,21.763438740220437
8.184000000000001,0.9999947778589823,21.594985060158734
8.192,0.9999948387756301,21.426507260161515
8.2,0.9999948990742065,21.258005390164207
8.208,0.9999949587437666,21.089479500250935
8.216000000000001,0.9999950177735335,20.92092964065421
8.224,0.9999950761528996,20.752355861754342
8.232,0.9999951338714272,20.583758214078994
8.24,0.9999951909188505,20.415136748302753
8.248000000000001,0.999995247285077,20.24649151524676
8.256,0.9999953029601879,20.077822565878247
8.264,0.9999953579344388,19.909129951309957
8.272,0.9999954121982628,19.740413722799783
8.280000000000001,0.9999954657422685,19.571673931750382
8.288,0.9999955185572442,19.4029106297087
8.296,0.9999955706341567,19.23412386836536
8.304,0.9999956219641528,19.065313699554352
8.312,0.9999956725385603,18.896480175252666
8.32,0.9999957223488887,18.72762334757956
8.328,0.9999957713868299,18.558743268796434
8.336,0.9999958196442603,18.389839991306033
8.344,0.9999958671132391,18.220913567652325
8.352,0.9999959137860112,18.0519640505197
8.36,0.9999959596550069,17.88299149273284
8.368,0.9999960047128423,17.713995947255977
8.376,0.9999960489523209,17.54497746719265
8.384,0.9999960923664329,17.375936105785023
8.392,0.9999961349483575,17.20687191641368
8.4,0.9999961766914615,17.03778495259685
8.408,0.9999962175893006,16.868675267990273
8.416,0.9999962576356204,16.699542916386413
8.424,0.9999962968243556,16.530387951714275
8.432,0.9999963351496324,16.361210428038643
8.44,0.9999963726057659,16.19201039955994
8.448,0.9999964091872628,16.022787920613407
8.456,0.9999964448888212,15.85354304566896
8.464,0.9999964797053303,15.684275829330408
8.472,0.9999965136318706,15.514986326335292
8.48,0.9999965466637147,15.345674591554062
8.488,0.9999965787963271,15.176340679989977
8.496,0.9999966100253642,15.006984646778262
8.504,0.9999966403466751,14.83760654718594
8.512,0.9999966697563002,14.668206436611108
8.52,0.9999966982504728,14.498784370582682
8.528,0.999996725825618,14.329340404759654
8.536,0.999996752478354,14.159874594930917
8.544,0.9999967782054897,13.990386997014472
8.552,0.9999968030040272,13.820877667057243
8.56,0.99999682687116,13.651346661234287
8.568,0.9999968498042737,13.481794035848633
8.576,0.9999968718009452,13.312219847330482
8.584,0.9999968928589429,13.142624152237007
8.592,0.999996912976226,12.973007007251608
8.6,0.9999969321509452,12.803368469183667
8.608,0.9999969503814413,12.633708594967818
8.616,0.9999969676662451,12.464027441663717
8.624,0.999996984004078,12.294325066455269
8.632,0.9999969993938504,12.12460152665044
8.64,0.9999970138346619,11.954856879680454
8.648,0.9999970273258002,11.785091183099633
8.656,0.9999970398667418,11.615304494584558
8.664,0.9999970514571511,11.44549687193391
8.672,0.9999970620968786,11.275668373067672
8.68,0.9999970717859621,11.105819056026922
8.688,0.9999970805246252,10.935948978973062
8.696,0.9999970883132774,10.766058200187592
8.704,0.9999970951525119,10.596146778071338
8.712,0.9999971010431066,10.426214771144261
8.72,0.999997105986023,10.256262238044629
8.728,0.9999971099824048,10.086289237528852
8.736,0.999997113033578,9.916295828470668
8.744,0.9999971151410499,9.746282069860944
8.752,0.9999971163065078,9.576248020806887
8.76,0.9999971165318186,9.406193740531839
8.768,0.9999971158190284,9.23611928837447
8.776,0.9999971141703604,9.066024723788592
8.784,0.999997111588216,8.895910106342347
8.792,0.9999971080751715,8.725775495718008
8.8,0.9999971036339789,8.555620951711182
8.808,0.9999970982675642,8.3854465342306
8.815999999999999,0.9999970919790266,8.215252303297364
8.824,0.9999970847716378,8.045038319044533
8.832,0.9999970766488404,7.874804641716721
8.84,0.999997067614247,7.704551331669502
8.847999999999999,0.9999970576716394,7.534278449368837
8.856,0.9999970468249673,7.3639860553906376
8.864,0.9999970350783469,7.193674210420337
8.872,0.9999970224360611,7.02334297525232
8.879999999999999,0.9999970089025558,6.8529924107893265
8.888,0.9999969944824417,6.682622578042027
8.896,0.9999969791804905,6.51223353812859
8.904,0.999996963001635,6.341825352274105
8.911999999999999,0.9999969459509682,6.1713980818099845
8.92,0.9999969280337411,6.000951788173545
8.928,0.9999969092553618,5.830486532907574
8.936,0.9999968896213939,5.660002377659731
8.943999999999999,0.9999968691375556,5.4894993841819835
8.952,0.9999968478097189,5.31897761433015
8.96,0.9999968256439065,5.148437130063493
8.968,0.9999968026462918,4.9778779934441015
8.975999999999999,0.9999967788231975,4.807300266636333
8.984,0.9999967541810936,4.636704011906361
8.992,0.9999967287265954,4.466089291621747
9.0,0.9999967024664644,4.2954561682508485
9.008,0.9999966754076038,4.124804704362236
9.016,0.9999966475570592,3.954134962624254
9.024000000000001,0.999996618922016,3.7834470058045864
9.032,0.9999965895097984,3.6127408967696613
9.04,0.9999965593278677,3.442016698484074
9.048,0.9999965283838202,3.2712744740101387
9.056000000000001,0.9999964966853874,3.1005142865074555
9.064,0.999996464240431,2.929736199232325
9.072,0.9999964310569455,2.7589402755371446
9.08,0.9999963971430532,2.588126578869987
9.088000000000001,0.9999963625070049,2.4172951727741503
9.096,0.9999963271571757,2.246446120887575
9.104,0.9999962911020662,2.075579486942238
9.112,0.9999962543502995,1.9046953347637343
9.120000000000001,0.9999962169106184,1.7337937282708251
9.128,0.9999961787918846,1.5628747314748486
9.136,0.999996140003079,1.391938408479122
9.144,0.9999961005532961,1.2209848234785101
9.152000000000001,0.9999960604517454,1.0500140407589893
9.16,0.9999960197077479,0.8790261246970352
9.168,0.9999959783307346,0.708021139759049
9.176,0.9999959363302463,0.5369991505009083
9.184000000000001,0.999995893715929,0.365960221567528
9.192,0.9999958504975343,0.19490441769226763
9.2,0.9999958066849172,0.023831803696328802
9.208,0.9999957622880331,-0.14725755551166814
9.216000000000001,0.9999957173169378,-0.31836359493614336
9.224,0.9999956717817835,-0.48948624949514563
9.232,0.999995625692819,-0.6606254540209426
9.24,0.9999955790603863,-0.8317811432604698
9.248000000000001,0.99999553189492,-1.0029532518757716
9.256,0.9999954842069437,-1.17414171444459
9.264,0.9999954360070702,-1.3453464654609653
9.272,0.9999953873059984,-1.5165674393356843
9.280000000000001,0.9999953381145102,-1.6878045703967075
9.288,0.9999952884434714,-1.8590577928897838
9.296,0.9999952383038277,-2.0303270409790275
9.304,0.9999951877066028,-2.201612248747383
9.312000000000001,0.9999951366628977,-2.372913350197053
9.32,0.9999950851838875,-2.5442302792500886
9.328,0.99999503328082,-2.7155629697490107
9.336,0.9999949809650134,-2.8869113554572285
9.344,0.9999949282478552,-3.0582753700594636
9.352,0.9999948751407992,-3.22965494716253
9.36,0.9999948216553637,-3.401050020295543
9.368,0.9999947678031301,-3.5724605229107596
9.376,0.99999471359574,-3.743886388383779
9.384,0.9999946590448944,-3.9153275500143914
9.392,0.9999946041623503,-4.086783941026768
9.4,0.9999945489599195,-4.258255494570306
9.408,0.9999944934494668,-4.4297421437198325
9.416,0.9999944376429073,-4.601243821476446
9.424,0.9999943815522045,-4.772760460767718
9.432,0.9999943251893695,-4.9442919944485295
9.44,0.9999942685664567,-5.115838355301289
9.448,0.9999942116955634,-5.287399476036749
9.456,0.9999941545888276,-5.458975289294236
9.464,0.9999940972584258,-5.630565727642481
9.472,0.9999940397165706,-5.802170723579812
9.48,0.999993981975509,-5.973790209535014
9.488,0.9999939240475209,-6.145424117867521
9.496,0.9999938659449152,-6.317072380868273
9.504,0.9999938076800303,-6.488734930759894
9.512,0.9999937492652298,-6.660411699697563
9.52,0.9999936907129024,-6.832102619769195
9.528,0.999993632035458,-7.003807622996301
9.536,0.9999935732453271,-7.175526641334194
9.544,0.999993514354958,-7.3472596066728055
9.552,0.9999934553768147,-7.519006450836929
9.56,0.9999933963233759,-7.6907671055870335
9.568,0.9999933372071311,-7.862541502619479
9.576,0.9999932780405809,-8.034329573567362
9.584,0.9999932188362325,-8.206131250000736
