freq,mag,phase
6.0,0.9999905909075222,-110.5216745276578
6.008,0.9999916716859849,-110.91961805844984
6.016,0.999992714290929,-111.3175273844389
6.024,0.9999937194197763,-111.71540234855199
6.032,0.9999946877629597,-112.11324279648484
6.04,0.9999956200039424,-112.51104857668841
6.048,0.9999965168192347,-112.90881954035571
6.056,0.9999973788784092,-113.3065555414085
6.064,0.9999982068441216,-113.70425643648402
6.072,0.9999990013721259,-114.10192208492164
6.08,0.9999997631112973,-114.49955234874975
6.088,1.0,-114.89714709267233
6.096,1.0,-115.29470618405574
6.104,0.9999999999999999,-115.69222949291566
6.112,0.9999999999999999,-116.08971689190363
6.12,1.0,-116.48716825629394
6.128,1.0,-116.88458346397034
6.136,0.9999999999999999,-117.28196239541307
6.144,1.0,-117.67930493368551
6.152,1.0,-118.07661096442094
6.16,0.9999999999999998,-118.4738803758097
6.168,1.0,-118.87111305858565
6.176,1.0,-119.26830890601346
6.184,0.9999999999999999,-119.6654678138753
6.192,0.9999999999999999,-120.06258968045783
6.2,0.9999999999999999,-120.45967440653911
6.208,1.0,-120.85672189537556
6.216,1.0,-121.2537320526891
6.224,0.9999999999999999,-121.65070478665399
6.232,1.0,-122.04764000788393
6.24,0.9999999999999999,-122.44453762941905
6.248,0.9999999999999999,-122.84139756671318
6.256,0.9999999999999999,-123.23821973762081
6.264,1.0,-123.63500406238413
6.272,1.0,-124.03175046362047
6.28,1.0,-124.42845886630923
6.288,1.0,-124.82512919777925
6.296,1.0,-125.22176138769592
6.304,0.9999999999999999,-125.6183553680486
6.312,1.0,-126.01491107313763
6.32,0.9999999999999999,-126.41142843956217
6.328,1.0,-126.80790740620695
6.336,1.0,-127.20434791423018
6.344,0.9999999999999999,-127.60074990705054
6.352,1.0,-127.99711333033491
6.36,0.9999999999999999,-128.3934381319858
6.368,0.9999999999999999,-128.78972426212871
6.376,1.0,-129.1859716730999
6.384,1.0,-129.58218031943377
6.392,1.0,-129.9783501578506
6.4,0.9999999999999999,-130.37448114724407
6.408,1.0,-130.7705732486691
6.416,1.0,-131.1666264253294
6.424,0.9999999999999999,-131.56264064256533
6.432,1.0,-131.9586158678416
6.44,1.0,-132.35455207073514
6.448,1.0,-132.750449222923
6.456,1.0,-133.14630729817014
6.464,1.0,-133.54212627231735
6.472,0.9999999999999999,-133.93790612326924
6.48,1.0,-134.3336468309824
6.4879999999999995,0.9999999999999999,-134.72934837745308
6.496,0.9999999999999999,-135.1250107467058
6.504,1.0,-135.52063392478073
6.5120000000000005,1.0,-135.9162178997226
6.52,1.0,-136.31176266156822
6.5280000000000005,1.0,-136.7072682023354
6.536,1.0,-137.10273451601054
6.5440000000000005,1.0,-137.49816159853734
6.552,1.0,-137.89354944780496
6.5600000000000005,0.9999999999999999,-138.28889806363674
6.568,1.0,-138.68420744777794
6.5760000000000005,1.0,-139.079477603885
6.584,1.0,-139.47470853751344
6.592,1.0,-139.8699002561067
6.6,0.9999999999999999,-140.26505276898473
6.608,1.0,-140.66016608733233
6.616,0.9999999999999999,-141.0552402241882
6.624,1.0,-141.4502751944333
6.632,1.0,-141.8452710147798
6.64,1.0,-142.2402277037598
6.648,1.0,-142.6351452817142
6.656,1.0000000000000002,-143.03002377078138
6.664,1.0,-143.42486319488637
6.672,1.0,-143.81966357972956
6.68,1.0,-144.21442495277591
6.688,1.0,-144.60914734324368
6.696,1.0,-145.00383078209373
6.704,0.9999999999999999,-145.39847530201862
6.712,1.0,-145.7930809374316
6.72,0.9999999999999999,-146.18764772445599
6.728,0.9999997428496782,-146.58217570091423
6.736,0.9999994215419001,-146.97666490631718
6.744,0.9999991000464363,-147.3711153818536
6.752,0.9999987785403027,-147.7655271703793
6.76,0.9999984571964471,-148.1599003164066
6.768,0.9999981361837949,-148.5542348660937
6.776,0.9999978156672842,-148.94853086723435
6.784,0.9999974958079078,-149.34278836924705
6.792,0.9999971767627521,-149.7370074231649
6.8,0.9999968586850377,-150.131188081625
6.808,0.9999965417241571,-150.52533039885807
6.816,0.9999962260257174,-150.9194344306783
6.824,0.9999959117315764,-151.3135002344728
6.832,0.9999955989798855,-151.70752786919167
6.84,0.9999952879051267,-152.1015173953374
6.848,0.9999949786381538,-152.495468874955
6.856,0.9999946713062309,-152.88938237162185
6.864,0.9999943660330725,-153.2832579504373
6.872,0.9999940629388823,-153.677095678013
6.88,0.9999937621403928,-154.07089562246264
6.888,0.9999934637509057,-154.4646578533921
6.896,0.9999931678803282,-154.8583824418894
6.904,0.9999928746352149,-155.2520694605148
6.912,0.9999925841188061,-155.6457189832911
6.92,0.9999922964310661,-156.0393310856935
6.928,0.9999920116687233,-156.4329058446402
6.936,0.9999917299253076,-156.82644333848236
6.944,0.9999914512911907,-157.2199436469944
6.952,0.9999911758536232,-157.61340685136446
6.96,0.999990903696774,-158.00683303418464
6.968,0.9999906349017706,-158.4002222794415
6.976,0.999990369546733,-158.79357467250634
6.984,0.9999901077068162,-159.18689030012573
6.992,0.9999898494542466,-159.58016925041215
7.0,0.9999895948583596,-159.9734116128343
7.008,0.9999893439856393,-160.36661747820776
7.016,0.9999890968997545,-160.75978693868566
7.024,0.9999888536615968,-161.15292008774932
7.032,0.9999886143293201,-161.54601702019875
7.04,0.9999883789583746,-161.93907783214348
7.048,0.9999881476015483,-162.33210262099345
7.056,0.9999879203089997,-162.72509148544952
7.064,0.9999876971282987,-163.11804452549447
7.072,0.999987478104462,-163.51096184238364
7.08,0.9999872632799893,-163.9038435386361
7.088,0.9999870526949013,-164.29668971802533
7.096,0.9999868463867753,-164.68950048557022
7.104,0.9999866443907814,-165.08227594752603
7.112,0.9999864467397197,-165.47501621137545
7.12,0.9999862534640559,-165.86772138581952
7.128,0.9999860645919573,-166.26039158076892
7.136,0.999985880149327,-166.65302690733472
7.144,0.9999857001598427,-167.04562747781983
7.152,0.9999855246449899,-167.43819340571005
7.16,0.9999853536240971,-167.8307248056651
7.168,0.9999851871143716,-168.22322179351016
7.176,0.999985025130934,-168.6156844862267
7.184,0.9999848676868546,-169.00811300194417
7.192,0.9999847147931846,-169.400507459931
7.2,0.9999845664589941,-169.7928679805861
7.208,0.9999844226914042,-170.18519468543008
7.216,0.9999842834956207,-170.57748769709679
7.224,0.999984148874971,-170.96974713932462
7.232,0.9999840188309339,-171.36197313694794
7.24,0.9999838933631752,-171.75416581588865
7.248,0.999983772469581,-172.1463253031476
7.256,0.9999836561462899,-172.5384517267961
7.264,0.9999835443877274,-172.93054521596747
7.272,0.9999834371866366,-173.32260590084869
7.28,0.9999833345341125,-173.71463391267187
7.288,0.9999832364196343,-174.10662938370595
7.296,0.9999831428310955,-174.49859244724823
7.304,0.9999830537548375,-174.8905232376163
7.312,0.9999829691756823,-175.28242189013932
7.32,0.9999828890769612,-175.67428854115005
7.328,0.9999828134405494,-176.06612332797653
7.336,0.9999827422468929,-176.45792638893374
7.344,0.9999826754750442,-176.8496978633154
7.352,0.9999826131026891,-177.24143789138586
7.36,0.9999825551061801,-177.63314661437173
7.368,0.9999825014605632,-178.024824174454
7.376,0.9999824521396127,-178.41647071475964
7.384,0.999982407115856,-178.80808637935365
7.392,0.9999823663606063,-179.1996713132308
7.4,0.9999823298439914,-179.59122566230772
7.4079999999999995,0.9999822975349826,-179.9827495734147
7.416,0.9999822694014234,179.6257568057121
7.4239999999999995,0.9999822454100581,179.23429332643917
7.432,0.9999822255265616,178.84285983924303
7.4399999999999995,0.9999822097155663,178.45145619371885
7.448,0.9999821979406903,178.06008223858782
7.4559999999999995,0.9999821901645657,177.6687378217056
7.464,0.9999821863488658,177.27742279006986
7.4719999999999995,0.9999821864543327,176.88613698982866
7.48,0.9999821904408042,176.49488026628774
7.4879999999999995,0.9999821982672408,176.1036524639191
7.496,0.9999822098917521,175.71245342636823
7.504,0.9999822252716237,175.32128299646254
7.5120000000000005,0.9999822443633437,174.93014101621864
7.52,0.999982267122626,174.5390273268508
7.5280000000000005,0.9999822935044407,174.14794176877805
7.536,0.9999823234630354,173.7568841816328
7.5440000000000005,0.999982356951962,173.36585440426774
7.552,0.9999823939241024,172.97485227476454
7.5600000000000005,0.9999824343316913,172.58387763044067
7.568,0.9999824781263437,172.19293030785806
7.5760000000000005,0.9999825252590756,171.80201014283006
7.584,0.9999825756803313,171.4111169704299
7.5920000000000005,0.999982629340005,171.0202506249976
7.6,0.999982686187466,170.62941094014857
7.6080000000000005,0.9999827461715795,170.23859774878036
7.616,0.9999828092407329,169.84781088308134
7.6240000000000006,0.9999828753428563,169.4570501745374
7.632,0.9999829444254466,169.06631545394043
7.640000000000001,0.9999830164355883,168.67560655139548
7.648,0.9999830913199768,168.2849232963287
7.656000000000001,0.9999831690249397,167.89426551749463
7.664,0.9999832494964586,167.50363304298435
7.672,0.9999833326801905,167.1130257002325
7.68,0.9999834185214893,166.72244331602542
7.688,0.9999835069654259,166.3318857165085
7.696,0.9999835979568091,165.94135272719382
7.704,0.9999836914402068,165.55084417296774
7.712,0.9999837873599643,165.16035987809852
7.72,0.9999838856602271,164.769899666244
7.728,0.9999839862849568,164.37946336045883
7.736,0.9999840891779544,163.98905078320252
7.744,0.9999841942828771,163.59866175634667
7.752,0.999984301543257,163.20829610118267
7.76,0.9999844109025223,162.81795363842917
7.768,0.9999845223040122,162.42763418823975
7.776,0.9999846356909982,162.03733757021038
7.784,0.9999847510067004,161.64706360338695
7.792,0.9999848681943053,161.25681210627297
7.8,0.9999849871969845,160.86658289683692
7.808,0.99998510795791,160.4763757925198
7.816,0.9999852304202724,160.08619061024285
7.824,0.9999853545272989,159.69602716641486
7.832,0.9999854802222665,159.30588527693988
7.84,0.999985607448521,158.9157647572246
7.848,0.9999857361494919,158.52566542218585
7.856,0.9999858662687093,158.13558708625843
7.864,0.9999859977498174,157.7455295634022
7.872,0.9999861305365918,157.35549266710987
7.88,0.9999862645729533,156.96547621041455
7.888,0.999986399802984,156.57548000589708
7.896,0.9999865361709397,156.18550386569368
7.904,0.9999866736212673,155.7955476015034
7.912,0.9999868120986156,155.40561102459574
7.92,0.9999869515478524,155.0156939458181
7.928,0.9999870919140753,154.62579617560326
7.936,0.9999872331426269,154.23591752397692
7.944,0.9999873751791079,153.84605780056538
7.952,0.9999875179693887,153.45621681460278
7.96,0.9999876614596237,153.06639437493885
7.968,0.9999878055962629,152.67659029004642
7.976,0.9999879503260638,152.28680436802867
7.984,0.9999880955961051,151.89703641662717
7.992,0.9999882413537959,151.50728624322883
8.0,0.9999883875468898,151.11755365487397
8.008,0.9999885341234943,150.72783845826348
8.016,0.9999886810320833,150.33814045976635
8.024000000000001,0.9999888282215073,149.9484594654276
8.032,0.9999889756410033,149.55879528097546
8.04,0.9999891232402073,149.16914771182908
8.048,0.9999892709691616,148.77951656310574
8.056000000000001,0.999989418778328,148.38990163962907
8.064,0.9999895666185952,148.00030274593612
8.072,0.999989714441289,147.6107196862849
8.08,0.9999898621981819,147.22115226466204
8.088000000000001,0.9999900098415017,146.83160028479057
8.096,0.9999901573239407,146.44206355013728
8.104,0.9999903045986649,146.05254186392025
8.112,0.9999904516193207,145.6630350291164
8.120000000000001,0.9999905983400449,145.27354284846936
8.128,0.999990744715472,144.8840651244969
8.136,0.9999908907007427,144.49460165949844
8.144,0.9999910362515093,144.1051522555625
8.152000000000001,0.9999911813239463,143.71571671457482
8.16,0.9999913258747544,143.32629483822572
8.168,0.9999914698611699,142.93688642801723
8.176,0.9999916132409704,142.54749128527143
8.184000000000001,0.9999917559724809,142.15810921113777
8.192,0.9999918980145809,141.76874000660075
8.2,0.9999920393267105,141.37938347248732
8.208,0.9999921798688762,140.9900394094747
8.216000000000001,0.9999923196016557,140.6007076180982
8.224,0.9999924584862054,140.21138789875872
8.232,0.9999925964842641,139.8220800517302
8.24,0.999992733558158,139.43278387716742
8.248000000000001,0.9999928696708079,139.04349917511394
8.256,0.9999930047857305,138.65422574550942
8.264,0.999993138867046,138.26496338819737
8.272,0.9999932718794806,137.8757119029328
8.280000000000001,0.9999934037883718,137.4864710893901
8.288,0.9999935345596713,137.09724074717076
8.296,0.99999366415995,136.70802067581062
8.304,0.9999937925564004,136.31881067478793
8.312,0.9999939197168407,135.92961054353114
8.32,0.9999940456097179,135.54042008142633
8.328,0.9999941702041112,135.15123908782527
8.336,0.9999942934697343,134.76206736205265
8.344,0.9999944153769379,134.37290470341443
8.352,0.999994535896713,133.983750911205
8.36,0.9999946550006933,133.59460578471547
8.368,0.9999947726611559,133.2054691232407
8.376,0.9999948888510248,132.81634072608796
8.384,0.9999950035438724,132.42722039258376
8.392,0.9999951167139208,132.0381079220825
8.4,0.9999952283360435,131.64900311397335
8.408,0.999995338385766,131.25990576768893
8.416,0.9999954468392682,130.8708156827122
8.424,0.9999955536733844,130.48173265858506
8.432,0.9999956588656048,130.09265649491533
8.44,0.9999957623940746,129.70358699138544
8.448,0.9999958642375977,129.3145239477593
8.456,0.999995964375633,128.92546716389103
8.464,0.9999960627882974,128.5364164397317
8.472,0.9999961594563649,128.14737157533838
8.48,0.9999962543612662,127.75833237088075
8.488,0.9999963474850889,127.3692986266499
8.496,0.9999964388105773,126.98027014306535
8.504,0.9999965283211302,126.5912467206837
8.512,0.9999966160008023,126.20222816020555
8.52,0.999996701834302,125.81321426248425
8.528,0.9999967858069908,125.42420482853287
8.536,0.9999968679048814,125.03519965953288
8.544,0.9999969481146379,124.64619855684117
8.552,0.9999970264235724,124.25720132199875
8.56,0.9999971028196454,123.86820775673769
8.568,0.999997177291462,123.4792176629899
8.576,0.9999972498282719,123.09023084289413
8.584,0.999997320419966,122.70124709880459
8.592,0.9999973890570758,122.31226623329809
8.6,0.9999974557307685,121.92328804918267
8.608,0.9999975204328483,121.53431234950465
8.616,0.9999975831557502,121.14533893755728
8.624,0.9999976438925392,120.75636761688784
8.632,0.9999977026369083,120.36739819130635
8.64,0.9999977593831736,119.97843046489261
8.648,0.9999978141262732,119.58946424200472
8.656,0.9999978668617618,119.20049932728651
8.664,0.9999979175858104,118.81153552567575
8.672,0.9999979662952001,118.42257264241167
8.68,0.9999980129873205,118.03361048304326
8.688,0.999998057660165,117.6446488534367
8.696,0.9999981003123278,117.25568755978365
8.704,0.9999981409430003,116.86672640860864
8.712,0.9999981795519658,116.47776520677755
8.72,0.9999982161395967,116.08880376150482
8.728,0.9999982507068501,115.6998418803619
8.736,0.999998283255264,115.31087937128461
8.744,0.9999983137869515,114.92191604258157
8.752,0.9999983423045983,114.53295170294132
8.76,0.9999983688114563,114.14398616144106
8.768,0.999998393311341,113.75501922755362
8.776,0.999998415808624,113.3660507111561
8.784,0.9999984363082318,112.97708042253704
8.792,0.9999984548156378,112.58810817240492
8.8,0.9999984713368584,112.19913377189525
8.808,0.9999984858784482,111.81015703257927
8.815999999999999,0.9999984984474951,111.42117776647098
8.824,0.9999985090516137,111.03219578603537
8.832,0.9999985176989415,110.6432109041964
8.84,0.9999985243981325,110.25422293434451
8.847999999999999,0.9999985291583524,109.86523169034446
8.856,0.9999985319892719,109.4762369865431
8.864,0.9999985329010629,109.08723863777753
8.872,0.9999985319043907,108.69823645938258
8.879999999999999,0.9999985290104103,108.30923026719847
8.888,0.9999985242307585,107.92021987757882
8.896,0.9999985175775494,107.53120510739843
8.904,0.9999985090633681,107.14218577406103
8.911999999999999,0.999998498701264,106.75316169550682
8.92,0.9999984865047458,106.36413269022026
8.928,0.9999984724877746,105.97509857723817
8.936,0.999998456664757,105.58605917615712
8.943999999999999,0.9999984390505405,105.19701430714107
8.952,0.9999984196604058,104.80796379092916
8.96,0.9999983985100608,104.41890744884365
8.968,0.9999983756156343,104.0298451027974
8.975999999999999,0.999998350993669,103.64077657530132
8.984,0.9999983246611155,103.25170168947228
8.992,0.9999982966353249,102.86262026904086
9.0,0.9999982669340435,102.47353213835882
9.008,0.9999982355754043,102.08443712240656
9.016,0.9999982025779226,101.69533504680089
9.024000000000001,0.9999981679604857,101.3062257378028
9.032,0.99999813174235,100.91710902232481
9.04,0.999998093943131,100.52798472793845
9.048,0.9999980545827982,100.13885268288188
9.056000000000001,0.9999980136816682,99.74971271606762
9.064,0.9999979712603956,99.36056465708997
9.072,0.9999979273399692,98.9714083362322
9.08,0.9999978819417022,98.58224358447427
9.088000000000001,0.9999978350872255,98.19307023350049
9.096,0.9999977867984834,97.80388811570668
9.104,0.9999977370977223,97.4146970642076
9.112,0.9999976860074867,97.02549691284436
9.120000000000001,0.9999976335506103,96.63628749619203
9.128,0.9999975797502094,96.24706864956686
9.136,0.9999975246296764,95.85784020903343
9.144,0.9999974682126708,95.4686020114122
9.152000000000001,0.9999974105231133,95.07935389428683
9.16,0.9999973515851792,94.6900956960115
9.168,0.9999972914232883,94.30082725571785
9.176,0.9999972300621005,93.91154841332244
9.184000000000001,0.9999971675265075,93.5222590095341
9.192,0.9999971038416248,93.132958885861
9.2,0.9999970390327849,92.74364788461763
9.208,0.999996973125531,92.35432584893209
9.216000000000001,0.9999969061456071,91.96499262275337
9.224,0.9999968381189537,91.5756480508583
9.232,0.9999967690716979,91.18629197885849
9.24,0.9999966990301473,90.79692425320738
9.248000000000001,0.9999966280207835,90.4075447212076
9.256,0.9999965560702521,90.01815323101766
9.264,0.9999964832053577,89.62874963165885
9.272,0.9999964094530566,89.23933377302218
9.280000000000001,0.9999963348404476,88.84990550587561
9.288,0.9999962593947659,88.46046468187063
9.296,0.9999961831433765,88.07101115354901
9.304,0.9999961061137649,87.68154477434975
9.312000000000001,0.9999960283335324,87.29206539861596
9.32,0.9999959498303861,86.90257288160157
9.328,0.9999958706321338,86.51306707947778
9.336,0.9999957907666751,86.1235478493399
9.344,0.9999957102619961,85.73401504921434
9.352,0.9999956291461601,85.34446853806449
9.36,0.9999955474473016,84.95490817579818
9.368,0.9999954651936188,84.56533382327332
9.376,0.9999953824133672,84.1757453423053
9.384,0.9999952991348509,83.78614259567259
9.392,0.9999952153864172,83.39652544712405
9.4,0.9999951311964489,83.00689376138446
9.408,0.9999950465933556,82.61724740416176
9.416,0.9999949616055701,82.2275862421525
9.424,0.9999948762615388,81.83791014304896
9.432,0.9999947905897149,81.4482189755447
9.44,0.9999947046185532,81.05851260934135
9.448,0.999994618376501,80.66879091515418
9.456,0.9999945318919933,80.27905376471894
9.464,0.9999944451934442,79.88930103079717
9.472,0.9999943583092412,79.49953258718303
9.48,0.9999942712677385,79.10974830870853
9.488,0.9999941840972496,78.71994807125026
9.496,0.9999940968260417,78.3301317517346
9.504,0.9999940094823275,77.9402992281442
9.512,0.9999939220942609,77.55045037952327
9.52,0.9999938346899273,77.16058508598394
9.528,0.9999937472973409,76.77070322871135
9.536,0.999993659944435,76.38080468997006
9.544,0.9999935726590579,75.99088935310895
9.552,0.9999934854689646,75.6009571025676
9.56,0.999993398401813,75.21100782388106
9.568,0.9999933114851544,74.82104140368612
9.576,0.9999932247464308,74.43105772972604
9.584,0.9999931382129661,74.04105669085664
9.592,0.9999930519119614,73.651038177051
9.6,0.9999929658704887,73.2610020794055
9.608,0.9999928801154842,72.87094829014428
9.616,0.9999927946737439,72.48087670262521
9.624,0.9999927095719163,72.09078721134435
9.632,0.9999926248364976,71.70067971194176
9.64,0.999992540493825,71.31055410120581
9.648,0.9999924565700724,70.92041027707891
9.656,0.9999923730912437,70.53024813866178
9.664,0.9999922900831669,70.14006758621893
9.672,0.9999922075714898,69.74986852118296
9.68,0.9999921255816747,69.35965084615991
9.688,0.999992044138991,68.96941446493334
9.696,0.9999919632685126,68.57915928246967
