freq,mag,phase
6.0,0.9999995072654185,149.27202376080396
6.008,0.9999995404880331,149.22989307925423
6.016,0.9999995658256177,149.1877562844939
6.024,0.9999995833671117,149.14561337368409
6.032,0.9999995932013838,149.10346434399312
6.04,0.999999595417227,149.06130919259653
6.048,0.9999995901033588,149.0191479166773
6.056,0.9999995773484175,148.97698051342564
6.064,0.9999995572409619,148.93480698003953
6.072,0.9999995298694694,148.89262731372432
6.08,0.9999994953223322,148.85044151169316
6.088,0.9999994536878578,148.80824957116698
6.096,0.9999994050542647,148.76605148937452
6.104,0.9999993495096823,148.72384726355241
6.112,0.9999992871421478,148.6816368909454
6.12,0.9999992180396041,148.63942036880636
6.128,0.9999991422898986,148.59719769439613
6.136,0.9999990599807794,148.55496886498406
6.144,0.9999989711998953,148.51273387784775
6.152,0.9999988760347919,148.47049273027324
6.16,0.99999877457291,148.42824541955508
6.168,0.9999986669015833,148.3859919429964
6.176,0.9999985531080366,148.34373229790904
6.184,0.999998433279383,148.30146648161357
6.192,0.9999983075026214,148.25919449143942
6.2,0.9999981758646347,148.21691632472488
6.208,0.9999980384521874,148.17463197881727
6.216,0.9999978953519226,148.13234145107302
6.224,0.9999977466503601,148.0900447388576
6.232,0.999997592433894,148.04774183954586
6.24,0.9999974327887898,148.00543275052175
6.248,0.9999972678011824,147.96311746917874
6.256,0.9999970975570728,147.92079599291978
6.264,0.9999969221423264,147.8784683191572
6.272,0.9999967416426702,147.83613444531304
6.28,0.9999965561436895,147.793794368819
6.288,0.9999963657308258,147.75144808711644
6.296,0.9999961704893743,147.70909559765667
6.304,0.9999959705044809,147.6667368979008
6.312,0.9999957658611394,147.62437198531984
6.32,0.9999955566441885,147.58200085739497
6.328,0.9999953429383099,147.53962351161738
6.336,0.9999951248280247,147.49723994548836
6.344,0.9999949023976898,147.45485015651954
6.352,0.9999946757314976,147.41245414223275
6.36,0.99999444491347,147.3700519001602
6.368,0.999994210027457,147.32764342784458
6.376,0.9999939711571343,147.28522872283892
6.384,0.9999937283859991,147.2428077827069
6.392,0.9999934817973668,147.2003806050228
6.4,0.9999932314743699,147.15794718737143
6.408,0.999992977499953,147.1155075273485
6.416,0.9999927199568693,147.07306162256035
6.424,0.9999924589276803,147.0306094706242
6.432,0.9999921944947492,146.9881510691681
6.44,0.99999192674024,146.94568641583112
6.448,0.9999916557461129,146.90321550826323
6.456,0.9999913815941214,146.86073834412548
6.464,0.99999110436581,146.81825492108993
6.472,0.9999908241425088,146.77576523683987
6.48,0.9999905410053325,146.73326928906968
6.4879999999999995,0.9999902550351746,146.690767075485
6.496,0.9999899663127054,146.64825859380272
6.504,0.9999896749183695,146.60574384175098
6.5120000000000005,0.9999893809323791,146.5632228170693
6.52,0.999989084434714,146.5206955175086
6.5280000000000005,0.9999887855051153,146.47816194083114
6.536,0.9999884842230836,146.43562208481072
6.5440000000000005,0.9999881806678746,146.39307594723255
6.552,0.9999878749184962,146.35052352589332
6.5600000000000005,0.999987567053703,146.30796481860133
6.568,0.9999872571519941,146.26539982317644
6.5760000000000005,0.9999869452916107,146.22282853745003
6.584,0.9999866315505279,146.18025095926515
6.592,0.9999863160064564,146.13766708647645
6.6,0.9999859987368341,146.09507691695026
6.608,0.9999856798188249,146.0524804485646
6.616,0.9999853593293135,146.0098776792091
6.624,0.9999850373449032,145.96726860678515
6.632,0.9999847139419098,145.92465322920583
6.64,0.9999843891963577,145.88203154439597
6.648,0.9999840631839794,145.83940355029205
6.656,0.9999837359802058,145.79676924484238
6.664,0.9999834076601682,145.7541286260069
6.672,0.9999830782986894,145.7114816917573
6.68,0.9999827479702812,145.66882844007708
6.688,0.9999824167491419,145.6261688689614
6.696,0.9999820847091495,145.58350297641712
6.704,0.9999817519238596,145.54083076046282
6.712,0.9999814184664997,145.4981522191288
6.72,0.9999810844099666,145.45546735045698
6.728,0.9999807498268201,145.41277615250104
6.736,0.9999804147892801,145.37007862332618
6.744,0.9999800793692222,145.32737476100928
6.752,0.9999797436381729,145.2846645636388
6.76,0.9999794076673052,145.2419480293148
6.768,0.9999790715274361,145.1992251561488
6.776,0.999978735289018,145.1564959422638
6.784,0.9999783990221391,145.11376038579442
6.792,0.9999780627965155,145.07101848488654
6.8,0.9999777266814883,145.02827023769746
6.808,0.9999773907460189,144.98551564239577
6.816,0.9999770550586844,144.94275469716146
6.824,0.999976719687673,144.89998740018567
6.832,0.999976384700779,144.85721374967065
6.84,0.9999760501653998,144.8144337438299
6.848,0.9999757161485292,144.7716473808879
6.856,0.9999753827167546,144.72885465908013
6.864,0.9999750499362509,144.68605557665293
6.872,0.9999747178727774,144.64325013186362
6.88,0.9999743865916719,144.6004383229802
6.888,0.999974056157847,144.5576201482814
6.896,0.9999737266357839,144.5147956060565
6.904,0.9999733980895298,144.47196469460545
6.912,0.9999730705826918,144.42912741223844
6.92,0.9999727441784323,144.38628375727623
6.928,0.9999724189394649,144.34343372804966
6.936,0.9999720949280488,144.30057732289987
6.944,0.9999717722059845,144.25771454017786
6.952,0.9999714508346097,144.21484537824472
6.96,0.9999711308747937,144.17196983547134
6.968,0.9999708123869321,144.12908791023838
6.976,0.9999704954309435,144.08619960093597
6.984,0.9999701800662639,144.04330490596382
6.992,0.9999698663518417,144.00040382373092
7.0,0.9999695543461331,143.9574963526556
7.008,0.9999692441070981,143.91458249116516
7.016,0.999968935692194,143.87166223769592
7.024,0.9999686291583725,143.82873559069293
7.032,0.9999683245620736,143.78580254861004
7.04,0.9999680219592211,143.74286310990948
7.048,0.999967721405218,143.69991727306189
7.056,0.9999674229549415,143.65696503654613
7.064,0.9999671266627385,143.6140063988491
7.072,0.999966832582421,143.5710413584655
7.08,0.99996654076726,143.52806991389784
7.088,0.9999662512699826,143.48509206365605
7.096,0.9999659641427658,143.44210780625752
7.104,0.9999656794372324,143.39911714022668
7.112,0.999965397204446,143.35612006409505
7.12,0.9999651174949067,143.31311657640086
7.128,0.9999648403585458,143.27010667568896
7.136,0.9999645658447213,143.2270903605105
7.144,0.9999642940022133,143.18406762942297
7.152,0.9999640248792194,143.14103848098972
7.16,0.9999637585233507,143.09800291377985
7.168,0.9999634949816244,143.05496092636804
7.176,0.9999632343004626,143.01191251733422
7.184,0.9999629765256861,142.96885768526354
7.192,0.9999627217025099,142.92579642874583
7.2,0.9999624698755387,142.88272874637562
7.208,0.9999622210887619,142.83965463675185
7.216,0.9999619753855503,142.79657409847746
7.224,0.9999617328086506,142.7534871301594
7.232,0.9999614934001814,142.7103937304082
7.24,0.9999612572016285,142.66729389783774
7.248,0.9999610242538405,142.62418763106493
7.256,0.9999607945970249,142.58107492870957
7.264,0.9999605682707433,142.53795578939403
7.272,0.9999603453139078,142.49483021174288
7.28,0.9999601257647754,142.4516981943828
7.288,0.9999599096609452,142.40855973594202
7.296,0.9999596970393535,142.36541483505025
7.304,0.9999594879362703,142.32226349033832
7.312,0.9999592823872945,142.27910570043787
7.32,0.9999590804273495,142.23594146398102
7.328,0.9999588820906815,142.19277077960004
7.336,0.9999586874108517,142.1495936459271
7.344,0.9999584964207368,142.10641006159403
7.352,0.9999583091525216,142.0632200252317
7.36,0.9999581256376969,142.02002353547002
7.368,0.9999579459070563,141.97682059093742
7.376,0.9999577699906903,141.93361119026045
7.384,0.9999575979179852,141.89039533206378
7.392,0.9999574297176176,141.84717301496931
7.4,0.9999572654175525,141.80394423759637
7.4079999999999995,0.9999571050450387,141.760708998561
7.416,0.9999569486266054,141.71746729647566
7.4239999999999995,0.9999567961880601,141.67421912994902
7.432,0.9999566477544841,141.63096449758535
7.4399999999999995,0.9999565033502298,141.58770339798437
7.448,0.9999563629989173,141.54443582974065
7.4559999999999995,0.999956226723432,141.50116179144345
7.464,0.9999560945459218,141.45788128167624
7.4719999999999995,0.9999559664877923,141.41459429901616
7.48,0.9999558425697066,141.37130084203386
7.4879999999999995,0.9999557228115812,141.328000909293
7.496,0.9999556072325825,141.28469449934977
7.504,0.9999554958511266,141.2413816107526
7.5120000000000005,0.9999553886848749,141.19806224204174
7.52,0.999955285750732,141.15473639174874
7.5280000000000005,0.9999551870648441,141.11140405839606
7.536,0.999955092642596,141.06806524049676
7.5440000000000005,0.9999550024986091,141.0247199365539
7.552,0.9999549166467405,140.9813681450603
7.5600000000000005,0.9999548351000792,140.93800986449787
7.568,0.9999547578709457,140.89464509333743
7.5760000000000005,0.9999546849708889,140.85127383003802
7.584,0.9999546164106861,140.8078960730466
7.5920000000000005,0.9999545522003401,140.76451182079762
7.6,0.9999544923490786,140.72112107171245
7.6080000000000005,0.9999544368653518,140.677723824199
7.616,0.9999543857568324,140.63432007665125
7.6240000000000006,0.9999543390304139,140.59090982744877
7.632,0.9999542966922089,140.5474930749563
7.640000000000001,0.9999542587475493,140.50406981752312
7.648,0.9999542252009849,140.46064005348285
7.656000000000001,0.9999541960562821,140.41720378115272
7.664,0.9999541713164248,140.3737609988333
7.672,0.9999541509836133,140.33031170480774
7.68,0.9999541350592625,140.28685589734164
7.688,0.9999541235440037,140.24339357468227
7.696,0.9999541164376833,140.19992473505826
7.704,0.9999541137393635,140.15644937667892
7.712,0.9999541154473215,140.11296749773405
7.72,0.9999541215590507,140.0694790963931
7.728,0.9999541320712604,140.02598417080492
7.736,0.9999541469798764,139.98248271909713
7.744,0.9999541662800419,139.9389747393757
7.752,0.9999541899661177,139.89546022972442
7.76,0.9999542180316838,139.85193918820428
7.768,0.9999542504695401,139.80841161285323
7.776,0.999954287271707,139.76487750168536
7.784,0.9999543284294276,139.7213368526906
7.792,0.9999543739331673,139.67778966383418
7.8,0.9999544237726186,139.63423593305606
7.808,0.999954477936699,139.59067565827047
7.816,0.9999545364135556,139.5471088373653
7.824,0.999954599190566,139.50353546820176
7.832,0.9999546662543396,139.45995554861372
7.84,0.9999547375907211,139.41636907640725
7.848,0.9999548131847926,139.37277604936008
7.856,0.9999548930208755,139.3291764652211
7.864,0.9999549770825331,139.28557032170994
7.872,0.9999550653525748,139.2419576165162
7.88,0.9999551578130571,139.1983383472992
7.888,0.9999552544452875,139.15471251168742
7.896,0.9999553552298286,139.1110801072778
7.904,0.9999554601464995,139.0674411316354
7.912,0.9999555691743811,139.02379558229296
7.92,0.999955682291819,138.98014345675014
7.928,0.9999557994764268,138.93648475247318
7.936,0.9999559207050912,138.89281946689437
7.944,0.999956045953975,138.8491475974116
7.952,0.9999561751985219,138.8054691413876
7.96,0.999956308413461,138.7617840961498
7.968,0.9999564455728102,138.7180924589896
7.976,0.9999565866498825,138.67439422716188
7.984,0.9999567316172902,138.63068939788454
7.992,0.9999568804469489,138.5869779683381
8.0,0.9999570331100839,138.543259935665
8.008,0.9999571895772349,138.49953529696927
8.016,0.9999573498182611,138.45580404931596
8.024000000000001,0.999957513802348,138.41206618973078
8.032,0.9999576814980111,138.36832171519944
8.04,0.9999578528731036,138.32457062266735
8.048,0.9999580278948211,138.2808129090389
8.056000000000001,0.9999582065297086,138.2370485711773
8.064,0.9999583887436666,138.1932776059039
8.072,0.9999585745019566,138.1495000099978
8.08,0.9999587637692091,138.10571578019528
8.088000000000001,0.9999589565094297,138.0619249131896
8.096,0.9999591526860049,138.0181274056303
8.104,0.999959352261711,137.97432325412282
8.112,0.9999595551987196,137.9305124552281
8.120000000000001,0.9999597614586063,137.88669500546212
8.128,0.9999599710023568,137.8428709012955
8.136,0.9999601837903749,137.79904013915308
8.144,0.9999603997824902,137.7552027154133
8.152000000000001,0.9999606189379664,137.71135862640816
8.16,0.9999608412155085,137.66750786842238
8.168,0.9999610665732714,137.6236504376934
8.176,0.9999612949688677,137.57978633041074
8.184000000000001,0.9999615263593761,137.5359155427156
8.192,0.9999617607013501,137.49203807070057
8.2,0.9999619979508267,137.44815391040925
8.208,0.9999622380633352,137.40426305783578
8.216000000000001,0.9999624809939045,137.3603655089246
8.224,0.9999627266970744,137.31646125957
8.232,0.9999629751269036,137.27255030561574
8.24,0.9999632262369781,137.22863264285488
8.248000000000001,0.9999634799804223,137.1847082670292
8.256,0.9999637363099065,137.14077717382906
8.264,0.9999639951776579,137.09683935889296
8.272,0.9999642565354693,137.05289481780733
8.280000000000001,0.9999645203347103,137.00894354610608
8.288,0.9999647865263348,136.9649855392705
8.296,0.9999650550608931,136.92102079272868
8.304,0.9999653258885409,136.8770493018556
8.312,0.9999655989590501,136.8330710619725
8.32,0.9999658742218186,136.7890860683468
8.328,0.9999661516258798,136.74509431619188
8.336,0.9999664311199156,136.70109580066665
8.344,0.9999667126522644,136.65709051687548
8.352,0.9999669961709325,136.61307845986798
8.36,0.999967281623606,136.56905962463856
8.368,0.9999675689576587,136.5250340061264
8.376,0.999967858120167,136.4810015992153
8.384,0.999968149057917,136.4369623987333
8.392,0.9999684417174177,136.39291639945264
8.4,0.9999687360449118,136.3488635960895
8.408,0.9999690319863861,136.3048039833039
8.416,0.9999693294875835,136.2607375556995
8.424,0.9999696284940138,136.21666430782344
8.432,0.9999699289509649,136.17258423416624
8.44,0.9999702308035145,136.12849732916175
8.448,0.9999705339965421,136.0844035871868
8.456,0.9999708384747384,136.04030300256142
8.464,0.9999711441826199,135.99619556954838
8.472,0.9999714510645372,135.95208128235342
8.48,0.999971759064689,135.90796013512502
8.488,0.9999720681271327,135.86383212195435
8.496,0.9999723781957959,135.81969723687527
8.504,0.9999726892144887,135.77555547386424
8.512,0.9999730011269146,135.7314068268402
8.52,0.9999733138766831,135.68725128966483
8.528,0.9999736274073204,135.64308885614219
8.536,0.9999739416622825,135.5989195200189
8.544,0.9999742565849654,135.5547432749843
8.552,0.9999745721187178,135.51056011467014
8.56,0.9999748882068524,135.46637003265081
8.568,0.9999752047926583,135.4221730224434
8.576,0.9999755218194119,135.37796907750766
8.584,0.9999758392303888,135.33375819124615
8.592,0.9999761569688757,135.28954035700426
8.6,0.9999764749781822,135.24531556807034
8.608,0.9999767932016524,135.20108381767568
8.616,0.9999771115826762,135.1568450989949
8.624,0.9999774300647006,135.1125994051457
8.632,0.999977748591242,135.06834672918922
8.64,0.9999780671058978,135.0240870641302
8.648,0.9999783855523566,134.97982040291703
8.656,0.999978703874411,134.9355467384419
8.664,0.9999790220159684,134.89126606354108
8.672,0.9999793399210618,134.84697837099503
8.68,0.9999796575338619,134.80268365352865
8.688,0.9999799747986875,134.75838190381137
8.696,0.999980291660017,134.71407311445756
8.704,0.9999806080624994,134.66975727802654
8.712,0.9999809239509653,134.62543438702292
8.72,0.9999812392704367,134.58110443389697
8.728,0.9999815539661394,134.53676741104462
8.736,0.9999818679835125,134.49242331080794
8.744,0.9999821812682191,134.44807212547536
8.752,0.9999824937661576,134.4037138472819
8.76,0.9999828054234701,134.35934846840954
8.768,0.9999831161865547,134.31497598098747
8.776,0.9999834260020748,134.2705963770925
8.784,0.999983734816968,134.2262096487493
8.792,0.9999840425784579,134.18181578793076
8.8,0.999984349234062,134.13741478655837
8.808,0.9999846547316026,134.0930066365026
8.815999999999999,0.9999849590192155,134.04859132958305
8.824,0.9999852620453588,134.00416885756925
8.832,0.9999855637588233,133.9597392121806
8.84,0.9999858641087402,133.91530238508705
8.847999999999999,0.9999861630445904,133.87085836790936
8.856,0.9999864605162133,133.82640715221962
8.864,0.9999867564738147,133.78194872954154
8.872,0.9999870508679753,133.73748309135104
8.879999999999999,0.9999873436496586,133.69301022907655
8.888,0.9999876347702186,133.64853013409942
8.896,0.9999879241814079,133.6040427977546
8.904,0.9999882118353848,133.5595482113309
8.911999999999999,0.9999884976847204,133.5150463660715
8.92,0.9999887816824055,133.47053725317434
8.928,0.9999890637818573,133.42602086379293
8.936,0.9999893439369265,133.3814971890364
8.943999999999999,0.9999896221019029,133.3369662199703
8.952,0.9999898982315214,133.29242794761697
8.96,0.9999901722809675,133.24788236295606
8.968,0.9999904442058839,133.20332945692522
8.975999999999999,0.999990713962374,133.15876922042023
8.984,0.9999909815070083,133.11420164429595
8.992,0.9999912467968269,133.06962671936657
9.0,0.9999915097893465,133.02504443640638
9.008,0.9999917704425617,132.98045478614998
9.016,0.9999920287149504,132.93585775929319
9.024000000000001,0.9999922845654762,132.89125334649333
9.032,0.9999925379535908,132.84664153836997
9.04,0.9999927888392379,132.80202232550533
9.048,0.9999930371828535,132.75739569844495
9.056000000000001,0.9999932829453695,132.71276164769822
9.064,0.9999935260882132,132.66812016373893
9.072,0.9999937665733092,132.6234712370059
9.08,0.9999940043630801,132.57881485790352
9.088000000000001,0.9999942394204444,132.5341510168023
9.096,0.9999944717088196,132.48947970403944
9.104,0.9999947011921164,132.4448009099196
9.112,0.9999949278347416,132.40011462471517
9.120000000000001,0.9999951516015921,132.3554208386671
9.128,0.9999953724580553,132.31071954198538
9.136,0.9999955903700037,132.2660107248497
9.144,0.9999958053037916,132.2212943774099
9.152000000000001,0.9999960172262501,132.17657048978663
9.16,0.999996226104682,132.13183905207205
9.168,0.9999964319068557,132.08710005433022
9.176,0.9999966346009982,132.0423534865978
9.184000000000001,0.9999968341557867,131.99759933888453
9.192,0.9999970305403408,131.95283760117397
9.2,0.9999972237242135,131.90806826342387
9.208,0.9999974136773783,131.86329131556693
9.216000000000001,0.9999976003702208,131.8185067475112
9.224,0.9999977837735238,131.77371454914083
9.232,0.9999979638584541,131.72891471031642
9.24,0.9999981405965476,131.68410722087566
9.248000000000001,0.9999983139596936,131.63929207063399
9.256,0.9999984839201165,131.59446924938496
9.264,0.9999986504503557,131.54963874690083
9.272,0.9999988135232463,131.50480055293312
9.280000000000001,0.9999989731118957,131.4599546572132
9.288,0.99999912918966,131.41510104945252
9.296,0.9999992817301168,131.3702397193435
9.304,0.9999994307070379,131.32537065655956
9.312000000000001,0.9999995760943573,131.28049385075607
9.32,0.9999997178661397,131.23560929157054
9.328,0.9999998559965441,131.1907169686231
9.336,0.9999999904597845,131.14581687151684
9.344,1.0,131.1009089898386
9.352,1.0,131.05599331315884
9.36,1.0,131.01106983103261
9.368,1.0,130.96613853299942
9.376,0.9999999999999999,130.921199408584
9.384,1.0,130.87625244729625
9.392,1.0,130.83129763863192
9.4,0.9999999999999999,130.78633497207267
9.408,1.0,130.74136443708647
9.416,0.9999999999999998,130.69638602312781
9.424,1.0,130.65139971963794
9.432,1.0,130.606405516045
9.44,0.9999999999999999,130.56140340176435
9.448,1.0,130.51639336619866
9.456,1.0,130.4713753987379
9.464,1.0,130.4263494887598
9.472,0.9999999999999999,130.3813156256295
9.48,1.0,130.33627379869995
9.488,1.0,130.2912239973117
9.496,1.0,130.24616621079315
9.504,1.0,130.20110042846025
9.512,1.0,130.15602663961678
9.52,0.9999999999999999,130.1109448335541
9.528,1.0,130.06585499955116
9.536,1.0,130.02075712687457
9.544,1.0,129.97565120477836
9.552,0.9999999999999999,129.93053722250426
9.56,1.0,129.88541516928146
9.568,1.0,129.840285034327
9.576,0.9999999999999999,129.7951468068458
9.584,1.0,129.75000047603103
9.592,0.9999999999999999,129.70484603106476
9.6,1.0,129.6596834611185
9.608,1.0,129.61451275535447
9.616,0.9999999999999999,129.56933390292687
9.624,0.9999999999999999,129.5241468929839
9.632,0.9999999999999999,129.47895171467044
9.64,1.0,129.43374835713132
