freq,mag,phase
6.0,0.99999810577037,7.791115637507802
6.008,0.9999982124323454,7.51147321813621
6.016,0.9999982783590419,7.2317051314806005
6.024,0.9999983046193447,6.951811800185431
6.032,0.9999982922701284,6.671793649304613
6.04,0.999998242356286,6.391651106297406
6.048,0.9999981559107607,6.111384601024133
6.056,0.9999980339545764,5.83099456574175
6.064,0.9999978774968701,5.5504814350992655
6.072,0.9999976875349245,5.269845646133025
6.08,0.999997465054202,4.989087638261804
6.088,0.9999972110283775,4.708207853281781
6.096,0.9999969264193741,4.427206735361361
6.104,0.9999966121773968,4.146084731035818
6.112,0.9999962692409708,3.86484228920179
6.12,0.9999958985369751,3.583479861111668
6.128,0.9999955009806821,3.301997900367755
6.136,0.9999950774757935,3.02039686291633
6.144,0.9999946289144799,2.738677207041527
6.152,0.9999941561774182,2.456839393359085
6.16,0.9999936601338335,2.1748838848099217
6.168,0.9999931416415366,1.8928111466535618
6.176,0.9999926015469669,1.6106216464614218
6.184,0.9999920406852325,1.3283158541099038
6.192,0.9999914598801519,1.045894241773396
6.2,0.9999908599442979,0.7633572839170558
6.208,0.9999902416790399,0.480705457289485
6.216,0.999989605874587,0.1979392409152062
6.224,0.9999889533100327,-0.08494088391294158
6.232,0.9999882847534004,-0.367934433641653
6.24,0.9999876009616886,-0.6510409224651142
6.248,0.9999869026809155,-0.9342598623330801
6.256,0.999986190646167,-1.2175907629591904
6.264,0.9999854655816434,-1.5010331318293526
6.272,0.999984728200707,-1.7845864742103523
6.28,0.9999839792059301,-2.068250293158556
6.288,0.9999832192891441,-2.3520240895288222
6.296,0.9999824491314883,-2.6359073619835054
6.304,0.9999816694034592,-2.919899607001696
6.312,0.9999808807649635,-3.204000318888514
6.32,0.9999800838653645,-3.4882089897846353
6.328,0.9999792793435383,-3.772525109675958
6.336,0.9999784678279218,-4.056948166403356
6.344,0.9999776499365668,-4.341477645672696
6.352,0.9999768262771933,-4.626113031064889
6.36,0.999975997447242,-4.910853804046204
6.368,0.9999751640339285,-5.195699443978643
6.376,0.9999743266142979,-5.480649428130502
6.384,0.9999734857552789,-5.765703231687119
6.392,0.9999726420137405,-6.050860327761718
6.4,0.9999717959365467,-6.336120187406423
6.408,0.9999709480606129,-6.621482279623424
6.416,0.9999700989129631,-6.906946071376296
6.424,0.999969249010787,-7.192511027601477
6.432,0.9999683988614974,-7.478176611219862
6.44,0.9999675489627887,-7.76394228314857
6.448,0.9999666998026953,-8.049807502312854
6.456,0.9999658518596501,-8.335771725658182
6.464,0.999965005602545,-8.621834408162393
6.472,0.9999641614907893,-8.907995002848107
6.48,0.9999633199743716,-9.194252960795177
6.4879999999999995,0.9999624814939192,-9.480607731153327
6.496,0.9999616464807602,-9.767058761155086
6.504,0.999960815356984,-10.053605496128373
6.5120000000000005,0.9999599885355037,-10.340247379510075
6.52,0.9999591664201183,-10.626983852858716
6.5280000000000005,0.999958349405576,-10.913814355868372
6.536,0.9999575378776356,-11.200738326381629
6.5440000000000005,0.999956732213132,-11.487755200403784
6.552,0.999955932780038,-11.774864412116083
6.5600000000000005,0.9999551399375305,-12.06206539389019
6.568,0.9999543540360528,-12.349357576301715
6.5760000000000005,0.9999535754173807,-12.636740388144979
6.584,0.9999528044146883,-12.924213256446793
6.592,0.9999520413526115,-13.21177560648146
6.6,0.9999512865473159,-13.499426861785038
6.608,0.9999505403065617,-13.787166444170246
6.616,0.9999498029297706,-14.074993773741326
6.624,0.9999490747080931,-14.362908268909077
6.632,0.9999483559244738,-14.650909346406008
6.64,0.9999476468537211,-14.938996421301644
6.648,0.9999469477625732,-15.227168907017939
6.656,0.9999462589097665,-15.515426215344824
6.664,0.9999455805461046,-15.803767756455922
6.672,0.9999449129145253,-16.09219293892435
6.68,0.9999442562501705,-16.380701169738654
6.688,0.999943610780455,-16.6692918543189
6.696,0.9999429767251352,-16.957964396532862
6.704,0.9999423542963795,-17.246718198712383
6.712,0.9999417436988367,-17.535552661669744
6.72,0.9999411451297073,-17.82446718471435
6.728,0.9999405587788129,-18.11346116566935
6.736,0.999939984828667,-18.40253400088847
6.744,0.9999394234545448,-18.691685085272983
6.752,0.9999388748245548,-18.980913812288758
6.76,0.9999383390997097,-19.27021957398342
6.768,0.9999378164339973,-19.559601761003687
6.776,0.999937306974451,-19.849059762612754
6.784,0.999936810861223,-20.13859296670785
6.792,0.9999363282276544,-20.428200759837885
6.8,0.9999358592003487,-20.717882527221192
6.808,0.9999354038992414,-21.007637652763396
6.816,0.9999349624376742,-21.297465519075438
6.824,0.9999345349224664,-21.587365507491644
6.832,0.9999341214539869,-21.877336998087934
6.84,0.9999337221262274,-22.16737936970012
6.848,0.9999333370268746,-22.457491999942373
6.856,0.999932966237382,-22.747674265225708
6.864,0.999932609833045,-23.03792554077662
6.872,0.9999322678830711,-23.328245200655818
6.88,0.9999319404506546,-23.6186326177771
6.888,0.999931627593049,-23.90908716392622
6.896,0.9999313293616395,-24.19960820978
6.904,0.9999310458020177,-24.490195124925407
6.912,0.9999307769540532,-24.780847277878806
6.92,0.9999305228519674,-25.071564036105315
6.928,0.9999302835244068,-25.362344766038174
6.936,0.9999300589945169,-25.65318883309833
6.944,0.999929849280014,-25.944095601713947
6.952,0.99992965439326,-26.235064435340224
6.96,0.9999294743413347,-26.526094696479092
6.968,0.9999293091261099,-26.81718574669912
6.976,0.9999291587443218,-27.108336946655502
6.984,0.9999290231876453,-27.399547656110055
6.992,0.9999289024427667,-27.69081723395139
7.0,0.9999287964914573,-27.982145038215112
7.008,0.9999287053106454,-28.273530426104113
7.016,0.9999286288724915,-28.564972754008952
7.024,0.9999285671444591,-28.85647137752831
7.032,0.9999285200893899,-29.148025651489487
7.04,0.999928487665575,-29.439634929969067
7.048,0.9999284698268289,-29.731298566313544
7.056,0.9999284665225618,-30.023015913160116
7.064,0.9999284776978524,-30.314786322457444
7.072,0.9999285032935205,-30.606609145486605
7.08,0.9999285432461993,-30.898483732882035
7.088,0.9999285974884079,-31.19040943465252
7.096,0.9999286659486242,-31.482385600202345
7.104,0.9999287485513563,-31.77441157835239
7.112,0.999928845217214,-32.066486717361414
7.12,0.999928955862982,-32.358610364947225
7.128,0.9999290804016902,-32.650781868308144
7.136,0.9999292187426869,-32.943000574144264
7.144,0.9999293707917081,-33.235265828679076
7.152,0.9999295364509506,-33.527576977680724
7.16,0.9999297156191419,-33.8199333664838
7.168,0.9999299081916111,-34.1123343400108
7.176,0.9999301140603605,-34.40477924279384
7.184,0.9999303331141344,-34.69726741899638
7.192,0.9999305652384909,-34.989798212434884
7.2,0.9999308103158705,-35.282370966600695
7.208,0.9999310682256675,-35.574985024681894
7.216,0.9999313388442986,-35.86763972958503
7.224,0.9999316220452715,-36.16033442395723
7.232,0.9999319176992553,-36.45306845020806
7.24,0.9999322256741492,-36.745841150531476
7.248,0.9999325458351499,-37.038651866927964
7.256,0.9999328780448216,-37.33149994122652
7.264,0.999933222163162,-37.62438471510679
7.272,0.9999335780476719,-37.91730553012112
7.28,0.9999339455534226,-38.210261727716805
7.288,0.9999343245331209,-38.503252649258215
7.296,0.9999347148371787,-38.796277636049034
7.304,0.9999351163137782,-39.08933602935442
7.312,0.9999355288089377,-39.38242717042336
7.32,0.9999359521665798,-39.67555040051084
7.328,0.9999363862285938,-39.96870506090018
7.336,0.9999368308349039,-40.26189049292539
7.344,0.9999372858235324,-40.555106037993376
7.352,0.999937751030665,-40.848351037606385
7.36,0.9999382262907149,-41.141624833384306
7.368,0.9999387114363877,-41.43492676708701
7.376,0.9999392062987426,-41.72825618063678
7.384,0.9999397107072584,-42.021612416140606
7.392,0.9999402244898942,-42.31499481591263
7.4,0.9999407474731534,-42.60840272249649
7.4079999999999995,0.999941279482145,-42.901835478687694
7.416,0.9999418203406439,-43.195292427556154
7.4239999999999995,0.9999423698711565,-43.48877291246822
7.432,0.9999429278949761,-43.78227627710955
7.4399999999999995,0.9999434942322473,-44.075801865506975
7.448,0.9999440687020248,-44.36934902205138
7.4559999999999995,0.9999446511223326,-44.66291709151952
7.464,0.9999452413102241,-44.956505419096935
7.4719999999999995,0.9999458390818403,-45.250113350399786
7.48,0.9999464442524687,-45.543740231497644
7.4879999999999995,0.9999470566366009,-45.837385408935326
7.496,0.9999476760479896,-46.13104822975567
7.504,0.9999483022997073,-46.42472804152139
7.5120000000000005,0.9999489352042008,-46.71842419233773
7.52,0.9999495745733484,-47.012136030874316
7.5280000000000005,0.9999502202185166,-47.305862906387794
7.536,0.9999508719506129,-47.5996041687435
7.5440000000000005,0.9999515295801432,-47.89335916843825
7.552,0.9999521929172633,-48.187127256621835
7.5600000000000005,0.9999528617718354,-48.48090778511972
7.568,0.9999535359534795,-48.77470010645461
7.5760000000000005,0.9999542152716275,-49.068503573868966
7.584,0.9999548995355745,-49.36231754134657
7.5920000000000005,0.9999555885545305,-49.656141363634916
7.6,0.9999562821376736,-49.94997439626673
7.6080000000000005,0.9999569800941981,-50.24381599558235
7.616,0.9999576822333671,-50.537665518751055
7.6240000000000006,0.9999583883645611,-50.831522323793415
7.632,0.9999590982973278,-51.125385769602545
7.640000000000001,0.9999598118414301,-51.41925521596635
7.648,0.9999605288068951,-51.71313002358869
7.656000000000001,0.9999612490040624,-52.007009554111534
7.664,0.9999619722436294,-52.30089317013601
7.672,0.9999626983366989,-52.59478023524443
7.68,0.9999634270948267,-52.88867011402144
7.688,0.9999641583300644,-53.18256217207558
7.696,0.9999648918550065,-53.47645577606058
7.704,0.9999656274828339,-53.770350293696765
7.712,0.9999663650273585,-54.06424509379223
7.72,0.9999671043030659,-54.35813954626404
7.728,0.9999678451251587,-54.652033022159394
7.736,0.9999685873095978,-54.945924893676704
7.744,0.9999693306731463,-55.23981453418645
7.752,0.9999700750334082,-55.53370131825235
7.76,0.9999708202088703,-55.827584621652015
7.768,0.999971566018942,-56.12146382139787
7.776,0.9999723122839941,-56.415338295757806
7.784,0.9999730588253992,-56.709207424275895
7.792,0.9999738054655681,-57.00307058779295
7.8,0.9999745520279887,-57.29692716846697
7.808,0.999975298337263,-57.59077654979363
7.816,0.9999760442191433,-57.88461811662668
7.824,0.9999767895005686,-58.17845125519804
7.832,0.9999775340096996,-58.47227535313821
7.84,0.9999782775759538,-58.766089799496186
7.848,0.9999790200300395,-59.05989398475964
7.856,0.9999797612039897,-59.353687300874704
7.864,0.9999805009311948,-59.64746914126599
7.872,0.9999812390464354,-59.941238900856206
7.88,0.9999819753859143,-60.23499597608595
7.888,0.9999827097872869,-60.5287397649332
7.896,0.9999834420896928,-60.82246966693292
7.904,0.9999841721337858,-61.116185083196335
7.912,0.9999848997617629,-61.40988541643034
7.92,0.9999856248173934,-61.70357007095671
7.928,0.9999863471460477,-61.99723845273115
7.936,0.9999870665947241,-62.29088996936237
7.944,0.9999877830120774,-62.584524030131014
7.952,0.999988496248443,-62.87814004600843
7.96,0.9999892061558652,-63.17173742967551
7.968,0.999989912588122,-63.46531559554112
7.976,0.9999906154007482,-63.75887395976081
7.984,0.999991314451062,-64.05241194025511
7.992,0.9999920095981866,-64.34592895672786
8.0,0.9999927007030742,-64.63942443068443
8.008,0.999993387628528,-64.93289778544978
8.016,0.9999940702392239,-65.22634844618658
8.024000000000001,0.9999947484017317,-65.51977583991284
8.032,0.9999954219845362,-65.81317939551973
8.04,0.9999960908580556,-66.10655854378949
8.048,0.9999967548946633,-66.39991271741278
8.056000000000001,0.9999974139687045,-66.69324135100592
8.064,0.9999980679565157,-66.98654388112845
8.072,0.9999987167364414,-67.27981974630033
8.08,0.9999993601888525,-67.57306838701899
8.088000000000001,0.9999999981961609,-67.86628924577603
8.096,1.0,-68.15948176707434
8.104,0.9999999999999999,-68.45264539744481
8.112,0.9999999999999999,-68.74577958546291
8.120000000000001,1.0,-69.03888378176495
8.128,1.0,-69.33195743906462
8.136,0.9999999999999999,-69.62500001216934
8.144,1.0,-69.91801095799615
8.152000000000001,1.0,-70.21098973558772
8.16,1.0,-70.50393580612823
8.168,1.0,-70.7968486329592
8.176,0.9999999999999999,-71.0897276815951
8.184000000000001,0.9999999999999999,-71.38257241973847
8.192,1.0,-71.67538231729563
8.2,0.9999999999999999,-71.96815684639186
8.208,1.0,-72.26089548138644
8.216000000000001,1.0,-72.55359769888742
8.224,1.0,-72.84626297776657
8.232,0.9999999999999999,-73.13889079917423
8.24,1.0,-73.43148064655375
8.248000000000001,1.0,-73.72403200565569
8.256,1.0,-74.0165443645523
8.264,0.9999999999999999,-74.30901721365183
8.272,1.0,-74.60145004571233
8.280000000000001,0.9999999999999999,-74.89384235585547
8.288,1.0,-75.18619364158035
8.296,0.9999999999999998,-75.47850340277729
8.304,1.0,-75.77077114174112
8.312,1.0,-76.06299636318433
8.32,1.0,-76.3551785742507
8.328,1.0,-76.64731728452786
8.336,1.0,-76.93941200606069
8.344,1.0,-77.23146225336352
8.352,1.0,-77.5234675434334
8.36,1.0000000000000002,-77.8154273957619
8.368,1.0,-78.10734133234814
8.376,1.0,-78.39920887771034
8.384,0.9999999999999999,-78.69102955889845
8.392,0.9999999999999998,-78.98280290550557
8.4,1.0,-79.27452844968015
8.408,1.0,-79.56620572613721
8.416,1.0,-79.85783427217027
8.424,1.0,-80.14941362766218
8.432,0.9999999999999999,-80.44094333509685
8.44,1.0,-80.73242293956977
8.448,1.0,-81.02385198879941
8.456,0.9999999999999999,-81.3152300331375
8.464,0.9999999999999999,-81.60655662558015
8.472,0.9999999999999998,-81.89783132177777
8.48,0.9999999999999999,-82.18905368004597
8.488,1.0,-82.48022326137512
8.496,1.0,-82.77133962944099
8.504,1.0,-83.06240235061405
8.512,0.9999999999999999,-83.35341099396979
8.52,1.0,-83.6443651312977
8.528,1.0,-83.93526433711133
8.536,1.0,-84.22610818865698
8.544,1.0,-84.51689626592336
8.552,1.0000000000000002,-84.80762815165022
8.56,1.0000000000000002,-85.09830343133751
8.568,0.9999999999999999,-85.38892169325374
8.576,1.0,-85.67948252844492
8.584,1.0,-85.9699855307426
8.592,1.0,-86.26043029677253
8.6,1.0,-86.55081642596228
8.608,0.9999999999999998,-86.84114352054978
8.616,1.0,-87.13141118559061
8.624,1.0,-87.42161902896613
8.632,1.0,-87.71176666139061
8.64,1.0,-88.00185369641899
8.648,0.9999999999999999,-88.29187975045373
8.656,0.9999999999999998,-88.58184444275231
8.664,1.0,-88.87174739543372
8.672,1.0,-89.16158823348574
8.68,1.0,-89.45136658477115
8.688,1.0,-89.74108208003462
8.696,1.0,-90.03073435290865
8.704,0.9999999999999999,-90.32032303992027
8.712,1.0,-90.60984778049662
8.72,1.0,-90.89930821697133
8.728,0.9999999999999999,-91.18870399458987
8.736,1.0,-91.47803476151557
8.744,1.0,-91.76730016883477
8.752,1.0,-92.0564998705625
8.76,0.9999999999999999,-92.34563352364731
8.768,0.9999999999999999,-92.6347007879768
8.776,1.0,-92.92370132638193
8.784,1.0,-93.21263480464249
8.792,0.9999999999999999,-93.50150089149106
8.8,0.9999999999999999,-93.79029925861806
8.808,1.0,-94.07902958067567
8.815999999999999,0.9999999999999999,-94.36769153528233
8.824,1.0,-94.65628480302674
8.832,1.0,-94.94480906747162
8.84,1.0,-95.23326401515763
8.847999999999999,1.0,-95.5216493356071
8.856,1.0,-95.8099647213275
8.864,1.0,-96.09820986781459
8.872,0.9999999999999999,-96.38638447355586
8.879999999999999,1.0,-96.6744882400337
8.888,0.9999999999999999,-96.9625208717282
8.896,1.0,-97.25048207611998
8.904,1.0,-97.53837156369283
8.911999999999999,1.0,-97.82618904793654
8.92,1.0,-98.11393424534907
8.928,1.0,-98.40160687543874
8.936,0.9999999999999999,-98.68920666072658
8.943999999999999,1.0,-98.97673332674836
8.952,1.0,-99.26418660205638
8.96,1.0,-99.55156621822118
8.968,0.9999999999999999,-99.8388719098331
8.975999999999999,1.0,-100.12610341450406
8.984,0.9999999999999999,-100.41326047286879
8.992,1.0,-100.70034282858573
9.0,1.0,-100.98735022833857
9.008,1.0,-101.27428242183704
9.016,1.0,-101.56113916181782
9.024000000000001,1.0,-101.8479202040451
9.032,1.0,-102.13462530731117
9.04,1.0,-102.42125423343722
9.048,0.9999999999999999,-102.7078067472734
9.056000000000001,0.9999999999999999,-102.9942826166989
9.064,1.0,-103.28068161262226
9.072,0.9999999999999999,-103.56700350898141
9.08,0.9999999999999999,-103.85324808274346
9.088000000000001,1.0,-104.13941511390412
9.096,1.0,-104.42550438548766
9.104,1.0,-104.71151568354635
9.112,1.0,-104.99744879715979
9.120000000000001,1.0,-105.28330351843401
9.128,0.9999999999999999,-105.56907964250068
9.136,0.9999999999999999,-105.85477696751633
9.144,1.0,-106.14039529466105
9.152000000000001,1.0,-106.4259344281372
9.16,0.9999999999999999,-106.71139417516817
9.168,1.0,-106.99677434599707
9.176,0.9999999999999999,-107.28207475388504
9.184000000000001,1.0,-107.56729521510948
9.192,1.0000000000000002,-107.85243554896235
9.2,0.9999999999999999,-108.13749557774844
9.208,1.0,-108.42247512678324
9.216000000000001,1.0,-108.70737402439067
9.224,1.0,-108.99219210190105
9.232,0.9999999999999999,-109.27692919364883
9.24,1.0,-109.56158513697011
9.248000000000001,0.9999999999999999,-109.84615977219985
9.256,0.9999999999999999,-110.1306529426696
9.264,1.0,-110.41506449470455
9.272,1.0,-110.6993942776209
9.280000000000001,1.0,-110.98364214372248
9.288,0.9999999999999998,-111.26780794829804
9.296,1.0,-111.55189154961819
9.304,0.9999999999999999,-111.8358928089319
9.312000000000001,1.0,-112.11981159046323
9.32,1.0,-112.40364776140783
9.328,1.0,-112.68740119192964
9.336,0.9999999999999999,-112.97107175515708
9.344,0.9999999999999998,-113.25465932717917
9.352,0.9999999999999999,-113.53816378704212
9.36,1.0000000000000002,-113.82158501674489
9.368,1.0,-114.10492290123575
9.376,0.9999999999999999,-114.38817732840764
9.384,0.9999999999999999,-114.67134818909454
9.392,1.0,-114.95443537706652
9.4,1.0,-115.23743878902616
9.408,1.0,-115.5203583246033
9.416,1.0,-115.80319388635128
9.424,1.0,-116.08594537974164
9.432,1.0,-116.36861271315989
9.44,1.0,-116.65119579790043
9.448,1.0,-116.93369454816191
9.456,0.9999999999999998,-117.21610888104203
9.464,1.0000000000000002,-117.49843871653282
9.472,0.9999999999999999,-117.78068397751511
9.48,1.0,-118.06284458975388
9.488,0.9999999999999999,-118.34492048189233
9.496,1.0,-118.62691158544729
9.504,1.0,-118.9088178348031
9.512,1.0,-119.1906391672067
9.52,0.9999999999999999,-119.47237552276144
9.528,1.0,-119.75402684442217
9.536,1.0,-120.03559307798892
9.544,1.0,-120.3170741721015
9.552,1.0,-120.5984700782333
9.56,0.9999999999999999,-120.87978075068585
9.568,1.0,-121.16100614658225
9.576,1.0,-121.44214622586173
9.584,1.0,-121.72320095127299
9.592,1.0,-122.00417028836837
9.6,1.0,-122.28505420549737
9.608,1.0,-122.56585267380073
9.616,1.0,-122.8465656672034
9.624,0.9999997216447775,-123.12719316240882
9.632,0.9999994337311296,-123.40773513889185
9.64,0.9999991487567405,-123.68819157889267
9.648,0.9999988668013879,-123.9685624674098
9.656,0.9999985879437134,-124.24884779219376
9.664,0.9999983122612047,-124.52904754374006
9.672,0.9999980398301788,-124.80916171528267
9.68,0.9999977707257659,-125.08919030278693
9.688,0.9999975050218911,-125.369133304943
9.696,0.999997242791259,-125.64899072315856
9.704,0.9999969841053387,-125.92876256155219
9.712,0.9999967290343461,-126.2084488269459
9.72,0.9999964776472299,-126.48804952885858
9.728,0.9999962300116557,-126.76756467949832
9.736,0.9999959861939918,-127.04699429375573
9.744,0.9999957462592937,-127.32633838919622
9.752,0.99999551027129,-127.60559698605329
9.76,0.99999527829237,-127.88477010722056
9.768,0.9999950503835677,-128.16385777824513
9.776,0.99999482660455,-128.44286002731948
9.784,0.9999946070136025,-128.72177688527464
9.792,0.9999943916676185,-129.00060838557218
9.8,0.9999941806220838,-129.2793545642972
9.808,0.9999939739310677,-129.55801546015022
9.816,0.999993771647208,-129.83659111444018
9.824,0.9999935738217031,-130.11508157107622
9.832,0.9999933805042966,-130.3934868765606
9.84,0.9999931917432701,-130.6718070799803
9.847999999999999,0.9999930075854305,-130.95004223300012
9.856,0.9999928280761009,-131.22819238985414
