freq,mag,phase
6.0,0.9999915733391306,-117.90643158954347
6.008,0.9999947389500073,-118.34979991670076
6.016,0.9999977834945951,-118.79303385254455
6.024,1.0,-119.23613250781132
6.032,1.0,-119.67909500818891
6.04,1.0,-120.12192049429022
6.048,1.0,-120.56460812162582
6.056,0.9999999999999999,-121.00715706057541
6.064,0.9999999999999999,-121.44956649635802
6.072,1.0,-121.89183562900133
6.08,1.0,-122.33396367330984
6.088,1.0,-122.77594985883181
6.096,1.0,-123.21779342982532
6.104,1.0,-123.65949364522325
6.112,0.9999999999999998,-124.10104977859726
6.12,1.0,-124.54246111812043
6.128,0.9999999999999999,-124.98372696652959
6.136,1.0,-125.42484664108585
6.144,0.9999999999999998,-125.86581947353484
6.152,1.0,-126.30664481006549
6.16,1.0,-126.74732201126827
6.168,1.0,-127.18785045209205
6.176,0.9999999999999999,-127.62822952180068
6.184,0.9999999999999999,-128.06845862392782
6.192,1.0,-128.5085371762319
6.2,0.9999999999999999,-128.9484646106491
6.208,1.0,-129.38824037324648
6.216,1.0,-129.82786392417367
6.224,0.9999999999999999,-130.2673347376138
6.232,0.9999999999999999,-130.70665230173384
6.24,1.0,-131.14581611863395
6.248,1.0,-131.5848257042961
6.256,1.0,-132.0236805885319
6.264,0.9999999999999999,-132.4623803149298
6.272,1.0,-132.90092444080116
6.28,1.0,-133.33931253712632
6.288,0.9999999999999999,-133.7775441884991
6.296,0.9999999999999999,-134.21561899307113
6.304,1.0,-134.65353656249553
6.312,1.0,-135.09129652186957
6.32,1.0,-135.52889850967694
6.328,0.9999999999999999,-135.96634217772927
6.336,0.9999999999999999,-136.40362719110712
6.344,1.0,-136.8407532281002
6.352,1.0,-137.27771998014717
6.36,1.0,-137.71452715177455
6.368,0.9999999999999999,-138.15117446053551
6.376,1.0,-138.5876616369477
6.384,0.9999999999999999,-139.02398842443074
6.392,1.0,-139.46015457924304
6.4,0.9999999999999999,-139.8961598704182
6.408,1.0,-140.33200407970088
6.416,0.9999999999999999,-140.7676870014823
6.424,0.9999999999999999,-141.20320844273473
6.432,1.0,-141.63856822294647
6.44,0.9999999999999998,-142.07376617405532
6.448,0.9999999999999999,-142.50880214038233
6.456,1.0,-142.94367597856484
6.464,1.0,-143.37838755748913
6.472,1.0,-143.8129367582227
6.48,0.9999999999999999,-144.2473234739462
6.4879999999999995,1.0,-144.68154760988475
6.496,0.9999999999999999,-145.11560908323926
6.504,1.0,-145.54950782311687
6.5120000000000005,1.0,-145.9832437704619
6.52,1.0,-146.41681687798527
6.5280000000000005,0.9999999999999999,-146.85022711009492
6.536,1.0,-147.2834744428246
6.5440000000000005,1.0000000000000002,-147.71655886376374
6.552,1.0,-148.14948037198553
6.5600000000000005,1.0,-148.58223897797632
6.568,0.9999999999999999,-149.01483470356322
6.5760000000000005,1.0,-149.44726758184274
6.584,0.9999999999999998,-149.87953765710813
6.592,1.0,-150.31164498477756
6.6,0.9999999999999999,-150.74358963132087
6.608,1.0,-151.17537167418723
6.616,1.0,-151.60699120173186
6.624,1.0,-152.03844831314285
6.632,0.9999999999999999,-152.46974311836794
6.64,0.9999999999999999,-152.9008757380406
6.648,1.0,-153.33184630340673
6.656,0.9999999999999999,-153.76265495625046
6.664,1.0,-154.1933018488203
6.672,0.9999999999999999,-154.623787143755
6.68,0.9999990445549696,-155.0541110140093
6.688,0.9999976717862733,-155.48427364277944
6.696,0.9999962953717945,-155.9142752234289
6.704,0.9999949160255117,-156.34411595941367
6.712,0.9999935344476207,-156.77379606420772
6.72,0.9999921513246277,-157.20331576122825
6.728,0.9999907673294437,-157.63267528376096
6.736,0.9999893831214772,-158.0618748748851
6.744,0.999987999346732,-158.4909147873988
6.752,0.9999866166379004,-158.91979528374395
6.76,0.9999852356144628,-159.34851663593133
6.768,0.9999838568827847,-159.77707912546583
6.776,0.9999824810362149,-160.20548304327113
6.784,0.9999811086551855,-160.63372868961497
6.792,0.9999797403073116,-161.0618163740341
6.8,0.9999783765474924,-161.48974641525928
6.808,0.9999770179180127,-161.91751914114042
6.816,0.9999756649486446,-162.34513488857152
6.824,0.9999743181567506,-162.77259400341597
6.832,0.9999729780473867,-163.19989684043142
6.84,0.9999716451134072,-163.62704376319522
6.848,0.9999703198355673,-164.0540351440296
6.856,0.9999690026826293,-164.4808713639269
6.864,0.9999676941114687,-164.9075528124751
6.872,0.9999663945671787,-165.33407988778305
6.88,0.9999651044831773,-165.7604529964063
6.888,0.9999638242813136,-166.18667255327242
6.896,0.999962554371976,-166.61273898160692
6.904,0.9999612951541988,-167.03865271285903
6.912,0.9999600470157705,-167.46441418662752
6.92,0.9999588103333416,-167.8900238505869
6.928,0.9999575854725342,-168.31548216041335
6.936,0.999956372788049,-168.74078957971128
6.944,0.9999551726237784,-169.1659465799394
6.952,0.9999539853129091,-169.5909536403377
6.96,0.9999528111780394,-170.01581124785358
6.968,0.9999516505312823,-170.44051989706915
6.976,0.9999505036743805,-170.865080090128
6.984,0.9999493708988128,-171.28949233666236
6.992,0.9999482524859079,-171.71375715372037
7.0,0.9999471487069505,-172.13787506569352
7.008,0.999946059823297,-172.56184660424444
7.016,0.9999449860864803,-172.98567230823446
7.024,0.9999439277383262,-173.40935272365175
7.032,0.9999428850110591,-173.8328884035395
7.04,0.9999418581274159,-174.2562799079243
7.048,0.9999408473007563,-174.6795278037443
7.056,0.9999398527351709,-175.10263266477867
7.064,0.9999388746255974,-175.5255950715759
7.072,0.9999379131579239,-175.94841561138327
7.08,0.999936968509107,-176.3710948780761
7.088,0.9999360408472765,-176.79363347208732
7.096,0.9999351303318481,-177.21603200033738
7.104,0.9999342371136346,-177.63829107616405
7.112,0.999933361334955,-178.06041131925284
7.12,0.9999325031297445,-178.4823933555672
7.128,0.9999316626236644,-178.90423781727955
7.136,0.9999308399342126,-179.32594534270186
7.144,0.9999300351708319,-179.7475165762169
7.152,0.9999292484350213,179.8310478317903
7.16,0.9999284798204422,179.4097472250008
7.168,0.9999277294130294,178.98858094123014
7.176,0.9999269972911007,178.56754831249594
7.184,0.999926283525462,178.14664866508565
7.192,0.9999255881795194,177.72588131962408
7.2,0.9999249113093825,177.30524559114028
7.208,0.9999242529639772,176.88474078913455
7.216,0.9999236131851484,176.4643662176452
7.224,0.9999229920077692,176.0441211753146
7.232,0.9999223894598475,175.62400495545558
7.24,0.9999218055626308,175.2040168461171
7.248,0.9999212403307141,174.78415613014997
7.256,0.9999206937721445,174.36442208527194
7.264,0.9999201658885256,173.94481398413294
7.272,0.9999196566751237,173.52533109437982
7.28,0.9999191661209711,173.10597267872063
7.288,0.9999186942089705,172.68673799498916
7.296,0.9999182409159983,172.26762629620873
7.304,0.9999178062130085,171.8486368306558
7.312,0.9999173900651346,171.4297688419235
7.32,0.9999169924317912,171.0110215689846
7.328,0.999916613266778,170.5923942462545
7.336,0.9999162525183787,170.17388610365376
7.344,0.9999159101294627,169.7554963666701
7.352,0.9999155860375868,169.33722425642082
7.36,0.999915280175092,168.91906898971422
7.368,0.9999149924692068,168.5010297791111
7.376,0.9999147228421426,168.0831058329859
7.384,0.999914471211193,167.66529635558754
7.392,0.9999142374888335,167.24760054710006
7.4,0.9999140215828163,166.83001760370274
7.4079999999999995,0.9999138233962673,166.4125467176302
7.416,0.9999136428277845,165.99518707723206
7.4239999999999995,0.9999134797715318,165.5779378670326
7.432,0.9999133341173334,165.16079826778932
7.4399999999999995,0.9999132057507698,164.7437674565525
7.448,0.9999130945532718,164.326844606723
7.4559999999999995,0.9999130004022122,163.9100288881113
7.464,0.9999129231710013,163.49331946699473
7.4719999999999995,0.999912862729176,163.07671550617587
7.48,0.9999128189424933,162.66021616503923
7.4879999999999995,0.9999127916730212,162.243820599609
7.496,0.9999127807792286,161.82752796260533
7.504,0.9999127861160749,161.41133740350145
7.5120000000000005,0.9999128075350997,160.99524806857917
7.52,0.9999128448845116,160.5792591009857
7.5280000000000005,0.9999128980092747,160.16336964078843
7.536,0.9999129667511968,159.74757882503124
7.5440000000000005,0.9999130509490176,159.33188578778856
7.552,0.9999131504384914,158.91628966022134
7.5600000000000005,0.9999132650524751,158.50078957063047
7.568,0.9999133946210116,158.08538464451186
7.5760000000000005,0.9999135389714151,157.67007400460986
7.584,0.9999136979283532,157.2548567709713
7.5920000000000005,0.99991387131393,156.83973206099859
7.6,0.9999140589477691,156.42469898950316
7.6080000000000005,0.9999142606470931,156.00975666875777
7.616,0.9999144762268077,155.59490420854985
7.6240000000000006,0.9999147054995778,155.18014071623287
7.632,0.9999149482759097,154.76546529677907
7.640000000000001,0.9999152043642289,154.35087705283064
7.648,0.9999154735709588,153.9363750847517
7.656000000000001,0.999915755700597,153.52195849067877
7.664,0.9999160505557926,153.10762636657245
7.672,0.9999163579374233,152.69337780626725
7.68,0.9999166776446683,152.27921190152256
7.688,0.9999170094750854,151.86512774207242
7.696,0.9999173532246842,151.4511244156753
7.704,0.9999177086879988,151.0372010081638
7.712,0.9999180756581608,150.62335660349373
7.72,0.999918453926971,150.2095902837933
7.728,0.9999188432849717,149.79590112941156
7.736,0.9999192435215154,149.38228821896726
7.744,0.9999196544248365,148.9687506293967
7.752,0.9999200757821187,148.5552874360019
7.76,0.9999205073795652,148.14189771249815
7.768,0.9999209490024641,147.72858053106157
7.776,0.9999214004352587,147.31533496237608
7.784,0.9999218614616107,146.90216007568054
7.792,0.999922331864467,146.4890549388152
7.8,0.9999228114261253,146.07601861826834
7.808,0.999923299928298,145.66305017922207
7.816,0.9999237971521746,145.2501486855986
7.824,0.9999243028784868,144.83731320010574
7.832,0.9999248168875673,144.42454278428218
7.84,0.9999253389594147,144.01183649854295
7.848,0.999925868873753,143.59919340222402
7.856,0.9999264064100897,143.18661255362727
7.864,0.9999269513477786,142.77409301006458
7.872,0.9999275034660754,142.36163382790235
7.88,0.9999280625441972,141.94923406260537
7.888,0.9999286283613792,141.5368927687804
7.896,0.9999292006969315,141.1246090002198
7.904,0.999929779330295,140.71238180994476
7.912,0.9999303640410961,140.30021025024828
7.92,0.9999309546092018,139.88809337273807
7.928,0.9999315508147716,139.4760302283789
7.936,0.9999321524383141,139.06401986753528
7.944,0.9999327592607357,138.65206134001315
7.952,0.9999333710633937,138.2401536951023
7.96,0.9999339876281487,137.82829598161743
7.968,0.9999346087374119,137.41648724794018
7.976,0.9999352341741973,137.00472654206
7.984,0.9999358637221695,136.5930129116153
7.992,0.9999364971656917,136.18134540393427
8.0,0.9999371342898733,135.7697230660754
8.008,0.9999377748806179,135.35814494486803
8.016,0.9999384187246678,134.9466100869522
8.024000000000001,0.9999390656096503,134.53511753881904
8.032,0.9999397153241226,134.12366634685037
8.04,0.9999403676576161,133.712255557358
8.048,0.9999410224006784,133.30088421662333
8.056000000000001,0.9999416793449185,132.88955137093672
8.064,0.9999423382830464,132.47825606663605
8.072,0.9999429990089163,132.06699735014567
8.08,0.9999436613175667,131.65577426801482
8.088000000000001,0.9999443250052609,131.2445858669564
8.096,0.9999449898695251,130.8334311938849
8.104,0.999945655709189,130.42230929595414
8.112,0.999946322324423,130.01121922059534
8.120000000000001,0.9999469895167751,129.60016001555496
8.128,0.999947657089209,129.18913072893193
8.136,0.9999483248461387,128.77813040921464
8.144,0.9999489925934661,128.36715810531828
8.152000000000001,0.9999496601386131,127.95621286662188
8.16,0.9999503272905579,127.54529374300498
8.168,0.9999509938598676,127.13439978488367
8.176,0.9999516596587318,126.72353004324755
8.184000000000001,0.9999523245009944,126.31268356969576
8.192,0.9999529882021841,125.90185941647303
8.2,0.999953650579548,125.4910566365053
8.208,0.9999543114520792,125.08027428343553
8.216000000000001,0.9999549706405486,124.6695114116595
8.224,0.9999556279675325,124.25876707636091
8.232,0.9999562832574421,123.84804033354644
8.24,0.9999569363365505,123.437330240081
8.248000000000001,0.9999575870330206,123.02663585372271
8.256,0.999958235176931,122.61595623315745
8.264,0.999958880600303,122.20529043803333
8.272,0.9999595231371243,121.79463752899514
8.280000000000001,0.9999601626233761,121.38399656771897
8.288,0.9999607988970545,120.97336661694594
8.296,0.9999614317981962,120.56274674051613
8.304,0.9999620611689003,120.15213600340249
8.312,0.9999626868533514,119.74153347174477
8.32,0.9999633086978404,119.33093821288244
8.328,0.9999639265507867,118.92034929538885
8.336,0.9999645402627569,118.50976578910353
8.344,0.9999651496864874,118.09918676516624
8.352,0.9999657546769013,117.68861129604907
8.36,0.9999663550911292,117.27803845559004
8.368,0.9999669507885257,116.86746731902497
8.376,0.9999675416306875,116.45689696302084
8.384,0.999968127481471,116.04632646570744
8.392,0.9999687082070089,115.6357549067104
8.4,0.999969283675725,115.22518136718256
8.408,0.9999698537583505,114.81460492983676
8.416,0.9999704183279374,114.40402467897704
8.424,0.9999709772598753,113.99343970053104
8.432,0.9999715304319021,113.58284908208097
8.44,0.9999720777241189,113.1722519128959
8.448,0.9999726190190027,112.76164728396233
8.456,0.9999731542014164,112.35103428801632
8.464,0.9999736831586225,111.94041201957377
8.472,0.999974205780293,111.52977957496228
8.48,0.999974721958519,111.11913605235137
8.488,0.9999752315878224,110.70848055178388
8.496,0.9999757345651638,110.29781217520609
8.504,0.9999762307899508,109.88713002649891
8.512,0.999976720164048,109.47643321150765
8.52,0.9999772025917829,109.06572083807312
8.528,0.9999776779799543,108.65499201606109
8.536,0.9999781462378378,108.2442458573932
8.544,0.9999786072771931,107.83348147607622
8.552,0.9999790610122693,107.42269798823271
8.56,0.999979507359809,107.0118945121301
8.568,0.9999799462390545,106.60107016821112
8.576,0.9999803775717507,106.19022407912266
8.584,0.9999808012821496,105.77935536974599
8.592,0.9999812172970121,105.36846316722547
8.6,0.999981625545612,104.95754660099853
8.608,0.999982025959737,104.5466048028241
8.616,0.9999824184736916,104.13563690681252
8.624,0.9999828030242967,103.72464204945372
8.632,0.9999831795508914,103.31361936964691
8.64,0.9999835479953326,102.90256800872858
8.648,0.9999839083019954,102.49148711050199
8.656,0.9999842604177714,102.08037582126498
8.664,0.9999846042920675,101.66923328983935
8.672,0.9999849398768056,101.25805866759833
8.68,0.9999852671264183,100.84685110849584
8.688,0.9999855859978484,100.43560976909384
8.696,0.9999858964505439,100.0243338085913
8.704,0.999986198446456,99.61302238885143
8.712,0.999986491950034,99.20167467443048
8.72,0.9999867769282216,98.79028983260473
8.728,0.999987053350452,98.3788670333991
8.736,0.9999873211886414,97.96740544961409
8.744,0.9999875804171856,97.55590425685408
8.752,0.9999878310129512,97.14436263355408
8.76,0.9999880729552704,96.73277976100798
8.768,0.999988306225934,96.32115482339508
8.776,0.9999885308091837,95.90948700780802
8.784,0.9999887466917041,95.49777550427936
8.792,0.9999889538626143,95.08601950580922
8.8,0.9999891523134594,94.67421820839165
8.808,0.9999893420382016,94.2623708110422
8.815999999999999,0.9999895230332099,93.85047651582411
8.824,0.9999896952972512,93.43853452787536
8.832,0.9999898588314792,93.02654405543541
8.84,0.999990013639424,92.61450430987166
8.847999999999999,0.9999901597269802,92.2024145057057
8.856,0.9999902971023971,91.79027386063993
8.864,0.9999904257762652,91.37808159558398
8.872,0.9999905457615045,90.9658369346808
8.879999999999999,0.9999906570733518,90.55353910533263
8.888,0.9999907597293477,90.1411873382272
8.896,0.999990853749324,89.7287808673639
8.904,0.999990939155387,89.31631893007949
8.911999999999999,0.9999910159719078,88.90380076707375
8.92,0.9999910842255041,88.4912256224353
8.928,0.999991143945027,88.0785927436675
8.936,0.9999911951615453,87.66590138171378
8.943999999999999,0.9999912379083316,87.25315079098296
8.952,0.9999912722208417,86.84034022937476
8.96,0.9999912981367053,86.42746895830533
8.968,0.9999913156957024,86.01453624273222
8.975999999999999,0.9999913249397524,85.60154135117946
8.984,0.9999913259128922,85.18848355576259
8.992,0.9999913186612608,84.77536213221394
9.0,0.9999913032330814,84.36217635990731
9.008,0.9999912796786432,83.94892552188249
9.016,0.9999912480502813,83.53560890487023
9.024000000000001,0.99999120840236,83.12222579931698
9.032,0.9999911607912523,82.70877549940926
9.04,0.9999911052753204,82.29525730309784
9.048,0.9999910419148967,81.88167051212244
9.056000000000001,0.9999909707722628,81.46801443203591
9.064,0.9999908919116298,81.0542883722285
9.072,0.9999908053991173,80.64049164595153
9.08,0.9999907113027324,80.22662357034166
9.088000000000001,0.9999906096923484,79.81268346644497
9.096,0.999990500639684,79.39867065924057
9.104,0.9999903842182798,78.98458447766409
9.112,0.9999902605034786,78.57042425463155
9.120000000000001,0.9999901295724006,78.156189327063
9.128,0.9999899915039229,77.74187903590585
9.136,0.9999898463786544,77.32749272615787
9.144,0.9999896942789155,76.91302974689081
9.152000000000001,0.9999895352887119,76.49848945127358
9.16,0.9999893694937123,76.0838711965951
9.168,0.999989196981225,75.66917434428716
9.176,0.9999890178401727,75.2543982599474
9.184000000000001,0.9999888321610687,74.83954231336219
9.192,0.9999886400359919,74.42460587852918
9.2,0.9999884415585633,74.00958833367955
9.208,0.9999882368239179,73.59448906130069
9.216000000000001,0.9999880259286835,73.17930744815874
9.224,0.9999878089709524,72.76404288532056
9.232,0.9999875860502561,72.34869476817569
9.24,0.9999873572675397,71.93326249645855
9.248000000000001,0.9999871227251363,71.51774547427057
9.256,0.9999868825267398,71.1021431101017
9.264,0.9999866367773788,70.68645481685195
9.272,0.9999863855833897,70.27068001185319
9.280000000000001,0.9999861290523897,69.85481811689067
9.288,0.999985867293251,69.43886855822431
9.296,0.9999856004160709,69.02283076660962
9.304,0.9999853285321473,68.60670417731907
9.312000000000001,0.999985051753948,68.1904882301632
9.32,0.999984770195087,67.77418236951132
9.328,0.9999844839702924,67.35778604431208
9.336,0.9999841931953796,66.94129870811427
9.344,0.9999838979872251,66.52471981908755
9.352,0.9999835984637354,66.10804884004223
9.36,0.9999832947438199,65.6912852384502
9.368,0.9999829869473613,65.27442848646434
9.376,0.9999826751951877,64.85747806093924
9.384,0.9999823596090431,64.44043344345027
9.392,0.9999820403115586,64.02329412031402
9.4,0.9999817174262218,63.60605958260723
9.408,0.9999813910773504,63.18872932618694
9.416,0.9999810613900593,62.77130285170897
9.424,0.9999807284902338,62.35377966464789
9.432,0.999980392504498,61.93615927531533
9.44,0.9999800535601858,61.5184411988796
9.448,0.9999797117853116,61.10062495538355
9.456,0.9999793673085395,60.6827100697641
9.464,0.9999790202591533,60.26469607186977
9.472,0.9999786707670263,59.84658249647979
9.48,0.9999783189625916,59.4283688833215
9.488,0.999977964976812,59.010054777089
9.496,0.9999776089411478,58.59163972746033
9.504,0.9999772509875293,58.17312328911581
9.512,0.999976891248323,57.75450502175479
9.52,0.9999765298563039,57.33578449011384
9.528,0.9999761669446233,56.9169612639831
9.536,0.999975802646779,56.49803491822405
9.544,0.9999754370965831,56.079005032785595
9.552,0.9999750704281338,55.659871192721596
9.56,0.9999747027757819,55.240632988206556
9.568,0.999974334274102,54.8212900145526
9.576,0.9999739650578605,54.40184187222514
9.584,0.9999735952619856,53.98228816685936
9.592,0.9999732250215362,53.562628509275406
9.6,0.9999728544716702,53.142862515494734
9.608,0.9999724837476149,52.722989806754754
9.616,0.9999721129846355,52.30301000952489
9.624,0.9999717423180045,51.88292275552085
9.632,0.9999713718829701,51.4627276817203
9.64,0.9999710018147271,51.042424430376755
9.648,0.9999706322483828,50.622012649034794
9.656,0.9999702633189309,50.20149199054371
9.664,0.9999698951612165,49.78086211307222
9.672,0.9999695279099077,49.36012268012169
9.68,0.999969161699464,48.93927336054057
9.688,0.9999687966641062,48.5183138285371
9.696,0.9999684329377856,48.09724376369339
