freq,mag,phase
6.0,0.9999951830605787,-157.9961076534364
6.008,0.9999940616150338,-158.36519494314362
6.016,0.9999929773685182,-158.73400961404752
6.024,0.9999919296341633,-159.1025555242838
6.032,0.9999909177334333,-159.47083653666132
6.04,0.9999899409960638,-159.83885651855428
6.048,0.9999889987599986,-160.20661934179608
6.056,0.9999880903713289,-160.57412888257628
6.064,0.9999872151842305,-160.94138902133955
6.072,0.9999863725609,-161.30840364268735
6.08,0.9999855618714943,-161.67517663528176
6.088,0.9999847824940681,-162.04171189175153
6.096,0.9999840338145091,-162.40801330860072
6.104,0.9999833152264798,-162.77408478611935
6.112,0.9999826261313505,-163.13993022829644
6.12,0.9999819659381386,-163.505553542735
6.128,0.9999813340634475,-163.87095864056946
6.136,0.9999807299314035,-164.23614943638492
6.144,0.9999801529735922,-164.60112984813895
6.152,0.9999796026289973,-164.96590379708482
6.16,0.9999790783439392,-165.33047520769722
6.168,0.9999785795720096,-165.69484800759992
6.176,0.999978105774017,-166.05902612749503
6.184,0.9999776564179148,-166.4230135010948
6.192,0.9999772309787476,-166.7868140650547
6.2,0.9999768289385872,-167.1504317589087
6.208,0.9999764497864687,-167.51387052500638
6.216,0.9999760930183326,-167.8771343084516
6.224,0.9999757581369648,-168.24022705704328
6.232,0.9999754446519284,-168.6031527212176
6.24,0.9999751520795126,-168.96591525399205
6.248,0.9999748799426661,-169.3285186109111
6.256,0.9999746277709389,-169.69096674999346
6.264,0.9999743951004207,-170.0532636316815
6.272,0.9999741814736823,-170.41541321879092
6.28,0.9999739864397166,-170.77741947646362
6.288,0.999973809553879,-171.13928637212064
6.296,0.9999736503778252,-171.50101787541777
6.304,0.9999735084794558,-171.8626179582016
6.312,0.999973383432858,-172.22409059446764
6.32,0.9999732748182439,-172.58543976031967
6.328,0.9999731822218967,-172.94666943393023
6.336,0.9999731052361087,-173.3077835955029
6.344,0.9999730434591224,-173.6687862272353
6.352,0.9999729964950821,-174.02968131328402
6.36,0.9999729639539703,-174.3904728397298
6.368,0.9999729454515477,-174.7511647945453
6.376,0.9999729406093048,-175.11176116756283
6.384,0.9999729490544005,-175.47226595044373
6.392,0.9999729704196072,-175.83268313664894
6.4,0.9999730043432586,-176.1930167214105
6.408,0.999973050469187,-176.55327070170415
6.416,0.999973108446678,-176.9134490762229
6.424,0.9999731779304105,-177.27355584535178
6.432,0.9999732585803998,-177.63359501114348
6.44,0.9999733500619526,-177.99357057729463
6.448,0.9999734520456046,-178.35348654912363
6.456,0.9999735642070696,-178.71334693354868
6.464,0.9999736862271931,-179.07315573906723
6.472,0.9999738177918882,-179.4329169757358
6.48,0.9999739585920944,-179.79263465515098
6.4879999999999995,0.9999741083237189,179.84768720956924
6.496,0.9999742666875875,179.48804460380265
6.504,0.9999744333893935,179.12843351144042
6.5120000000000005,0.9999746081396462,178.7688499149028
6.52,0.999974790653623,178.4092897951552
6.5280000000000005,0.9999749806513145,178.04974913172276
6.536,0.999975177857377,177.6902239027051
6.5440000000000005,0.9999753820010862,177.33071008478987
6.552,0.9999755928162823,176.97120365326646
6.5600000000000005,0.9999758100413279,176.6117005820382
6.568,0.9999760334190517,176.25219684363512
6.5760000000000005,0.9999762626967104,175.8926884092255
6.584,0.999976497625931,175.53317124862772
6.592,0.9999767379626703,175.17364133032055
6.6,0.9999769834671655,174.81409462145442
6.608,0.9999772339038879,174.4545270878616
6.616,0.9999774890414963,174.09493469406598
6.624,0.999977748652792,173.7353134032929
6.632,0.9999780125146742,173.37565917747867
6.64,0.9999782804080909,173.0159679772796
6.648,0.9999785521179998,172.65623576208114
6.656,0.9999788274333163,172.29645849000678
6.664,0.9999791061468799,171.9366321179266
6.672,0.9999793880554003,171.57675260146587
6.68,0.9999796729594195,171.21681589501367
6.688,0.9999799606632668,170.85681795173116
6.696,0.9999802509750193,170.49675472356006
6.704,0.9999805437064555,170.13662216123106
6.712,0.9999808386730132,169.7764162142721
6.72,0.9999811356937534,169.41613283101714
6.728,0.9999814345913131,169.05576795861424
6.736,0.9999817351918661,168.6953175430347
6.744,0.999982037325085,168.33477752908155
6.752,0.9999823408240973,167.97414386039867
6.76,0.9999826455254479,167.61341247947976
6.768,0.9999829512690581,167.25257932767803
6.776,0.9999832578981881,166.89164034521554
6.784,0.9999835652593962,166.5305914711932
6.792,0.999983873202502,166.16942864360107
6.8,0.9999841815805465,165.8081477993289
6.808,0.9999844902497557,165.44674487417697
6.816,0.9999847990695021,165.08521580286748
6.824,0.9999851079022685,164.72355651905642
6.832,0.9999854166136098,164.3617629553455
6.84,0.9999857250721182,163.9998310432951
6.848,0.9999860331493852,163.63775671343737
6.856,0.9999863407199664,163.27553589528995
6.864,0.9999866476613467,162.9131645173704
6.872,0.9999869538539036,162.550638507211
6.88,0.9999872591808736,162.18795379137438
6.888,0.9999875635283166,161.8251062954697
6.896,0.9999878667850827,161.46209194416969
6.904,0.9999881688427763,161.09890666122797
6.912,0.9999884695957245,160.7355463694979
6.92,0.9999887689409428,160.37200699095132
6.928,0.9999890667781017,160.00828444669875
6.936,0.9999893630094945,159.64437465701022
6.944,0.9999896575400045,159.2802735413369
6.952,0.9999899502770725,158.91597701833373
6.96,0.9999902411306666,158.55148100588306
6.968,0.9999905300132477,158.18678142111895
6.976,0.9999908168397411,157.82187418045297
6.984,0.9999911015275036,157.4567551996005
6.992,0.9999913839962942,157.09142039360856
7.0,0.9999916641682413,156.72586567688424
7.008,0.999991941967816,156.36008696322477
7.016,0.9999922173217993,155.99408016584852
7.024,0.9999924901592532,155.62784119742693
7.032,0.9999927604114927,155.26136597011822
7.04,0.9999930280120554,154.89465039560187
7.048,0.9999932928966725,154.52769038511462
7.056,0.9999935550032415,154.16048184948775
7.064,0.9999938142717976,153.79302069918577
7.072,0.9999940706444846,153.4253028443464
7.08,0.9999943240655281,153.0573241948218
7.088,0.9999945744812085,152.68908066022192
7.096,0.9999948218398327,152.32056814995855
7.104,0.9999950660917082,151.95178257329135
7.112,0.9999953071891148,151.58271983937524
7.12,0.9999955450862799,151.21337585730964
7.128,0.9999957797393516,150.84374653618897
7.136,0.9999960111063723,150.47382778515512
7.144,0.999996239147253,150.10361551345153
7.152,0.9999964638237488,149.7331056304789
7.16,0.9999966850994323,149.36229404585274
7.168,0.99999690293967,148.99117666946285
7.176,0.9999971173115957,148.61974941153443
7.184,0.9999973281840869,148.24800818269105
7.192,0.9999975355277414,147.87594889401998
7.2,0.9999977393148514,147.50356745713867
7.208,0.9999979395193803,147.13085978426406
7.216,0.9999981361169398,146.7578217882833
7.224,0.9999983290847648,146.38444938282686
7.232,0.9999985184016917,146.01073848234356
7.24,0.9999987040481344,145.63668500217784
7.248,0.9999988860060612,145.26228485864908
7.256,0.9999990642589739,144.8875339691334
7.264,0.9999992387918829,144.5124282521472
7.272,0.9999994095912859,144.13696362743374
7.28,0.9999995766451478,143.76113601605113
7.288,0.9999997399428754,143.38494134046337
7.296,0.9999998994752984,143.00837552463375
7.304,1.0,142.63143449412013
7.312,1.0,142.2541141761733
7.32,0.9999999999999998,141.8764104998376
7.328,1.0,141.49831939605423
7.336,1.0,141.11983679776668
7.344,1.0,140.74095864002973
7.352,1.0,140.36168086011995
7.36,1.0,139.98199939765001
7.368,1.0,139.6019101946849
7.376,1.0,139.22140919586155
7.384,1.0,138.84049234851094
7.392,1.0,138.459155602783
7.4,1.0,138.07739491177495
7.4079999999999995,0.9999999999999999,137.69520623166193
7.416,1.0,137.31258552183095
7.4239999999999995,1.0,136.9295287450183
7.432,0.9999999999999998,136.54603186744882
7.4399999999999995,1.0,136.16209085897992
7.448,1.0,135.77770169324717
7.4559999999999995,1.0,135.39286034781438
7.464,1.0,135.00756280432594
7.4719999999999995,0.9999999999999999,134.6218050486634
7.48,1.0,134.235583071104
7.4879999999999995,1.0,133.84889286648445
7.496,0.9999999999999999,133.46173043436613
7.504,0.9999999999999999,133.0740917792054
7.5120000000000005,1.0,132.6859729105261
7.52,1.0,132.29736984309662
7.5280000000000005,1.0,131.90827859710976
7.536,1.0,131.51869519836674
7.5440000000000005,1.0,131.1286156784643
7.552,1.0,130.7380360749865
7.5600000000000005,1.0,130.3469524316986
7.568,1.0,129.95536079874674
7.5760000000000005,0.9999999999999999,129.56325723285957
7.584,0.9999999999999999,129.17063779755514
7.5920000000000005,1.0,128.7774985633506
7.6,0.9999999999999999,128.38383560797692
7.6080000000000005,1.0,127.98964501659638
7.616,1.0,127.59492288202537
7.6240000000000006,1.0,127.19966530495978
7.632,1.0,126.80386839420622
7.640000000000001,1.0,126.40752826691553
7.648,1.0,126.0106410488221
7.656000000000001,1.0,125.61320287448615
7.664,0.9999999999999999,125.21520988754119
7.672,1.0,124.81665824094497
7.68,1.0,124.41754409723536
7.688,0.9999999999999999,124.01786362879044
7.696,1.0,123.61761301809273
7.704,1.0,123.21678845799813
7.712,1.0,122.81538615200927
7.72,1.0,122.41340231455318
7.728,1.0,122.01083317126391
7.736,1.0,121.60767495926929
7.744,1.0,121.20392392748248
7.752,1.0,120.79957633689817
7.76,0.9999999999999999,120.39462846089346
7.768,0.9999999999999999,119.98907658553351
7.776,1.0,119.58291700988153
7.784,0.9999999999999999,119.17614604631422
7.792,0.9999999999999999,118.76876002084133
7.8,0.9999999999999999,118.36075527343056
7.808,1.0,117.95212815833685
7.816,1.0,117.542875044437
7.824,1.0,117.13299231556886
7.832,0.9999999999999999,116.72247637087564
7.84,1.0,116.311323625155
7.848,0.9999999999999999,115.89953050921343
7.856,0.9999999999999998,115.48709347022519
7.864,0.9999999999999999,115.0740089720966
7.872,1.0,114.66027349583533
7.88,1.0,114.24588353992466
7.888,1.0,113.83083562070281
7.896,0.9999999999999999,113.41512627274751
7.904,1.0,112.99875204926548
7.912,0.9999999999999999,112.5817095224872
7.92,1.0,112.16399528406681
7.928,0.9999999999999999,111.745605945487
7.936,0.9999999999999999,111.3265381384692
7.944,1.0,110.90678851538898
7.952,1.0,110.48635374969646
7.96,0.9999999999999999,110.06523053634206
7.968,0.9999999999999999,109.64341559220733
7.976,1.0,109.22090565654104
7.984,1.0,108.79769749140038
7.992,0.9999999999999999,108.37378788209749
8.0,1.0,107.94917363765094
8.008,1.0,107.52385159124269
8.016,1.0,107.09781860067976
8.024000000000001,1.0,106.67107154886186
8.032,0.9999999999999998,106.24360734425336
8.04,1.0,105.8154229213606
8.048,1.0,105.3865152412146
8.056000000000001,1.0,104.95688129185896
8.064,1.0,104.52651808884241
8.072,0.9999999999999999,104.09542267571642
8.08,1.0,103.66359212453838
8.088000000000001,0.9999999102441685,103.23102353637957
8.096,0.9999998091921881,102.79771404183796
8.104,0.9999997076027292,102.36366080155587
8.112,0.9999996055221317,101.92886100674286
8.120000000000001,0.9999995029965558,101.49331187970374
8.128,0.9999994000719669,101.05701067437089
8.136,0.9999992967941255,100.61995467684133
8.144,0.9999991932085753,100.18214120591924
8.152000000000001,0.9999990893606294,99.74356761366279
8.16,0.9999989852953597,99.30423128593567
8.168,0.9999988810575844,98.86412964296302
8.176,0.9999987766918557,98.42326013989226
8.184000000000001,0.999998672242448,97.98162026735866
8.192,0.9999985677533471,97.53920755205482
8.2,0.9999984632682364,97.09601955730454
8.208,0.9999983588304863,96.65205388364143
8.216000000000001,0.9999982544831427,96.2073081693918
8.224,0.9999981502689154,95.76178009126133
8.232,0.9999980462301649,95.31546736492581
8.24,0.9999979424088928,94.86836774562623
8.248000000000001,0.9999978388467287,94.42047902876806
8.256,0.9999977355849204,93.97179905052364
8.264,0.999997632664322,93.52232568843864
8.272,0.9999975301253798,93.07205686204242
8.280000000000001,0.9999974280081266,92.62099053346194
8.288,0.9999973263521651,92.16912470803891
8.296,0.9999972251966598,91.7164574349501
8.304,0.9999971245803251,91.2629868078315
8.312,0.9999970245414149,90.80871096540552
8.32,0.9999969251177102,90.35362809211044
8.328,0.9999968263465105,89.8977364187341
8.336,0.9999967282646202,89.44103422304893
8.344,0.9999966309083411,88.98351983045104
8.352,0.9999965343134593,88.52519161460042
8.36,0.9999964385152359,88.06604799806507
8.368,0.9999963435483975,87.60608745296582
8.376,0.9999962494471223,87.14530850162473
8.384,0.999996156245035,86.68370971721403
8.392,0.999996063975192,86.22128972440841
8.4,0.9999959726700746,85.75804720003727
8.408,0.9999958823615774,85.2939808737403
8.416,0.9999957930809992,84.82908952862246
8.424,0.9999957048590331,84.36337200191211
8.432,0.9999956177257567,83.89682718561819
8.44,0.9999955317106228,83.42945402719005
8.448,0.9999954468424515,82.96125153017621
8.456,0.9999953631494171,82.49221875488526
8.464,0.9999952806590436,82.02235481904525
8.472,0.9999951993981925,81.55165889846495
8.48,0.9999951193930562,81.08013022769332
8.488,0.9999950406691469,80.60776810068016
8.496,0.9999949632512907,80.13457187143477
8.504,0.9999948871636167,79.6605409546853
8.512,0.9999948124295512,79.18567482653575
8.52,0.9999947390718069,78.70997302512316
8.528,0.9999946671123782,78.233435151272
8.536,0.9999945965725296,77.7560608691484
8.544,0.999994527472792,77.27784990691099
8.552,0.9999944598329523,76.79880205736117
8.56,0.9999943936720475,76.31891717858964
8.568,0.9999943290083572,75.83819519462158
8.576,0.999994265859397,75.35663609605785
8.584,0.9999942042419115,74.8742399407144
8.592,0.9999941441718679,74.39100685425683
8.6,0.9999940856644495,73.90693703083306
8.608,0.9999940287340497,73.42203073370035
8.616,0.9999939733942668,72.93628829585003
8.624,0.9999939196578961,72.44971012062597
8.632,0.9999938675369269,71.96229668234028
8.64,0.9999938170425358,71.47404852688224
8.648,0.9999937681850817,70.98496627232375
8.656,0.9999937209741016,70.49505060951742
8.664,0.9999936754183055,70.00430230269095
8.672,0.999993631525572,69.5127221900332
8.68,0.9999935893029441,69.02031118427607
8.688,0.9999935487566253,68.52707027326758
8.696,0.9999935098919769,68.03300052054009
8.704,0.9999934727135129,67.53810306586904
8.712,0.9999934372248979,67.04237912582633
8.72,0.9999934034289442,66.54582999432367
8.728,0.9999933713276091,66.04845704314975
8.736,0.9999933409219924,65.55026172249687
8.744,0.9999933122123342,65.05124556148078
8.752,0.9999932851980138,64.55141016864937
8.76,0.9999932598775471,64.05075723248375
8.768,0.9999932362485859,63.54928852188779
8.776,0.9999932143079177,63.04700588666932
8.784,0.9999931940514639,62.54391125800905
8.792,0.9999931754742798,62.040006648920524
8.8,0.999993158570555,61.53529415469731
8.808,0.999993143333613,61.02977595335039
8.815999999999999,0.9999931297559121,60.52345430603224
8.824,0.9999931178290469,60.01633155744996
8.832,0.999993107543748,59.508410136265866
8.84,0.9999930988898854,58.99969255548484
8.847999999999999,0.9999930918564679,58.49018141282881
8.856,0.9999930864316483,57.97987939109805
8.864,0.9999930826027231,57.46878925851897
8.872,0.9999930803561375,56.95691386907729
8.879999999999999,0.9999930796774871,56.44425616283693
8.888,0.9999930805515217,55.93081916624463
8.896,0.99999308296215,55.416605992419505
8.904,0.9999930868924428,54.90161984142692
8.911999999999999,0.999993092324638,54.38586400053657
8.92,0.9999930992401453,53.86934184446522
8.928,0.999993107619552,53.352056835602895
8.936,0.9999931174426271,52.834012524222324
8.943999999999999,0.9999931286883293,52.31521254867119
8.952,0.9999931413348122,51.79566063554779
8.96,0.9999931553594299,51.2753605998591
8.968,0.9999931707387464,50.75431634516052
8.975999999999999,0.9999931874485415,50.23253186367761
8.984,0.9999932054638182,49.71001123640973
8.992,0.9999932247588114,49.186758633215064
9.0,0.9999932453069964,48.66277831287613
9.008,0.9999932670810981,48.138074623146125
9.016,0.9999932900530987,47.61265200077607
9.024000000000001,0.9999933141942486,47.08651497152218
9.032,0.9999933394750761,46.559668150132744
9.04,0.9999933658653972,46.032116240314586
9.048,0.9999933933343262,45.503864034679474
9.056000000000001,0.9999934218502874,44.97491641466972
9.064,0.999993451381025,44.44527835046219
9.072,0.9999934818936166,43.91495490085095
9.08,0.9999935133544843,43.383951213109064
9.088000000000001,0.9999935457294058,42.852272522828464
9.096,0.9999935789835295,42.319924153737524
9.104,0.9999936130813866,41.786911517496385
9.112,0.9999936479869035,41.25324011347053
9.120000000000001,0.9999936836634165,40.71891552848175
9.128,0.9999937200736864,40.183943436535934
9.136,0.9999937571799117,39.648329598528136
9.144,0.9999937949437444,39.11207986192493
9.152000000000001,0.9999938333263039,38.57520016042368
9.16,0.9999938722881933,38.037696513587996
9.168,0.9999939117895147,37.49957502645988
9.176,0.9999939517898858,36.960841889148654
9.184000000000001,0.9999939922484554,36.42150337639636
9.192,0.9999940331239201,35.881565847118736
9.2,0.9999940743745417,35.341035743922724
9.208,0.9999941159581645,34.79991959260018
9.216000000000001,0.9999941578322308,34.25822400159784
9.224,0.9999941999538021,33.71595566146267
9.232,0.9999942422795742,33.173121344263365
9.24,0.9999942847658966,32.6297279029879
9.248000000000001,0.9999943273687908,32.08578227091738
9.256,0.9999943700439685,31.541291460974964
9.264,0.999994412746853,30.99626256505098
9.272,0.9999944554325945,30.450702753304242
9.280000000000001,0.9999944980560928,29.904619273439497
9.288,0.9999945405720159,29.358019449960256
9.296,0.9999945829348191,28.81091068339788
9.304,0.9999946250987665,28.26330044951707
9.312000000000001,0.999994667017949,27.71519629849786
9.32,0.9999947086463078,27.166605854093216
9.328,0.9999947499376527,26.617536812763273
9.336,0.9999947908456829,26.06799694278648
9.344,0.9999948313240092,25.517994083347716
9.352,0.9999948713261736,24.967536143602004
9.36,0.9999949108056717,24.416631101717027
9.368,0.9999949497159725,23.86528700389104
9.376,0.9999949880105407,23.313511963350017
9.384,0.9999950256428582,22.76131415932052
9.392,0.9999950625664461,22.20870183598243
9.4,0.9999950987348839,21.655683301397602
9.408,0.9999951341018342,21.102266926418988
9.416,0.9999951686210621,20.54846114357636
9.424,0.9999952022464584,19.994274445942683
9.432,0.999995234932061,19.43971538597782
9.44,0.9999952666320754,18.88479257435371
9.448,0.9999952973008984,18.329514678757036
9.456,0.9999953268931384,17.77389042267436
9.464,0.9999953553636387,17.217928584155285
9.472,0.9999953826674963,16.661637994558692
9.48,0.9999954087600867,16.105027537277984
9.488,0.999995433597084,15.548106146449838
9.496,0.9999954571344818,14.990882805642883
9.504,0.9999954793286161,14.433366546530705
9.512,0.9999955001361852,13.875566447545507
9.52,0.9999955195142716,13.317491632516981
9.528,0.9999955374203636,12.75915126929267
9.536,0.999995553812374,12.200554568344437
9.544,0.9999955686486645,11.641710781357377
9.552,0.9999955818880624,11.082629199805602
9.56,0.9999955934898835,10.52331915351159
9.568,0.9999956034139525,9.963790009193326
9.576,0.9999956116206214,9.404051168995874
9.584,0.9999956180707907,8.844112069011958
9.592,0.9999956227259276,8.283982177787797
9.6,0.9999956255480876,7.7236709948190425
9.608,0.9999956264999309,7.163188049033171
9.616,0.9999956255447445,6.60254289726284
9.624,0.9999956226464576,6.041745122706882
9.632,0.9999956177696616,5.480804333383431
9.64,0.9999956108796278,4.919730160571687
9.648,0.9999956019423263,4.358532257247029
9.656,0.9999955909244402,3.7972202965058757
9.664,0.9999955777933869,3.235803969985054
9.672,0.9999955625173309,2.6742929862721008
9.68,0.999995545065204,2.112697069311195
9.688,0.9999955254067178,1.5510259568013054
9.696,0.9999955035123815,0.9892893985910926
9.704,0.9999954793535166,0.42749715506725094
9.712,0.9999954529022727,-0.1343410044592073
9.72,0.9999954241316401,-0.696215303371961
9.728,0.9999953930154657,-1.258115959369247
9.736,0.9999953595284663,-1.8200331860878358
9.744,0.9999953236462416,-2.3819571947265565
9.752,0.9999952853452864,-2.943878195672729
9.76,0.9999952446030056,-3.5057864001269863
