freq,mag,phase
6.0,0.9999902865785353,-111.261225387148
6.008,0.9999918095767469,-111.67383771136132
6.016,0.9999932834533047,-112.08625117898279
6.024,0.9999947090393775,-112.49846555474764
6.032,0.9999960871584398,-112.91048061751847
6.04,0.9999974186262733,-113.32229616022153
6.048,0.9999987042509708,-113.73391198978224
6.056,0.9999999448329379,-114.14532792706024
6.064,1.0,-114.55654380678374
6.072,0.9999999999999999,-114.96755947748346
6.08,1.0,-115.37837480142579
6.088,1.0,-115.78898965454589
6.096,0.9999999999999999,-116.1994039263796
6.104,0.9999999999999999,-116.60961751999548
6.112,0.9999999999999999,-117.01963035192604
6.12,1.0,-117.4294423520985
6.128,1.0,-117.83905346376525
6.136,0.9999999999999999,-118.2484636434336
6.144,0.9999999999999999,-118.65767286079547
6.152,1.0,-119.0666810986564
6.16,1.0,-119.47548835286406
6.168,1.0,-119.88409463223664
6.176,1.0,-120.29249995849085
6.184,1.0000000000000002,-120.70070436616925
6.192,1.0,-121.1087079025674
6.2,1.0,-121.51651062766095
6.208,1.0,-121.9241126140318
6.216,0.9999999999999999,-122.33151394679467
6.224,1.0,-122.73871472352256
6.232,1.0,-123.14571505417268
6.24,1.0,-123.55251506101156
6.248,1.0,-123.95911487854022
6.256,0.9999999999999999,-124.36551465341883
6.264,1.0,-124.77171454439136
6.272,1.0,-125.17771472220987
6.28,1.0,-125.58351536955858
6.288,1.0,-125.98911668097779
6.296,1.0,-126.39451886278742
6.304,0.9999999999999999,-126.79972213301076
6.312,0.9999999999999999,-127.20472672129752
6.32,0.9999999999999999,-127.60953286884723
6.328,1.0,-128.0141408283321
6.336,1.0,-128.41855086381977
6.344,1.0,-128.82276325069628
6.352,1.0,-129.2267782755886
6.36,1.0000000000000002,-129.63059623628698
6.368,0.9999999999999999,-130.03421744166735
6.376,1.0,-130.4376422116137
6.384,1.0000000000000002,-130.8408708769405
6.392,0.9999999999999999,-131.2439037793142
6.4,1.0,-131.6467412711759
6.408,1.0,-132.04938371566317
6.416,1.0,-132.4518314865318
6.424,1.0,-132.85408496807818
6.432,0.9999999999999999,-133.25614455506067
6.44,1.0,-133.6580106526218
6.448,0.9999999999999999,-134.05968367621028
6.456,1.0,-134.46116405150224
6.464,1.0,-134.86245221432404
6.472,1.0,-135.2635486105732
6.48,0.9999999999999999,-135.66445369614092
6.4879999999999995,0.9999999999999999,-136.06516793683397
6.496,1.0,-136.46569180829636
6.504,1.0,-136.86602579593156
6.5120000000000005,0.9999999999999999,-137.26617039482474
6.52,1.0,-137.66612610966453
6.5280000000000005,1.0,-138.06589345466557
6.536,1.0,-138.46547295349058
6.5440000000000005,0.9999999999999999,-138.86486513917293
6.552,1.0,-139.26407055403882
6.5600000000000005,1.0,-139.66308974963007
6.568,0.9999999999999999,-140.06192328662664
6.5760000000000005,1.0,-140.46057173476964
6.584,1.0000000000000002,-140.8590356727837
6.592,1.0,-141.25731568830057
6.6,1.0,-141.65541237778186
6.608,1.0,-142.05332634644245
6.616,1.0,-142.45105820817395
6.624,0.9999999999999999,-142.848608585468
6.632,1.0,-143.24597810934037
6.64,1.0,-143.64316741925452
6.648,1.0,-144.0401771630457
6.656,0.9999999999999999,-144.43700799684524
6.664,0.9999999999999999,-144.83366058500482
6.672,1.0,-145.2301356000211
6.68,1.0,-145.62643372246035
6.688,1.0,-146.02255564088338
6.696,1.0000000000000002,-146.41850205177084
6.704,1.0,-146.81427365944828
6.712,0.9999999999999998,-147.20987117601186
6.72,1.0,-147.60529532125386
6.728,1.0,-148.0005468225889
6.736,1.0,-148.3956264149798
6.744,1.0,-148.79053484086413
6.752,1.0,-149.18527285008065
6.76,1.0,-149.57984119979633
6.768,1.0,-149.97424065443315
6.776,1.0,-150.36847198559556
6.784,1.0,-150.76253597199798
6.792,1.0,-151.15643339939237
6.8,1.0,-151.5501650604964
6.808,1.0,-151.9437317549218
6.816,1.0,-152.33713428910247
6.824,1.0,-152.7303734762237
6.832,1.0,-153.12345013615075
6.84,0.9999999999999999,-153.51636509535845
6.848,1.0,-153.9091191868605
6.856,0.9999999999999999,-154.30171325013933
6.864,1.0,-154.69414813107616
6.872,1.0,-155.08642468188137
6.88,1.0,-155.47854376102487
6.888,0.9999999548902654,-155.87050623316733
6.896,0.9999995119147393,-156.26231296909097
6.904,0.9999990702689029,-156.65396484563118
6.912,0.9999986301013735,-157.04546274560806
6.92,0.9999981915569808,-157.43680755775864
6.928,0.9999977547768104,-157.82800017666878
6.936,0.999997319898251,-158.21904150270606
6.944,0.9999968870550383,-158.60993244195237
6.952,0.9999964563772994,-159.00067390613714
6.96,0.999996027991598,-159.3912668125706
6.968,0.9999956020209794,-159.78171208407764
6.976,0.9999951785850137,-160.17201064893177
6.984,0.9999947577998408,-160.56216344078913
6.992,0.9999943397782143,-160.95217139862342
7.0,0.9999939246295438,-161.3420354666605
7.008,0.9999935124599416,-161.73175659431357
7.016,0.9999931033722627,-162.1213357361188
7.024,0.9999926974661506,-162.51077385167073
7.032,0.9999922948380783,-162.90007190555866
7.04,0.9999918955813932,-163.28923086730282
7.048,0.9999914997863582,-163.6782517112908
7.056,0.9999911075401939,-164.06713541671488
7.064,0.9999907189271227,-164.45588296750893
7.072,0.9999903340284083,-164.84449535228617
7.08,0.9999899529223994,-165.23297356427668
7.088,0.9999895756845704,-165.62131860126587
7.096,0.9999892023875632,-166.0095314655327
7.104,0.9999888331012267,-166.3976131637883
7.112,0.9999884678926604,-166.7855647071153
7.12,0.9999881068262525,-167.1733871109068
7.128,0.9999877499637223,-167.56108139480628
7.136,0.9999873973641582,-167.94864858264722
7.144,0.9999870490840594,-168.33608970239354
7.152,0.9999867051773751,-168.72340578608
7.16,0.9999863656955437,-169.110597869753
7.168,0.9999860306875313,-169.4976669934117
7.176,0.9999857001998729,-169.88461420094941
7.184,0.9999853742767079,-170.27144054009526
7.192,0.9999850529598213,-170.6581470623562
7.2,0.9999847362886799,-171.04473482295924
7.208,0.9999844243004719,-171.43120488079413
7.216,0.9999841170301419,-171.817558298356
7.224,0.9999838145104327,-172.20379614168885
7.232,0.9999835167719177,-172.5899194803286
7.24,0.9999832238430403,-172.97592938724713
7.248,0.9999829357501497,-173.36182693879616
7.256,0.9999826525175383,-173.74761321465155
7.264,0.9999823741674758,-174.133289297758
7.272,0.9999821007202467,-174.51885627427384
7.28,0.9999818321941855,-174.9043152335162
7.288,0.9999815686057103,-175.2896672679064
7.296,0.9999813099693601,-175.67491347291588
7.304,0.9999810562978282,-176.06005494701202
7.312,0.9999808076019969,-176.4450927916044
7.32,0.9999805638909711,-176.83002811099158
7.328,0.9999803251721121,-177.21486201230772
7.336,0.9999800914510727,-177.59959560546977
7.344,0.9999798627318284,-177.98423000312496
7.352,0.9999796390167119,-178.36876632059827
7.36,0.999979420306445,-178.75320567584043
7.368,0.9999792066001709,-179.13754918937627
7.376,0.9999789978954875,-179.52179798425297
7.384,0.9999787941884777,-179.9059531859888
7.392,0.9999785954737421,179.70998407747777
7.4,0.9999784017444298,179.32601267583874
7.4079999999999995,0.9999782129922691,178.9421314764674
7.416,0.9999780292075995,178.55833934446818
7.4239999999999995,0.9999778503794011,178.17463514272703
7.432,0.9999776764953242,177.79101773196064
7.4399999999999995,0.9999775075417203,177.40748597076643
7.448,0.9999773435036713,177.02403871567134
7.4559999999999995,0.9999771843650183,176.64067482118114
7.464,0.9999770301083917,176.25739313982876
7.4719999999999995,0.9999768807152387,175.87419252222332
7.48,0.9999767361658524,175.4910718170978
7.4879999999999995,0.9999765964394001,175.1080298713575
7.496,0.9999764615139503,174.72506553012724
7.504,0.999976331366501,174.34217763679973
7.5120000000000005,0.9999762059730075,173.95936503308192
7.52,0.999976085308408,173.57662655904275
7.5280000000000005,0.9999759693466505,173.19396105315957
7.536,0.9999758580607215,172.81136735236512
7.5440000000000005,0.9999757514226686,172.42884429209337
7.552,0.9999756494036296,172.04639070632632
7.5600000000000005,0.9999755519738555,171.6640054276392
7.568,0.9999754591027369,171.28168728724702
7.5760000000000005,0.999975370758831,170.89943511504916
7.584,0.999975286909882,170.51724773967558
7.5920000000000005,0.9999752075228493,170.13512398853092
7.6,0.9999751325639301,169.75306268784036
7.6080000000000005,0.9999750619985834,169.3710626626933
7.616,0.9999749957915535,168.98912273708865
7.6240000000000006,0.9999749339068943,168.60724173397844
7.632,0.9999748763079905,168.22541847531232
7.640000000000001,0.9999748229575831,167.84365178208097
7.648,0.9999747738177889,167.46194047436032
7.656000000000001,0.9999747288501243,167.0802833713543
7.664,0.9999746880155279,166.69867929143885
7.672,0.9999746512743808,166.31712705220434
7.68,0.9999746185865288,165.9356254704989
7.688,0.9999745899113036,165.55417336247092
7.696,0.9999745652075426,165.17276954361165
7.704,0.9999745444336109,164.79141282879752
7.712,0.9999745275474211,164.41010203233236
7.72,0.999974514506453,164.02883596798932
7.728,0.9999745052677738,163.64761344905273
7.736,0.9999744997880573,163.2664332883598
7.744,0.9999744980236043,162.88529429834193
7.752,0.9999744999303593,162.50419529106645
7.76,0.999974505463932,162.1231350782772
7.768,0.999974514579613,161.74211247143595
7.776,0.9999745272323945,161.3611262817632
7.784,0.9999745433769869,160.98017532027873
7.792,0.9999745629678364,160.5992583978422
7.8,0.9999745859591436,160.21837432519362
7.808,0.999974612304879,159.83752191299342
7.816,0.9999746419588017,159.45669997186272
7.824,0.9999746748744744,159.07590731242314
7.832,0.9999747110052816,158.69514274533682
7.84,0.9999747503044437,158.31440508134583
7.848,0.999974792725035,157.93369313131188
7.856,0.999974838219998,157.55300570625573
7.864,0.9999748867421596,157.17234161739634
7.872,0.9999749382442455,156.7916996761902
7.88,0.9999749926788963,156.41107869437027
7.888,0.9999750499986808,156.0304774839848
7.896,0.9999751101561117,155.64989485743624
7.904,0.9999751731036588,155.2693296275198
7.912,0.9999752387937644,154.8887806074621
7.92,0.999975307178855,154.5082466109595
7.928,0.9999753782113565,154.12772645221654
7.936,0.9999754518437073,153.74721894598397
7.944,0.9999755280283702,153.3667229075971
7.952,0.9999756067178465,152.98623715301355
7.96,0.9999756878646879,152.6057604988513
7.968,0.9999757714215091,152.22529176242656
7.976,0.9999758573409996,151.84482976179126
7.984,0.9999759455759362,151.46437331577079
7.992,0.9999760360791937,151.08392124400152
8.0,0.9999761288037577,150.7034723669682
8.008,0.9999762237027346,150.32302550604138
8.016,0.9999763207293633,149.94257948351432
8.024000000000001,0.9999764198370252,149.56213312264074
8.032,0.9999765209792566,149.1816852476715
8.04,0.9999766241097566,148.8012346838916
8.048,0.9999767291823988,148.42078025765713
8.056000000000001,0.9999768361512412,148.04032079643244
8.064,0.9999769449705355,147.65985512882668
8.072,0.9999770555947365,147.27938208463027
8.08,0.9999771679785115,146.8989004948519
8.088000000000001,0.9999772820767496,146.5184091917551
8.096,0.9999773978445712,146.13790700889473
8.104,0.9999775152373351,145.75739278115307
8.112,0.9999776342106477,145.37686534477666
8.120000000000001,0.9999777547203723,144.99632353741254
8.128,0.9999778767226353,144.61576619814448
8.136,0.9999780001738364,144.2351921675291
8.144,0.9999781250306539,143.85460028763208
8.152000000000001,0.9999782512500535,143.4739894020645
8.16,0.9999783787892953,143.09335835601877
8.168,0.9999785076059414,142.7127059963046
8.176,0.9999786376578622,142.33203117138487
8.184000000000001,0.9999787689032431,141.95133273141207
8.192,0.9999789013005915,141.57060952826373
8.2,0.9999790348087423,141.18986041557847
8.208,0.9999791693868663,140.80908424879166
8.216000000000001,0.9999793049944725,140.42827988517155
8.224,0.9999794415914172,140.04744618385493
8.232,0.999979579137908,139.66658200588253
8.24,0.9999797175945103,139.28568621423506
8.248000000000001,0.9999798569221509,138.90475767386891
8.256,0.9999799970821248,138.5237952517517
8.264,0.9999801380360994,138.1427978168978
8.272,0.9999802797461189,137.76176424040406
8.280000000000001,0.9999804221746095,137.38069339548545
8.288,0.9999805652843838,136.9995841575107
8.296,0.9999807090386446,136.61843540403743
8.304,0.9999808534009885,136.237246014848
8.312,0.9999809983354125,135.85601487198537
8.32,0.9999811438063135,135.47474085978772
8.328,0.9999812897784953,135.09342286492495
8.336,0.999981436217171,134.71205977643325
8.344,0.9999815830879655,134.33065048575145
8.352,0.9999817303569202,133.94919388675567
8.36,0.9999818779904939,133.5676888757955
8.368,0.9999820259555673,133.1861343517289
8.376,0.9999821742194452,132.80452921595813
8.384,0.9999823227498588,132.42287237246472
8.392,0.999982471514968,132.04116272784555
8.4,0.9999826204833638,131.65939919134763
8.408,0.99998276962407,131.2775806749042
8.416,0.9999829189065461,130.89570609316957
8.424,0.999983068300688,130.51377436355529
8.432,0.9999832177768294,130.131784406265
8.44,0.9999833673057453,129.74973514433037
8.448,0.9999835168586504,129.36762550364622
8.456,0.9999836664072029,128.98545441300647
8.464,0.9999838159235044,128.60322080413908
8.472,0.9999839653801004,128.22092361174236
8.48,0.999984114749982,127.8385617735196
8.488,0.9999842640065867,127.45613423021548
8.496,0.9999844131237984,127.07363992565087
8.504,0.9999845620759467,126.69107780675918
8.512,0.9999847108378102,126.30844682362124
8.52,0.9999848593846138,125.92574592950153
8.528,0.9999850076920305,125.54297408088327
8.536,0.9999851557361794,125.16013023750462
8.544,0.9999853034936285,124.77721336239377
8.552,0.9999854509413917,124.39422242190531
8.56,0.9999855980569289,124.01115638575519
8.568,0.999985744818147,123.62801422705715
8.576,0.9999858912033966,123.24479492235795
8.584,0.9999860371914749,122.8614974516736
8.592,0.9999861827616201,122.4781207985246
8.6,0.9999863278935148,122.09466394997247
8.608,0.999986472567282,121.71112589665486
8.616,0.9999866167634853,121.32750563282214
8.624,0.9999867604631274,120.94380215637258
8.632,0.9999869036476474,120.56001446888904
8.64,0.9999870462989214,120.17614157567408
8.648,0.9999871883992598,119.79218248578678
8.656,0.9999873299314045,119.40813621207798
8.664,0.999987470878529,119.02400177122695
8.672,0.9999876112242354,118.63977818377681
8.68,0.9999877509525523,118.25546447417132
8.688,0.9999878900479333,117.87105967079016
8.696,0.9999880284952541,117.48656280598595
8.704,0.9999881662798104,117.10197291611952
8.712,0.9999883033873161,116.71728904159691
8.72,0.9999884398039001,116.33251022690479
8.728,0.9999885755161039,115.94763552064747
8.736,0.9999887105108788,115.56266397558244
8.744,0.9999888447755841,115.17759464865722
8.752,0.999988978297983,114.79242660104525
8.76,0.9999891110662401,114.4071588981826
8.768,0.9999892430689189,114.02179060980387
8.776,0.9999893742949787,113.63632080997913
8.784,0.9999895047337707,113.25074857714966
8.792,0.999989634375035,112.86507299416516
8.8,0.9999897632088987,112.47929314831933
8.808,0.9999898912258695,112.09340813138725
8.815999999999999,0.9999900184168365,111.70741703966104
8.824,0.9999901447730628,111.3213189739868
8.832,0.9999902702861839,110.9351130398013
8.84,0.9999903949482042,110.54879834716824
8.847999999999999,0.9999905187514919,110.16237401081482
8.856,0.9999906416887769,109.77583915016835
8.864,0.9999907637531459,109.38919288939314
8.872,0.9999908849380386,109.0024343574269
8.879999999999999,0.9999910052372444,108.6155626880172
8.888,0.9999911246448975,108.22857701975835
8.896,0.9999912431554736,107.84147649612815
8.904,0.9999913607637857,107.45426026552448
8.911999999999999,0.999991477464979,107.06692748130178
8.92,0.9999915932545285,106.67947730180789
8.928,0.9999917081282323,106.29190889042104
8.936,0.9999918220822099,105.90422141558626
8.943999999999999,0.9999919351128955,105.516414050852
8.952,0.9999920472170352,105.12848597490702
8.96,0.9999921583916815,104.74043637161732
8.968,0.99999226863419,104.35226443006262
8.975999999999999,0.9999923779422135,103.963969344573
8.984,0.999992486313698,103.57555031476578
8.992,0.9999925937468783,103.18700654558239
9.0,0.999992700240273,102.79833724732498
9.008,0.9999928057926798,102.40954163569289
9.016,0.9999929104031716,102.02061893181961
9.024000000000001,0.9999930140710899,101.63156836230962
9.032,0.9999931167960417,101.24238915927491
9.04,0.9999932185778942,100.85308056037145
9.048,0.9999933194167695,100.4636418088361
9.056000000000001,0.9999934193130402,100.07407215352337
9.064,0.9999935182673239,99.68437084894191
9.072,0.9999936162804791,99.2945371552909
9.08,0.9999937133535998,98.90457033849681
9.088000000000001,0.9999938094880098,98.51446967025022
9.096,0.9999939046852595,98.12423442804204
9.104,0.9999939989471184,97.73386389519996
9.112,0.9999940922755726,97.34335736092497
9.120000000000001,0.9999941846728179,96.95271412032811
9.128,0.9999942761412551,96.56193347446658
9.136,0.9999943666834856,96.17101473037998
9.144,0.9999944563023058,95.77995720112676
9.152000000000001,0.9999945450007023,95.38876020582072
9.16,0.9999946327818455,94.99742306966704
9.168,0.999994719649086,94.60594512399828
9.176,0.9999948056059493,94.21432570631066
9.184000000000001,0.99999489065613,93.82256416030036
9.192,0.9999949748034865,93.43065983589929
9.2,0.9999950580520363,93.03861208931097
9.208,0.9999951404059515,92.64642028304648
9.216000000000001,0.9999952218695519,92.25408378596052
9.224,0.9999953024473022,91.86160197328698
9.232,0.9999953821438037,91.46897422667449
9.24,0.9999954609637925,91.07619993422215
9.248000000000001,0.9999955389121319,90.68327849051524
9.256,0.9999956159938089,90.29020929666054
9.264,0.9999956922139273,89.89699176032147
9.272,0.9999957675777049,89.5036252957536
9.280000000000001,0.9999958420904662,89.11010932383996
9.288,0.9999959157576387,88.71644327212599
9.296,0.9999959885847466,88.32262657485433
9.304,0.9999960605774072,87.92865867299994
9.312000000000001,0.9999961317413251,87.53453901430504
9.32,0.9999962020822866,87.14026705331361
9.328,0.9999962716061555,86.74584225140582
9.336,0.9999963403188683,86.35126407683258
9.344,0.9999964082264279,85.95653200475026
9.352,0.9999964753349005,85.56164551725423
9.36,0.999996541650409,85.16660410341362
9.368,0.9999966071791291,84.77140725930465
9.376,0.9999966719272841,84.3760544880451
9.384,0.9999967359011402,83.98054529982733
9.392,0.9999967991070012,83.58487921195253
9.4,0.9999968615512046,83.18905574886341
9.408,0.9999969232401157,82.79307444217812
9.416,0.9999969841801243,82.39693483072276
9.424,0.9999970443776384,82.00063646056488
9.432,0.9999971038390808,81.60417888504566
9.44,0.9999971625708848,81.20756166481318
9.448,0.9999972205794874,80.81078436785423
9.456,0.9999972778713275,80.41384656952717
9.464,0.9999973344528396,80.0167478525934
9.472,0.9999973903304497,79.61948780724998
9.48,0.9999974455105721,79.22206603116064
9.488,0.9999974999996034,78.82448212948795
9.496,0.9999975538039189,78.426735714924
9.504,0.9999976069298678,78.02882640772232
9.512,0.9999976593837707,77.63075383572796
9.52,0.9999977111719135,77.23251763440899
9.528,0.9999977623005435,76.83411744688634
9.536,0.9999978127758669,76.43555292396468
9.544,0.9999978626040428,76.03682372416193
9.552,0.9999979117911809,75.63792951373966
9.56,0.9999979603433361,75.23886996673208
9.568,0.9999980082665064,74.8396447649761
9.576,0.9999980555666267,74.44025359813968
9.584,0.9999981022495683,74.04069616375149
9.592,0.999998148321132,73.64097216722885
9.6,0.9999981937870467,73.2410813219067
9.608,0.9999982386529647,72.84102334906514
9.616,0.9999982829244591,72.44079797795781
9.624,0.999998326607019,72.04040494583889
9.632,0.9999983697060483,71.6398439979911
9.64,0.9999984122268604,71.23911488775187
9.648,0.9999984541746759,70.83821737654094
9.656,0.9999984955546192,70.43715123388598
9.664,0.9999985363717158,70.03591623744947
9.672,0.9999985766308888,69.6345121730538
9.68,0.9999986163369566,69.2329388347076
9.688,0.9999986554946293,68.83119602463006
9.696,0.9999986941085063,68.42928355327678
9.704,0.999998732183074,68.02720123936344
9.712,0.9999987697227017,67.62494890989083
9.72,0.9999988067316415,67.22252640016812
9.728,0.9999988432140234,66.81993355383702
9.736,0.999998879173854,66.4171702228944
9.744,0.9999989146150142,66.01423626771587
