freq,mag,phase
6.0,0.9998514154579945,83.62389182833728
6.002286592,0.9999985280316575,83.48125954646979
6.004572672,1.000145133372833,83.3364830760798
6.006859264,1.0002825175389862,83.18967563614042
6.009145344,1.0004018281955407,83.04103065872485
6.011431936,1.0004955042386734,82.89087312385321
6.013718016,1.0005575917248721,82.73955799072417
6.016004608,1.0005842851263138,82.58762610996727
6.018290688,1.0005735717911135,82.43562885511506
6.02057728,1.0005264207080309,82.28403260993687
6.022863872,1.0004456084433495,82.13336685753157
6.025149952,1.0003363071641937,81.98412804192995
6.027436544,1.00020546147595,81.83662537630937
6.029722624,1.0000612303475738,81.69117115445046
6.032009216,0.9999128443230344,81.54783518035877
6.034295296,0.9997695598263143,81.40665678733386
6.036581888,0.9996406409453286,81.26745171908308
6.03886848,0.9995342789345824,81.1299824059761
6.04115456,0.9994570712165457,80.99388736696419
6.043441152,0.9994141780000362,80.85867605063977
6.045727232,0.9994080018399084,80.72383992742824
6.048013824,0.999439297499071,80.5888231685665
6.050299904,0.9995059372122154,80.4531162501541
6.052586496,0.9996036671279046,80.31624082636809
6.054872576,0.9997265059165248,80.17777490219501
6.057159168,0.9998665232307437,80.03742059145021
6.05944576,1.0000147630066645,79.89498972428606
6.06173184,1.0001619192731592,79.75041184992777
6.064018432,1.0002987381665895,79.60378938703849
6.066304512,1.0004164775499034,79.4553184588185
6.068591104,1.000507692927663,79.30539334058004
6.070877184,1.000566588476912,79.15432494875316
6.073163776,1.0005892746140799,79.00271859800748
6.075450368,1.0005745023854387,78.85106542300093
6.077736448,1.0005231077944494,78.69987631720227
6.08002304,1.0004382632945958,78.5497145622267
6.08230912,1.000325446618337,78.40096580466655
6.084595712,1.0001916336311223,78.25407381048845
6.086881792,1.0000454507533962,78.10919897091118
6.089168384,0.999896048277429,77.96650674763463
6.091454464,0.9997528423312891,77.82592880666624
6.093741056,0.9996249949196994,77.68732880319999
6.096027648,0.999520774357792,77.55046571163025
6.098313728,0.9994466116828937,77.41489577591139
6.10060032,0.9994071867259984,77.28019243807691
6.1028864,0.9994051701531736,77.14579381542457
6.105172992,0.9994407605121509,77.01115367994079
6.107459072,0.9995115728537937,76.8757665831193
6.109745664,0.9996131706767301,76.73912439160841
6.112032256,0.9997391981799731,76.600845816225
6.114318336,0.9998815388753677,76.46064593235035
6.116604928,1.0000313394668419,76.31832034112833
6.118891008,1.0001789454828618,76.17384132536803
6.1211776,1.0003150510464864,76.02732373500106
6.12346368,1.000431144229572,75.87898607351775
6.125750272,1.0005196158954002,75.729148433151
6.128036352,1.0005751092121675,75.57828326710106
6.130322944,1.0005939315543175,75.42689428636172
6.132609536,1.000574870830686,75.2755126527175
6.134895616,1.000519119098056,75.12468742648137
6.137182208,1.0004303286258134,74.97490901328314
6.139468288,1.0003139011866904,74.82666004481122
6.14175488,1.000177301400098,74.68023578153071
6.14404096,1.0000291895528262,74.53589583299167
6.146327552,0.9998788341376154,74.39370816618813
6.148614144,0.9997357558999223,74.25371847200594
6.150900224,0.9996092777515728,74.11565497125267
6.153186816,0.9995072731271285,73.9792901315032
6.155472896,0.9994361469648052,73.84419573739422
6.157759488,0.99940053374376,73.70988203015324
6.160045568,0.9994027047105908,73.57584158412274
6.16233216,0.9994425338973872,73.44148305825007
6.16461824,0.9995175643299593,73.30631075567717
6.166904832,0.9996231560901765,73.16982076464286
6.169191424,0.9997522817371153,73.03166736157283
6.171477504,0.9998971164818906,72.89149867239978
6.173764096,1.0000482542588238,72.74920484808776
6.176050176,1.0001962175340087,72.604756751174
6.178336768,1.0003316128919435,72.45821951582323
6.180622848,1.0004458884005525,72.30990451989545
6.18290944,1.0005316414257932,72.16014876672608
6.18519552,1.0005836474637884,72.00938702019393
6.187482112,1.0005983917896755,71.85814335827273
6.189768704,1.0005750529260709,71.70696718048924
6.192054784,1.0005150438859747,71.55639445483146
6.194341376,1.000422128178826,71.40696260463318
6.196627456,1.0003021422991434,71.25906824633404
6.198914048,1.0001627891762674,71.11307230468572
6.201200128,1.0000127957464051,70.96917069984794
6.20348672,0.9998616039521583,70.82747292272524
6.205773312,0.9997188585335329,70.68791378510838
6.208059392,0.9995937041579175,70.55030165218496
6.210345984,0.9994939190895749,70.41439030209636
6.212632064,0.9994259843884452,70.27965581234416
6.214918656,0.9993943346553494,70.14567493413696
6.217204736,0.9994007154809692,70.01188178399674
6.219491328,0.9994449794237223,69.87772423600694
6.221777408,0.9995242912711811,69.7426970557305
6.224064,0.9996335778270811,69.60629895616175
6.226350592,0.9997659376824027,69.46814389058864
6.228636672,0.9999130555306568,69.32794176848803
6.230923264,1.000065494609506,69.18557530707182
6.233209344,1.0002137437994625,69.04105139672698
6.235495936,1.0003482359648694,68.8944560130202
6.237782016,1.0004604788690534,68.74607658824532
6.240068608,1.0005435157113356,68.59630030788027
6.2423552,1.00059182884563,68.4455512016947
6.24464128,1.0006025053869172,68.29438973922647
6.246927872,1.0005748528130682,68.14335427412306
6.249213952,1.000510413540916,67.9929797584149
6.251500544,1.0004134538485516,67.84379444038407
6.253786624,1.00029003511479,67.69619132698479
6.256073216,1.000147815734792,67.55053305535382
6.258359296,0.9999960385817983,67.40701379270448
6.260645888,0.999844096851646,67.26570253512152
6.26293248,0.9997017795975118,67.12652223223348
6.26521856,0.9995780274633266,66.98931706561584
6.267505152,0.9994808255818689,66.85372041109964
6.269791232,0.9994161867383518,66.71926921514172
6.272077824,0.9993883653809004,66.58552293538426
6.274363904,0.999399245912424,66.45191124726415
6.276650496,0.9994478836706331,66.31786407432358
6.278937088,0.9995314153247069,66.1828609120275
6.281223168,0.99964448096819,66.04643573732156
6.28350976,0.9997799942106222,65.90820094462819
6.28579584,0.999929340830418,65.76790214276834
6.288082432,1.000083061902507,65.6254015548949
6.290368512,1.0002313116800596,65.48072351271861
6.292655104,1.0003647970467426,65.33396491151504
6.294941184,1.0004751371991658,65.1854520165877
6.297227776,1.0005550396160896,65.03558323675549
6.299514368,1.0005997670737188,64.88475293516926
6.301800448,1.0006061926652587,64.73359589024756
6.30408704,1.000574055142716,64.58262382798864
6.30637312,1.0005052698583456,64.43236900035174
6.308659712,1.0004042480453257,64.28334760704413
6.310945792,1.000277269879229,64.13597218238608
6.313232384,1.0001323807254003,63.990575979639196
6.315518464,0.9999788835836684,63.84735177263807
6.317805056,0.9998263327741128,63.70635739252023
6.320091648,0.999684469975665,63.567488126509645
6.322377728,0.9995623792705566,63.43056973143314
6.32466432,0.999467720896156,63.2952185976933
6.3269504,0.999406479397399,63.161010147133084
6.329236992,0.9993828198840621,63.027404283986336
6.331523072,0.9993979427686889,62.89387506621836
6.333809664,0.9994511183645125,62.759853041151196
6.336096256,0.999538968042989,62.62481218441182
6.338382336,0.9996558128705093,62.48828080163189
6.340668928,0.9997944485153148,62.34988668271764
6.342955008,0.9999459566135953,62.209381710255435
6.3452416,1.000100767263079,62.06665413955794
6.34752768,1.0002491490550818,61.92170111719886
6.349814272,1.000381498416674,61.77474638374891
6.352100352,1.0004895969916252,61.625993443542804
6.354386944,1.0005665555331051,61.47592572670648
6.356673536,1.0006073390522614,61.324989489346066
6.358959616,1.0006095767857126,61.17374532882018
6.361246208,1.0005729752904973,61.02272390195433
6.363532288,1.0004997861016491,60.87252059899695
6.36581888,1.000394600038819,60.72359392173613
6.36810496,1.0002642444567182,60.57639231165761
6.370391552,1.0001167576818764,60.4311692606963
6.372678144,0.9999616287214084,60.28817124563852
6.374964224,0.9998084924151974,60.147412450589734
6.377250816,0.9996672767782444,60.00877431676685
6.379536896,0.9995468198276596,59.87206317574972
6.381823488,0.9994548272088116,59.73685900583828
6.384109568,0.9993971439307429,59.602799461465146
6.38639616,0.9993775301734721,59.46925610887371
6.38868224,0.9993971526200836,59.335729170094545
6.390968832,0.9994547724357581,59.20163846774709
6.393255424,0.9995468351571763,59.06646791236917
6.395541504,0.9996675314994404,58.92973066334207
6.397828096,0.9998091303277084,58.79110713662269
6.400114176,0.9999627298388685,58.650290937133775
6.402400768,1.000118527796766,58.50726972078345
6.404686848,1.0002667569081545,58.3619904218516
6.40697344,1.0003979298341974,58.21468072470993
6.409260032,1.000503712161577,58.06565307524748
6.411546112,1.0005774564235412,57.91532533892498
6.413832704,1.0006144190580073,57.76417433908326
6.416118784,1.0006122714392693,57.61277269653931
6.418405376,1.0005711017549335,57.461674377063325
6.420691456,1.0004934730290753,57.31143091874191
6.422978048,1.000384373133035,57.1625225509372
6.425264128,1.0002505636824197,57.015400377807886
6.42755072,1.0001005077303446,56.87030119509255
6.429837312,0.9999437828349311,56.727441082932295
6.432123392,0.9997902960506228,56.586842880378065
6.434409984,0.9996498315846695,56.44835414089474
6.436696064,0.9995312614337452,56.311742430139546
6.438982656,0.9994420498994365,56.17667073224276
6.441268736,0.9993879824727964,56.04262331566776
6.443555328,0.9993724859460756,55.9090749099263
6.44584192,0.9993966314357926,55.77547693331593
6.448128,0.9994588798690239,55.641229383947355
6.450414592,0.9995552779513772,55.50580264045247
6.452700672,0.9996796272605666,55.368792962781434
6.454987264,0.9998241898369284,55.229812742566516
6.457273344,0.9999798419785663,55.08864966916157
6.459559936,1.000136561841655,54.94519891775544
6.461846016,1.0002845985073676,54.79953125565342
6.464132608,1.0004143946561292,54.65183693108259
6.4664192,1.0005178469947473,54.50242788229159
6.46870528,1.0005882827724697,54.351755721464414
6.470991872,1.0006212779584778,54.200321752841546
6.473277952,1.0006147004572281,54.04866851220429
6.475564544,1.0005689662667232,53.897401314389505
6.477850624,1.0004868486924834,53.74707722986346
6.480137216,1.0003737158413755,53.59811480372525
6.482423296,1.0002365305502832,53.45095618926006
6.484709888,1.0000840661669121,53.30592014165643
6.48699648,0.99992581529049,53.16312945374657
6.48928256,0.9997720916236253,53.022586319165384
6.491569152,0.9996324112974776,52.884178348819084
6.493855232,0.9995157624683491,52.747619735220574
6.496141824,0.9994294463835739,52.61254023447628
6.498427904,0.9993791729516837,52.478444333652845
6.500714496,0.9993679629754602,52.34481594085469
6.503001088,0.9993966713764568,52.211005777870064
6.505287168,0.9994634662362116,52.076526208448236
6.50757376,0.9995640402385066,51.9408044825021
6.50985984,0.9996922028133652,51.80341571696679
6.512146432,0.9998396403548822,51.664019737807244
6.514432512,0.9999972796193254,51.52239174988986
6.516719104,1.000154892218989,51.37844822073417
6.519005184,1.0003025992898287,51.232272535649024
6.521291776,1.0004308800740873,51.084117038020594
6.523578368,1.0005318635976899,50.93424948983447
6.525864448,1.0005988532338665,50.78314371821815
6.52815104,1.0006278483842699,50.63136003056746
6.53043712,1.0006167912495516,50.47938898846403
6.532723712,1.000566484636596,50.327895529881424
6.535009792,1.0004798897630685,50.177356488945314
6.537296384,1.0003626945574098,50.028265728731085
6.539582976,1.0002221820243156,49.881059464595864
6.541869056,1.0000672752890254,49.73596224016312
6.544155648,0.9999077646287855,49.59318550049082
6.546441728,0.9997537773469355,49.45262757130504
6.54872832,0.9996150423777262,49.31419428957822
6.5510144,0.9995003601094903,49.17758270756271
6.553300992,0.9994171473776541,49.04245903549607
6.555587072,0.9993706116198677,48.908221105936576
6.557873664,0.9993637044532125,48.774387155740015
6.560160256,0.9993970256061329,48.64034049509672
6.562446336,0.9994683337921711,48.505516346862116
6.564732928,0.9995732497967172,48.36939527506459
6.567019008,0.9997050532852282,48.23156052859992
6.5693056,0.9998554640410398,48.09165036996455
6.57159168,1.000014895996913,47.94946247548255
6.573878272,1.0001732302007051,47.80495769055867
6.576164864,1.0003204617125914,47.65821638138723
6.578450944,1.0004472837472473,47.5094656553495
6.580737536,1.0005456826707033,47.35907570682723
6.583023616,1.0006092218304992,47.20747058013668
6.585310208,1.0006340289307747,47.055248074989656
6.587596288,1.0006184552631816,46.902885402445705
6.58988288,1.0005634871541358,46.75106641012042
6.59216896,1.000472532220523,46.600256770948384
6.594455552,1.0003513397197172,46.450981432884085
6.596742144,1.0002076109118927,46.30361692700417
6.599028224,1.0000503677823722,46.1584128351577
6.601314816,0.9998895298022866,46.015524424681225
6.603600896,0.9997354452319066,45.874909588458564
6.605887488,0.9995978057736709,45.736370678952035
6.608173568,0.9994853188937081,45.599657855077936
6.61046016,0.9994051936982374,45.46433799391137
6.612746752,0.9993624714666235,45.32989769938972
6.615032832,0.9993599585468118,45.19577574173319
6.617319424,0.999397940698569,45.06137864309071
6.619605504,0.9994737670616433,44.92613714263586
6.621892096,0.9995829398753093,44.789538436980564
6.624178176,0.9997183432799359,44.65114889594603
6.626464768,0.9998715738075717,44.51063702441461
6.628750848,1.0000327463361547,44.3678012528255
6.63103744,1.0001917074948978,44.22267096026707
6.633324032,1.0003384353504345,44.07525276499352
6.635610112,1.0004636152393431,43.92584485846444
6.637896704,1.000559192524518,43.774842391024045
6.640182784,1.0006192578262019,43.62267922763531
6.642469376,1.0006399130862238,43.46991152289303
6.644755456,1.0006197120682006,43.31712362836048
6.647042048,1.0005601119266612,43.1648634531536
6.649328128,1.000464793131896,43.01373775151076
6.65161472,1.0003395830042319,42.864189262394696
6.653901312,1.0001926169514168,42.71656629776297
6.656187392,1.000033085731486,42.57119620970109
6.658473984,0.9998711064941748,42.42812942428853
6.660760064,0.9997169880248946,42.28733825222336
6.663046656,0.9995804692300866,42.148641943128005
6.665332736,0.9994702064347785,42.01170193012033
6.667619328,0.9993933400340982,41.876154930352236
6.66990592,0.9993545898155449,41.741378970617035
6.672192,0.9993565509706712,41.60690897701187
6.674478592,0.9993990905128458,41.47206308664582
6.676764672,0.9994796503124953,41.33631484766687
6.679051264,0.9995929913276821,41.1991576772158
6.681337344,0.9997319582741088,41.06013277624171
6.683623936,0.99988786222859,40.91892137509146
6.685910016,1.000050765688507,40.77539560630803
6.688196608,1.000210326575665,40.62949278961422
6.6904832,1.0003564061684866,40.48134599429533
6.69276928,1.000479810182602,40.33123662761399
6.695055872,1.0005727021149498,40.17951955646822
6.697341952,1.0006290693290265,40.026694298121235
6.699628544,1.0006455167958876,39.8733089395854
6.701914624,1.0006207417920587,39.71999112866815
6.704201216,1.0005564352246912,39.567277987980965
6.706487808,1.0004566949857805,39.41572680424633
6.708773888,1.0003276756600743,39.26580104780181
6.71106048,1.000177468121745,39.11790511551348
6.71334656,1.0000158210589005,38.972223682817074
6.715633152,0.9998527119901262,38.82890050741555
6.717919232,0.9996987009297069,38.68786068743292
6.720205824,0.9995633743864974,38.54889267246511
6.722491904,0.9994554544085315,38.41169160389041
6.724778496,0.9993818103347691,38.27579091034538
6.727065088,0.9993470485968645,38.140650405719676
6.729351168,0.9993535546367188,38.00570129508054
6.73163776,0.9994007454480779,37.870339450185696
6.73392384,0.9994859100549462,37.73400764069613
6.736210432,0.9996033466885279,37.596158646228844
6.738496512,0.9997459275478208,37.456404052746045
6.740783104,0.9999044708816387,37.31442322847166
6.743069696,1.0000689557964135,37.170088356106845
6.745355776,1.000228965337234,37.02336982515872
6.747642368,1.000374320253787,36.87439705629123
6.749928448,1.000495851766944,36.72347482704369
6.75221504,1.0005858563983658,36.570990399525215
6.75450112,1.0006385365748938,36.41743320374808
6.756787712,1.0006506215371815,36.26337763700186
6.759073792,1.0006212430141963,36.10941344845935
6.761360384,1.0005523689142348,35.956159185775874
6.763646976,1.0004480364265425,35.804110892838814
6.765933056,1.0003151275167024,35.6537560723683
6.768219648,1.0001619679863545,35.5054572003485
6.770505728,0.9999981234914566,35.35944550986895
6.77279232,0.9998340818819171,35.21578145065257
6.7750784,0.9996802045608923,35.07440295255114
6.777364992,0.9995462508937618,34.93510762301403
6.779651584,0.9994407017126843,34.79751774221145
6.781937664,0.9993703489455078,34.66119241224946
6.784224256,0.999339763670333,34.525569008258636
6.786510336,0.9993506835643106,34.39007784374903
6.788796928,0.9994026993839163,34.25408886365868
6.791083008,0.9994923463766592,34.117070018314394
6.7933696,0.9996139856059605,33.97848459816179
6.79565568,0.9997599779061608,33.83791485500801
6.797942272,0.999921123696809,33.69508795911596
6.800228864,1.0000871306147925,33.54984344562174
6.802514944,1.000247475672525,33.40220906039712
6.804801536,1.0003920140779075,33.252351225742125
6.807087616,1.0005115671685412,33.100523289323526
6.809374208,1.0005986022246898,32.94717828378224
6.811660288,1.000647574345934,32.79280948516384
6.81394688,1.0006552821891956,32.63799125020197
6.81623296,1.000621253900586,32.48335406988949
6.818519552,1.0005477072275037,32.32945057966105
6.820806144,1.000439104785554,32.17683105176443
6.823092224,1.0003023455354645,32.02596605769493
6.825378816,1.0001461686170103,31.877197974987382
6.827664896,0.9999803261979685,31.730740552640896
6.829951488,0.9998153141586695,31.586657920084846
6.832237568,0.9996616720084134,31.444874513461166
6.83452416,0.9995292745455658,31.305144541967003
6.836810752,0.999426174473641,31.167096579083985
6.839096832,0.9993593434801831,31.03024732474228
6.841383424,0.9993327915721807,30.89405814067129
6.843669504,0.9993483128110959,30.757943838694203
6.845956096,0.9994049229866592,30.621262962154603
6.848242176,0.9994991386174685,30.483449856904432
6.850528768,0.9996249199521596,30.344022438979028
6.852814848,0.9997743511384282,30.20253351312616
6.85510144,0.9999379711555253,30.058759488510876
6.857388032,1.000105400492219,29.912574294547763
6.859674112,1.000266059428969,29.76393991029192
6.861960704,1.0004096367087325,29.61307255721272
6.864246784,1.0005272048409908,29.460277064259788
6.866533376,1.000611228889813,29.30598585385994
6.868819456,1.0006563256492134,29.150715121434587
6.871106048,1.0006596929788352,28.995063979169576
6.87339264,1.0006209493342129,28.83963146611939
6.87567872,1.0005426661002965,28.685017589461008
6.877965312,1.0004298227474622,28.53176127521631
6.880251392,1.000289284884801,28.380285319215076
6.882537984,1.0001301185098157,28.230985964168084
6.884824064,0.9999623220392558,28.084010301013183
6.887110656,0.9997965165385128,27.939428247013804
6.889396736,0.9996432525268981,27.79714800148344
6.891683328,0.999512313865865,27.65687975155901
6.89396992,0.9994118594171517,27.518294626985792
6.896256,0.9993484766832865,27.38083541469831
6.898542592,0.9993260630587988,27.244011210407557
6.900828672,0.9993461839688416,27.107152495385957
6.903115264,0.9994075043702357,26.96968814368339
6.905401344,0.9995062773853528,26.83100442606377
6.907687936,0.9996361492580208,26.690640647777965
6.909974528,0.999788995756405,26.548180372835255
6.912260608,0.9999550148444499,26.40338450282801
6.9145472,1.0001238433518025,26.256107640076696
6.91683328,1.0002845874522686,26.106411889769934
6.919119872,1.0004273159192703,25.954450933365653
6.921405952,1.0005427459408178,25.80057710296918
6.923692544,1.000623715899916,25.64528654687697
6.925978624,1.0006649701210981,25.489032876191082
6.928265216,1.000663931068326,25.33246483766981
6.930551808,1.0006206151867132,25.17616750816413
6.932837888,1.0005377000367686,25.020751733713833
6.93512448,1.000420420876311,24.86676315082108
