freq,mag,phase
6.0,1.0,25.855758842928395
6.008,1.0,25.62526502086719
6.016,0.9999999999999998,25.39470416470135
6.024,1.0,25.164076443320738
6.032,1.0,24.933382026211216
6.04,1.0,24.702621083454513
6.048,1.0,24.471793785728078
6.056,1.0,24.24090030430494
6.064,0.9999998710953825,24.00994081105352
6.072,0.9999997231510052,23.7789154784374
6.08,0.9999995764441024,23.547824479515164
6.088,0.9999994309735373,23.31666798794006
6.096,0.9999992867381678,23.085446177959813
6.104,0.9999991437368463,22.854159224416332
6.112,0.9999990019684203,22.622807302745382
6.12,0.999998861431732,22.39139058897626
6.128,0.9999987221256169,22.159909259731474
6.136,0.999998584048905,21.928363492226374
6.144,0.9999984472004195,21.696753464268717
6.152,0.9999983115789766,21.46507935425833
6.16,0.999998177183386,21.23334134118665
6.168,0.9999980440124503,21.001539604636275
6.176,0.9999979120649638,20.76967432478047
6.184,0.9999977813397131,20.537745682382756
6.192,0.9999976518354771,20.305753858796283
6.2,0.9999975235510263,20.073699035963397
6.208,0.9999973964851221,19.84158139641502
6.216,0.9999972706365174,19.609401123270132
6.224,0.9999971460039548,19.37715840023514
6.232,0.9999970225861691,19.14485341160321
6.24,0.9999969003818836,18.912486342253747
6.248,0.9999967793898127,18.680057377651632
6.256,0.9999966596086599,18.447566703846565
6.264,0.999996541037118,18.215014507472393
6.272,0.9999964236738689,17.98240097574633
6.28,0.9999963075175834,17.74972629646826
6.288,0.9999961925669204,17.516990658019918
6.296,0.9999960788205275,17.28419424936415
6.304,0.9999959662770402,17.051337260044047
6.312,0.9999958549350809,16.818419880182145
6.32,0.9999957447932596,16.585442300479542
6.328,0.9999956358501746,16.352404712215034
6.336,0.9999955281044087,16.11930730724422
6.344,0.9999954215545331,15.886150277998528
6.352,0.9999953161991039,15.652933817484358
6.36,0.999995212036664,15.419658119281987
6.368,0.9999951090657412,15.186323377544692
6.376,0.9999950072848489,14.952929786997704
6.384,0.9999949066924855,14.719477542937092
6.392,0.9999948072871342,14.485966841228828
6.4,0.9999947090672625,14.252397878307624
6.408,0.999994612031322,14.018770851175834
6.416,0.9999945161777478,13.78508595740235
6.424,0.9999944215049595,13.55134339512143
6.432,0.9999943280113592,13.31754336303155
6.44,0.9999942356953321,13.08368606039417
6.448,0.9999941445552463,12.849771687032556
6.456,0.9999940545894517,12.615800443330498
6.464,0.9999939657962811,12.3817725302311
6.472,0.9999938781740486,12.147688149235412
6.48,0.9999937917210496,11.91354750240121
6.4879999999999995,0.9999937064355614,11.679350792341607
6.496,0.9999936223158411,11.445098222223628
6.504,0.999993539360128,11.210789995767074
6.5120000000000005,0.99999345756664,10.976426317242757
6.52,0.9999933769335766,10.742007391471464
6.5280000000000005,0.9999932974591157,10.507533423822121
6.536,0.9999932191414155,10.273004620210717
6.5440000000000005,0.9999931419786133,10.038421187098379
6.552,0.9999930659688246,9.803783331490319
6.5600000000000005,0.9999929911101445,9.569091260933813
6.568,0.9999929174006452,9.3343451835171
6.5760000000000005,0.9999928448383778,9.099545307867347
6.584,0.9999927734213707,8.864691843149473
6.592,0.9999927031476296,8.629784999064109
6.6,0.9999926340151378,8.394824985846238
6.608,0.9999925660218548,8.15981201426337
6.616,0.999992499165717,7.9247462956138754
6.624,0.9999924334446364,7.689628041725247
6.632,0.9999923688565023,7.4544574649523385
6.64,0.9999923053991779,7.219234778175617
6.648,0.9999922430705029,6.983960194799344
6.656,0.9999921818682923,6.748633928749749
6.664,0.9999921217903346,6.513256194473192
6.672,0.9999920628343938,6.277827206934305
6.68,0.9999920049982077,6.04234718161407
6.688,0.9999919482794885,5.806816334507935
6.696,0.999991892675921,5.571234882123847
6.704,0.9999918381851638,5.335603041480317
6.712,0.9999917848048494,5.099921030104401
6.72,0.9999917325325817,4.86418906602972
6.728,0.9999916813659377,4.628407367794405
6.736,0.9999916313024667,4.392576154439059
6.744,0.9999915823396893,4.15669564550466
6.752,0.9999915344750983,3.920766061030469
6.76,0.9999914877061573,3.6847876215518958
6.768,0.9999914420303014,3.4487605480983565
6.776,0.9999913974449364,3.212685062191092
6.784,0.9999913539474375,2.976561385840977
6.792,0.9999913115351519,2.740389741546297
6.8,0.999991270205395,2.504170352290508
6.808,0.9999912299554525,2.2679034415399637
6.816,0.9999911907825795,2.0315892332416334
6.824,0.9999911526840004,1.7952279518207823
6.832,0.9999911156569071,1.5588198221786358
6.84,0.9999910796984617,1.3223650696900262
6.848,0.999991044805793,1.0858639202010036
6.856,0.9999910109759982,0.8493166000264306
6.864,0.9999909782061426,0.6127233359475561
6.872,0.9999909464932583,0.37608435520956035
6.88,0.9999909158343453,0.13939988551907884
6.888,0.9999908862263686,-0.09732984495828699
6.896,0.9999908576662617,-0.3341046076005003
6.904,0.9999908301509233,-0.5709241733316335
6.912,0.999990803677218,-0.8077883126244282
6.92,0.9999907782419767,-1.0446967955028894
6.928,0.9999907538419954,-1.2816493915448952
6.936,0.9999907304740348,-1.5186458698848415
6.944,0.9999907081348215,-1.755685999216282
6.952,0.9999906868210459,-1.99276954779463
6.96,0.9999906665293629,-2.229896283439844
6.968,0.9999906472563913,-2.467065973539169
6.976,0.9999906289987144,-2.7042783850498693
6.984,0.9999906117528782,-2.941533284502022
6.992,0.9999905955153926,-3.178830438001281
7.0,0.9999905802827301,-3.4161696112317252
7.008,0.9999905660513257,-3.6535505694586594
7.016,0.9999905528175778,-3.8909730775315277
7.024,0.9999905405778459,-4.128436899886734
7.032,0.9999905293284527,-4.365941800550593
7.04,0.999990519065681,-4.603487543142248
7.048,0.9999905097857765,-4.841073890876602
7.056,0.9999905014849454,-5.078700606567306
7.064,0.9999904941593546,-5.316367452629765
7.072,0.9999904878051322,-5.554074191084109
7.08,0.9999904824183659,-5.791820583558281
7.088,0.9999904779951049,-6.029606391291051
7.096,0.9999904745313566,-6.267431375135141
7.104,0.9999904720230893,-6.505295295560284
7.112,0.9999904704662299,-6.743197912656379
7.12,0.9999904698566657,-6.981138986136612
7.128,0.9999904701902409,-7.219118275340648
7.136,0.9999904714627599,-7.457135539237797
7.144,0.9999904736699848,-7.695190536430228
7.152,0.9999904768076365,-7.93328302515621
7.16,0.9999904808713929,-8.171412763293347
7.168,0.9999904858568894,-8.40957950836187
7.176,0.9999904917597203,-8.647783017527898
7.184,0.9999904985754359,-8.886023047606784
7.192,0.9999905062995436,-9.12429935506644
7.2,0.9999905149275071,-9.36261169603069
7.208,0.9999905244547478,-9.600959826282612
7.216,0.9999905348766418,-9.839343501268026
7.224,0.9999905461885221,-10.077762476098806
7.232,0.9999905583856771,-10.316216505556374
7.24,0.999990571463351,-10.554705344095149
7.248,0.9999905854167431,-10.793228745846013
7.256,0.9999906002410077,-11.031786464619831
7.264,0.9999906159312535,-11.270378253910938
7.272,0.9999906324825445,-11.509003866900697
7.28,0.9999906498898986,-11.747663056461043
7.288,0.9999906681482884,-11.986355575158065
7.296,0.9999906872526395,-12.225081175255617
7.304,0.9999907071978316,-12.463839608718892
7.312,0.9999907279786984,-12.702630627218095
7.32,0.9999907495900261,-12.94145398213209
7.328,0.9999907720265537,-13.180309424552082
7.336,0.9999907952829743,-13.419196705285211
7.344,0.9999908193539321,-13.658115574858442
7.352,0.9999908442340241,-13.897065783522162
7.36,0.9999908699178004,-14.136047081253926
7.368,0.9999908963997615,-14.37505921776231
7.376,0.9999909236743604,-14.61410194249061
7.384,0.9999909517360024,-14.853175004620681
7.392,0.9999909805790421,-15.092278153076776
7.4,0.9999910101977875,-15.331411136529356
7.4079999999999995,0.9999910405864952,-15.570573703398898
7.416,0.9999910717393747,-15.80976560185999
7.4239999999999995,0.999991103650584,-16.04898657984485
7.432,0.9999911363142328,-16.288236385047632
7.4399999999999995,0.9999911697243801,-16.527514764927997
7.448,0.9999912038750353,-16.766821466715413
7.4559999999999995,0.9999912387601563,-17.006156237412746
7.464,0.999991274373652,-17.245518823800605
7.4719999999999995,0.99999131070938,-17.484908972440966
7.48,0.9999913477611461,-17.724326429681607
7.4879999999999995,0.9999913855227065,-17.963770941659657
7.496,0.9999914239877651,-18.203242254306115
7.504,0.9999914631499742,-18.442740113349505
7.5120000000000005,0.999991503002935,-18.68226426432032
7.52,0.9999915435401967,-18.92181445255472
7.5280000000000005,0.9999915847552561,-19.161390423199087
7.536,0.9999916266415575,-19.4009919212137
7.5440000000000005,0.9999916691924934,-19.640618691377316
7.552,0.9999917124014038,-19.88027047829089
7.5600000000000005,0.9999917562615751,-20.119947026382174
7.568,0.9999918007662412,-20.359648079909494
7.5760000000000005,0.9999918459085829,-20.599373382966363
7.584,0.9999918916817272,-20.8391226794853
7.5920000000000005,0.9999919380787483,-21.078895713242424
7.6,0.999991985092666,-21.318692227861362
7.6080000000000005,0.9999920327164465,-21.5585119668179
7.616,0.9999920809430021,-21.79835467344377
7.6240000000000006,0.9999921297651906,-22.038220090931485
7.632,0.9999921791758155,-22.27810796233814
7.640000000000001,0.999992229167626,-22.518018030590152
7.648,0.9999922797333158,-22.757950038487227
7.656000000000001,0.9999923308655249,-22.997903728707044
7.664,0.9999923825568371,-23.237878843809288
7.672,0.9999924347997818,-23.477875126240317
7.68,0.9999924875868321,-23.717892318337373
7.688,0.9999925409104068,-23.957930162333003
7.696,0.9999925947628677,-24.19798840035949
7.704,0.9999926491365214,-24.438066774453304
7.712,0.9999927040236185,-24.678165026559487
7.72,0.9999927594163532,-24.918282898536138
7.728,0.9999928153068635,-25.158420132158863
7.736,0.9999928716872305,-25.39857646912524
7.744,0.9999929285494795,-25.638751651059312
7.752,0.999992985885578,-25.878945419516093
7.76,0.9999930436874372,-26.11915751598606
7.768,0.9999931019469107,-26.35938768189966
7.776,0.9999931606557955,-26.599635658631886
7.784,0.9999932198058302,-26.83990118750678
7.792,0.9999932793886971,-27.08018400980199
7.8,0.99999333939602,-27.320483866753325
7.808,0.9999933998193646,-27.560800499559374
7.816,0.9999934606502396,-27.80113364938603
7.824,0.9999935218800942,-28.041483057371128
7.832,0.9999935835003206,-28.281848464629014
7.84,0.9999936455022522,-28.52222961225518
7.848,0.9999937078771631,-28.762626241330896
7.856,0.9999937706162703,-29.003038092927806
7.864,0.9999938337107299,-29.243464908112617
7.872,0.9999938971516411,-29.48390642795169
7.88,0.9999939609300424,-29.72436239351576
7.888,0.9999940250369137,-29.9648325458846
7.896,0.9999940894631759,-30.205316626151628
7.904,0.9999941541996896,-30.44581437542866
7.912,0.9999942192372564,-30.68632553485059
7.92,0.9999942845666179,-30.92684984558009
7.928,0.9999943501784558,-31.16738704881229
7.936,0.9999944160633918,-31.40793688577954
7.944,0.9999944822119874,-31.648499097756112
7.952,0.999994548614744,-31.889073426062932
7.96,0.9999946152621023,-32.12965961207228
7.968,0.9999946821444426,-32.37025739721265
7.976,0.9999947492520848,-32.61086652297337
7.984,0.9999948165752877,-32.85148673090943
7.992,0.9999948841042493,-33.09211776264622
8.0,0.9999949518291065,-33.33275935988436
8.008,0.9999950197399354,-33.57341126440436
8.016,0.9999950878267504,-33.81407321807162
8.024000000000001,0.9999951560795042,-34.05474496284089
8.032,0.9999952244880894,-34.295426240761294
8.04,0.999995293042336,-34.536116793981186
8.048,0.9999953617320118,-34.776816364752804
8.056000000000001,0.9999954305468235,-35.01752469543708
8.064,0.9999954994764156,-35.25824152850848
8.072,0.9999955685103709,-35.49896660655991
8.08,0.9999956376382094,-35.73969967230753
8.088000000000001,0.999995706849389,-35.98044046859539
8.096,0.9999957761333054,-36.22118873840037
8.104,0.9999958454792913,-36.46194422483716
8.112,0.9999959148766175,-36.702706671163
8.120000000000001,0.9999959843144915,-36.94347582078238
8.128,0.9999960537820579,-37.18425141725191
8.136,0.9999961232683986,-37.4250332042855
8.144,0.999996192762532,-37.66582092575887
8.152000000000001,0.9999962622534139,-37.90661432571445
8.16,0.9999963317299367,-38.147413148366226
8.168,0.9999964011809289,-38.388217138104835
8.176,0.9999964705951561,-38.62902603950214
8.184000000000001,0.9999965399613197,-38.86983959731622
8.192,0.9999966092680576,-39.11065755649609
8.2,0.9999966785039444,-39.351479662186854
8.208,0.9999967476574899,-39.592305659734386
8.216000000000001,0.9999968167171408,-39.833135294690116
8.224,0.9999968856712786,-40.07396831281596
8.232,0.9999969545082219,-40.31480446008931
8.24,0.9999970232162235,-40.5556434827079
8.248000000000001,0.9999970917834731,-40.79648512709439
8.256,0.9999971601980948,-41.0373291399015
8.264,0.999997228448149,-41.278175268016824
8.272,0.9999972965216305,-41.51902325856782
8.280000000000001,0.9999973644064699,-41.75987285892631
8.288,0.999997432090533,-42.00072381671364
8.296,0.9999974995616199,-42.2415758798056
8.304,0.9999975668074661,-42.48242879633716
8.312,0.999997633815742,-42.7232823147072
8.32,0.999997700574052,-42.96413618358375
8.328,0.9999977670699361,-43.20499015190837
8.336,0.9999978332908682,-43.44584396890153
8.344,0.9999978992242565,-43.686697384067
8.352,0.9999979648574444,-43.92755014719707
8.36,0.9999980301777085,-44.168402008377065
8.368,0.9999980951722602,-44.4092527179906
8.376,0.9999981598282449,-44.650102026723964
8.384,0.9999982241327415,-44.89094968557144
8.392,0.9999982880727639,-45.131795445839714
8.4,0.9999983516352587,-45.37263905915309
8.408,0.999998414807107,-45.61348027745794
8.416,0.9999984775751233,-45.854318853028005
8.424,0.9999985399260551,-46.09515453846872
8.432,0.9999986018465846,-46.3359870867225
8.44,0.9999986633233268,-46.57681625107313
8.448,0.9999987243428297,-46.817641785151004
8.456,0.9999987848915756,-47.05846344293755
8.464,0.9999988449559785,-47.29928097877039
8.472,0.9999989045223873,-47.54009414734778
8.48,0.9999989635770824,-47.780902703733794
8.488,0.9999990221062786,-48.02170640336272
8.496,0.9999990800961224,-48.26250500204425
8.504,0.9999991375326941,-48.503298255967835
8.512,0.9999991944020064,-48.744085921707914
8.52,0.9999992506900047,-48.98486775622825
8.528,0.9999993063825674,-49.22564351688706
8.536,0.9999993614655055,-49.46641296144145
8.544,0.9999994159245622,-49.70717584805252
8.552,0.9999994697454142,-49.947931935289674
8.56,0.9999995229136696,-50.188680982135864
8.568,0.9999995754148695,-50.429422747991815
8.576,0.9999996272344879,-50.67015699268117
8.584,0.9999996783579304,-50.91088347645484
8.592,0.9999997287705353,-51.151601959996164
8.6,0.9999997784575736,-51.39231220442505
8.608,0.9999998274042481,-51.633013971303214
8.616,0.9999998755956941,-51.873707022638435
8.624,0.9999999230169796,-52.11439112088958
8.632,0.9999999696531037,-52.35506602897094
8.64,1.0,-52.595731510257245
8.648,0.9999999999999999,-52.83638732858795
8.656,1.0,-53.07703324827225
8.664,0.9999999999999999,-53.317669034093356
8.672,1.0,-53.55829445131348
8.68,0.9999999999999999,-53.798909265678084
8.688,1.0,-54.03951324342089
8.696,1.0,-54.28010615126804
8.704,1.0,-54.52068775644311
8.712,1.0,-54.76125782667132
8.72,1.0,-55.00181613018448
8.728,1.0,-55.24236243572513
8.736,1.0,-55.482896512551534
8.744,0.9999999999999999,-55.72341813044176
8.752,0.9999999999999999,-55.963927059698676
8.76,1.0,-56.204423071154054
8.768,1.0,-56.44490593617342
8.776,1.0,-56.68537542666028
8.784,0.9999999999999999,-56.925831315060826
8.792,1.0,-57.166273374368195
8.8,0.9999999999999999,-57.40670137812722
8.808,0.9999999999999999,-57.6471151004385
8.815999999999999,1.0,-57.887514315963266
8.824,1.0,-58.12789879992755
8.832,0.9999999999999999,-58.3682683281266
8.84,0.9999999999999999,-58.608622676929315
8.847999999999999,1.0,-58.848961623282825
8.856,0.9999999999999999,-59.08928494471669
8.864,1.0000000000000002,-59.32959241934721
8.872,0.9999999999999999,-59.56988382588193
8.879999999999999,1.0,-59.81015894362397
8.888,0.9999999999999999,-60.0504175524764
8.896,0.9999999999999998,-60.290659432946356
8.904,0.9999999999999999,-60.530884366149536
8.911999999999999,0.9999999999999999,-60.77109213381449
8.92,0.9999999999999999,-61.01128251828692
8.928,0.9999999999999999,-61.251455302533785
8.936,0.9999999999999998,-61.491610270147675
8.943999999999999,1.0,-61.73174720535117
8.952,0.9999999999999998,-61.97186589300094
8.96,1.0,-62.21196611859192
8.968,1.0,-62.45204766826155
8.975999999999999,0.9999999999999999,-62.692110328794115
8.984,1.0,-62.93215388762484
8.992,1.0,-63.1721781328439
9.0,1.0,-63.41218285320069
9.008,1.0,-63.652167838108106
9.016,0.9999999999999998,-63.892132877646524
9.024000000000001,1.0,-64.13207776256783
9.032,1.0,-64.37200228429961
9.04,1.0,-64.61190623494939
9.048,1.0,-64.85178940730844
9.056000000000001,1.0,-65.091651594856
9.064,1.0,-65.33149259176311
9.072,0.9999999999999999,-65.571312192897
9.08,1.0,-65.81111019382485
9.088000000000001,1.0,-66.05088639081775
9.096,1.0,-66.29064058085477
9.104,1.0,-66.53037256162705
9.112,1.0,-66.77008213154156
9.120000000000001,1.0,-67.00976908972511
9.128,1.0,-67.24943323602825
9.136,1.0,-67.48907437102925
9.144,1.0,-67.72869229603809
9.152000000000001,1.0,-67.96828681310002
9.16,0.9999999999999998,-68.20785772499964
9.168,1.0,-68.44740483526486
9.176,1.0,-68.6869279481706
9.184000000000001,0.9999999999999999,-68.92642686874255
9.192,0.9999999999999999,-69.16590140276102
9.2,1.0,-69.40535135676492
9.208,1.0,-69.64477653805538
9.216000000000001,1.0,-69.88417675469941
9.224,0.9999999999999999,-70.1235518155338
9.232,1.0,-70.3629015301689
9.24,0.9999999764144509,-70.60222570899225
9.248000000000001,0.9999999124367768,-70.84152416317227
9.256,0.9999998463143462,-71.0807967046619
9.264,0.9999997780280759,-71.3200431462025
9.272,0.9999997075588868,-71.55926330132735
9.280000000000001,0.9999996348877065,-71.79845698436523
9.288,0.9999995599954735,-72.0376240104441
9.296,0.9999994828631399,-72.27676419549489
9.304,0.9999994034716756,-72.51587735625493
9.312000000000001,0.9999993218020735,-72.75496331027146
9.32,0.9999992378353516,-72.99402187590532
9.328,0.999999151552559,-73.23305287233458
9.336,0.9999990629347798,-73.472056119558
9.344,0.9999989719631371,-73.71103143839836
9.352,0.9999988786187994,-73.94997865050641
9.36,0.9999987828829837,-74.18889757836386
9.368,0.9999986847369636,-74.42778804528736
9.376,0.9999985841620715,-74.6666498754314
9.384,0.9999984811397066,-74.90548289379244
9.392,0.99999837565134,-75.1442869262116
9.4,0.9999982676785203,-75.38306179937877
9.408,0.999998157202882,-75.62180734083547
9.416,0.9999980442061497,-75.86052337897861
9.424,0.9999979286701469,-76.09920974306361
9.432,0.9999978105768013,-76.33786626320794
9.44,0.9999976899081551,-76.57649277039427
9.448,0.9999975666463691,-76.81508909647405
9.456,0.9999974407737344,-77.05365507417052
9.464,0.999997312272678,-77.29219053708233
9.472,0.9999971811257728,-77.5306953196864
9.48,0.999997047315747,-77.7691692573417
9.488,0.999996910825492,-78.00761218629195
9.496,0.9999967716380731,-78.24602394366934
9.504,0.9999966297367398,-78.48440436749732
9.512,0.9999964851049356,-78.72275329669417
9.52,0.9999963377263094,-78.96107057107578
9.528,0.9999961875847265,-79.19935603135923
9.536,0.9999960346642809,-79.43760951916558
9.544,0.9999958789493055,-79.67583087702324
9.552,0.9999957204243873,-79.91401994837086
9.56,0.999995559074379,-80.15217657756068
9.568,0.9999953948844122,-80.39030060986127
9.576,0.9999952278399128,-80.62839189146098
9.584,0.9999950579266145,-80.8664502694705
9.592,0.9999948851305737,-81.10447559192639
9.6,0.9999947094381865,-81.34246770779357
9.608,0.9999945308362022,-81.58042646696875
9.616,0.9999943493117439,-81.81835172028289
9.624,0.9999941648523233,-82.0562433195047
9.632,0.9999939774458583,-82.29410111734295
9.64,0.9999937870806938,-82.53192496744991
9.648,0.999993593745619,-82.76971472442371
9.656,0.9999933974298889,-83.00747024381162
9.664,0.9999931981232447,-83.24519138211245
9.672,0.9999929958159337,-83.48287799677976
9.68,0.9999927904987338,-83.72052994622415
9.688,0.9999925821629757,-83.95814708981652
