freq,mag,phase
6.0,0.9988857883138889,64.34365075728815
6.002287104,0.9989658517048768,64.18811949814318
6.004574208,0.9991110498063195,64.03097153923133
6.006861312,0.9993126914198164,63.871278218093956
6.009147904,0.999558151880073,63.70838448434612
6.011435008,0.9998317913863439,63.54170057539848
6.013722112,1.0001165779180436,63.371000024385566
6.016009216,1.0003944512076874,63.1962144025434
6.01829632,1.0006478195148796,63.01759694991774
6.020583424,1.0008608285467522,62.835577720575365
6.022870016,1.001020104547284,62.65088413501226
6.02515712,1.0011155126115725,62.46437587645887
6.027444224,1.0011411131597963,62.2769683970431
6.029731328,1.001095187007338,62.08971986625652
6.032018432,1.000980653354401,61.903648883762386
6.034305536,1.0008046281969265,61.71966553272968
6.036592128,1.000578213082252,61.538587541056714
6.038879232,1.0003155965083865,61.36105664035976
6.041166336,1.0000333110634982,61.18746132029881
6.04345344,0.9997490821103351,61.018008570288245
6.045740544,0.9994809034095757,60.8525578140114
6.048027648,0.9992456596546588,60.690762828640636
6.05031424,0.999058241664718,60.5320397148404
6.052601344,0.9989305157453426,60.37562569588277
6.054888448,0.9988705114484772,60.220586099166155
6.057175552,0.9988821575501954,60.065896376654806
6.059462656,0.9989647358072073,59.910543181605675
6.06174976,0.9991130077662778,59.75350195419046
6.064036352,0.9993176053811018,59.59391924261062
6.066323456,0.9995656505465422,59.43103254404158
6.06861056,0.9998416269480028,59.26436248980508
6.070897664,1.0001279769694686,59.09361324341854
6.073184768,1.0004065973978846,58.918774846982814
6.075471872,1.0006601575959448,58.74008219895954
6.077758464,1.000872552549348,58.55800503948419
6.080045568,1.0010303820804938,58.373266919849435
6.082332672,1.0011238319364484,58.18673292322738
6.084619776,1.0011468536980423,57.999340894947636
6.08690688,1.0010980095299535,57.81212884080017
6.089193984,1.0009804242525273,57.62611417701485
6.091481088,1.0008013645214042,57.44225477021648
6.09376768,1.0005720927841548,57.26132947941822
6.096054784,1.0003069791937407,57.08400040891037
6.098341888,1.0000227678859073,56.91065207318172
6.100628992,0.9997372737216553,56.74142644352443
6.102916096,0.9994686399029665,56.57622498509983
6.1052032,0.9992336310679049,56.414693852986275
6.107489792,0.9990472649002676,56.25623415808928
6.109776896,0.9989212449048203,56.10004041682197
6.112064,0.9988635828215532,55.9451763573343
6.114351104,0.998878000598647,55.79065545852133
6.116638208,0.9989635361609064,55.635393342789754
6.118925312,0.9991149627410468,55.4784071168499
6.121211904,0.9993226141019973,55.318831329654245
6.123499008,0.9995734171081546,55.15592342581121
6.125786112,0.9998515315309008,54.98917917712342
6.128073216,1.0001394872315807,54.81832766668681
6.13036032,1.0004190930895132,54.64338073205872
6.132647424,1.0006727129803747,54.46455222621124
6.134934016,1.000884435460478,54.282358522724
6.13722112,1.0010409474522508,54.0974907501791
6.139508224,1.0011323224423623,53.91086063612406
6.141795328,1.0011527242406748,53.723399386933224
6.144082432,1.0011009820815293,53.53617173404478
6.146369536,1.0009802856990606,53.35016145867487
6.148656128,1.0007980800851188,53.16636016594388
6.150943232,1.0005659242030533,52.98553904745008
6.153230336,1.0002983820928302,52.80834722648736
6.15551744,1.0000121961366886,52.635143014035236
6.157804544,0.9997254784628458,52.46610644971511
6.160091648,0.9994562335340627,52.301107059555534
6.162378752,0.9992215497120474,52.13976259271552
6.164665344,0.9990361782842677,51.98147942936207
6.166952448,0.9989119010475297,51.82544996585972
6.169239552,0.998856625132165,51.6707246835176
6.171526656,0.9988738656044188,51.516254384574516
6.17381376,0.9989624981741184,51.36105450455474
6.176100864,0.9991169926537433,51.20406443347031
6.178387456,0.9993277271631561,51.04441750400767
6.18067456,0.9995811989135824,50.88143636410789
6.182961664,0.9998615648390083,50.7145403686194
6.185248768,1.0001511118345743,50.543531495306475
6.187535872,1.0004315998939528,50.368384987992656
6.189822976,1.0006853756806733,50.18936543176623
6.192109568,1.0008964072011357,50.00698185088479
6.194396672,1.0010514058523408,49.82193911621235
6.196683776,1.0011406492477635,49.63513853563485
6.19897088,1.0011585367371374,49.44754556951051
6.201257984,1.0011037980708395,49.260210252950834
6.203545088,1.0009798793801805,49.07416156168767
6.20583168,1.0007945798118854,48.89034876037373
6.208118784,1.0005595772287963,48.709575284584005
6.210405888,1.0002895229309532,48.532440465860056
6.212692992,1.0000013726799033,48.35936848367586
6.214980096,0.9997134394154749,48.190448379992354
6.2172672,0.9994436640519809,48.025565403177566
6.219553792,0.9992092619167867,47.86436940074832
6.221840896,0.999024971540424,47.706179017394035
6.224128,0.9989025750997097,47.55024185554716
6.226415104,0.9988496115562976,47.395570690144794
6.228702208,0.9988697448889643,47.241157496773226
6.230989312,0.9989614950426154,47.085893876192024
6.233275904,0.999119188605034,46.928851362263096
6.235563008,0.9993329460642927,46.769092344167
6.237850112,0.9995891549651617,46.605927292947314
6.240137216,0.9998717751687652,46.43883933915454
6.24242432,1.000162930004588,46.26758223508696
6.244711424,1.000444359563724,46.09218571586073
6.246998528,1.0006981749591128,45.912900143048056
6.24928512,1.0009085348505786,45.730250076410414
6.251572224,1.001062055012545,45.544953103345605
6.253859328,1.0011492655429108,45.357940630397074
6.256146432,1.0011644050716448,45.170147114536455
6.258433536,1.0011067207240494,44.98265169507149
6.26072064,1.0009796350618245,44.79651228307606
6.263007232,1.0007911949120067,44.612611199144176
6.265294336,1.0005531740311406,44.43180417477997
6.26758144,1.0002805961084313,44.254679771800184
6.269868544,0.9999905312525921,44.08163311270056
6.272155648,0.9997013007744437,43.91277178187199
6.274442752,0.9994310656008915,43.747955016929794
6.276729344,0.9991969547918431,43.58681052051982
6.279016448,0.9990137841438685,43.42870645101326
6.281303552,0.9988931676379912,43.272786065855
6.283590656,0.9988426292894402,43.118127833963925
6.28587776,0.9988654998520647,42.963655281209135
6.288164864,0.9989604419955808,42.80832919729983
6.290451456,0.9991213216985021,42.65113712896013
6.29273856,0.9993380513824491,42.49119870204003
6.295025664,0.9995971300749419,42.32779315295032
6.297312768,0.9998819733623736,42.160425018065226
6.299599872,1.0001747893926851,41.98888223036059
6.301886976,1.0004570436353823,41.813160747165426
6.304173568,1.000710888108307,41.633537919536714
6.306460672,1.000920600525088,41.45057259469254
6.308747776,1.0010726977949822,41.264969273245654
6.31103488,1.0011577187107281,41.0776379616219
6.313321984,1.001170200901248,40.88959676761681
6.315609088,1.0011095151125562,40.701892973846554
6.317896192,1.000979287767084,40.51555989436528
6.320182784,1.0007876878986122,40.33151402671178
6.322469888,1.0005467468038654,40.150616814122706
6.324756992,1.0002716136943473,39.973434580735095
6.327044096,0.999979545137891,39.800373299434106
6.3293312,0.9996890796158339,39.63149061687676
6.331618304,0.9994183857485456,39.46670210792683
6.333904896,0.9991845686629706,39.3055669664334
6.336192,0.999002454077379,39.14742183401275
6.338479104,0.998883567582287,38.99147653797853
6.340766208,0.9988355142737324,38.836749096008866
6.343053312,0.9988613040406565,38.68217033957225
6.345340416,0.9989593384068154,38.52668296366798
6.347627008,0.9991234228933421,38.369294679235125
6.349914112,0.9993433587600415,38.209091387578354
6.352201216,0.9996051428146907,38.04539386079771
6.35448832,0.9998921916277816,37.87771470227492
6.356775424,1.000186619168125,37.705791927970246
6.359062528,1.000469808913405,37.529684036682
6.36134912,1.0007237941149318,37.349686868363875
6.363636224,1.000932700265352,37.16630611894421
6.365923328,1.0010833500535905,36.98033219994105
6.368210432,1.0011662522111038,36.79265152795627
6.370497536,1.0011761490554574,36.6042722778153
6.37278464,1.00111237534289,36.41629098993183
6.375071232,1.0009789420979167,36.22969858329504
6.377358336,1.0007840659293066,36.04549086962945
6.37964544,1.0005401825617815,35.86441157334779
6.381932544,1.0002625218365038,35.68712306531847
6.384219648,0.9999684822936288,35.51395013978288
6.386506752,0.9996767220733037,35.345018161303294
6.388793344,0.9994054802182789,35.18014763904216
6.391080448,0.9991719814816745,35.01894654161598
6.393367552,0.9989910287046436,34.860754369200656
6.395654656,0.9988739628312143,34.704716653382675
6.39794176,0.9988282903533239,34.54984418790058
6.400228864,0.998856952921359,34.395098201681876
6.402515968,0.9989581917522581,34.23940554695636
6.40480256,0.9991255183252641,34.081743926072086
6.407089664,0.9993485240206796,33.92123897008361
6.409376768,0.9996129999128844,33.757180153593886
6.411663872,0.9999024715617686,33.589084787485966
6.413950976,1.0001985227671237,33.416746576306736
6.41623808,1.0004825330611076,33.24019765647412
6.418524672,1.0007366702182758,33.05971266364452
6.420811776,1.0009448259043092,32.87588494656058
6.42309888,1.0010940725395436,32.68946901089248
6.425385984,1.0011748331345032,32.501358991323876
6.427673088,1.0011820542690866,32.312600395486044
6.429960192,1.0011152352063508,32.12426739217484
6.432246784,1.000978597213674,31.937381199924616
6.434533888,1.0007805971475334,31.752901068347047
6.436820992,1.0005337339693758,31.571604191408912
6.439108096,1.0002535192603474,31.39413147334184
6.4413952,0.9999575978169241,31.22079039669954
6.443682304,0.9996645088512038,31.051733546351
6.445968896,0.9993927848845471,30.886747956636828
6.448256,0.9991595614444916,30.725411776188366
6.450543104,0.9989796044789818,30.567087186686184
6.452830208,0.998864391629364,30.41089108372147
6.455117312,0.9988211444473217,30.255829508013534
6.457404416,0.9988526719854905,30.10085204538498
6.459691008,0.9989570360378522,29.944862474233613
6.461978112,0.9991275805935065,29.786868837184127
6.464265216,0.999353702535862,29.62598388654529
6.46655232,0.9996209643617179,29.461525709547416
6.468839424,0.9999126532881412,29.29296853179061
6.471126528,1.0002103910025315,29.12013257867914
6.473413632,1.0004952857633942,28.94306996461201
6.475700224,1.0007494396481227,28.762077966083496
6.477987328,1.0009569897341062,28.577730241247128
6.480274432,1.0011046571381872,28.39079440792629
6.482561536,1.0011832812246733,28.20220267303301
6.48484864,1.0011879166041566,28.013006971012476
6.487135744,1.0011180573955563,27.824236836988618
6.489422336,1.0009782030282297,27.636987791322994
6.49170944,1.0007770139758447,27.452172759803243
6.493996544,1.0005273059272288,27.270601226367027
6.496283648,1.0002444841191545,27.09287861874672
6.498570752,0.9999465321352173,26.91932421376082
6.500857856,0.9996521143346845,26.750066019756545
6.503144448,0.999379856031935,26.58490586949736
6.505431552,0.9991469444723469,26.42338523131021
6.507718656,0.9989681714152217,26.2648500996391
6.51000576,0.9988547533732296,26.10842205548629
6.512292864,0.9988138344300719,25.95313423138185
6.514579968,0.9988482469540927,25.797827415656812
6.51686656,0.9989557434003365,25.641524340812325
6.519153664,0.9991295528331957,25.483148697236047
6.521440768,0.9993588044794969,25.321817710259804
6.523727872,0.999628839376722,25.156857726855264
6.526014976,0.9999227875487442,24.98778185125688
6.52830208,1.0002221684844181,24.814407596202958
6.530588672,1.0005079830360033,24.636771010001915
6.532875776,1.000762316317446,24.455194247061105
6.53516288,1.0009691904107345,24.270263178790714
6.537449984,1.001115424131088,24.082748367272202
6.539737088,1.0011919396128144,23.893615762111263
6.542024192,1.0011939022101757,23.703904709820556
6.544310784,1.001121062513293,23.514652862787027
6.546597888,1.0009779896420585,23.326975500836358
6.548884992,1.0007736975312187,23.141771625440786
6.551172096,1.000520940071625,22.95986030595945
6.5534592,1.0002355683439166,22.781804164011685
6.555746304,0.999935572868204,22.607973347867542
6.558033408,0.9996398973089451,22.438463316102396
6.56032,0.999367154675731,22.273030415246733
6.562607104,0.9991345022020619,22.111273557250023
6.564894208,0.998956774886142,21.952494618136758
6.567181312,0.9988450696650264,21.795787125765468
6.569468416,0.9988065853301338,21.64014280027397
6.57175552,0.9988438936893096,21.484526481214417
6.574042112,0.9989544582699077,21.327792319128594
6.576329216,0.9991314937607356,21.168964498193187
6.57861632,0.9993637319699042,21.007137973822378
6.580903424,0.999636678710786,20.841646593024777
6.583190528,0.999932938863077,20.671991567420463
6.585477632,1.0002339241691018,20.49798861796903
6.587764224,1.000520694367883,20.319711581569997
6.590051328,1.0007751285894735,20.137486616705303
6.592338432,1.000981342720753,19.95191716949258
6.594625536,1.00112621167109,19.76378041498785
6.59691264,1.001200660361119,19.57403304112322
6.599199744,1.0011998933957922,19.383739095933887
6.601486336,1.0011241175397458,19.19397120171798
6.60377344,1.000977835230428,19.00578315919625
6.606060544,1.000770407433737,18.820117493309663
6.608347648,1.0005146297194403,18.637786478325438
6.610634752,1.00022681449813,18.459373861287812
6.612921856,0.9999247999369049,18.285206418695594
6.615208448,0.9996278001178087,18.11534781328891
6.617495552,0.999354425351364,17.949645717295404
6.619782656,0.9991220362119545,17.78756006092848
6.62206976,0.9989453231112051,17.628452216858555
6.624356864,0.99883544594532,17.471399431925903
6.626643968,0.9987993782241588,17.315392880942873
6.628931072,0.9988394022719177,17.15934228451123
6.631217664,0.9989531206256754,17.00215349336982
6.633504768,0.9991333066093148,16.84282639152697
6.635791872,0.9993687004824325,16.680428624651384
6.638078976,0.9996442951095262,16.514329794507105
6.64036608,0.9999428604140612,16.344035756956426
6.642653184,1.0002455555466556,16.169349537461457
6.644939776,1.0005332698581464,15.990391606807714
6.64722688,1.0007879986004762,15.807455805879753
6.649513984,1.0009935017976312,15.62118046907148
6.651801088,1.0011369500862626,15.43234823218951
6.654088192,1.001209371046734,15.241941522625453
6.656375296,1.0012060317644098,15.05100546972841
6.658661888,1.00112722249209,14.860640465627387
6.660948992,1.0009778845288224,14.671889765384828
6.663236096,1.0007672875537696,14.485723331092785
6.6655232,1.000508537357887,14.302911737234265
6.667810304,1.0002180701277974,14.124053730804913
6.670097408,0.9999141712177474,13.949493317948278
6.672384,0.9996156903661406,13.779246348819177
6.674671104,0.9993418179030147,13.613157934152188
6.676958208,0.9991095974136115,13.45070621333295
6.679245312,0.9989338535528128,13.291213404159148
6.681532416,0.9988256336315902,13.133768363557106
6.68381952,0.9987918827541916,12.977312774030626
6.686106112,0.9988347367937678,12.82080669614419
6.688393216,0.9989515209540019,12.66308614317947
6.69068032,0.9991349249814899,12.503181251061909
6.692967424,0.9993733307555899,12.340185891323225
6.695254528,0.9996517424641869,12.173422696218612
6.697541632,0.9999526902096706,12.00241766569315
6.699828224,1.0002570436021148,11.827015955736028
6.702115328,1.0005456645336959,11.647286343462376
6.704402432,1.000800566766276,11.463590283449799
6.706689536,1.0010054899951453,11.276562154929218
6.70897664,1.0011476944504945,11.08696745615945
6.711263744,1.0012179999133761,10.895839721600971
6.713550848,1.0012122181657566,10.704209235473915
6.71583744,1.0011305641200325,10.513171197479238
6.718124544,1.0009779877982623,10.323810902767065
6.720411648,1.0007642527012788,10.137057563802795
6.722698752,1.0005025584222162,9.953716616348848
6.724985856,1.0002095929224073,9.7743550486095
6.72727296,0.9999035227970786,9.599314659270298
6.729559552,0.9996038093482098,9.42864643970214
6.731846656,0.9993292357348514,9.262110620658138
6.73413376,0.9990972751791052,9.09924631041383
6.736420864,0.9989224627016463,8.93930685224452
6.738707968,0.9988159195968616,8.781369860146631
6.740995072,0.9987844821271946,8.62444708515978
6.743281664,0.9988300331707465,8.467381884521167
6.745568768,0.9989498380820327,8.30910444229042
6.747855872,0.999136386871471,8.148572969743537
6.750142976,0.9993778495357883,7.984883193128698
6.75243008,0.9996590130414549,7.817415927761172
6.754717184,0.9999622845857795,7.645647973912852
6.757003776,1.0002683060506639,7.469478630148379
6.75929088,1.0005579468528234,7.288930828936347
6.761577984,1.0008130941175521,7.104419071578257
6.763865088,1.0010174646006413,6.916563139797201
6.766152192,1.0011583251559697,6.7261827425012175
6.768439296,1.0012267414200244,6.534248507520573
6.770725888,1.0012184822840038,6.3418533540982365
6.773012992,1.0011337958988087,6.150120302800413
6.775300096,1.0009782092143191,5.96005969025922
6.7775872,1.0007613772667394,5.772683016533921
6.779874304,1.0004968119623003,5.588739315122433
6.782161408,1.0002011751353175,5.408820192681741
6.784448512,0.9998931405523072,5.233253987574121
6.786735104,0.9995920559363025,5.062080732476624
6.789022208,0.9993168284065779,4.895053083347941
6.791309312,0.9990849314282716,4.731683128157672
6.793596416,0.99891103700866,4.571247722113239
6.79588352,0.9988060014907892,4.412792632751771
6.798170624,0.9987767954368266,4.255313070067569
6.800457216,0.9988250853043316,4.097661418846745
6.80274432,0.9989479201796334,3.9387395521120787
6.805031424,0.9991375135501326,3.7775219310237977
6.807318528,0.9993820399852972,3.6131357207694093
6.809605632,0.9996659873077619,3.4448807781940216
6.811892736,0.9999714675302752,3.272319832047125
6.814179328,1.0002793543524344,3.0952824209889456
6.816466432,1.0005700700784865,2.9138856992709963
6.818753536,1.0008253862304524,2.728498983894201
6.82104064,1.0010294323543492,2.5397584892253295
6.823327744,1.0011689918249862,2.348517004149191
6.825614848,1.001235518276436,2.1557567163506604
6.82790144,1.0012248231276075,1.9625468953271357
6.830188544,1.0011373793723355,1.7700045875551256
6.832475648,1.0009787408799888,1.5792100077615103
6.834762752,1.0007586885974498,1.3911323809605407
6.837049856,1.0004912356179134,1.2065405684545534
6.83933696,1.0001930231605056,1.0260045719076687
6.841623552,0.9998828938637324,0.8498432446638494
6.843910656,0.9995803518974427,0.678098690719826
6.84619776,0.9993044459324274,0.5105250060021931
6.848484864,0.9990726529286152,0.34660529515945854
6.850771968,0.9988996350032288,0.1856124653581205
6.853059072,0.9987962129733086,0.026593902994865738
6.855345664,0.9987691722815463,-0.13150707590547964
6.857632768,0.998820087365708,-0.28979917175960057
6.859919872,0.9989458659129041,-0.449416918346406
6.862206976,0.9991386081311757,-0.6113589330154148
6.86449408,0.9993860630066839,-0.7765207586856454
6.866781184,0.9996728384371032,-0.9456164203979114
6.869068288,0.9999806099953784,-1.1190325707486783
6.87135488,1.0002902408270609,-1.2969688153454249
6.873641984,1.0005820166381305,-1.479274089087546
6.875929088,1.000837703360696,-1.6655851707346176
6.878216192,1.001041276280193,-1.8552553865989314
6.880503296,1.00117965110458,-2.047426069141084
6.8827904,1.0012443337852912,-2.241097828328131
6.885076992,1.0012311700910606,-2.4351759636115533
6.887364096,1.0011410844082889,-2.628534464145707
6.8896512,1.0009793435620873,-2.82013641964778
6.891938304,1.0007563741633378,-3.0089762758360568
6.894225408,1.0004859074424501,-3.194297467491399
6.896512512,1.0001852037677479,-3.3754977102032746
6.898799104,0.999873032189384,-3.5523077585711875
6.901086208,0.9995689818917852,-3.7246777209808593
6.903373312,0.9992924324024384,-3.892864614769105
6.905660416,0.9990605989132522,-4.057383795640706
6.90794752,0.9988882424935293,-4.219017200240069
6.910234624,0.9987863876833725,-4.378660729810702
6.912521216,0.9987613244136678,-4.537410674299074
6.91480832,0.9988147853914178,-4.69640896434643
6.917095424,0.9989434645351926,-4.8567562159435225
6.919382528,0.9991392004417609,-5.0194832066962185
6.921669632,0.9993897653547685,-5.18549270980502
6.923956736,0.9996791362503762,-5.355450583581485
6.926243328,0.9999893544365446,-5.529787536055084
6.928530432,1.000300682631925,-5.708652530035087
