freq,mag,phase
6.0,0.9999985619628043,83.29627252153378
6.008,0.9999987745158215,83.16332070647621
6.016,0.999998977966046,83.0303545290805
6.024,0.9999991724765936,82.89737397918823
6.032,0.99999935820922,82.76437904665543
6.04,0.9999995353243232,82.63136972135297
6.048,0.9999997039809483,82.4983459931667
6.056,0.9999998643367912,82.3653078519978
6.064,0.9999999999999999,82.23225528776308
6.072,1.0,82.09918829039522
6.08,1.0,81.966106849843
6.088,0.9999999999999999,81.83301095607167
6.096,1.0,81.69990059906317
6.104,1.0,81.56677576881634
6.112,0.9999999999999999,81.43363645534737
6.12,1.0,81.30048264868984
6.128,1.0,81.1673143388952
6.136,1.0,81.03413151603286
6.144,0.9999999999999999,80.90093417019061
6.152,0.9999999999999999,80.76772229147477
6.16,1.0,80.63449587001054
6.168,1.0,80.5012548959422
6.176,1.0,80.36799935943341
6.184,1.0,80.23472925066748
6.192,1.0,80.10144455984761
6.2,0.9999999999999999,79.96814527719715
6.208,1.0,79.8348313929599
6.216,1.0,79.70150289740029
6.224,1.0,79.56815978080373
6.232,0.9999999999999999,79.43480203347683
6.24,1.0,79.30142964574763
6.248,1.0,79.1680426079659
6.256,1.0,79.03464091050338
6.264,0.9999999999999999,78.90122454375401
6.272,1.0,78.76779349813422
6.28,1.0,78.63434776408317
6.288,0.9999999999999999,78.50088733206299
6.296,1.0,78.36741219255907
6.304,0.9999999999999999,78.23392233608023
6.312,1.0,78.10041775315906
6.32,1.0,77.96689843435215
6.328,1.0,77.83336437024025
6.336,1.0,77.69981555142864
6.344,1.0,77.5662519685473
6.352,1.0,77.43267361225118
6.36,0.9999999999999999,77.29908047322044
6.368,1.0,77.16547254216069
6.376,1.0,77.03184980980322
6.384,1.0,76.89821226690526
6.392,1.0,76.76455990425025
6.4,1.0,76.630892712648
6.408,1.0,76.497210682935
6.416,0.9999999999999998,76.36351380597465
6.424,0.9999999999999999,76.22980207265742
6.432,0.9999999999999999,76.0960754739012
6.44,0.9999999999999999,75.96233400065145
6.448,0.9999999999999999,75.82857764388149
6.456,1.0,75.69480639459266
6.464,0.9999999999999998,75.56102024381468
6.472,0.9999999999999999,75.42721918260571
6.48,1.0,75.29340320205274
6.4879999999999995,1.0,75.15957229327171
6.496,0.9999999631447669,75.02572644740779
6.504,0.9999998705998316,74.89186565563566
6.5120000000000005,0.999999776648813,74.75798990915952
6.52,0.9999996813784261,74.62409919921366
6.5280000000000005,0.999999584874294,74.49019351706232
6.536,0.9999994872209529,74.35627285400027
6.5440000000000005,0.999999388501857,74.22233720135264
6.552,0.9999992887993823,74.08838655047556
6.5600000000000005,0.9999991881948319,73.95442089275603
6.568,0.9999990867684414,73.82044021961238
6.5760000000000005,0.9999989845993823,73.68644452249431
6.584,0.9999988817657671,73.55243379288332
6.592,0.9999987783446552,73.41840802229264
6.6,0.9999986744120555,73.28436720226772
6.608,0.9999985700429336,73.1503113243863
6.616,0.9999984653112143,73.01624038025867
6.624,0.9999983602897883,72.88215436152785
6.632,0.9999982550505152,72.74805325986986
6.64,0.9999981496642298,72.61393706699386
6.648,0.9999980442007463,72.4798057746424
6.656,0.9999979387288626,72.34565937459169
6.664,0.9999978333163657,72.21149785865164
6.672,0.9999977280300368,72.07732121866627
6.68,0.9999976229356551,71.9431294465138
6.688,0.9999975180980034,71.80892253410681
6.696,0.9999974135808728,71.67470047339262
6.704,0.9999973094470681,71.54046325635332
6.712,0.9999972057584111,71.40621087500604
6.72,0.9999971025757467,71.2719433214032
6.728,0.9999969999589476,71.13766058763261
6.736,0.9999968979669189,71.00336266581776
6.744,0.9999967966576037,70.86904954811799
6.752,0.9999966960879861,70.73472122672865
6.76,0.9999965963140988,70.60037769388137
6.768,0.9999964973910254,70.4660189418442
6.776,0.999996399372907,70.33164496292181
6.784,0.9999963023129466,70.19725574945572
6.792,0.9999962062634136,70.06285129382445
6.8,0.9999961112756498,69.92843158844377
6.808,0.9999960174000724,69.79399662576685
6.816,0.9999959246861813,69.6595463982844
6.824,0.9999958331825625,69.525080898525
6.832,0.9999957429368926,69.39060011905514
6.84,0.9999956539959458,69.25610405247951
6.848,0.9999955664055965,69.12159269144115
6.856,0.9999954802108258,68.98706602862163
6.864,0.9999953954557262,68.85252405674123
6.872,0.9999953121835058,68.71796676855917
6.88,0.9999952304364939,68.58339415687372
6.888,0.9999951502561462,68.44880621452245
6.896,0.9999950716830492,68.31420293438237
6.904,0.9999949947569254,68.17958430937013
6.912,0.9999949195166384,68.04495033244217
6.92,0.9999948460001974,67.91030099659496
6.928,0.999994774244763,67.77563629486511
6.936,0.9999947042866519,67.64095622032956
6.944,0.999994636161341,67.50626076610581
6.952,0.9999945699034741,67.37154992535203
6.96,0.9999945055468651,67.23682369126725
6.968,0.9999944431245041,67.10208205709154
6.976,0.9999943826685629,66.96732501610617
6.984,0.9999943242103984,66.83255256163385
6.992,0.9999942677805587,66.69776468703877
7.0,0.9999942134087884,66.56296138572685
7.008,0.9999941611240322,66.42814265114592
7.016,0.9999941109544418,66.29330847678584
7.024,0.9999940629273797,66.15845885617871
7.032,0.9999940170694246,66.02359378289898
7.04,0.9999939734063764,65.8887132505637
7.048,0.9999939319632608,65.75381725283253
7.056,0.999993892764335,65.61890578340811
7.064,0.9999938558330932,65.48397883603602
7.072,0.9999938211922694,65.34903640450506
7.08,0.9999937888638456,65.2140784826474
7.088,0.9999937588690542,65.07910506433868
7.096,0.9999937312283843,64.94411614349822
7.104,0.9999937059615871,64.80911171408914
7.112,0.9999936830876793,64.67409177011855
7.12,0.9999936626249503,64.53905630563764
7.128,0.9999936445909658,64.40400531474195
7.136,0.9999936290025729,64.26893879157139
7.144,0.9999936158759063,64.13385673031044
7.152,0.999993605226392,63.99875912518836
7.16,0.9999935970687528,63.86364597047921
7.168,0.9999935914170143,63.72851726050215
7.176,0.9999935882845082,63.59337298962147
7.184,0.9999935876838792,63.45821315224677
7.192,0.999993589627089,63.323037742833115
7.2,0.9999935941254208,63.18784675588118
7.208,0.9999936011894863,63.05264018593738
7.216,0.9999936108292284,62.91741802759398
7.224,0.9999936230539292,62.78218027548936
7.232,0.9999936378722115,62.64692692430797
7.24,0.9999936552920471,62.51165796878061
7.248,0.999993675320759,62.37637340368451
7.256,0.9999936979650298,62.24107322384347
7.264,0.9999937232309035,62.10575742412804
7.272,0.9999937511237927,61.97042599945557
7.28,0.9999937816484827,61.835078944790396
7.288,0.999993814809137,61.699716255144
7.296,0.9999938506093018,61.564337925575074
7.304,0.9999938890519121,61.42894395118969
7.312,0.9999939301392956,61.293534327141415
7.32,0.9999939738731787,61.158109048631474
7.328,0.9999940202546906,61.022668110908825
7.336,0.9999940692843695,60.88721150927033
7.344,0.999994120962167,60.751739239060825
7.352,0.9999941752874533,60.61625129567332
7.36,0.9999942322590213,60.48074767454905
7.368,0.9999942918750943,60.34522837117765
7.376,0.9999943541333279,60.20969338109723
7.384,0.9999944190308168,60.074142699894566
7.392,0.9999944865640998,59.9385763232051
7.4,0.9999945567291648,59.80299424671318
7.4079999999999995,0.9999946295214531,59.66739646615214
7.416,0.9999947049358652,59.53178297730435
7.4239999999999995,0.9999947829667659,59.39615377600144
7.432,0.9999948636079887,59.260508858124304
7.4399999999999995,0.9999949468528414,59.124848219603344
7.448,0.999995032694111,58.98917185641838
7.4559999999999995,0.9999951211240686,58.85347976459903
7.464,0.9999952121344752,58.717771940224544
7.4719999999999995,0.9999953057165846,58.58204837942418
7.48,0.9999954018611515,58.446309078377034
7.4879999999999995,0.9999955005584341,58.31055403331242
7.496,0.9999956017982,58.174783240509704
7.504,0.9999957055697312,58.03899669629871
7.5120000000000005,0.9999958118618293,57.9031943970595
7.52,0.9999959206628203,57.7673763392228
7.5280000000000005,0.9999960319605594,57.63154251926979
7.536,0.9999961457424363,57.495692933732485
7.5440000000000005,0.9999962619953803,57.35982757919357
7.552,0.9999963807058649,57.22394645228679
7.5600000000000005,0.9999965018599135,57.08804954969676
7.568,0.9999966254431029,56.95213686815927
7.5760000000000005,0.9999967514405709,56.81620840446127
7.584,0.999996879837018,56.68026415544101
7.5920000000000005,0.9999970106167153,56.544304117988105
7.6,0.9999971437635078,56.40832828904368
7.6080000000000005,0.9999972792608197,56.27233666560038
7.616,0.9999974170916599,56.13632924470255
7.6240000000000006,0.9999975572386263,56.00030602344622
7.632,0.999997699683911,55.86426699897935
7.640000000000001,0.9999978444093055,55.728212168501706
7.648,0.9999979913962049,55.59214152926517
7.656000000000001,0.9999981406256142,55.45605507857361
7.664,0.9999982920781517,55.31995281378319
7.672,0.9999984457340548,55.18383473230221
7.68,0.9999986015731853,55.047700831591385
7.688,0.9999987595750331,54.91155110916387
7.696,0.9999989197187223,54.77538556258524
7.704,0.9999990819830151,54.63920418947376
7.712,0.999999246346318,54.50300698750028
7.72,0.9999994127866854,54.36679395438839
7.728,0.9999995812818248,54.23056508791455
7.736,0.9999997518091029,54.094320385908055
7.744,0.9999999243455483,53.95805984625117
7.752,1.0,53.82178346687921
7.76,0.9999999999999999,53.68549124578061
7.768,0.9999999999999999,53.54918318099695
7.776,0.9999999999999999,53.41285927062308
7.784,1.0,53.276519512807184
7.792,1.0,53.140163905750796
7.8,1.0,53.00379244770891
7.808,0.9999999999999999,52.86740513699006
7.816,1.0,52.73100197195635
7.824,1.0,52.59458295102352
7.832,0.9999999999999999,52.45814807266105
7.84,0.9999999999999999,52.321697335392166
7.848,1.0,52.185230737793944
7.856,1.0,52.04874827849731
7.864,1.0,51.91224995618719
7.872,1.0,51.775735769602505
7.88,1.0,51.639205717536235
7.888,0.9999999999999999,51.50265979883548
7.896,0.9999999999999999,51.366098012401515
7.904,1.0,51.229520357189855
7.912,1.0,51.092926832210274
7.92,1.0,50.95631743652692
7.928,1.0,50.819692169258275
7.936,1.0,50.68305102957728
7.944,1.0,50.546394016711346
7.952,1.0,50.40972112994245
7.96,1.0,50.2730323686071
7.968,1.0,50.13632773209645
7.976,1.0,49.9996072198563
7.984,1.0,49.86287083138719
7.992,1.0,49.726118566244374
8.0,0.9999999999999999,49.589350424037946
8.008,1.0,49.45256640443279
8.016,1.0,49.315766507148645
8.024000000000001,1.0,49.178950731960235
8.032,0.9999999999999999,49.04211907869722
8.04,1.0,48.905271547244176
8.048,0.9999999999999999,48.76840813754074
8.056000000000001,1.0,48.6315288495816
8.064,1.0,48.49463368341658
8.072,1.0,48.357722639150566
8.08,1.0,48.22079571694357
8.088000000000001,1.0,48.08385291701085
8.096,0.9999999999999999,47.94689423962291
8.104,0.9999999999999999,47.809919685105385
8.112,1.0,47.6729292538392
8.120000000000001,1.0,47.53592294626063
8.128,1.0,47.398900762861295
8.136,1.0,47.26186270418804
8.144,1.0,47.12480877084314
8.152000000000001,1.0,46.98773896348426
8.16,0.9999999999999999,46.85065328282452
8.168,1.0,46.71355172963239
8.176,1.0,46.57643430473181
8.184000000000001,1.0000000000000002,46.4393010090022
8.192,1.0,46.30215184337851
8.2,0.9999999999999999,46.16498680885111
8.208,1.0000000000000002,46.027805906465886
8.216000000000001,1.0,45.890609137324326
8.224,1.0,45.75339650258349
8.232,1.0,45.616168003455854
8.24,1.0,45.47892364120953
8.248000000000001,1.0,45.34166341716824
8.256,1.0,45.204387332711285
8.264,0.9999999999999999,45.067095389273554
8.272,1.0,44.92978758834547
8.280000000000001,1.0,44.792463931473165
8.288,1.0,44.655124420258375
8.296,0.9999999999999999,44.51776905635839
8.304,0.9999999999999998,44.38039784148613
8.312,1.0,44.24301077741023
8.32,1.0,44.10560786595484
8.328,0.9999999999999999,43.968189108999816
8.336,1.0,43.830754508480574
8.344,1.0,43.69330406638822
8.352,0.9999999999999999,43.55583778476943
8.36,1.0,43.41835566572654
8.368,1.0,43.280857711417426
8.376,1.0,43.14334392405569
8.384,0.9999999999999999,43.0058143059104
8.392,1.0,42.86826885930635
8.4,1.0,42.730707586623794
8.408,1.0,42.59313049029869
8.416,0.9999999999999999,42.45553757282242
8.424,0.9999999999999999,42.31792883674208
8.432,1.0,42.18030428466013
8.44,1.0,42.04266391923475
8.448,1.0,41.905007743179446
8.456,1.0,41.76733575926337
8.464,1.0,41.62964797031106
8.472,1.0000000000000002,41.491944379202636
8.48,1.0,41.35422498887348
8.488,1.0,41.21648980231459
8.496,0.9999999999999998,41.07873882257224
8.504,1.0,40.94097205274821
8.512,0.9999999999999999,40.80318949599951
8.52,0.9999999999999999,40.66539115553861
8.528,1.0,40.5275770346332
8.536,1.0,40.389747136606374
8.544,0.9999999999999999,40.25190146483635
8.552,0.9999999999999999,40.11404002275674
8.56,1.0,39.976162813856234
8.568,1.0,39.83826984167883
8.576,1.0,39.70036110982354
8.584,1.0,39.562436621944656
8.592,0.9999999999999999,39.424496381751375
8.6,1.0000000000000002,39.286540393008146
8.608,1.0,39.1485686595343
8.616,0.9999999999999999,39.01058118520427
8.624,0.9999999999999999,38.872577973947294
8.632,1.0,38.734559029747714
8.64,1.0,38.59652435664459
8.648,1.0,38.458473958731936
8.656,0.9999999999999999,38.32040784015848
8.664,0.9999999999999999,38.18232600512782
8.672,1.0,38.04422845789816
8.68,1.0,37.90611520278247
8.688,1.0,37.76798624414828
8.696,1.0,37.629841586417825
8.704,1.0,37.491681234067755
8.712,1.0,37.35350519162936
8.72,1.0,37.215313463688226
8.728,0.9999999999999999,37.0771060548845
8.736,1.0,36.93888296991256
8.744,1.0,36.8006442135212
8.752,1.0,36.66238979051338
8.76,1.0,36.52411970574636
8.768,0.9999999999999998,36.38583396413143
8.776,0.9999999999999998,36.24753257063412
8.784,1.0,36.1092155302739
8.792,0.9999999999999999,35.97088284812428
8.8,0.9999999999999999,35.83253452931268
8.808,0.9999999999999999,35.69417057902043
8.815999999999999,1.0,35.55579100248264
8.824,0.9999999999999999,35.41739580498818
8.832,0.9999999999999999,35.27898499187968
8.84,1.0,35.140558568553345
8.847999999999999,1.0,35.002116540459006
8.856,1.0,34.86365891309993
8.864,1.0,34.72518569203291
8.872,1.0,34.586696882868125
8.879999999999999,0.9999999999999999,34.448192491269026
8.888,1.0,34.30967252295232
8.896,1.0,34.171136983687965
8.904,1.0,34.032585879299006
8.911999999999999,0.9999999999999999,33.8940192156615
8.92,0.9999999999999999,33.7554369987045
8.928,1.0,33.61683923440998
8.936,0.9999999999999999,33.47822592881278
8.943999999999999,0.9999999999999999,33.33959708800049
8.952,0.9999999999999999,33.20095271811328
8.96,0.9999999999999999,33.06229282534409
8.968,1.0,32.92361741593836
8.975999999999999,0.9999999999999998,32.784926496193904
8.984,1.0,32.64622007246101
8.992,1.0,32.50749815114226
9.0,1.0,32.36876073869245
9.008,0.9999999999999998,32.23000784161852
9.016,1.0,32.09123946647946
9.024000000000001,1.0,31.95245561988627
9.032,0.9999999999999999,31.813656308501898
9.04,1.0,31.674841539041008
9.048,1.0000000000000002,31.536011318270017
9.056000000000001,1.0,31.39716565300709
9.064,1.0,31.258304550121856
9.072,1.0,31.119428016535437
9.08,1.0,30.980536059220313
9.088000000000001,0.9999999999999999,30.841628685200305
9.096,1.0,30.7027059015505
9.104,0.9999999999999999,30.563767715396946
9.112,1.0,30.42481413391679
9.120000000000001,0.9999999999999999,30.28584516433814
9.128,1.0,30.14686081393994
9.136,1.0,30.0078610900518
9.144,1.0,29.86884600005401
9.152000000000001,1.0,29.72981555137744
9.16,0.9999999999999999,29.59076975150343
9.168,0.9999999999999999,29.4517086079636
9.176,1.0,29.312632128339835
9.184000000000001,0.9999999999999998,29.173540320264237
9.192,1.0,29.03443319141894
9.2,1.0000000000000002,28.89531074953598
9.208,0.9999999999999999,28.756173002397272
9.216000000000001,1.0,28.61701995783448
9.224,1.0,28.477851623728963
9.232,1.0,28.338668008011513
9.24,1.0,28.199469118662385
9.248000000000001,0.9999999999999998,28.06025496371118
9.256,1.0,27.921025551236752
9.264,1.0,27.78178088936697
9.272,1.0,27.642520986278715
9.280000000000001,0.9999999999999999,27.503245850197793
9.288,0.9999999999999999,27.3639554893988
9.296,1.0,27.224649912204942
9.304,0.9999999999999999,27.085329126987933
9.312000000000001,1.0,26.945993142168017
9.32,0.9999999999999999,26.80664196621372
9.328,0.9999999999999999,26.66727560764177
9.336,1.0,26.527894075016892
9.344,1.0,26.388497376951936
9.352,1.0,26.24908552210746
9.36,1.0,26.109658519191846
9.368,1.0,25.970216376960998
9.376,1.0,25.83075910421841
9.384,1.0,25.691286709814808
9.392,1.0,25.551799202648276
9.4,1.0,25.412296591663946
9.408,0.9999999999999999,25.272778885853985
9.416,1.0,25.133246094257352
9.424,1.0,24.99369822595986
9.432,1.0,24.854135290093783
9.44,0.9999999999999999,24.714557295838038
9.448,1.0,24.57496425241775
9.456,1.0,24.435356169104384
9.464,1.0,24.295733055215386
9.472,1.0,24.15609492011427
9.48,0.9999999999999999,24.016441773210275
9.488,1.0,23.87677362395842
9.496,1.0000000000000002,23.737090481859187
9.504,0.9999999999999999,23.597392356458595
9.512,1.0,23.457679257347813
9.52,0.9999999999999999,23.31795119416328
9.528,1.0,23.178208176586352
9.536,1.0,23.038450214343335
9.544,1.0,22.898677317205163
9.552,1.0,22.758889494987464
9.56,1.0,22.619086757550225
9.568,0.9999999999999999,22.479269114797816
9.576,0.9999999999999999,22.339436576678665
9.584,1.0,22.19958915318533
9.592,1.0,22.059726854354132
9.6,0.9999999999999999,21.91984969026521
9.608,0.9999999999999998,21.779957671042176
9.616,0.9999999999999999,21.640050806852184
9.624,0.9999999999999999,21.500129107905536
9.632,1.0,21.360192584455785
9.64,1.0,21.22024124679936
9.648,0.9999999999999999,21.08027510527562
9.656,1.0,20.94029417026645
9.664,1.0,20.800298452196422
9.672,1.0,20.660287961532312
9.68,0.9999999999999999,20.52026270878324
9.688,0.9999999999999999,20.380222704500245
9.696,1.0,20.240167959276413
9.704,1.0,20.1000984837464
9.712,1.0,19.960014288586592
9.72,0.9999999999999999,19.819915384514655
9.728,1.0,19.679801782289637
9.736,0.9999999999999999,19.539673492711554
9.744,1.0,19.39953052662146
9.752,0.9999999999999999,19.25937289490111
9.76,0.9999999999999999,19.119200608472916
9.768,0.9999999999999999,18.979013678299633
9.776,1.0,18.838812115384403
9.784,1.0,18.698595930770374
9.792,1.0,18.558365135540704
9.8,0.9999999999999999,18.418119740818234
9.808,1.0000000000000002,18.2778597577655
9.816,1.0,18.13758519758435
9.824,0.9999999999999999,17.99729607151599
9.832,1.0,17.856992390840613
9.84,1.0,17.716674166877407
9.847999999999999,1.0,17.576341410984213
9.856,1.0,17.435994134557426
9.864,1.0,17.295632349031877
9.872,1.0,17.155256065880597
9.879999999999999,1.0,17.01486529661459
9.888,0.9999999999999999,16.87446005278267
9.896,1.0,16.734040345971405
9.904,0.9999999999999999,16.593606187804824
9.911999999999999,0.9999999999999999,16.45315758994422
9.92,1.0,16.312694564087955
9.928,1.0,16.172217121971418
9.936,1.0,16.031725275366743
9.943999999999999,0.9999999999999999,15.89121903608254
9.952,1.0,15.75069841596381
9.96,0.9999999999999999,15.610163426891795
9.968,0.9999999999999998,15.469614080783728
9.975999999999999,1.0,15.329050389592584
9.984,1.0,15.188472365306966
9.992,1.0,15.047880019950949
10.0,1.0,14.90727336558385
10.008,1.0,14.76665241429995
10.016,0.9999999999999999,14.62601717822838
10.024000000000001,0.9999999999999999,14.48536766953298
10.032,1.0,14.344703900412032
10.04,0.9999999999999999,14.204025883098018
10.048,1.0,14.063333629857473
10.056000000000001,0.9999999999999999,13.922627152990858
10.064,1.0,13.78190646483227
10.072,1.0,13.641171577749214
10.08,0.9999999999999999,13.500422504142442
10.088000000000001,0.9999999999999999,13.359659256445825
10.096,0.9999999999999998,13.218881847126063
10.104,0.9999999999999999,13.078090288682457
10.112,1.0,12.937284593646726
10.120000000000001,1.0,12.796464774582885
10.128,1.0,12.655630844086971
10.136,1.0,12.514782814786766
10.144,1.0,12.373920699341657
10.152000000000001,0.9999999999999999,12.233044510442486
10.16,1.0,12.092154260811283
10.168,1.0000000000000002,11.95124996320096
10.176,0.9999999999999999,11.81033163039522
10.184000000000001,1.0,11.669399275208328
10.192,1.0,11.528452910484907
10.2,0.9999999999999999,11.387492549099608
10.208,0.9999999999999999,11.246518203956997
10.216000000000001,0.9999999999999999,11.105529887991349
