freq,mag,phase
6.0,0.9999859335110621,36.67345894029218
6.002286592,0.9999059070668446,36.50911257915772
6.004572672,0.9998314567436448,36.34581994918864
6.006859264,0.999767558943875,36.18348164458679
6.009145344,0.9997182249669401,36.021894722291485
6.011431936,0.9996866317978526,35.86083602796592
6.013718016,0.9996748063925514,35.70002423759157
6.016004608,0.9996834944137322,35.53918368001314
6.018290688,0.9997120490702891,35.37802266971808
6.02057728,0.9997589480210679,35.21623258634793
6.022863872,0.9998210625163481,35.053587701327196
6.025149952,0.9998946152142543,34.88990477322309
6.027436544,0.9999749361757231,34.72503513932518
6.029722624,1.000056900539387,34.55892510006591
6.032009216,1.0001353653298688,34.39160563832152
6.034295296,1.000205397681038,34.223104094978474
6.036581888,1.0002625453040617,34.0536439978562
6.03886848,1.0003033325003903,33.88339812918207
6.04115456,1.0003250252805052,33.712621947615155
6.043441152,1.000326288408528,33.54162025643856
6.045727232,1.000306947224326,33.37067927158067
6.048013824,1.0002682551839475,33.20007824373538
6.050299904,1.0002126309314059,33.03009247460042
6.052586496,1.0001434897227368,32.86094782096063
6.054872576,1.0000652322212187,32.69279406743561
6.057159168,0.9999827899330195,32.525739285285354
6.05944576,0.9999014232860634,32.35980541462799
6.06173184,0.999825998665475,32.19493113395228
6.064018432,0.99976161658215,32.031014163524496
6.066304512,0.9997120828429951,31.86785361002481
6.068591104,0.999680610309648,31.70520519213965
6.070877184,0.9996694382131005,31.54282257577871
6.073163776,0.9996789300252609,31.380352101390358
6.075450368,0.9997087632249493,31.217566526479047
6.077736448,0.9997570323123616,31.054103275960177
6.08002304,0.9998206845559948,30.889787771699652
6.08230912,0.99989573594168,30.724397014729995
6.084595712,0.9999774112168511,30.557785376413165
6.086881792,1.0000606495828215,30.389921638071957
6.089168384,1.000140209435443,30.22079327035754
6.091454464,1.0002110427121462,30.050511964520215
6.093741056,1.0002685907254918,29.879216246307795
6.096027648,1.000309381638092,29.707146408976104
6.098313728,1.0003306840272836,29.534543945282078
6.10060032,1.0003312395726613,29.361699091974128
6.1028864,1.0003107859474267,29.188939629325063
6.105172992,1.0002709195781287,29.016496734555414
6.107459072,1.0002137917801237,28.844743491153526
6.109745664,1.00014320142986,28.67379425408838
6.112032256,1.0000633955137337,28.503866045817553
6.114318336,0.9999795841681012,28.33507019589858
6.116604928,0.9998969546525895,28.167384156557812
6.118891008,0.9998206963165224,28.000781280758883
6.1211776,0.999755622473582,27.83514567662118
6.12346368,0.9997059353251899,27.670258354489924
6.125750272,0.9996747406571769,27.50587355334567
6.128036352,0.9996640169992805,27.341728557610914
6.130322944,0.9996743884315609,27.17751695805043
6.132609536,0.9997054365417404,27.012943970535506
6.134895616,0.999755106886801,26.847673839093098
6.137182208,0.999820192816731,26.681511775477585
6.139468288,0.9998968089480051,26.514262450991517
6.14175488,0.9999799760520344,26.345765967244077
6.14404096,1.0000645493493983,26.175975118281183
6.146327552,1.0001451579772067,26.00490471316356
6.148614144,1.000216685333949,25.83267440546219
6.150900224,1.0002747733559199,25.65941461904859
6.153186816,1.0003154886515695,25.48533858911683
6.155472896,1.0003365312483556,25.310764110020944
6.157759488,1.0003363655977593,25.135932052476118
6.160045568,1.0003149917611662,24.96118854938564
6.16233216,1.0002737665986017,24.786796739470336
6.16461824,1.0002153148965829,24.613079899585248
6.166904832,1.000143099927925,24.440197117363923
6.169191424,1.0000618613011838,24.26834360401776
6.171477504,0.9999766507906662,24.097621027788104
6.173764096,0.9998927607186816,23.928042049123434
6.176050176,0.9998155643762499,23.759557455143113
6.178336768,0.9997498825261212,23.592022089329866
6.180622848,0.9996999642551144,23.42524007486737
6.18290944,0.9996688232434863,23.25898654306057
6.18519552,0.9996586269170661,23.092935986817345
6.187482112,0.9996698528225871,22.926806907305377
6.189768704,0.9997020106349188,22.76029280390232
6.192054784,0.9997529861928642,22.593067961617066
6.194341376,0.9998195401413851,22.424935201095998
6.196627456,0.9998976626162158,22.255662655177787
6.198914048,0.9999823183936003,22.08512745672424
6.201200128,1.0000682258429312,21.913283277698962
6.20348672,1.000149903893462,21.740123553456357
6.205773312,1.0002222972006805,21.565764107829132
6.208059392,1.0002808076269294,21.390368627751894
6.210345984,1.000321695203684,21.21418191533995
6.212632064,1.0003424062231168,21.037449749027743
6.214918656,1.0003415323801825,20.860481125779014
6.217204736,1.0003192790515005,20.68358774853426
6.219491328,1.0002767807426476,20.50707832171365
6.221777408,1.0002168162242053,20.331222458399512
6.224064,1.000143183509511,20.156261925460907
6.226350592,1.00006040262455,19.98232345524193
6.228636672,0.9999737406472934,19.80953925366516
6.230923264,0.9998886626031348,19.63788838881186
6.233209344,0.9998104834863581,19.46736956535676
6.235495936,0.9997441437556076,19.29780990870556
6.237782016,0.999693938801702,19.128979286191548
6.240068608,0.9996628419208031,18.96068461764595
6.2423552,0.9996530018238446,18.792578438276585
6.24464128,0.9996650977707743,18.624384144812772
6.246927872,0.9996983207446074,18.455765156045
6.249213952,0.9997505437698027,18.286448497874673
6.251500544,0.9998186418783188,18.116161689991234
6.253786624,0.9998981869328432,17.94472193466233
6.256073216,0.9999843780024306,17.771981558472444
6.258359296,1.000071591871221,17.59792876532217
6.260645888,1.0001544618403524,17.422525376563186
6.26293248,1.0002277746924662,17.245905568437006
6.26521856,1.000286762718147,17.06821812414552
6.267505152,1.0003278015745138,16.88973588089712
6.269791232,1.0003481951199131,16.710715471247195
6.272077824,1.0003469051426457,16.531430378338218
6.274363904,1.0003236250076109,16.352271584324306
6.276650496,1.000279956327021,16.173472303437666
6.278937088,1.0002187352419154,15.995350625166308
6.281223168,1.0001435507955136,15.818117634307056
6.28350976,1.0000592603041745,15.64193945047282
6.28579584,0.9999712096562735,15.466927862628205
6.288082432,0.9998848664953489,15.293086496578983
6.290368512,0.9998056582860083,15.120322632825744
6.292655104,0.9997386415898202,14.948569207255725
6.294941184,0.9996879684414737,14.77756276735489
6.297227776,0.9996570219708149,14.607037305321738
6.299514368,0.9996476070981903,14.436721440542392
6.301800448,0.9996604525118333,14.266311295561833
6.30408704,0.9996946261069336,14.095446454941284
6.30637312,0.9997481591793878,13.923863596913739
6.308659712,0.9998176591657699,13.75128199797991
6.310945792,0.9998988060990548,13.577533421648345
6.313232384,0.9999864237771581,13.402452778671393
6.315518464,1.0000750964232135,13.225997918840012
6.317805056,1.0001591189242103,13.048184657254637
6.320091648,1.000233131344362,12.869157571850891
6.322377728,1.0002927992196105,12.689030478360674
6.32466432,1.0003339952186743,12.508115512582487
6.3269504,1.0003542643606465,12.326634296822863
6.329236992,1.0003523897703213,12.144905888830543
6.331523072,1.000328277462252,11.96327488285134
6.333809664,1.0002834519889006,11.782033287229018
6.336096256,1.0002208122654521,11.601468694739026
6.338382336,1.0001441901863577,11.421808890527725
6.340668928,1.0000584263677503,11.243222045989524
6.342955008,0.9999688808992186,11.065829362904772
6.3452416,0.9998812262746213,10.889603571754815
6.34752768,0.9998009078801242,10.714505747709353
6.349814272,0.9997330275656503,10.540373395232896
6.352100352,0.9996819780005368,10.366985016012126
6.354386944,0.9996509335940906,10.19412386764518
6.356673536,0.9996417641110573,10.021451140030427
6.358959616,0.9996552882194188,9.848637878363117
6.361246208,0.9996904534686535,9.67537383753224
6.363532288,0.999745238165225,9.50136586045957
6.36581888,0.9998161590423752,9.326356360011003
6.36810496,0.9998987781827713,9.150133695167616
6.370391552,0.9999879050219452,8.972543168999831
6.372678144,1.0000779516394813,8.793556413267602
6.374964224,1.0001631768666617,8.613216666936953
6.377250816,1.0002382839897475,8.431597898770663
6.379536896,1.0002984503816572,8.248891916220499
6.381823488,1.0003400325416691,8.065342386208014
6.384109568,1.0003602367973798,7.881240650521145
6.38639616,1.0003578919638985,7.696903240131463
6.38868224,1.0003329571113244,7.51267195138827
6.390968832,1.000287123296712,7.328811544139938
6.393255424,1.0002231487103226,7.1456643129087425
6.395541504,1.0001450626465396,6.963418678198986
6.397828096,1.0000577740614753,6.7822766551241465
6.400114176,0.9999667638773084,6.602303683155352
6.402400768,0.9998777694813206,6.423554212208402
6.404686848,0.999796358718821,6.245909625051778
6.40697344,0.9997276733910699,6.069269613056304
6.409260032,0.9996761177363936,5.893381415522934
6.411546112,0.9996448829078699,5.717989280437901
6.413832704,0.9996359907936386,5.542788108744678
6.416118784,0.9996500606672765,5.367454664064089
6.418405376,0.999686244072253,5.191639889997425
6.420691456,0.9997421888469576,5.015056614137913
6.422978048,0.9998144796826558,4.837422876292904
6.425264128,0.9998985600658685,4.658574850820062
6.42755072,0.9999892403082413,4.478335707138986
6.429837312,1.0000806319599587,4.296689925203401
6.432123392,1.0001671527690001,4.113618982071898
6.434409984,1.0002433098521317,3.929269240304098
6.436696064,1.0003042213104778,3.74382231443486
6.438982656,1.0003462202958269,3.5575122208002337
6.441268736,1.0003664239559067,3.3706294039257214
6.443555328,1.0003636131776283,3.1835229324584535
6.44584192,1.000338010964915,2.996509388569055
6.448128,1.000291238294055,2.8098819517556097
6.450414592,1.0002260162525747,2.623978390900941
6.452700672,1.000146494027914,2.4389974368638114
6.454987264,1.000057703955226,2.255103522744549
6.457273344,0.999965226859506,2.0724475164921365
6.459559936,0.9998747260300664,1.8909709315336454
6.461846016,0.9997922454401447,1.7106367622260636
6.464132608,0.9997225972293312,1.5313081356947809
6.4664192,0.9996704654657508,1.3527543146304173
6.46870528,0.9996390155518625,1.1746917067895468
6.470991872,0.9996302718417934,0.9968010431089833
6.473277952,0.9996447819846361,0.8187758405717029
6.475564544,0.9996817183752259,0.6402467517945806
6.477850624,0.9997388567261888,0.46092751927707565
6.480137216,0.9998124894015326,0.2805553765786405
6.482423296,0.9998980164752396,0.09891750615089934
6.484709888,0.9999901696634987,-0.08410287719205839
6.48699648,1.0000831114840216,-0.26860626451445024
6.48928256,1.000170948701466,-0.4545445628381572
6.491569152,1.0002482368231866,-0.6417754062039893
6.493855232,1.0003099100697994,-0.8301310633833126
6.496141824,1.000352268009834,-1.0193591331027063
6.498427904,1.0003726033493294,-1.2091515596304263
6.500714496,1.0003695660415182,-1.399198861132181
6.503001088,1.0003433900079,-1.589166825165292
6.505287168,1.0002955376872882,-1.77871296594281
6.50757376,1.0002290915172378,-1.9675449004344217
6.50985984,1.00014824641907,-2.1554403750798317
6.512146432,1.0000579989011094,-2.3421990252693847
6.514432512,0.9999638869327048,-2.5277590762320763
6.516719104,0.9998721183177308,-2.712087059856738
6.519005184,0.999788274222022,-2.895253736192091
6.521291776,0.9997176963618949,-3.077434100477752
6.523578368,0.9996647244878873,-3.258831998592945
6.525864448,0.9996329237805928,-3.4397194647074074
6.52815104,0.9996242226084611,-3.620450896447482
6.53043712,0.9996392478031636,-3.8013218661235353
6.532723712,0.9996769341839092,-3.9827046711804184
6.535009792,0.9997350737046038,-4.164900543232012
6.537296384,0.9998100401437539,-4.348172849375374
6.539582976,0.9998969686407219,-4.532755690476395
6.541869056,0.9999905330303742,-4.718735736224636
6.544155648,1.0000850161812906,-4.906207343021955
6.546441728,1.000174305556124,-5.095153484296004
6.54872832,1.0002526988447218,-5.285409260785878
6.5510144,1.0003153526553432,-5.476812847019351
6.553300992,1.0003582638306567,-5.669125036683103
6.555587072,1.0003788164074054,-5.862012649571554
6.557873664,1.0003757161538194,-6.055156793679563
6.560160256,1.0003489624123472,-6.248203603303525
6.562446336,1.0003002207128933,-6.4408355521594105
6.564732928,1.000232653277174,-6.632740008514337
6.567019008,1.0001504154718874,-6.82371048106691
6.5693056,1.0000586532037123,-7.013545696979348
6.57159168,0.999963022272954,-7.20212918744372
6.573878272,0.9998697601951075,-7.3894758892867936
6.576164864,0.9997846328073063,-7.575675858427168
6.578450944,0.999712885335809,-7.76083976873136
6.580737536,0.9996592986568367,-7.945218925130203
6.583023616,0.9996269244185796,-8.129117216284259
6.585310208,0.9996180738408874,-8.31282585682657
6.587596288,0.9996333812568297,-8.496705433608573
6.58988288,0.9996717194424316,-8.681080314416226
6.59216896,0.9997307744095565,-8.866299838515795
6.594455552,0.9998071368808155,-9.052617556735083
6.596742144,0.9998955355132266,-9.24027186754374
6.599028224,0.9999906375061268,-9.429359867255844
6.601314816,1.0000865200364812,-9.61997911001281
6.603600896,1.0001772065714265,-9.812065283515489
6.605887488,1.000256896810013,-10.005502306406578
6.608173568,1.0003206299362892,-10.200126519641247
6.61046016,1.000364230019492,-10.39565691980239
6.612746752,1.0003850616343424,-10.591788381270918
6.615032832,1.0003818484883218,-10.788156347152063
6.617319424,1.0003546899049882,-10.98445323970569
6.619605504,1.0003052130736412,-11.180325407353145
6.621892096,1.0002364770809455,-11.375486517910064
6.624178176,1.0001530074430802,-11.569668873620852
6.626464768,1.0000596695349246,-11.762712204560636
6.628750848,0.9999626608595709,-11.954493266727296
6.63103744,0.9998678552373831,-12.145032529758968
6.633324032,0.9997813082466357,-12.334376046480697
6.635610112,0.9997082951620713,-12.522707443589828
6.637896704,0.9996537745773811,-12.710239091171214
6.640182784,0.9996207997282553,-12.897241286485947
6.642469376,0.9996118121396871,-13.08410244511823
6.644755456,0.9996272774238817,-13.271123888501036
6.647042048,0.999666151762761,-13.458668607052656
6.649328128,0.999726104678681,-13.647051674805002
6.65161472,0.9998035006616792,-13.836568791362643
6.653901312,0.9998933186631154,-14.02740972518445
6.656187392,0.9999900680781009,-14.219776352282887
6.658473984,1.0000875791868935,-14.413629823837196
6.660760064,1.0001797055210762,-14.609023937954747
6.663046656,1.0002607462489885,-14.805803416508837
6.665332736,1.0003255664897939,-15.003761640950758
6.667619328,1.000370061174065,-15.202650343749017
6.66990592,1.0003913056291012,-15.402148539441992
6.672192,1.000388213332857,-15.601924832685798
6.674478592,1.0003607062064264,-15.801606284524306
6.676764672,1.0003105470136506,-16.000896578336725
6.679051264,1.000240868403319,-16.199427647288672
6.681337344,1.0001560297791103,-16.397000515982324
6.683623936,1.000061401545708,-16.593389120464938
6.685910016,0.999962621252805,-16.78853040980696
6.688196608,0.9998663180854143,-16.98240524165079
6.6904832,0.9997782603418315,-17.175061629125373
6.69276928,0.9997040339260074,-17.366679042167814
6.695055872,0.9996484102546033,-17.557503808233477
6.697341952,0.9996148002568892,-17.747804713270504
6.699628544,0.9996054487510512,-17.937940842351335
6.701914624,0.9996208682073336,-18.12824795712046
6.704201216,0.9996602834197872,-18.319074725917595
6.706487808,0.9997210889391778,-18.510776385225384
6.708773888,0.9997995030367678,-18.70361367323692
6.71106048,0.9998907753777088,-18.89781439365893
6.71334656,0.9999890099653194,-19.09353618901697
6.715633152,1.0000880630085747,-19.29081137879088
6.717919232,1.000181886366578,-19.48961933079958
6.720205824,1.00026436019247,-19.689862383048958
6.722491904,1.0003304364233658,-19.891300076342183
6.724778496,1.000375910452542,-20.093708308411053
6.727065088,1.0003978463021461,-20.296707556917557
6.729351168,1.000394937592139,-20.500038858410328
6.73163776,1.000367356122122,-20.703263192561614
6.73392384,1.0003165761315476,-20.90607675912459
6.736210432,1.0002460697890239,-21.108150532831225
6.738496512,1.000160021381299,-21.309241019005047
6.740783104,1.0000637898705609,-21.509150323379366
6.743069696,0.9999635463675236,-21.707772203710526
6.745355776,0.9998655739372283,-21.90513391264063
6.747642368,0.9997758862084146,-22.10125488768818
6.749928448,0.9997002845782578,-22.296317394667486
6.75221504,0.9996434209078982,-22.49055713710719
6.75450112,0.999608942311472,-22.684290958784157
6.756787712,0.9995989906849901,-22.877837806948307
6.759073792,0.9996144405599484,-23.071560791368857
6.761360384,0.9996540617967286,-23.265798215125567
6.763646976,0.9997155599651464,-23.4609438048498
6.765933056,0.999795043995588,-23.657239609882566
6.768219648,0.9998876365909994,-23.854921637426436
6.770505728,0.9999873010160097,-24.05413177899273
6.77279232,1.0000881338526337,-24.254937441405573
6.7750784,1.0001834490650647,-24.457309813275742
6.777364992,1.0002676090508484,-24.661111554057506
6.779651584,1.000335042683756,-24.86617367615523
6.781937664,1.000381627622357,-25.072192229069508
6.784224256,1.0004043739222013,-25.278877659315988
6.786510336,1.0004019262233979,-25.485854851139017
6.788796928,1.000374242904557,-25.692760321786853
6.791083008,1.0003230934089073,-25.8992364717513
6.7933696,1.0002517720828434,-26.104989002873204
6.79565568,1.0001644829735643,-26.309734712759862
6.797942272,1.0000669026578788,-26.513302860202437
6.800228864,0.9999651209238072,-26.715577358403735
6.802514944,0.9998653686311638,-26.916524021024323
6.804801536,0.9997741304945079,-27.116230196288925
6.807087616,0.9996968840819771,-27.31487964095196
6.809374208,0.9996387388963439,-27.512694976590183
6.811660288,0.9996031848955154,-27.709947191383417
6.81394688,0.9995926465361996,-27.907037528597222
6.81623296,0.9996077136984598,-28.104310223836137
6.818519552,0.9996475669576501,-28.302108534657528
6.820806144,0.9997095108568176,-28.50079839609106
6.823092224,0.9997899675661602,-28.700645849862966
6.825378816,0.9998837854264602,-28.90191889695665
6.827664896,0.9999850225222041,-29.10474496278282
6.829951488,1.0000875062878385,-29.309194304008972
6.832237568,1.000184693083672,-29.515233346757203
6.83452416,1.0002704407411411,-29.72273033465686
6.836810752,1.0003394380278583,-29.931514664619677
6.839096832,1.000387337099316,-30.141302128827657
6.841383424,1.0004110369478478,-30.351752377831723
6.843669504,1.0004090217544508,-30.56250895971102
6.845956096,1.0003815583728903,-30.773210449439123
6.848242176,1.0003300759098461,-30.983495763668433
6.850528768,1.0002580786775677,-31.193042996118468
6.852814848,1.000169800339552,-31.401570669632132
6.85510144,1.0000707647615446,-31.608913884453475
6.857388032,0.9999672796440088,-31.81493386102104
6.859674112,0.999865909494145,-32.01962906700029
6.861960704,0.9997727567673506,-32.223065730907045
6.864246784,0.9996938215493247,-32.42540254212286
6.866533376,0.9996341387904727,-32.62688706388811
6.868819456,0.9995974357513323,-32.82781759679348
6.871106048,0.9995860276652955,-33.028565274735705
6.87339264,0.9996006390337928,-33.22947681181065
6.87567872,0.9996404423163513,-33.430923447259936
6.877965312,0.9997029015631732,-33.63325128439654
6.880251392,0.9997842453023307,-33.83679335282267
6.882537984,0.999879200567377,-34.04173266484546
6.884824064,0.9999819991567992,-34.24826528034111
6.887110656,1.0000861720844112,-34.45648076838743
6.889396736,1.0001851989716548,-34.66626962949691
6.891683328,1.000272777112869,-34.877559956417436
6.89396992,1.0003433847319276,-35.09017821105905
6.896256,1.0003926864931212,-35.303801370039075
6.898542592,1.000417641501051,-35.51812116878964
6.900828672,1.0004164334610612,-35.73277835628284
6.903115264,1.0003892021580976,-35.94736810532364
6.905401344,1.000337748701789,-36.16157208417363
6.907687936,1.0002649405244266,-36.37502171922187
6.909974528,1.0001757667026765,-36.58745976617269
6.912260608,1.0000754449818172,-36.798692813312506
6.9145472,0.9999703137169345,-37.00858342527618
6.91683328,0.9998670724581333,-37.21712580873071
6.919119872,0.9997720893688579,-37.4243961004077
