freq,mag,phase
6.0,0.9999864808528329,55.171186475227614
6.008,0.9999863241911032,54.97199983060159
6.016,0.9999861646270205,54.77271230305795
6.024,0.9999860022806675,54.573324057592785
6.032,0.9999858372707847,54.37383526051266
6.04,0.9999856697147742,54.174246079436266
6.048,0.9999854997287019,53.974556683295994
6.056,0.9999853274273023,53.77476724233954
6.064,0.9999851529239814,53.57487792813145
6.072,0.9999849763308208,53.37488891355462
6.08,0.9999847977585812,53.17480037281173
6.088,0.999984617316706,52.97461248142678
6.096,0.9999844351133248,52.77432541624641
6.104,0.9999842512552587,52.573939355441304
6.112,0.999984065848022,52.37345447850753
6.12,0.9999838789958276,52.172870966267816
6.128,0.9999836908015906,51.972189000872824
6.136,0.9999835013669318,51.771408765802406
6.144,0.9999833107921825,51.57053044586673
6.152,0.9999831191763879,51.36955422720753
6.16,0.9999829266173121,51.16848029729912
6.168,0.999982733211441,50.96730884494954
6.176,0.9999825390539874,50.76604006030159
6.184,0.9999823442388942,50.56467413483383
6.192,0.9999821488588413,50.363211261361535
6.2,0.9999819530052466,50.16165163403766
6.208,0.9999817567682715,49.9599954483537
6.216,0.9999815602368272,49.758242901140555
6.224,0.9999813634985756,49.55639419056938
6.232,0.9999811666399377,49.354449516152286
6.24,0.9999809697460946,49.15240907874316
6.248,0.9999807729009949,48.950273080538324
6.256,0.9999805761873563,48.7480417250772
6.264,0.9999803796866734,48.545715217242915
6.272,0.9999801834792209,48.34329376326292
6.28,0.9999799876440572,48.1407775707095
6.288,0.9999797922590316,47.9381668485003
6.296,0.9999795974007865,47.73546180689873
6.304,0.9999794031447646,47.53266265751447
6.312,0.9999792095652127,47.3297696133038
6.32,0.9999790167351854,47.12678288856989
6.328,0.9999788247265524,46.9237026989632
6.336,0.999978633610002,46.72052926148167
6.344,0.9999784434550465,46.51726279447094
6.352,0.9999782543300267,46.31390351762454
6.36,0.9999780663021188,46.11045165198397
6.368,0.9999778794373372,45.90690741993891
6.376,0.9999776938005407,45.70327104522708
6.384,0.9999775094554381,45.49954275293442
6.392,0.9999773264645935,45.29572276949494
6.4,0.9999771448894305,45.091811322690646
6.408,0.9999769647902388,44.88780864165151
6.416,0.9999767862261781,44.68371495685517
6.424,0.999976609255286,44.47953050012679
6.432,0.99997643393448,44.27525550463877
6.44,0.9999762603195657,44.07089020491051
6.448,0.9999760884652416,43.866434836807976
6.456,0.9999759184251032,43.66188963754337
6.464,0.9999757502516519,43.457254845674676
6.472,0.9999755839962962,43.25253070110519
6.48,0.999975419709361,43.047717445082974
6.4879999999999995,0.9999752574400915,42.84281532020036
6.496,0.9999750972366596,42.63782457039317
6.504,0.9999749391461693,42.43274544094035
6.5120000000000005,0.9999747832146618,42.22757817846288
6.52,0.9999746294871229,42.02232303092342
6.5280000000000005,0.9999744780074881,41.81698024762519
6.536,0.9999743288186476,41.61155007921135
6.5440000000000005,0.9999741819624528,41.40603277766396
6.552,0.9999740374797241,41.200428596303226
6.5600000000000005,0.9999738954102533,40.994737789786285
6.568,0.9999737557928119,40.788960614106415
6.5760000000000005,0.999973618665158,40.58309732659173
6.584,0.999973484064039,40.37714818590434
6.592,0.9999733520252012,40.171113452038874
6.6,0.9999732225833944,39.9649933863215
6.608,0.9999730957723774,39.75878825140859
6.616,0.9999729716249256,39.55249831128539
6.624,0.9999728501728362,39.34612383126466
6.632,0.9999727314469349,39.13966507798534
6.64,0.999972615477082,38.93312231941101
6.648,0.999972502292179,38.72649582482847
6.656,0.9999723919201738,38.51978586484609
6.664,0.9999722843880694,38.312992711392376
6.672,0.9999721797219272,38.10611663771415
6.68,0.9999720779468763,37.89915791837501
6.688,0.9999719790871178,37.69211682925344
6.696,0.9999718831659323,37.484993647541195
6.704,0.9999717902056869,37.27778865174129
6.712,0.9999717002278401,37.07050212166627
6.72,0.9999716132529496,36.863134338436154
6.728,0.9999715293006783,36.655685584476515
6.736,0.999971448389802,36.44815614351645
6.744,0.9999713705382137,36.24054630058645
6.752,0.9999712957629325,36.032856342016316
6.76,0.9999712240801095,35.82508655543297
6.768,0.9999711555050342,35.61723722975821
6.776,0.9999710900521412,35.40930865520646
6.784,0.9999710277350173,35.20130112328238
6.792,0.9999709685664083,34.993214926778556
6.8,0.9999709125582252,34.78505035977308
6.808,0.9999708597215512,34.576807717626956
6.816,0.9999708100666493,34.368487296981726
6.824,0.9999707636029682,34.160089395756785
6.832,0.9999707203391489,33.95161431314679
6.84,0.9999706802830328,33.74306234961902
6.848,0.999970643441668,33.534433806910535
6.856,0.9999706098213154,33.32572898802555
6.864,0.999970579427457,33.116948197232475
6.872,0.9999705522648018,32.908091740061145
6.88,0.9999705283372933,32.69915992329976
6.888,0.9999705076481169,32.49015305499207
6.896,0.9999704901997053,32.28107144443422
6.904,0.9999704759937476,32.07191540217168
6.912,0.9999704650311942,31.862685239996225
6.92,0.9999704573122665,31.653381270942607
6.928,0.9999704528364608,31.444003809285395
6.936,0.9999704516025582,31.234553170535747
6.944,0.9999704536086294,31.025029671437935
6.952,0.9999704588520443,30.81543362996614
6.96,0.9999704673294767,30.605765365320877
6.968,0.9999704790369123,30.396025197925574
6.976,0.9999704939696569,30.18621344942301
6.984,0.9999705121223418,29.976330442671767
6.992,0.9999705334889326,29.766376501742567
7.0,0.9999705580627349,29.556351951914596
7.008,0.9999705858364025,29.346257119671762
7.016,0.9999706168019447,29.13609233269891
7.024,0.9999706509507322,28.92585791987798
7.032,0.9999706882735062,28.715554211284143
7.04,0.9999707287603841,28.505181538181805
7.048,0.9999707724008676,28.294740233020683
7.056,0.9999708191838496,28.084230629431758
7.064,0.999970869097621,27.873653062223116
7.072,0.9999709221298791,27.663007867375903
7.08,0.9999709782677346,27.452295382040063
7.088,0.9999710374977173,27.241515944530132
7.096,0.9999710998057858,27.03066989432092
7.104,0.999971165177333,26.819757572043223
7.112,0.9999712335971936,26.608779319479364
7.12,0.9999713050496527,26.397735479558804
7.128,0.9999713795184516,26.186626396353596
7.136,0.9999714569867958,25.975452415073924
7.144,0.9999715374373623,25.76421388206342
7.152,0.9999716208523065,25.552911144794596
7.16,0.99997170721327,25.341544551864118
7.168,0.9999717965013875,25.13011445298806
7.176,0.9999718886972948,24.918621198997126
7.184,0.9999719837811354,24.707065141831816
7.192,0.9999720817325675,24.495446634537537
7.2,0.9999721825307728,24.283766031259617
7.208,0.9999722861544622,24.072023687238406
7.216,0.999972392581884,23.860219958804162
7.224,0.999972501790831,23.64835520337198
7.232,0.9999726137586478,23.436429779436686
7.24,0.9999727284622377,23.22444404656765
7.248,0.9999728458780714,23.012398365403495
7.256,0.9999729659821922,22.8002930976469
7.264,0.9999730887502248,22.588128606059204
7.272,0.9999732141573823,22.37590525445507
7.28,0.9999733421784731,22.163623407697017
7.288,0.9999734727879088,21.95128343168998
7.296,0.9999736059597102,21.73888569337581
7.304,0.9999737416675164,21.52643056072762
7.312,0.9999738798845906,21.31391840274424
7.32,0.9999740205838284,21.101349589444524
7.328,0.9999741637377634,20.88872449186164
7.336,0.9999743093185764,20.67604348203733
7.344,0.9999744572981015,20.46330693301606
7.352,0.9999746076478333,20.250515218839187
7.36,0.9999747603389345,20.037668714539084
7.368,0.9999749153422428,19.824767796133145
7.376,0.9999750726282783,19.611812840617812
7.384,0.9999752321672507,19.398804225962564
7.392,0.999975393929066,19.185742331103764
7.4,0.9999755578833336,18.972627535938596
7.4079999999999995,0.9999757239993745,18.759460221318857
7.416,0.9999758922462274,18.546240769044644
7.4239999999999995,0.9999760625926557,18.332969561858356
7.432,0.9999762350071554,18.119646983437963
7.4399999999999995,0.9999764094579613,17.906273418391123
7.448,0.9999765859130546,17.692849252248294
7.4559999999999995,0.9999767643401698,17.47937487145674
7.464,0.9999769447068017,17.265850663373655
7.4719999999999995,0.9999771269802126,17.052277016259932
7.48,0.9999773111274383,16.838654319273296
7.4879999999999995,0.9999774971152968,16.624982962461992
7.496,0.9999776849103935,16.411263336757795
7.504,0.9999778744791294,16.197495833969604
7.5120000000000005,0.9999780657877071,15.98368084677639
7.52,0.9999782588021381,15.769818768720704
7.5280000000000005,0.9999784534882501,15.555909994201505
7.536,0.9999786498116927,15.341954918467662
7.5440000000000005,0.9999788477379452,15.127953937610604
7.552,0.9999790472323231,14.913907448557763
7.5600000000000005,0.9999792482599847,14.699815849065216
7.568,0.9999794507859383,14.485679537710947
7.5760000000000005,0.999979654775048,14.271498913887442
7.584,0.9999798601920419,14.0572743777949
7.5920000000000005,0.9999800670015168,13.843006330433699
7.6,0.9999802751679467,13.628695173597562
7.6080000000000005,0.9999804846556885,13.414341309865906
7.616,0.9999806954289887,13.199945142596968
7.6240000000000006,0.99998090745199,12.985507075920061
7.632,0.9999811206887377,12.771027514728601
7.640000000000001,0.9999813351031867,12.556506864672318
7.648,0.9999815506592072,12.341945532150179
7.656000000000001,0.999981767320592,12.127343924302538
7.664,0.9999819850510625,11.912702449003964
7.672,0.9999822038142752,11.698021514855364
7.68,0.9999824235738276,11.483301531176613
7.688,0.999982644293265,11.268542907998816
7.696,0.9999828659360875,11.053746056056642
7.704,0.9999830884657545,10.838911386780655
7.712,0.9999833118456923,10.624039312289499
7.72,0.9999835360393006,10.409130245382197
7.728,0.9999837610099572,10.194184599530278
7.736,0.9999839867210252,9.979202788869943
7.744,0.9999842131358593,9.764185228194188
7.752,0.9999844402178109,9.549132332944858
7.76,0.9999846679302352,9.33404451920473
7.768,0.9999848962364963,9.118922203689475
7.776,0.9999851250999745,8.903765803739672
7.784,0.9999853544840694,8.688575737312753
7.792,0.9999855843522101,8.47335242297489
7.8,0.999985814667857,8.258096279892872
7.808,0.99998604539451,8.042807727825984
7.816,0.9999862764957135,7.827487187117801
7.824,0.9999865079350617,7.61213507868796
7.832,0.9999867396762061,7.396751824023923
7.84,0.9999869716828585,7.181337845172716
7.848,0.999987203918799,6.965893564732585
7.856,0.9999874363478805,6.750419405844679
7.864,0.9999876689340338,6.534915792184676
7.872,0.9999879016412745,6.319383147954386
7.88,0.9999881344337072,6.103821897873319
7.888,0.9999883672755314,5.888232467170232
7.896,0.9999886001310475,5.672615281574645
7.904,0.9999888329646605,5.456970767308333
7.912,0.9999890657408871,5.241299351076778
7.92,0.9999892984243601,5.025601460060609
7.928,0.9999895309798337,4.8098775219070085
7.936,0.9999897633721881,4.594127964721092
7.944,0.9999899955664364,4.378353217057261
7.952,0.9999902275277276,4.162553707910538
7.96,0.9999904592213525,3.9467298667078676
7.968,0.9999906906127495,3.7308821232993923
7.976,0.9999909216675082,3.5150109079497107
7.984,0.9999911523513748,3.299116651329119
7.992,0.9999913826302574,3.0831997845048016
8.0,0.9999916124702307,2.8672607389320257
8.008,0.9999918418375399,2.6512999464453295
8.016,0.9999920706986061,2.435317839249538
8.024000000000001,0.9999922990200318,2.219314849911095
8.032,0.999992526768604,2.0032914113490463
8.04,0.9999927539112989,1.787247956826019
8.048,0.9999929804152884,1.5711849199393646
8.056000000000001,0.9999932062479415,1.3551027346123006
8.064,0.9999934313768317,1.139001835084822
8.072,0.9999936557697392,0.9228826559046036
8.08,0.999993879394657,0.7067456319180777
8.088000000000001,0.9999941022197933,0.4905911982614797
8.096,0.9999943242135773,0.274419790351702
8.104,0.9999945453446621,0.05823184387711553
8.112,0.999994765581931,-0.15797220521142993
8.120000000000001,0.9999949848944989,-0.37419192070961227
8.128,0.999995203251717,-0.5904268661688735
8.136,0.999995420623179,-0.806676604905644
8.144,0.9999956369787225,-1.0229407000104183
8.152000000000001,0.9999958522884334,-1.2392187143568214
8.16,0.9999960665226506,-1.4555102106109004
8.168,0.999996279651969,-1.6718147512404227
8.176,0.9999964916472437,-1.8881318985239883
8.184000000000001,0.9999967024795928,-2.1044612145601733
8.192,0.9999969121204029,-2.320802261276859
8.2,0.9999971205413295,-2.5371546004405867
8.208,0.9999973277143043,-2.7535177936657265
8.216000000000001,0.9999975336115359,-2.9698914024236553
8.224,0.9999977382055141,-3.186274988052152
8.232,0.9999979414690132,-3.4026681117647826
8.24,0.9999981433750954,-3.6190703346601096
8.248000000000001,0.9999983438971146,-3.8354812177309294
8.256,0.9999985430087175,-4.051900321873684
8.264,0.9999987406838499,-4.268327207897892
8.272,0.9999989368967566,-4.484761436535416
8.280000000000001,0.999999131621987,-4.701202568449691
8.288,0.9999993248343965,-4.917650164245203
8.296,0.9999995165091494,-5.134103784476948
8.304,0.9999997066217232,-5.350562989659697
8.312,0.9999998951479102,-5.56702734027724
8.32,1.0,-5.783496396792112
8.328,0.9999999999999998,-5.999969719654587
8.336,0.9999999999999998,-6.2164468693124695
8.344,0.9999999999999999,-6.432927406220095
8.352,1.0,-6.649410890848133
8.36,0.9999999999999998,-6.865896883692584
8.368,1.0,-7.082384945284593
8.376,0.9999999999999999,-7.298874636199481
8.384,0.9999999999999999,-7.515365517066506
8.392,1.0,-7.731857148577947
8.4,1.0000000000000002,-7.948349091498836
8.408,1.0,-8.164840906676051
8.416,1.0,-8.38133215504808
8.424,1.0,-8.59782239765405
8.432,1.0,-8.814311195643558
8.44,1.0,-9.030798110285648
8.448,1.0,-9.247282702978657
8.456,1.0,-9.463764535259195
8.464,1.0,-9.680243168811964
8.472,1.0,-9.896718165478765
8.48,1.0,-10.113189087268278
8.488,1.0,-10.32965549636507
8.496,1.0,-10.546116955139375
8.504,0.9999999999999999,-10.762573026156101
8.512,1.0,-10.979023272184568
8.52,0.9999999999999999,-11.19546725620752
8.528,0.9999999999999998,-11.411904541430866
8.536,1.0,-11.628334691292647
8.544,1.0,-11.8447572694728
8.552,1.0,-12.061171839902066
8.56,0.9999999999999999,-12.277577966771773
8.568,1.0,-12.493975214542736
8.576,0.9999999999999999,-12.710363147954967
8.584,0.9999999999999999,-12.926741332036599
8.592,1.0,-13.143109332113573
8.6,1.0,-13.35946671381854
8.608,0.9999999999999999,-13.575813043100528
8.616,1.0,-13.792147886233797
8.624,1.0,-14.008470809827504
8.632,1.0,-14.224781380834541
8.64,0.9999999999999999,-14.441079166561162
8.648,1.0,-14.657363734675794
8.656,0.9999999999999999,-14.873634653218646
8.664,1.0,-15.089891490610487
8.672,0.9999999999999999,-15.30613381566221
8.68,0.9999999999999999,-15.522361197583631
8.688,1.0,-15.738573205992944
8.696,1.0,-15.95476941092556
8.704,1.0,-16.170949382843514
8.712,0.9999999999999999,-16.387112692644216
8.72,1.0,-16.6032589116699
8.728,1.0,-16.81938761171632
8.736,1.0,-17.035498365042123
8.744,1.0,-17.25159074437753
8.752,1.0,-17.4676643229337
8.76,1.0,-17.683718674411345
8.768,0.9999999999999999,-17.899753373010057
8.776,0.9999999999999999,-18.11576799343688
8.784,1.0,-18.33176211091561
8.792,0.9999999999999999,-18.54773530119531
8.8,1.0,-18.76368714055959
8.808,1.0,-18.979617205835055
8.815999999999999,0.9999999999999999,-19.195525074400503
8.824,1.0,-19.41141032419555
8.832,1.0,-19.627272533729386
8.84,1.0,-19.843111282089584
8.847999999999999,0.9999999999999999,-20.058926148950967
8.856,0.9999999999999999,-20.27471671458421
8.864,0.9999999999999999,-20.490482559864443
8.872,1.0,-20.70622326628003
8.879999999999999,0.9999999999999999,-20.921938415941312
8.888,1.0,-21.137627591589066
8.896,1.0,-21.353290376603077
8.904,0.9999999999999999,-21.56892635501077
8.911999999999999,1.0,-21.784535111495817
8.92,1.0,-22.00011623140657
8.928,0.9999999999999999,-22.215669300764453
8.936,0.9999999999999999,-22.431193906272522
8.943999999999999,1.0,-22.64668963532395
8.952,1.0,-22.862156076010326
8.96,1.0,-23.07759281712997
8.968,1.0,-23.292999448196326
8.975999999999999,1.0,-23.508375559446396
8.984,1.0,-23.72372074184886
8.992,1.0,-23.939034587112307
9.0,0.9999999999999999,-24.154316687693484
9.008,1.0,-24.369566636805583
9.016,1.0,-24.584784028426334
9.024000000000001,0.9999999999999999,-24.799968457305972
9.032,1.0,-25.015119518975464
9.04,0.9999999999999998,-25.230236809754643
9.048,1.0,-25.44531992676012
9.056000000000001,0.9999999999999998,-25.660368467913177
9.064,0.9999999999999998,-25.875382031947836
9.072,0.9999999999999999,-26.09036021841886
9.08,1.0,-26.30530262770952
9.088000000000001,1.0,-26.520208861039386
9.096,1.0,-26.735078520472218
9.104,0.9999999999999999,-26.94991120892382
9.112,1.0,-27.16470653016973
9.120000000000001,0.9999999999999999,-27.379464088852778
9.128,1.0,-27.594183490490902
9.136,1.0,-27.80886434148484
9.144,1.0,-28.023506249125646
9.152000000000001,0.9999999999999998,-28.238108821602143
9.16,0.9999999999999999,-28.45267166800855
9.168,0.9999999999999999,-28.66719439835205
9.176,1.0,-28.881676623560153
9.184000000000001,1.0,-29.09611795548797
9.192,0.9999999999999999,-29.31051800692575
9.2,1.0,-29.52487639160621
9.208,1.0,-29.739192724211765
9.216000000000001,1.0,-29.95346662038172
9.224,0.9999999999999999,-30.16769769671955
9.232,0.9999999999999999,-30.381885570800108
9.24,0.9999999999999998,-30.596029861176735
9.248000000000001,1.0,-30.81013018738821
9.256,0.9999999999999999,-31.02418616996591
9.264,0.9999999999999999,-31.238197430440895
9.272,1.0,-31.452163591350793
9.280000000000001,1.0,-31.666084276246593
9.288,1.0,-31.879959109699666
9.296,1.0,-32.093787717308686
9.304,1.0,-32.30756972570623
9.312000000000001,0.9999999999999999,-32.52130476256563
9.32,1.0,-32.73499245660762
9.328,1.0,-32.94863243760713
9.336,0.9999999999999999,-33.162224336399824
9.344,0.9999999999999999,-33.37576778488857
9.352,0.9999999999999999,-33.589262416050246
9.36,1.0,-33.802707863941926
9.368,1.0,-34.01610376370759
9.376,0.9999999999999999,-34.22944975158426
9.384,1.0,-34.442745464908676
9.392,1.0,-34.655990542123256
9.4,0.9999999999999999,-34.869184622782726
9.408,0.9999999999999999,-35.08232734755997
9.416,0.9999999999999999,-35.29541835825253
9.424,1.0,-35.5084572977885
9.432,0.9999999999999999,-35.72144381023283
9.44,1.0,-35.93437754079307
9.448,1.0,-36.14725813582571
9.456,1.0,-36.36008524284181
9.464,1.0,-36.57285851051318
9.472,0.9999999999999999,-36.785577588677896
9.48,0.9999999999999999,-36.998242128346526
9.488,0.9999999999999999,-37.210851781707454
9.496,1.0,-37.423406202132995
9.504,1.0,-37.635905044184646
9.512,0.9999999999999999,-37.84834796361914
9.52,1.0,-38.06073461739363
9.528,1.0,-38.27306466367149
9.536,1.0,-38.48533776182757
9.544,1.0,-38.697553572453806
9.552,0.9999999999999998,-38.90971175736444
9.56,0.9999999999999999,-39.12181197960154
9.568,1.0,-39.33385390343995
9.576,0.9999999999999999,-39.545837194393
9.584,1.0,-39.75776151921717
9.592,1.0,-39.9696265459177
9.6,1.0,-40.181431943753225
9.608,1.0000000000000002,-40.39317738324126
9.616,1.0,-40.60486253616275
9.624,1.0,-40.81648707556742
9.632,1.0,-41.02805067577828
9.64,0.9999999999999999,-41.2395530123968
9.648,0.9999999999999998,-41.4509937623074
9.656,0.9999999999999999,-41.662372603682506
9.664,1.0,-41.8736892159869
9.672,1.0,-42.08494327998267
9.68,0.9999999999999999,-42.296134477733524
9.688,1.0000000000000002,-42.507262492609634
9.696,1.0,-42.7183270092918
9.704,1.0,-42.92932771377619
9.712,1.0,-43.14026429337843
9.72,1.0,-43.35113643673832
9.728,1.0,-43.5619438338237
9.736,0.9999999999999999,-43.77268617593507
9.744,1.0,-43.98336315570948
9.752,1.0,-44.19397446712493
9.76,0.9999999999999999,-44.40451980550419
9.768,0.9999998552357109,-44.614998867519134
9.776,0.9999997099410228,-44.82541135119443
9.784,0.9999995642900015,-45.035756955911786
9.792,0.9999994183097648,-45.24603538241348
9.8,0.9999992720274442,-45.456246332806614
9.808,0.9999991254701803,-45.66638951056647
9.816,0.9999989786651191,-45.876464620540624
9.824,0.9999988316394074,-46.08647136895236
9.832,0.9999986844201886,-46.29640946340447
9.84,0.9999985370345995,-46.506278612882724
9.847999999999999,0.9999983895097649,-46.716078527759514
