freq,mag,phase
6.0,0.9999993811209795,106.30220966175037
6.008,0.9999994545754366,106.19967858870673
6.016,0.9999995255536797,106.09713152460775
6.024,0.9999995941029189,105.99456845267261
6.032,0.9999996602699502,105.89198935614668
6.04,0.9999997241011576,105.78939421830167
6.048,0.9999997856425134,105.68678302243556
6.056,0.9999998449395807,105.5841557518729
6.064,0.9999999020375147,105.48151238996478
6.072,0.9999999569810637,105.378852920089
6.08,1.0,105.27617732565017
6.088,0.9999999999999999,105.1734855900797
6.096,0.9999999999999999,105.07077769683609
6.104,1.0,104.96805362940489
6.112,1.0,104.86531337129881
6.12,0.9999999999999999,104.76255690605794
6.128,0.9999999999999999,104.65978421724965
6.136,1.0,104.5569952884689
6.144,0.9999999999999999,104.45419010333819
6.152,1.0,104.35136864550772
6.16,1.0,104.2485308986555
6.168,1.0,104.14567684648742
6.176,1.0,104.04280647273733
6.184,0.9999999999999999,103.93991976116722
6.192,0.9999999999999999,103.83701669556723
6.2,0.9999999999999999,103.73409725975584
6.208,0.9999999999999999,103.6311614375798
6.216,0.9999999999999999,103.52820921291452
6.224,1.0,103.42524056966379
6.232,1.0,103.32225549176023
6.24,1.0,103.21925396316517
6.248,1.0,103.11623596786883
6.256,0.9999999999999999,103.01320148989036
6.264,1.0,102.91015051327805
6.272,0.9999999999999999,102.80708302210931
6.28,1.0,102.70399900049078
6.288,1.0,102.60089843255852
6.296,1.0,102.497781302478
6.304,1.0,102.39464759444424
6.312,1.0,102.29149729268194
6.32,1.0,102.18833038144547
6.328,1.0,102.0851468450191
6.336,0.9999999999999999,101.981946667717
6.344,0.9999999999999999,101.87872983388336
6.352,0.9999999999999998,101.77549632789251
6.36,1.0,101.67224613414896
6.368,1.0,101.56897923708756
6.376,1.0,101.46569562117355
6.384,1.0,101.36239527090265
6.392,1.0,101.25907817080117
6.4,1.0,101.15574430542613
6.408,1.0,101.0523936593653
6.416,1.0,100.9490262172373
6.424,0.9999999999999999,100.84564196369178
6.432,1.0,100.74224088340935
6.44,1.0,100.63882296110184
6.448,1.0,100.5353881815123
6.456,1.0,100.43193652941505
6.464,1.0,100.32846798961594
6.472,1.0,100.2249825469522
6.48,0.9999999999999999,100.12148018629281
6.4879999999999995,1.0,100.01796089253835
6.496,1.0,99.91442465062116
6.504,0.9999999999999999,99.81087144550555
6.5120000000000005,1.0,99.70730126218771
6.52,1.0,99.60371408569598
6.5280000000000005,1.0,99.50010990109074
6.536,1.0,99.39648869346469
6.5440000000000005,1.0,99.2928504479428
6.552,1.0,99.18919514968252
6.5600000000000005,1.0,99.0855227838737
6.568,0.9999999999999999,98.98183333573891
6.5760000000000005,0.9999999999999999,98.8781267905333
6.584,1.0,98.7744031335449
6.592,0.9999999999999999,98.67066235009445
6.6,1.0,98.56690442553575
6.608,1.0,98.4631293452556
6.616,1.0,98.35933709467393
6.624,0.9999999999999999,98.2555276592439
6.632,1.0,98.1517010244519
6.64,1.0,98.04785717581778
6.648,1.0,97.9439960988948
6.656,0.9999999999999999,97.84011777926986
6.664,1.0,97.73622220256341
6.672,1.0,97.63230935442968
6.68,1.0,97.52837922055672
6.688,0.9999999999999999,97.42443178666645
6.696,1.0,97.3204670385148
6.704,0.9999999999999999,97.21648496189181
6.712,0.9999999999999999,97.11248554262158
6.72,1.0,97.00846876656256
6.728,0.9999999999999999,96.90443461960747
6.736,0.9999999999999999,96.80038308768344
6.744,0.9999999999999999,96.69631415675211
6.752,0.9999999999999999,96.5922278128097
6.76,1.0,96.48812404188708
6.768,0.9999999999999999,96.38400283004988
6.776,0.9999999999999999,96.27986416339859
6.784,0.9999999999999999,96.17570802806854
6.792,1.0,96.07153441023013
6.8,1.0,95.9673432960888
6.808,1.0,95.86313467188515
6.816,1.0,95.75890852389504
6.824,1.0,95.65466483842965
6.832,1.0,95.55040360183558
6.84,0.9999999999999999,95.4461248004949
6.848,1.0,95.34182842082525
6.856,0.9999999999999999,95.23751444927994
6.864,0.9999999999999999,95.133182872348
6.872,0.9999999999999999,95.02883367655429
6.88,1.0,94.92446684845952
6.888,0.9999999999999998,94.82008237466042
6.896,0.9999999999999999,94.71568024178977
6.904,0.9999999999999999,94.61126043651645
6.912,0.9999999999999998,94.5068229455456
6.92,1.0,94.4023677556186
6.928,0.9999999999999999,94.29789485351326
6.936,0.9999999999999999,94.19340422604378
6.944,0.9999999999999999,94.08889586006096
6.952,0.9999999999999999,93.98436974245213
6.96,0.9999999999999999,93.87982586014138
6.968,0.9999999999999999,93.77526420008951
6.976,0.9999999999999999,93.67068474929418
6.984,0.9999999999999999,93.56608749478997
6.992,1.0,93.46147242364846
7.0,1.0,93.35683952297832
7.008,1.0,93.25218877992533
7.016,1.0,93.14752018167252
7.024,1.0,93.04283371544024
7.032,0.9999999999999999,92.93812936848617
7.04,1.0,92.83340712810555
7.048,0.9999999999999999,92.72866698163101
7.056,0.9999999999999999,92.62390891643288
7.064,0.9999999999999999,92.51913291991917
7.072,0.9999999999999999,92.41433897953561
7.08,1.0,92.30952708276578
7.088,1.0,92.2046972171312
7.096,0.9999999999999999,92.09984937019131
7.104,1.0,91.99498352954365
7.112,1.0,91.89009968282384
7.12,0.9999999999999999,91.7851978177058
7.128,1.0,91.68027792190162
7.136,1.0,91.57533998316181
7.144,1.0,91.47038398927528
7.152,0.9999999999999999,91.3654099280694
7.16,1.0,91.26041778741018
7.168,0.9999999999999999,91.15540755520219
7.176,0.9999999999999999,91.0503792193888
7.184,1.0,90.94533276795211
7.192,1.0,90.84026818891307
7.2,0.9999999999999999,90.73518547033157
7.208,0.9999999999999999,90.63008460030653
7.216,0.9999999999999999,90.5249655669759
7.224,1.0,90.41982835851675
7.232,1.0,90.31467296314543
7.24,1.0,90.20949936911751
7.248,1.0,90.10430756472796
7.256,1.0,89.9990975383111
7.264,1.0,89.89386927824084
7.272,1.0,89.78862277293055
7.28,1.0,89.6833580108333
7.288,1.0,89.57807498044181
7.296,1.0,89.4727736702886
7.304,0.9999999999999999,89.36745406894599
7.312,0.9999999999999999,89.26211616502624
7.32,0.9999999999999999,89.15675994718154
7.328,1.0,89.05138540410418
7.336,1.0,88.94599252452649
7.344,0.9999999999999999,88.84058129722098
7.352,1.0,88.73515171100044
7.36,1.0,88.62970375471795
7.368,1.0,88.52423741726693
7.376,1.0000000000000002,88.41875268758129
7.384,0.9999999999999999,88.31324955463539
7.392,1.0,88.20772800744422
7.4,0.9999999999999999,88.10218803506335
7.4079999999999995,1.0,87.99662962658911
7.416,1.0,87.89105277115851
7.4239999999999995,1.0,87.7854574579495
7.432,1.0,87.67984367618084
7.4399999999999995,0.9999999999999999,87.5742114151123
7.448,1.0,87.46856066404462
7.4559999999999995,0.9999999999999999,87.3628914123197
7.464,1.0000000000000002,87.25720364932052
7.4719999999999995,0.9999999999999999,87.15149736447134
7.48,0.9999999999999999,87.04577254723765
7.4879999999999995,1.0,86.9400291871263
7.496,0.9999999999999998,86.83426727368553
7.504,1.0,86.72848679650511
7.5120000000000005,1.0,86.6226877452162
7.52,0.9999999999999999,86.51687010949172
7.5280000000000005,0.9999999999999999,86.4110338790461
7.536,0.9999999999999999,86.30517904363559
7.5440000000000005,0.9999999999999999,86.19930559305811
7.552,1.0,86.09341351715355
7.5600000000000005,1.0,85.98750280580352
7.568,1.0,85.88157344893177
7.5760000000000005,1.0,85.77562543650393
7.584,1.0,85.6696587585278
7.5920000000000005,0.9999999999999999,85.56367340505324
7.6,1.0,85.45766936617237
7.6080000000000005,0.9999999999999999,85.3516466320195
7.616,0.9999999999999999,85.24560519277134
7.6240000000000006,1.0,85.13954503864689
7.632,1.0,85.03346615990765
7.640000000000001,1.0,84.92736854685754
7.648,0.9999999999999999,84.8212521898431
7.656000000000001,0.9999999999999999,84.7151170792534
7.664,0.9999999999999999,84.6089632055203
7.672,0.9999999999999999,84.50279055911821
7.68,1.0,84.39659913056444
7.688,1.0,84.29038891041911
7.696,1.0,84.18415988928523
7.704,0.9999999999999999,84.0779120578087
7.712,0.9999999999999999,83.97164540667855
7.72,1.0,83.86535992662672
7.728,1.0,83.7590556084284
7.736,1.0,83.65273244290186
7.744,1.0,83.54639042090865
7.752,1.0,83.44002953335355
7.76,1.0,83.33364977118474
7.768,0.9999999999999998,83.2272511253937
7.776,1.0,83.12083358701548
7.784,1.0,83.0143971471285
7.792,0.9999999999999999,82.9079417968548
7.8,1.0000000000000002,82.80146752736003
7.808,0.9999999999999999,82.6949743298535
7.816,1.0,82.58846219558815
7.824,1.0,82.4819311158608
7.832,0.9999999999999999,82.37538108201201
7.84,0.9999999999999998,82.26881208542626
7.848,1.0,82.16222411753188
7.856,0.9999999999999998,82.05561716980125
7.864,1.0,81.94899123375072
7.872,1.0,81.84234630094073
7.88,0.9999999999999999,81.73568236297587
7.888,1.0,81.62899941150485
7.896,1.0000000000000002,81.52229743822069
7.904,1.0,81.4155764348606
7.912,1.0,81.30883639320616
7.92,1.0,81.20207730508332
7.928,0.9999999999999999,81.09529916236248
7.936,0.9999999999999999,80.98850195695846
7.944,1.0,80.88168568083067
7.952,1.0,80.77485032598304
7.96,1.0,80.66799588446413
7.968,1.0,80.5611223483672
7.976,1.0,80.45422970983022
7.984,1.0,80.34731796103588
7.992,1.0,80.24038709421174
8.0,1.0,80.1334371016302
8.008,1.0,80.02646797560853
8.016,1.0,79.91947970850899
8.024000000000001,1.0,79.81247229273886
8.032,1.0,79.70544572075045
8.04,1.0,79.59839998504113
8.048,1.0000000000000002,79.49133507815341
8.056000000000001,1.0,79.384250992675
8.064,0.9999999999999999,79.2771477212389
8.072,1.0,79.17002525652332
8.08,0.9999999999999999,79.06288359125172
8.088000000000001,0.9999999999999999,78.95572271819303
8.096,1.0,78.84854263016159
8.104,1.0,78.74134332001711
8.112,1.0,78.63412478066483
8.120000000000001,1.0,78.52688700505554
8.128,0.9999999999999999,78.41962998618564
8.136,0.9999999999999999,78.31235371709707
8.144,1.0,78.2050581908775
8.152000000000001,1.0,78.09774340066026
8.16,0.9999999999999999,77.99040933962453
8.168,1.0,77.8830560009952
8.176,1.0,77.77568337804293
8.184000000000001,1.0,77.66829146408439
8.192,0.9999999999999999,77.56088025248214
8.2,1.0,77.45344973664463
8.208,0.9999999999999999,77.34599991002634
8.216000000000001,0.9999999999999999,77.23853076612781
8.224,0.9999999999999999,77.13104229849566
8.232,0.9999999999999999,77.0235345007226
8.24,0.9999999999999999,76.91600736644749
8.248000000000001,0.9999999999999999,76.80846088935544
8.256,1.0,76.70089506317777
8.264,0.9999999999999999,76.59330988169205
8.272,0.9999999999999999,76.48570533872217
8.280000000000001,1.0,76.37808142813842
8.288,1.0,76.27043814385745
8.296,1.0,76.16277547984232
8.304,0.9999999999999999,76.05509343010259
8.312,1.0,75.94739198869429
8.32,1.0000000000000002,75.83967114972
8.328,1.0,75.73193090732893
8.336,0.9999999999999999,75.6241712557168
8.344,0.9999999999999999,75.5163921891261
8.352,0.9999999999999999,75.40859370184589
8.36,1.0,75.30077578821206
8.368,1.0,75.19293844260716
8.376,1.0,75.08508165946061
8.384,1.0,74.97720543324859
8.392,1.0,74.86930975849424
8.4,0.9999999999999999,74.76139462976747
8.408,1.0,74.65346004168526
8.416,0.9999999999999999,74.5455059889114
8.424,0.9999999999999998,74.43753246615682
8.432,1.0,74.32953946817943
8.44,1.0,74.2215269897842
8.448,1.0,74.11349502582316
8.456,0.9999999999999999,74.00544357119554
8.464,1.0,73.89737262084773
8.472,1.0,73.78928216977329
8.48,0.9999999999999999,73.68117221301299
8.488,1.0,73.5730427456549
8.496,0.9999999999999999,73.46489376283434
8.504,1.0,73.35672525973403
8.512,1.0,73.24853723158395
8.52,0.9999999999999999,73.14032967366154
8.528,0.9999999999999999,73.0321025812916
8.536,1.0,72.92385594984641
8.544,1.0,72.8155897747457
8.552,0.9999999999999999,72.70730405145677
8.56,0.9999999999999999,72.59899877549434
8.568,1.0,72.49067394242078
8.576,0.9999999999999999,72.38232954784604
8.584,1.0,72.2739655874277
8.592,0.9999999999999999,72.16558205687092
8.6,0.9999999999999999,72.05717895192863
8.608,0.9999999999999999,71.9487562684014
8.616,1.0,71.84031400213757
8.624,1.0,71.73185214903323
8.632,0.9999999999999999,71.6233707050323
8.64,1.0,71.51486966612637
8.648,1.0,71.40634902835508
8.656,0.9999999999999998,71.29780878780575
8.664,1.0,71.18924894061375
8.672,1.0,71.08066948296221
8.68,0.9999999999999999,70.97207041108236
8.688,0.9999999999999998,70.86345172125327
8.696,1.0,70.75481340980214
8.704,1.0,70.64615547310407
8.712,1.0,70.53747790758227
8.72,1.0,70.42878070970798
8.728,0.9999999999999999,70.32006387600057
8.736,0.9999999999999999,70.21132740302751
8.744,1.0,70.10257128740444
8.752,1.0,69.99379552579511
8.76,1.0,69.88500011491149
8.768,1.0,69.77618505151374
8.776,1.0,69.66735033241031
8.784,1.0,69.55849595445784
8.792,1.0,69.44962191456126
8.8,1.0,69.34072820967384
8.808,1.0,69.23181483679713
8.815999999999999,0.9999999999999999,69.12288179298102
8.824,1.0,69.01392907532377
8.832,1.0,68.90495668097203
8.84,0.9999999999999999,68.7959646071209
8.847999999999999,1.0,68.68695285101379
8.856,0.9999999999999999,68.57792140994265
8.864,1.0,68.46887028124783
8.872,1.0,68.35979946231828
8.879999999999999,0.9999999999999999,68.25070895059132
8.888,1.0,68.14159874355282
8.896,1.0,68.03246883873722
8.904,1.0,67.92331923372757
8.911999999999999,1.0,67.81414992615538
8.92,1.0,67.70496091370083
8.928,1.0,67.59575219409268
8.936,1.0,67.48652376510837
8.943999999999999,0.9999999999999999,67.37727562457397
8.952,1.0,67.26800777036412
8.96,1.0,67.15872020040227
8.968,1.0,67.04941291266054
8.975999999999999,1.0,66.94008590515972
8.984,0.9999999999999999,66.83073917596933
8.992,0.9999999999999999,66.72137272320768
9.0,1.0,66.61198654504184
9.008,1.0,66.50258063968761
9.016,1.0,66.39315500540958
9.024000000000001,0.9999999999999999,66.2837096405212
9.032,1.0,66.1742445433847
9.04,1.0,66.06475971241122
9.048,0.9999999999999999,65.95525514606055
9.056000000000001,1.0,65.84573084284159
9.064,0.9999999999999999,65.73618680131197
9.072,1.0,65.62662302007826
9.08,1.0,65.51703949779585
9.088000000000001,1.0000000000000002,65.40743623316914
9.096,0.9999999999999999,65.29781322495145
9.104,0.9999999999999999,65.188170471945
9.112,1.0,65.07850797300095
9.120000000000001,1.0,64.96882572701945
9.128,1.0000000000000002,64.85912373294964
9.136,1.0,64.74940198978963
9.144,0.9999999999999998,64.63966049658647
9.152000000000001,1.0,64.52989925243631
9.16,1.0,64.42011825648427
9.168,0.9999999999999999,64.31031750792451
9.176,0.9999999999999999,64.20049700600018
9.184000000000001,1.0,64.09065675000355
9.192,1.0,63.98079673927591
9.2,1.0,63.87091697320763
9.208,0.9999999999999999,63.76101745123808
9.216000000000001,0.9999999999999999,63.65109817285583
9.224,1.0,63.5411591375985
9.232,1.0,63.43120034505278
9.24,1.0,63.32122179485445
9.248000000000001,1.0,63.21122348668847
9.256,1.0,63.1012054202889
9.264,1.0,62.99116759543894
9.272,1.0,62.881110011970854
9.280000000000001,1.0,62.771032669766115
9.288,1.0,62.660935568755406
9.296,1.0,62.550818708918456
9.304,1.0,62.44068209028416
9.312000000000001,1.0,62.33052571293065
9.32,0.9999999999999999,62.22034957698523
9.328,1.0,62.11015368262432
9.336,1.0000000000000002,61.99993803007354
9.344,0.9999999999999999,61.88970261960776
9.352,1.0,61.77944745155096
9.36,1.0,61.669172526276384
9.368,1.0,61.55887784420642
9.376,1.0,61.44856340581272
9.384,1.0,61.33822921161609
9.392,1.0,61.2278752621866
9.4,1.0,61.117501558143445
9.408,1.0,61.00710810015518
9.416,0.9999999999999999,60.89669488893944
9.424,1.0,60.7862619252632
9.432,1.0,60.67580920994252
9.44,1.0,60.56533674384283
9.448,1.0,60.45484452787867
9.456,0.9999999999999999,60.34433256301393
9.464,1.0,60.233800850261595
9.472,0.9999999999999999,60.123249390684
9.48,1.0,60.01267818539261
9.488,1.0,59.90208723554822
9.496,0.9999999999999999,59.79147654236078
9.504,1.0,59.68084610708952
9.512,0.9999999999999998,59.57019593104283
9.52,1.0,59.45952601557846
9.528,1.0,59.34883636210323
9.536,0.9999999999999999,59.238126972073324
9.544,0.9999999999999999,59.127397846994064
9.552,1.0,59.01664898842006
9.56,1.0,58.905880397955066
9.568,0.9999999999999999,58.79509207725218
9.576,0.9999999999999999,58.68428402801357
9.584,1.0,58.57345625199079
9.592,0.9999999999999999,58.4626087509844
9.6,1.0,58.35174152684439
9.608,0.9999999999999999,58.240854581469776
9.616,1.0,58.12994791680891
9.624,1.0,58.01902153485924
9.632,1.0000000000000002,57.90807543766751
9.64,0.9999999999999999,57.79710962732954
9.648,0.9999999999999999,57.68612410599046
9.656,1.0,57.57511887584448
9.664,1.0000000000000002,57.46409393913507
9.672,1.0,57.353049298154765
9.68,1.0,57.24198495524541
9.688,0.9999999999999999,57.13090091279787
9.696,0.9999999999999999,57.019797173252265
9.704,1.0,56.90867373909781
9.712,1.0,56.79753061287291
9.72,1.0000000000000002,56.686367797165
9.728,1.0,56.575185294610804
9.736,1.0,56.463983107896006
9.744,0.9999999999999999,56.35276123975554
9.752,1.0,56.24151969297332
9.76,1.0,56.130258470382486
9.768,1.0,56.01897757486514
9.776,0.9999999999999999,55.90767700935259
9.784,1.0,55.79635677682509
9.792,1.0,55.68501688031209
9.8,0.9999999999999999,55.573657322891975
9.808,1.0,55.462278107692256
9.816,1.0,55.350879237889444
9.824,1.0,55.2394607167091
9.832,1.0,55.12802254742574
9.84,1.0,55.016564733363
9.847999999999999,0.9999999999999999,54.9050872778934
9.856,0.9999999999999999,54.79359018443845
9.864,1.0,54.68207345646872
9.872,0.9999999999999999,54.5705370975037
9.879999999999999,1.0,54.45898111111179
9.888,1.0,54.34740550091033
9.896,1.0,54.23581027056565
9.904,0.9999999999999999,54.124195423793
9.911999999999999,1.0,54.01256096435641
9.92,1.0,53.90090689606892
9.928,1.0,53.78923322279237
9.936,1.0,53.67753994843756
9.943999999999999,0.9999999999999999,53.565827076964034
9.952,1.0,53.454094612380175
9.96,1.0,53.34234255874326
9.968,1.0,53.230570920159344
9.975999999999999,1.0,53.11877970078324
9.984,1.0,53.00696890481859
9.992,0.9999999999999999,52.89513853651771
10.0,1.0,52.7832886001818
10.008,1.0,52.67141910016067
10.016,1.0,52.55953004085288
10.024000000000001,1.0,52.44762142670571
10.032,1.0,52.33569326221511
10.04,0.9999999999999998,52.223745551925724
10.048,0.9999999999999999,52.11177830043075
10.056000000000001,1.0,51.99979151237212
10.064,1.0,51.88778519244039
10.072,1.0,51.77575934537462
10.08,0.9999999999999999,51.66371397596248
10.088000000000001,1.0,51.55164908904024
10.096,0.9999999999999999,51.439564689492734
10.104,1.0,51.327460782253226
10.112,1.0,51.215337372303516
10.120000000000001,0.9999999999999999,51.10319446467397
10.128,1.0,50.99103206444333
10.136,1.0,50.878850176738815
10.144,1.0,50.76664880673606
10.152000000000001,0.9999999999999999,50.654427959659095
10.16,1.0000000000000002,50.542187640780426
10.168,1.0,50.429927855420786
10.176,0.9999999999999999,50.31764860894933
10.184000000000001,1.0,50.2053499067835
10.192,0.9999999999999998,50.093031754389116
10.2,0.9999999999999999,49.98069415728017
10.208,1.0,49.86833712101897
10.216000000000001,0.9999999999999999,49.755960651216
10.224,1.0000000000000002,49.643564753530086
10.232,1.0,49.53114943366808
10.24,1.0,49.418714697385056
10.248000000000001,1.0,49.30626055048426
10.256,1.0,49.193786998817046
10.264,0.9999999999999999,49.08129404828284
10.272,1.0,48.968781704829084
10.280000000000001,0.9999999999999999,48.85624997445134
10.288,1.0,48.74369886319316
10.296,0.9999999999999999,48.63112837714607
10.304,1.0,48.51853852244954
10.312000000000001,1.0,48.405929305291004
10.32,1.0000000000000002,48.29330073190585
10.328,1.0,48.18065280857726
10.336,1.0,48.06798554163627
10.344000000000001,0.9999999999999999,47.955298937461826
10.352,0.9999999999999999,47.842593002480626
10.36,1.0,47.72986774316715
10.368,1.0,47.61712316604351
10.376000000000001,0.9999999999999999,47.50435927767968
10.384,1.0,47.391576084693284
10.392,1.0,47.27877359374953
10.4,1.0,47.16595181156127
10.408000000000001,0.9999999999999999,47.053110744888976
10.416,0.9999999999999999,46.94025040054064
10.424,1.0,46.827370785371826
10.432,0.9999999999999999,46.714471906285475
10.440000000000001,1.0,46.601553770232144
10.448,1.0,46.48861638420975
10.456,0.9999999999999999,46.37565975526354
10.464,1.0,46.26268389048617
10.472000000000001,1.0,46.14968879701767
10.48,1.0,46.0366744820453
10.488,0.9999999999999999,45.92364095280357
10.496,1.0000000000000002,45.81058821657416
10.504000000000001,0.9999999999999999,45.697516280686045
10.512,1.0,45.5844251525153
