freq,mag,phase
6.0,0.9999988322516784,108.32375662884033
6.008,0.999998731738591,108.2254229555693
6.016,0.9999986335971871,108.12707859869265
6.024,0.999998537820453,108.02872354936052
6.032,0.9999984444012944,107.93035779872172
6.04,0.999998353332536,107.83198133792393
6.048,0.999998264606922,107.7335941581137
6.056,0.999998178217118,107.63519625043641
6.064,0.999998094155711,107.53678760603644
6.072,0.9999980124152092,107.43836821605713
6.08,0.9999979329880437,107.33993807164087
6.088,0.9999978558665695,107.24149716392914
6.096,0.9999977810430645,107.14304548406254
6.104,0.9999977085097316,107.04458302318083
6.112,0.9999976382586988,106.94610977242304
6.12,0.9999975702820195,106.84762572292742
6.128,0.9999975045716738,106.74913086583153
6.136,0.999997441119569,106.65062519227237
6.144,0.9999973799175399,106.55210869338626
6.152,0.9999973209573491,106.45358136030904
6.16,0.9999972642306891,106.355043184176
6.168,0.999997209729181,106.25649415612206
6.176,0.9999971574443767,106.1579342672816
6.184,0.9999971073677588,106.05936350878878
6.192,0.9999970594907415,105.96078187177737
6.2,0.9999970138046703,105.86218934738093
6.208,0.9999969703008241,105.76358592673273
6.216,0.9999969289704154,105.66497160096594
6.224,0.9999968898045899,105.56634636121358
6.232,0.9999968527944278,105.46771019860856
6.24,0.9999968179309459,105.36906310428382
6.248,0.9999967852050945,105.27040506937227
6.256,0.9999967546077627,105.17173608500691
6.264,0.999996726129775,105.07305614232087
6.272,0.9999966997618944,104.97436523244734
6.28,0.9999966754948223,104.87566334651984
6.288,0.9999966533191981,104.77695047567207
6.296,0.9999966332256017,104.67822661103801
6.304,0.999996615204553,104.57949174375206
6.312,0.9999965992465119,104.48074586494894
6.32,0.9999965853418807,104.38198896576385
6.328,0.9999965734810033,104.28322103733248
6.336,0.9999965636541661,104.18444207079101
6.344,0.9999965558515989,104.08565205727622
6.352,0.9999965500634749,103.98685098792555
6.36,0.9999965462799124,103.88803885387708
6.368,0.9999965444909744,103.78921564626961
6.376,0.9999965446866697,103.69038135624272
6.384,0.9999965468569534,103.59153597493682
6.392,0.9999965509917272,103.49267949349314
6.4,0.9999965570808407,103.39381190305386
6.408,0.9999965651140916,103.2949331947621
6.416,0.9999965750812254,103.19604335976199
6.424,0.9999965869719383,103.0971423891987
6.432,0.9999966007758755,102.99823027421851
6.44,0.9999966164826326,102.89930700596885
6.448,0.999996634081757,102.80037257559835
6.456,0.9999966535627476,102.70142697425682
6.464,0.9999966749150552,102.60247019309546
6.472,0.9999966981280838,102.50350222326672
6.48,0.9999967231911909,102.40452305592447
6.4879999999999995,0.999996750093688,102.30553268222403
6.496,0.9999967788248416,102.2065310933221
6.504,0.9999968093738733,102.10751828037705
6.5120000000000005,0.9999968417299601,102.00849423454869
6.52,0.999996875882236,101.90945894699858
6.5280000000000005,0.9999969118197919,101.81041240888982
6.536,0.999996949531677,101.71135461138729
6.5440000000000005,0.9999969890068977,101.61228554565761
6.552,0.9999970302344195,101.51320520286929
6.5600000000000005,0.999997073203168,101.41411357419253
6.568,0.9999971179020279,101.31501065079962
6.5760000000000005,0.999997164319845,101.21589642386466
6.584,0.9999972124454258,101.11677088456386
6.592,0.9999972622675396,101.01763402407538
6.6,0.9999973137749166,100.91848583357957
6.608,0.9999973669562509,100.81932630425881
6.616,0.9999974218001997,100.7201554272978
6.624,0.999997478295384,100.62097319388337
6.632,0.9999975364303905,100.5217795952047
6.64,0.9999975961937697,100.42257462245331
6.648,0.9999976575740387,100.32335826682305
6.656,0.9999977205596808,100.22413051951023
6.664,0.9999977851391467,100.1248913717136
6.672,0.9999978513008533,100.02564081463456
6.68,0.9999979190331869,99.92637883947691
6.688,0.9999979883245019,99.8271054374472
6.696,0.9999980591631216,99.72782059975458
6.704,0.9999981315373395,99.62852431761097
6.712,0.9999982054354194,99.52921658223102
6.72,0.9999982808455955,99.42989738483216
6.728,0.999998357756074,99.33056671663476
6.736,0.9999984361550331,99.23122456886206
6.744,0.9999985160306231,99.13187093274024
6.752,0.9999985973709677,99.03250579949851
6.76,0.9999986801641645,98.93312916036913
6.768,0.9999987643982845,98.83374100658746
6.776,0.9999988500613745,98.734341329392
6.784,0.9999989371414562,98.6349301200244
6.792,0.9999990256265271,98.53550736972971
6.8,0.9999991155045611,98.4360730697561
6.808,0.9999992067635092,98.33662721135518
6.816,0.9999992993913001,98.23716978578192
6.824,0.9999993933758402,98.13770078429474
6.832,0.9999994887050143,98.03822019815553
6.84,0.9999995853666878,97.93872801862973
6.848,0.9999996833487036,97.83922423698635
6.856,0.9999997826388864,97.73970884449805
6.864,0.9999998832250417,97.64018183244117
6.872,0.9999999850949554,97.54064319209574
6.88,0.9999999999999999,97.44109291474561
6.888,1.0,97.34153099167845
6.896,1.0,97.24195741418579
6.904,1.0,97.14237217356309
6.912,1.0,97.04277526110975
6.92,1.0,96.94316666812924
6.928,1.0,96.84354638592906
6.936,1.0,96.74391440582086
6.944,1.0,96.6442707191204
6.952,0.9999999999999999,96.54461531714772
6.96,1.0,96.44494819122707
6.968,0.9999999999999999,96.34526933268704
6.976,1.0,96.24557873286054
6.984,1.0,96.14587638308495
6.992,1.0,96.04616227470206
7.0,1.0,95.94643639905817
7.008,0.9999999999999999,95.84669874750413
7.016,1.0,95.74694931139544
7.024,0.9999999999999999,95.64718808209221
7.032,0.9999999999999999,95.5474150509592
7.04,1.0,95.44763020936604
7.048,1.0,95.34783354868706
7.056,1.0,95.24802506030147
7.064,1.0,95.14820473559337
7.072,1.0000000000000002,95.04837256595181
7.08,0.9999999999999999,94.94852854277084
7.088,0.9999999999999999,94.84867265744954
7.096,1.0,94.74880490139209
7.104,0.9999999999999998,94.6489252660078
7.112,1.0,94.54903374271115
7.12,0.9999999999999999,94.44913032292192
7.128,0.9999999999999999,94.34921499806511
7.136,1.0,94.24928775957112
7.144,0.9999999999999999,94.14934859887566
7.152,1.0,94.04939750741995
7.16,1.0,93.94943447665064
7.168,0.9999999999999999,93.84945949801995
7.176,1.0,93.74947256298566
7.184,1.0,93.64947366301116
7.192,0.9999999999999999,93.54946278956558
7.2,1.0,93.44943993412373
7.208,1.0,93.34940508816621
7.216,1.0,93.24935824317946
7.224,1.0,93.14929939065578
7.232,1.0,93.04922852209344
7.24,1.0,92.94914562899662
7.248,1.0,92.84905070287557
7.256,1.0000000000000002,92.74894373524661
7.264,1.0,92.64882471763217
7.272,0.9999999999999999,92.54869364156087
7.28,1.0,92.44855049856754
7.288,0.9999999999999999,92.34839528019329
7.296,0.9999999999999999,92.24822797798555
7.304,0.9999999999999999,92.14804858349812
7.312,1.0,92.04785708829122
7.32,0.9999999999999999,91.94765348393157
7.328,0.9999999999999999,91.84743776199237
7.336,1.0,91.74720991405339
7.344,1.0,91.64696993170105
7.352,1.0,91.54671780652843
7.36,1.0,91.4464535301353
7.368,0.9999999999999999,91.34617709412825
7.376,1.0,91.24588849012065
7.384,1.0,91.14558770973275
7.392,1.0,91.04527474459171
7.4,1.0,90.94494958633165
7.4079999999999995,0.9999999999999999,90.84461222659377
7.416,0.9999999999999999,90.74426265702623
7.4239999999999995,0.9999999999999999,90.64390086928441
7.432,1.0,90.54352685503076
7.4399999999999995,1.0,90.44314060593508
7.448,0.9999999999999999,90.34274211367429
7.4559999999999995,0.9999999999999999,90.24233136993274
7.464,1.0,90.14190836640205
7.4719999999999995,0.9999999999999999,90.04147309478135
7.48,0.9999999999999999,89.94102554677715
7.4879999999999995,0.9999999999999999,89.84056571410358
7.496,0.9999999999999999,89.74009358848221
7.504,1.0,89.63960916164233
7.5120000000000005,0.9999999999999999,89.53911242532084
7.52,1.0,89.43860337126242
7.5280000000000005,1.0,89.3380819912194
7.536,1.0,89.23754827695205
7.5440000000000005,1.0,89.13700222022844
7.552,1.0,89.03644381282459
7.5600000000000005,0.9999999999999999,88.93587304652445
7.568,1.0,88.83528991312004
7.5760000000000005,1.0,88.73469440441134
7.584,0.9999999999999999,88.63408651220662
7.5920000000000005,1.0,88.53346622832217
7.6,0.9999999999999999,88.43283354458256
7.6080000000000005,0.9999999999999999,88.33218845282062
7.616,1.0,88.2315309448775
7.6240000000000006,0.9999999999999999,88.13086101260271
7.632,1.0,88.03017864785421
7.640000000000001,1.0,87.92948384249839
7.648,0.9999999999999999,87.8287765884102
7.656000000000001,1.0,87.72805687747308
7.664,0.9999999999999999,87.62732470157923
7.672,0.9999999999999999,87.5265800526294
7.68,0.9999999999999999,87.42582292253311
7.688,1.0,87.32505330320868
7.696,0.9999999999999999,87.22427118658315
7.704,1.0,87.12347656459258
7.712,1.0,87.02266942918183
7.72,1.0,86.92184977230482
7.728,1.0,86.82101758592444
7.736,1.0,86.72017286201267
7.744,1.0,86.61931559255063
7.752,1.0000000000000002,86.51844576952864
7.76,1.0,86.41756338494616
7.768,1.0,86.31666843081203
7.776,1.0,86.21576089914436
7.784,1.0,86.11484078197064
7.792,0.9999999999999999,86.01390807132783
7.8,1.0,85.91296275926236
7.808,1.0,85.81200483783013
7.816,1.0,85.7110342990967
7.824,1.0,85.61005113513723
7.832,1.0,85.50905533803657
7.84,0.9999999999999999,85.40804689988934
7.848,1.0,85.30702581279985
7.856,1.0,85.20599206888234
7.864,1.0,85.1049456602609
7.872,1.0,85.00388657906957
7.88,1.0,84.90281481745235
7.888,1.0,84.80173036756334
7.896,1.0,84.70063322156665
7.904,1.0,84.5995233716366
7.912,0.9999999999999999,84.49840080995769
7.92,1.0,84.39726552872462
7.928,0.9999999999999998,84.29611752014243
7.936,1.0,84.19495677642651
7.944,0.9999999999999999,84.0937832898026
7.952,1.0,83.99259705250695
7.96,0.9999999999999999,83.89139805678626
7.968,0.9999999999999999,83.7901862948978
7.976,1.0,83.68896175910942
7.984,1.0,83.58772444169966
7.992,1.0,83.48647433495772
8.0,1.0,83.38521143118359
8.008,0.9999999999999999,83.28393572268807
8.016,1.0,83.18264720179275
8.024000000000001,1.0,83.0813458608302
8.032,1.0,82.98003169214394
8.04,0.9999999999999999,82.87870468808846
8.048,1.0,82.77736484102932
8.056000000000001,0.9999999999999999,82.67601214334321
8.064,1.0,82.57464658741802
8.072,0.9999999999999999,82.47326816565277
8.08,1.0,82.37187687045778
8.088000000000001,1.0,82.2704726942547
8.096,1.0,82.16905562947657
8.104,0.9999999999999999,82.0676256685678
8.112,1.0,81.96618280398427
8.120000000000001,1.0,81.86472702819341
8.128,0.9999999999999999,81.76325833367424
8.136,1.0,81.66177671291736
8.144,0.9999999999999999,81.56028215842504
8.152000000000001,1.0,81.4587746627113
8.16,0.9999999999999999,81.35725421830202
8.168,1.0,81.25572081773473
8.176,1.0,81.15417445355892
8.184000000000001,0.9999999999999999,81.05261511833609
8.192,1.0,80.95104280463966
8.2,0.9999999999999998,80.84945750505507
8.208,1.0,80.74785921217982
8.216000000000001,1.0000000000000002,80.6462479186236
8.224,1.0,80.54462361700833
8.232,0.9999999999999999,80.44298629996804
8.24,0.9999999999999999,80.34133596014914
8.248000000000001,0.9999999999999999,80.23967259021038
8.256,1.0,80.13799618282287
8.264,1.0,80.03630673067022
8.272,0.9999999999999999,79.93460422644843
8.280000000000001,1.0,79.83288866286615
8.288,0.9999999999999999,79.73116003264462
8.296,1.0,79.62941832851769
8.304,1.0,79.52766354323185
8.312,1.0,79.42589566954653
8.32,0.9999999999999999,79.32411470023374
8.328,0.9999999999999999,79.22232062807856
8.336,0.9999999999999999,79.12051344587877
8.344,0.9999999999999998,79.0186931464453
8.352,1.0,78.91685972260194
8.36,1.0,78.81501316718564
8.368,1.0,78.71315347304636
8.376,1.0,78.61128063304736
8.384,0.9999999999999999,78.50939464006497
8.392,1.0,78.4074954869889
8.4,0.9999999999999999,78.30558316672213
8.408,1.0,78.20365767218101
8.416,1.0,78.10171899629528
8.424,0.9999999999999999,77.99976713200823
8.432,1.0,77.89780207227656
8.44,0.9999999999999999,77.79582381007069
8.448,0.9999999999999999,77.69383233837453
8.456,0.9999999999999999,77.59182765018575
8.464,1.0,77.4898097385157
8.472,1.0,77.38777859638955
8.48,0.9999999999999999,77.28573421684624
8.488,1.0,77.18367659293868
8.496,0.9999999999999999,77.08160571773364
8.504,0.9999999999999999,76.97952158431193
8.512,1.0,76.8774241857683
8.52,1.0,76.77531351521174
8.528,0.9999999999999999,76.67318956576523
8.536,1.0,76.57105233056602
8.544,0.9999999999999999,76.46890180276559
8.552,1.0,76.36673797552972
8.56,1.0,76.26456084203846
8.568,1.0,76.1623703954864
8.576,1.0,76.06016662908242
8.584,1.0,75.95794953605001
8.592,1.0,75.85571910962715
8.6,0.9999999999999998,75.75347534306646
8.608,0.9999999999999999,75.65121822963513
8.616,0.9999999999999999,75.5489477626152
8.624,1.0,75.44666393530329
8.632,0.9999999999999999,75.34436674101099
8.64,1.0,75.24205617306458
8.648,1.0,75.13973222480541
8.656,1.0,75.03739488958965
8.664,0.9999999999999999,74.9350441607886
8.672,0.9999999999999999,74.83268003178851
8.68,1.0,74.73030249599084
8.688,0.9999999999999999,74.62791154681211
8.696,0.9999999999999999,74.52550717768419
8.704,1.0,74.42308938205404
8.712,0.9999999999999999,74.32065815338413
8.72,1.0,74.21821348515213
8.728,1.0,74.11575537085126
8.736,0.9999999999999999,74.01328380399008
8.744,0.9999999999999999,73.9107987780928
8.752,1.0,73.80830028669911
8.76,0.9999999999999999,73.70578832336437
8.768,1.0000000000000002,73.60326288165959
8.776,1.0,73.50072395517152
8.784,1.0,73.39817153750268
8.792,1.0,73.29560562227145
8.8,0.9999999999999999,73.19302620311197
8.808,1.0,73.09043327367449
8.815999999999999,1.0,72.9878268276251
8.824,0.9999999999999999,72.88520685864596
8.832,1.0,72.78257336043532
8.84,1.0,72.67992632670762
8.847999999999999,0.9999999999999999,72.57726575119335
8.856,1.0,72.47459162763934
8.864,1.0,72.37190394980868
8.872,0.9999999999999998,72.26920271148083
8.879999999999999,1.0,72.16648790645155
8.888,0.9999999999999999,72.06375952853311
8.896,1.0,71.96101757155424
8.904,0.9999999999999999,71.85826202936028
8.911999999999999,1.0,71.75549289581305
8.92,0.9999999999999999,71.65271016479107
8.928,1.0,71.54991383018957
8.936,0.9999999999999999,71.44710388592053
8.943999999999999,1.0,71.34428032591265
8.952,1.0,71.24144314411154
8.96,1.0,71.13859233447974
8.968,1.0,71.03572789099668
8.975999999999999,1.0,70.93284980765878
8.984,1.0,70.82995807847954
8.992,1.0,70.72705269748957
9.0,1.0,70.62413365873664
9.008,1.0,70.52120095628568
9.016,1.0,70.4182545842189
9.024000000000001,1.0,70.3152945366358
9.032,1.0,70.2123208076533
9.04,1.0,70.10933339140564
9.048,0.9999999999999999,70.00633228204455
9.056000000000001,1.0,69.90331747373929
9.064,1.0,69.80028896067672
9.072,1.0,69.6972467370612
9.08,1.0,69.59419079711482
9.088000000000001,0.9999999999999999,69.4911211350774
9.096,1.0,69.38803774520655
9.104,1.0000000000000002,69.28494062177755
9.112,0.9999999999999998,69.18182975908374
9.120000000000001,1.0,69.07870515143624
9.128,1.0000000000000002,68.97556679316426
9.136,1.0,68.87241467861493
9.144,1.0,68.76924880215346
9.152000000000001,1.0,68.6660691581633
9.16,1.0,68.56287574104593
9.168,0.9999999999999999,68.45966854522116
9.176,1.0,68.35644756512703
9.184000000000001,1.0,68.25321279521994
9.192,1.0,68.14996422997471
9.2,0.9999999999999999,68.04670186388452
9.208,0.9999999999999999,67.94342569146106
9.216000000000001,1.0,67.8401357072346
9.224,1.0000000000000002,67.736831905754
9.232,1.0,67.63351428158671
9.24,1.0,67.53018282931893
9.248000000000001,1.0,67.4268375435556
9.256,0.9999999999999999,67.32347841892049
9.264,0.9999999999999999,67.22010545005618
9.272,1.0,67.11671863162418
9.280000000000001,1.0,67.01331795830495
9.288,0.9999999999999999,66.90990342479803
9.296,0.9999999999999999,66.80647502582197
9.304,1.0,66.70303275611441
9.312000000000001,1.0,66.59957661043224
9.32,1.0,66.4961065835516
9.328,0.9999999999999999,66.39262267026783
9.336,1.0,66.28912486539564
9.344,1.0,66.18561316376919
9.352,1.0,66.08208756024199
9.36,1.0,65.97854804968719
9.368,0.9999999999999999,65.87499462699733
9.376,1.0,65.77142728708475
9.384,1.0,65.66784602488131
9.392,1.0,65.56425083533868
9.4,1.0,65.46064171342827
9.408,1.0,65.35701865414141
9.416,1.0,65.25338165248917
9.424,0.9999999999999999,65.14973070350277
9.432,1.0000000000000002,65.04606580223326
9.44,1.0,64.94238694375191
9.448,0.9999999999999998,64.83869412315
9.456,0.9999999999999999,64.73498733553912
9.464,1.0,64.63126657605098
9.472,0.9999999999999999,64.52753183983769
9.48,1.0,64.42378312207165
9.488,0.9999999999999999,64.32002041794577
9.496,1.0,64.21624372267337
9.504,1.0,64.11245303148839
9.512,1.0,64.0086483396453
9.52,0.9999999999999999,63.90482964241933
9.528,0.9999999999999999,63.800996935106376
9.536,1.0,63.69715021302319
9.544,0.9999999999999999,63.59328947150735
9.552,0.9999999999999999,63.4894147059174
9.56,0.9999999999999998,63.385525911632826
9.568,1.0,63.281623084054246
9.576,1.0,63.177706218603326
9.584,0.9999999999999999,63.07377531072303
9.592,0.9999999999999999,62.969830355877455
9.6,0.9999999999999999,62.865871349552215
9.608,0.9999999999999999,62.76189828725414
9.616,1.0,62.65791116451167
9.624,1.0,62.55390997687473
9.632,1.0,62.44989471991491
9.64,1.0,62.345865389225445
9.648,1.0,62.24182198042142
9.656,1.0,62.137764489139656
9.664,1.0,62.03369291103904
9.672,1.0,61.92960724180035
9.68,0.9999999999999999,61.825507477126514
9.688,0.9999999999999999,61.721393612742574
9.696,0.9999999999999999,61.617265644395935
9.704,0.9999999999999999,61.51312356785614
9.712,1.0,61.40896737891538
9.72,1.0,61.30479707338816
9.728,0.9999999999999999,61.20061264711171
9.736,1.0,61.09641409594585
9.744,0.9999999999999998,60.99220141577329
9.752,1.0,60.887974602499476
9.76,0.9999999999999999,60.78373365205297
9.768,1.0,60.679478560385235
9.776,1.0,60.57520932347105
9.784,0.9999999999999999,60.47092593730836
9.792,1.0,60.36662839791852
9.8,0.9999999999999999,60.262316701346364
9.808,0.9999999999999999,60.157990843660315
9.816,1.0,60.053650820952434
9.824,1.0,59.94929662933866
9.832,1.0,59.84492826495883
9.84,1.0,59.740545723976844
9.847999999999999,0.9999999999999999,59.63614900258071
9.856,0.9999999999999999,59.53173809698276
9.864,1.0,59.427313003419776
9.872,0.9999999999999999,59.322873718153026
9.879999999999999,0.9999999999999999,59.218420237468514
9.888,0.9999999999999999,59.113952557676996
9.896,1.0,59.00947067511425
9.904,0.9999999999999999,58.90497458614118
9.911999999999999,1.0,58.800464287143846
9.92,0.9999999999999999,58.69593977453376
9.928,0.9999999999999998,58.591401044748
9.936,0.9999999999999999,58.48684809424942
9.943999999999999,1.0,58.38228091952668
9.952,0.9999999999999999,58.277699517094504
9.96,1.0,58.173103883493894
9.968,0.9999999999999999,58.06849401529227
9.975999999999999,1.0,57.96386990908362
9.984,1.0,57.8592315614887
9.992,1.0,57.75457896915528
10.0,1.0,57.649912128758395
10.008,1.0000000000000002,57.54523103700034
10.016,1.0,57.440535690611085
10.024000000000001,1.0,57.335826086348455
10.032,0.9999999999999999,57.23110222099831
10.04,0.9999999999999999,57.12636409137483
10.048,0.9999999999999999,57.02161169432067
10.056000000000001,0.9999999999999999,56.916845026707364
10.064,0.9999999999999999,56.81206408543546
10.072,1.0,56.70726886743481
10.08,0.9999999999999999,56.60245936966481
10.088000000000001,1.0,56.49763558911483
10.096,1.0,56.39279752280438
10.104,1.0,56.28794516778341
10.112,1.0,56.183078521132636
10.120000000000001,1.0,56.07819757996395
10.128,1.0,55.97330234142067
10.136,1.0,55.868392802677874
10.144,1.0,55.76346896094282
10.152000000000001,1.0,55.65853081345523
10.16,1.0,55.553578357487844
10.168,0.9999999999999999,55.448611590346594
10.176,0.9999999999999999,55.34363050937111
10.184000000000001,0.9999999999999999,55.23863511193521
10.192,0.9999999999999999,55.13362539544734
10.2,1.0,55.02860135735084
10.208,0.9999999999999999,54.923562995124556
10.216000000000001,1.0,54.81851030628341
10.224,1.0,54.71344328837879
10.232,0.9999999999999999,54.60836193899903
10.24,0.9999999999999998,54.50326625576999
10.248000000000001,1.0,54.39815623635574
10.256,0.9999999999999999,54.293031878459004
10.264,1.0,54.18789317982174
10.272,1.0,54.08274013822586
10.280000000000001,1.0,53.97757275149382
10.288,1.0,53.87239101748932
10.296,1.0,53.767194934117995
