freq,mag,phase
6.0,0.9999972599757521,113.89833886186005
6.008,0.9999973548884188,113.80290053045117
6.016,0.9999974467017908,113.70743305439602
6.024,0.9999975354728311,113.6119363901032
6.032,0.9999976212580026,113.51641049399286
6.04,0.9999977041132708,113.42085532249696
6.048,0.9999977840941052,113.32527083205935
6.056,0.999997861255482,113.2296569791358
6.064,0.9999979356518846,113.13401372019428
6.072,0.9999980073373067,113.03834101171486
6.08,0.9999980763652535,112.9426388101901
6.088,0.9999981427887435,112.84690707212486
6.096,0.9999982066603106,112.75114575403666
6.104,0.999998268032006,112.6553548124556
6.112,0.9999983269554004,112.55953420392466
6.12,0.9999983834815844,112.46368388499968
6.128,0.999998437661172,112.36780381224952
6.136,0.9999984895443021,112.27189394225617
6.144,0.9999985391806394,112.17595423161487
6.152,0.9999985866193777,112.07998463693419
6.16,0.9999986319092402,111.98398511483619
6.168,0.9999986750984831,111.88795562195652
6.176,0.9999987162348956,111.79189611494452
6.184,0.9999987553658035,111.69580655046333
6.192,0.9999987925380699,111.59968688519002
6.2,0.9999988277980977,111.50353707581569
6.208,0.999998861191831,111.40735707904557
6.216,0.9999988927647573,111.31114685159919
6.224,0.999998922561909,111.21490635021043
6.232,0.9999989506278658,111.11863553162766
6.24,0.9999989770067563,111.02233435261383
6.248,0.9999990017422601,110.92600276994663
6.256,0.9999990248776088,110.82964074041855
6.264,0.9999990464555892,110.73324822083703
6.272,0.9999990665185442,110.63682516802453
6.28,0.9999990851083749,110.54037153881873
6.288,0.9999991022665425,110.44388729007251
6.296,0.9999991180340708,110.34737237865417
6.304,0.9999991324515465,110.2508267614475
6.312,0.9999991455591233,110.1542503953519
6.32,0.9999991573965218,110.05764323728249
6.328,0.999999168003032,109.9610052441702
6.336,0.9999991774175161,109.86433637296193
6.344,0.9999991856784087,109.76763658062062
6.352,0.9999991928237203,109.67090582412538
6.36,0.9999991988910379,109.57414406047158
6.368,0.9999992039175282,109.47735124667102
6.376,0.9999992079399381,109.38052733975192
6.384,0.9999992109945973,109.2836722967592
6.392,0.9999992131174205,109.18678607475445
6.4,0.9999992143439085,109.0898686308161
6.408,0.9999992147091507,108.9929199220395
6.416,0.9999992142478263,108.89593990553712
6.424,0.9999992129942076,108.79892853843853
6.432,0.9999992109821598,108.7018857778906
6.44,0.999999208245145,108.60481158105758
6.448,0.9999992048162227,108.50770590512121
6.456,0.999999200728052,108.41056870728086
6.464,0.9999991960128932,108.3133999447536
6.472,0.9999991907026118,108.21619957477434
6.48,0.9999991848286761,108.1189675545959
6.4879999999999995,0.9999991784221638,108.02170384148917
6.496,0.9999991715137604,107.92440839274317
6.504,0.9999991641337634,107.82708116566526
6.5120000000000005,0.9999991563120827,107.72972211758109
6.52,0.9999991480782429,107.63233120583486
6.5280000000000005,0.9999991394613857,107.53490838778926
6.536,0.999999130490271,107.43745362082589
6.5440000000000005,0.9999991211932796,107.33996686234497
6.552,0.9999991115984141,107.24244806976576
6.5600000000000005,0.9999991017333022,107.14489720052644
6.568,0.9999990916251968,107.04731421208452
6.5760000000000005,0.9999990813009797,106.94969906191655
6.584,0.9999990707871618,106.85205170751863
6.592,0.9999990601098869,106.75437210640621
6.6,0.999999049294931,106.65666021611436
6.608,0.9999990383677076,106.55891599419785
6.616,0.9999990273532661,106.46113939823124
6.624,0.9999990162762962,106.363330385809
6.632,0.9999990051611282,106.26548891454563
6.64,0.9999989940317364,106.16761494207572
6.648,0.9999989829117397,106.06970842605413
6.656,0.9999989718244036,105.97176932415607
6.664,0.9999989607926429,105.87379759407715
6.672,0.9999989498390237,105.77579319353357
6.68,0.9999989389857631,105.67775608026224
6.688,0.9999989282547345,105.57968621202076
6.696,0.9999989176674667,105.4815835465877
6.704,0.9999989072451471,105.38344804176255
6.712,0.9999988970086229,105.28527965536595
6.72,0.9999988869784039,105.18707834523975
6.728,0.9999988771746636,105.08884406924707
6.736,0.9999988676172415,104.99057678527251
6.744,0.9999988583256446,104.89227645122216
6.752,0.9999988493190501,104.79394302502376
6.76,0.9999988406163057,104.69557646462682
6.768,0.9999988322359336,104.5971767280027
6.776,0.9999988241961303,104.49874377314467
6.784,0.9999988165147704,104.40027755806815
6.792,0.9999988092094071,104.30177804081067
6.8,0.9999988022972742,104.2032451794321
6.808,0.999998795795289,104.10467893201465
6.816,0.9999987897200533,104.00607925666307
6.824,0.9999987840878556,103.90744611150467
6.832,0.9999987789146724,103.80877945468953
6.84,0.9999987742161712,103.71007924439049
6.848,0.9999987700077112,103.61134543880334
6.856,0.9999987663043461,103.51257799614694
6.864,0.9999987631208258,103.41377687466323
6.872,0.9999987604715974,103.31494203261741
6.88,0.9999987583708082,103.21607342829807
6.888,0.9999987568323075,103.11717102001721
6.896,0.9999987558696475,103.01823476611042
6.904,0.999998755496086,102.91926462493697
6.912,0.9999987557245886,102.82026055487988
6.92,0.999998756567829,102.72122251434605
6.928,0.9999987580381935,102.6221504617664
6.936,0.9999987601477798,102.52304435559593
6.944,0.9999987629084008,102.42390415431383
6.952,0.9999987663315866,102.32472981642363
6.96,0.9999987704285854,102.22552130045321
6.968,0.999998775210366,102.12627856495503
6.976,0.9999987806876192,102.02700156850615
6.984,0.9999987868707602,101.92769026970834
6.992,0.9999987937699302,101.82834462718823
7.0,0.9999988013949981,101.72896459959739
7.008,0.9999988097555624,101.62955014561241
7.016,0.9999988188609541,101.53010122393505
7.024,0.9999988287202366,101.4306177932923
7.032,0.9999988393422088,101.33109981243656
7.04,0.9999988507354076,101.23154724014564
7.048,0.9999988629081081,101.13196003522295
7.056,0.9999988758683271,101.03233815649754
7.064,0.999998889623823,100.9326815628243
7.072,0.9999989041821001,100.83299021308395
7.08,0.9999989195504085,100.7332640661832
7.088,0.9999989357357469,100.63350308105487
7.096,0.9999989527448643,100.53370721665799
7.104,0.9999989705842609,100.43387643197784
7.112,0.9999989892601919,100.33401068602615
7.12,0.999999008778668,100.23410993784115
7.128,0.9999990291454567,100.13417414648768
7.136,0.999999050366086,100.03420327105728
7.144,0.9999990724458447,99.93419727066834
7.152,0.9999990953897847,99.83415610446613
7.16,0.9999991192027231,99.734079731623
7.168,0.9999991438892437,99.63396811133839
7.176,0.9999991694536986,99.533821202839
7.184,0.9999991959002109,99.43363896537886
7.192,0.999999223232676,99.33342135823943
7.2,0.9999992514547632,99.23316834072975
7.208,0.999999280569918,99.13287987218645
7.216,0.9999993105813634,99.03255591197397
7.224,0.9999993414921029,98.93219641948457
7.232,0.9999993733049204,98.83180135413848
7.24,0.9999994060223838,98.73137067538396
7.248,0.999999439646846,98.63090434269748
7.256,0.9999994741804467,98.53040231558373
7.264,0.9999995096251145,98.42986455357583
7.272,0.999999545982569,98.32929101623529
7.28,0.9999995832543214,98.22868166315226
7.288,0.9999996214416778,98.1280364539455
7.296,0.99999966054574,98.02735534826263
7.304,0.9999997005674074,97.92663830578007
7.312,0.9999997415073804,97.82588528620326
7.32,0.999999783366159,97.72509624926673
7.328,0.9999998261440478,97.62427115473416
7.336,0.9999998698411564,97.52340996239856
7.344,0.9999999144574002,97.42251263208233
7.352,0.9999999599925046,97.32157912363726
7.36,0.9999999999999999,97.22060939694491
7.368,1.0,97.11960341191634
7.376,1.0,97.01856112849255
7.384,1.0000000000000002,96.91748250664438
7.392,0.9999999999999999,96.81636750637266
7.4,1.0,96.71521608770833
7.4079999999999995,0.9999999999999999,96.61402821071253
7.416,0.9999999999999999,96.51280383547667
7.4239999999999995,0.9999999999999999,96.41154292212265
7.432,1.0,96.31024543080272
7.4399999999999995,0.9999999999999999,96.2089113216999
7.448,1.0,96.1075405550278
7.4559999999999995,1.0,96.00613309103086
7.464,1.0000000000000002,95.90468888998443
7.4719999999999995,1.0,95.80320791219489
7.48,1.0,95.70169011799965
7.4879999999999995,1.0,95.60013546776743
7.496,1.0,95.49854392189813
7.504,1.0,95.39691544082316
7.5120000000000005,0.9999999999999999,95.29524998500537
7.52,0.9999999999999999,95.19354751493927
7.5280000000000005,1.0,95.09180799115097
7.536,1.0,94.99003137419852
7.5440000000000005,0.9999999999999999,94.88821762467175
7.552,1.0,94.78636670319258
7.5600000000000005,1.0,94.68447857041497
7.568,1.0,94.58255318702508
7.5760000000000005,1.0,94.48059051374143
7.584,1.0,94.3785905113149
7.5920000000000005,1.0,94.27655314052879
7.6,1.0,94.17447836219915
7.6080000000000005,1.0,94.07236613717458
7.616,0.9999999999999999,93.97021642633658
7.6240000000000006,1.0,93.86802919059946
7.632,1.0,93.76580439091057
7.640000000000001,1.0,93.66354198825029
7.648,0.9999999999999999,93.56124194363228
7.656000000000001,1.0,93.45890421810336
7.664,1.0,93.35652877274386
7.672,1.0,93.25411556866747
7.68,1.0,93.15166456702154
7.688,1.0,93.04917572898705
7.696,1.0,92.94664901577877
7.704,1.0,92.84408438864534
7.712,1.0,92.74148180886935
7.72,1.0,92.63884123776748
7.728,1.0,92.53616263669053
7.736,0.9999999999999999,92.43344596702359
7.744,1.0,92.3306911901861
7.752,1.0,92.22789826763196
7.76,1.0,92.12506716084957
7.768,1.0,92.02219783136204
7.776,1.0,91.91929024072715
7.784,0.9999999999999999,91.81634435053759
7.792,0.9999999999999999,91.71336012242095
7.8,1.0,91.61033751803981
7.808,0.9999999999999999,91.50727649909196
7.816,1.0,91.40417702731031
7.824,1.0000000000000002,91.30103906446318
7.832,1.0,91.19786257235425
7.84,1.0,91.09464751282273
7.848,1.0,90.99139384774341
7.856,1.0,90.88810153902679
7.864,0.9999999999999999,90.78477054861916
7.872,0.9999999999999998,90.68140083850274
7.88,1.0,90.57799237069568
7.888,1.0,90.47454510725223
7.896,1.0,90.37105901026278
7.904,1.0,90.26753404185408
7.912,1.0000000000000002,90.16397016418914
7.92,1.0,90.06036733946748
7.928,0.9999999999999999,89.95672552992517
7.936,1.0,89.8530446978349
7.944,0.9999999999999999,89.74932480550613
7.952,1.0,89.64556581528515
7.96,1.0,89.54176768955514
7.968,1.0,89.43793039073635
7.976,1.0,89.33405388128612
7.984,1.0,89.23013812369898
7.992,1.0,89.1261830805068
8.0,0.9999999999999999,89.02218871427884
8.008,0.9999999999999999,88.91815498762183
8.016,1.0,88.81408186318002
8.024000000000001,0.9999999999999999,88.70996930363548
8.032,1.0,88.60581727170795
8.04,1.0,88.50162573015501
8.048,1.0,88.39739464177224
8.056000000000001,0.9999999999999999,88.29312396939322
8.064,1.0,88.18881367588973
8.072,1.0,88.08446372417175
8.08,1.0,87.9800740771875
8.088000000000001,0.9999999999999999,87.87564469792372
8.096,1.0,87.77117554940563
8.104,0.9999999999999999,87.66666659469699
8.112,0.9999999999999998,87.5621177969003
8.120000000000001,0.9999999999999999,87.45752911915677
8.128,1.0,87.35290052464663
8.136,0.9999999999999999,87.24823197658888
8.144,0.9999999999999999,87.14352343824167
8.152000000000001,1.0,87.03877487290227
8.16,0.9999999999999999,86.93398624390721
8.168,0.9999999999999999,86.82915751463231
8.176,1.0,86.72428864849279
8.184000000000001,1.0,86.61937960894339
8.192,0.9999999999999999,86.51443035947848
8.2,1.0,86.40944086363204
8.208,1.0,86.30441108497784
8.216000000000001,1.0,86.19934098712956
8.224,1.0,86.0942305337408
8.232,0.9999999999999999,85.98907968850519
8.24,1.0,85.88388841515645
8.248000000000001,1.0,85.7786566774686
8.256,0.9999999999999999,85.67338443925595
8.264,0.9999999999999999,85.56807166437319
8.272,0.9999999999999999,85.46271831671544
8.280000000000001,0.9999999999999999,85.35732436021846
8.288,0.9999999999999999,85.25188975885868
8.296,1.0,85.14641447665325
8.304,1.0,85.04089847766011
8.312,0.9999999999999999,84.93534172597823
8.32,0.9999999999999998,84.8297441857475
8.328,0.9999999999999999,84.72410582114897
8.336,0.9999999999999999,84.61842659640483
8.344,0.9999999999999999,84.5127064757786
8.352,1.0,84.40694542357508
8.36,1.0,84.30114340414065
8.368,0.9999999999999999,84.19530038186303
8.376,1.0,84.08941632117178
8.384,1.0,83.98349118653799
8.392,1.0,83.87752494247466
8.4,1.0,83.7715175535366
8.408,1.0,83.66546898432064
8.416,0.9999999999999999,83.55937919946561
8.424,1.0,83.45324816365253
8.432,0.9999999999999999,83.34707584160458
8.44,0.9999999999999999,83.24086219808736
8.448,1.0,83.13460719790868
8.456,0.9999999999999999,83.02831080591903
8.464,1.0,82.92197298701133
8.472,1.0,82.8155937061212
8.48,1.0,82.70917292822698
8.488,1.0,82.60271061834985
8.496,1.0,82.4962067415538
8.504,0.9999999999999999,82.38966126294596
8.512,1.0,82.2830741476764
8.52,0.9999999999999999,82.1764453609384
8.528,0.9999999999999999,82.06977486796843
8.536,0.9999999999999999,81.96306263404637
8.544,1.0,81.85630862449536
8.552,1.0,81.74951280468215
8.56,1.0,81.64267514001702
8.568,1.0,81.5357955959539
8.576,1.0,81.42887413799039
8.584,0.9999999999999999,81.32191073166801
8.592,0.9999999999999999,81.21490534257211
8.6,1.0,81.10785793633202
8.608,0.9999999999999999,81.00076847862115
8.616,0.9999999999999999,80.89363693515708
8.624,1.0,80.7864632717015
8.632,1.0,80.67924745406056
8.64,0.9999999999999999,80.57198944808464
8.648,0.9999999999999998,80.46468921966871
8.656,1.0,80.3573467347522
8.664,1.0,80.24996195931921
8.672,1.0,80.14253485939852
8.68,1.0,80.03506540106375
8.688,0.9999999999999999,79.92755355043326
8.696,1.0,79.81999927367055
8.704,0.9999999999999999,79.71240253698392
8.712,1.0,79.60476330662695
8.72,1.0,79.4970815488983
8.728,1.0,79.38935723014197
8.736,0.9999999999999998,79.28159031674718
8.744,1.0,79.17378077514873
8.752,0.9999999999999999,79.06592857182673
8.76,0.9999999999999999,78.95803367330703
8.768,1.0,78.85009604616101
8.776,1.0,78.74211565700587
8.784,1.0,78.63409247250452
8.792,1.0,78.52602645936585
8.8,1.0,78.4179175843446
8.808,1.0,78.30976581424167
8.815999999999999,0.9999999999999999,78.20157111590397
8.824,0.9999999999999999,78.09333345622461
8.832,1.0,77.98505280214304
8.84,1.0,77.87672912064497
8.847999999999999,1.0,77.76836237876256
8.856,1.0,77.65995254357442
8.864,0.9999999999999999,77.55149958220576
8.872,0.9999999999999999,77.44300346182847
8.879999999999999,1.0,77.33446414966109
8.888,0.9999999999999998,77.22588161296889
8.896,1.0,77.11725581906417
8.904,1.0,77.00858673530605
8.911999999999999,1.0,76.89987432910068
8.92,0.9999999999999999,76.79111856790126
8.928,1.0,76.68231941920824
8.936,0.9999999999999999,76.57347685056922
8.943999999999999,0.9999999999999999,76.46459082957912
8.952,0.9999999999999999,76.35566132388023
8.96,0.9999999999999999,76.24668830116227
8.968,0.9999999999999999,76.13767172916256
8.975999999999999,1.0,76.02861157566593
8.984,1.0,75.91950780850486
8.992,1.0,75.81036039555961
9.0,0.9999999999999999,75.70116930475827
9.008,0.9999999999999999,75.59193450407672
9.016,1.0,75.48265596153881
9.024000000000001,0.9999999999999999,75.37333364521643
9.032,1.0,75.2639675232296
9.04,0.9999999999999999,75.15455756374638
9.048,1.0,75.0451037349831
9.056000000000001,1.0,74.93560600520443
9.064,1.0,74.82606434272337
9.072,0.9999999999999999,74.71647871590132
9.08,0.9999999999999999,74.60684909314818
9.088000000000001,0.9999999999999999,74.4971754429225
9.096,0.9999999999999998,74.38745773373137
9.104,0.9999999999999999,74.2776959341306
9.112,0.9999999999999999,74.1678900127248
9.120000000000001,0.9999999999999999,74.05803993816738
9.128,0.9999999999999999,73.9481456791607
9.136,0.9999999999999999,73.83820720445605
9.144,1.0,73.72822448285373
9.152000000000001,1.0,73.61819748320318
9.16,0.9999999999999999,73.50812617440302
9.168,0.9999999999999999,73.39801052540108
9.176,0.9999999999999999,73.28785050519444
9.184000000000001,1.0,73.17764608282961
9.192,1.0,73.06739722740255
9.2,1.0,72.95710390805858
9.208,1.0,72.84676609399268
9.216000000000001,0.9999999999999999,72.73638375444943
9.224,0.9999999999999999,72.62595685872306
9.232,0.9999999999999999,72.51548537615757
9.24,0.9999999999999999,72.40496927614673
9.248000000000001,1.0,72.29440852813418
9.256,1.0,72.18380310161358
9.264,1.0,72.07315296612848
9.272,0.9999999999999999,71.96245809127242
9.280000000000001,1.0000000000000002,71.85171844668925
9.288,1.0,71.74093400207283
9.296,1.0,71.63010472716735
9.304,1.0,71.51923059176717
9.312000000000001,1.0000000000000002,71.40831156571713
9.32,0.9999999999999999,71.29734761891245
9.328,1.0,71.1863387212988
9.336,1.0,71.07528484287232
9.344,0.9999999999999999,70.96418595367987
9.352,0.9999999999999999,70.85304202381886
9.36,1.0,70.74185302343744
9.368,1.0,70.6306189227345
9.376,0.9999999999999999,70.51933969195979
9.384,0.9999999999999999,70.40801530141383
9.392,0.9999999999999999,70.29664572144823
9.4,1.0,70.18523092246544
9.408,0.9999999999999999,70.07377087491905
9.416,1.0,69.96226554931366
9.424,0.9999999999999999,69.85071491620513
9.432,1.0,69.73911894620042
9.44,0.9999999999999999,69.62747760995785
9.448,1.0,69.51579087818692
9.456,1.0,69.40405872164864
9.464,1.0,69.29228111115535
9.472,0.9999999999999999,69.18045801757091
9.48,1.0,69.06858941181066
9.488,0.9999999999999999,68.95667526484158
9.496,0.9999999999999999,68.84471554768217
9.504,0.9999999999999999,68.73271023140278
9.512,0.9999999999999999,68.62065928712528
9.52,0.9999999999999999,68.50856268602351
9.528,1.0,68.396420399323
9.536,1.0,68.28423239830127
9.544,0.9999999999999999,68.17199865428766
9.552,1.0,68.0597191386636
9.56,1.0,67.94739382286242
9.568,1.0,67.83502267836965
9.576,1.0,67.72260567672285
9.584,1.0,67.61014278951178
9.592,1.0,67.49763398837838
9.6,0.9999999999999999,67.38507924501694
9.608,1.0,67.27247853117393
9.616,1.0,67.15983181864829
9.624,1.0,67.04713907929126
9.632,1.0,66.93440028500657
9.64,1.0,66.82161540775041
9.648,0.9999999999999999,66.70878441953155
9.656,1.0,66.59590729241125
9.664,0.9999999999999999,66.48298399850347
9.672,1.0,66.3700145099747
9.68,1.0,66.25699879904425
9.688,0.9999999999999999,66.14393683798411
9.696,1.0000000000000002,66.03082859911908
9.704,0.9999999999999999,65.91767405482672
9.712,1.0,65.80447317753752
9.72,1.0,65.69122593973478
9.728,1.0,65.57793231395485
9.736,0.9999999999999999,65.46459227278694
9.744,1.0,65.35120578887336
9.752,1.0,65.23777283490939
9.76,0.9999999999999999,65.1242933836435
9.768,1.0,65.01076740787715
9.776,1.0,64.89719488046511
9.784,1.0,64.7835757743152
9.792,0.9999999999999999,64.66991006238857
9.8,1.0,64.55619771769955
9.808,1.0,64.44243871331585
9.816,0.9999999999999999,64.32863302235847
9.824,1.0,64.21478061800177
9.832,1.0,64.10088147347346
9.84,0.9999999999999999,63.98693556205483
9.847999999999999,1.0,63.872942857080446
9.856,1.0,63.758903331938406
9.864,0.9999999999999999,63.644816960070415
9.872,0.9999999999999998,63.53068371497165
9.879999999999999,0.9999999999999999,63.416503570190876
9.888,1.0,63.30227649933045
9.896,1.0,63.18800247604639
9.904,0.9999999999999999,63.07368147404839
9.911999999999999,0.9999999999999999,62.95931346709977
9.92,1.0,62.84489842901754
9.928,0.9999999999999999,62.730436333672564
9.936,1.0,62.61592715498937
9.943999999999999,1.0,62.50137086694631
9.952,0.9999999999999999,62.386767443575515
9.96,1.0000000000000002,62.27211685896298
9.968,0.9999999999999999,62.157419087248556
9.975999999999999,1.0,62.04267410262596
9.984,1.0,61.92788187934274
9.992,1.0,61.81304239170048
10.0,1.0,61.698155614054656
10.008,1.0,61.58322152081466
10.016,0.9999999999999999,61.46824008644384
10.024000000000001,1.0,61.35321128545966
10.032,1.0,61.238135092433495
10.04,1.0,61.12301148199077
10.048,0.9999999999999999,61.00784042881091
10.056000000000001,0.9999999999999999,60.89262190762747
10.064,0.9999999999999999,60.77735589322807
10.072,1.0,60.662042360454365
10.08,0.9999999999999999,60.546681284202094
10.088000000000001,1.0,60.43127263942118
10.096,1.0,60.315816401115676
10.104,0.9999999999999999,60.20031254434369
10.112,1.0,60.084761044217444
10.120000000000001,1.0,59.96916187590349
10.128,0.9999999999999999,59.85351501462238
10.136,1.0,59.73782043564891
10.144,1.0,59.62207811431199
10.152000000000001,1.0,59.50628802599477
