freq,mag,phase
6.0,1.0,0.9249423783753535
6.008,1.0,0.6323449790141756
6.016,0.9999999999999999,0.33962846128932683
6.024,1.0,0.04679339312543586
6.032,1.0,-0.24615965501468667
6.04,0.9999999999999999,-0.5392301101402995
6.048,0.9999999999999999,-0.832417396743165
6.056,1.0,-1.1257209368081975
6.064,0.9999999999999998,-1.419140149824276
6.072,0.9999997395522848,-1.7126744527952706
6.08,0.9999992520621523,-2.0063232602512384
6.088,0.999998734848993,-2.3000859842598307
6.096,0.9999981889550852,-2.593962034437883
6.104,0.9999976154090573,-2.8879508179631843
6.112,0.999997015225933,-3.1820517395864476
6.12,0.9999963894071776,-3.4762642016434877
6.128,0.9999957389407435,-3.770587604067539
6.136,0.9999950648011177,-4.065021344401818
6.144,0.9999943679493704,-4.359564817812235
6.152,0.999993649333203,-4.654217417100315
6.16,0.999992909886998,-4.9489785327162785
6.168,0.9999921505318692,-5.24384755277237
6.176,0.9999913721757137,-5.5388238630563045
6.184,0.9999905757132623,-5.833906847044942
6.192,0.9999897620261345,-6.129095885918122
6.2,0.9999889319828897,-6.424390358572732
6.208,0.9999880864390828,-6.719789641636873
6.216,0.9999872262373184,-7.015293109484322
6.224,0.9999863522073075,-7.310900134249083
6.232,0.9999854651659239,-7.606610085840156
6.24,0.9999845659172596,-7.902422331956526
6.248,0.9999836552526865,-8.198336238102252
6.256,0.9999827339509108,-8.494351167601819
6.264,0.9999818027780352,-8.790466481615638
6.272,0.9999808624876185,-9.086681539155682
6.28,0.9999799138207366,-9.382995697101396
6.288,0.9999789575060425,-9.6794083102157
6.296,0.9999779942598308,-9.975918731161217
6.304,0.9999770247860997,-10.272526310516655
6.312,0.999976049776613,-10.569230396793383
6.32,0.9999750699109676,-10.866030336452159
6.328,0.9999740858566555,-11.162925473920064
6.336,0.9999730982691309,-11.459915151607591
6.344,0.999972107791876,-11.756998709925899
6.352,0.9999711150564684,-12.054175487304231
6.36,0.9999701206826472,-12.351444820207583
6.368,0.9999691252783838,-12.648806043154403
6.376,0.9999681294399476,-12.946258488734586
6.384,0.9999671337519772,-13.243801487627579
6.392,0.9999661387875506,-13.541434368620637
6.4,0.9999651451082546,-13.839156458627306
6.408,0.999964153264257,-14.136967082706013
6.416,0.999963163794378,-14.434865564078825
6.424,0.9999621772261623,-14.73285122415044
6.432,0.9999611940759522,-15.030923382527238
6.44,0.999960214848962,-15.32908135703653
6.448,0.9999592400393501,-15.62732446374604
6.456,0.9999582701302956,-15.925652016983424
6.464,0.9999573055940714,-16.224063329356056
6.472,0.9999563468921215,-16.522557711770833
6.48,0.9999553944751371,-16.821134473454322
6.4879999999999995,0.9999544487831314,-17.11979292197288
6.496,0.9999535102455193,-17.418532363253135
6.504,0.9999525792811929,-17.717352101602174
6.5120000000000005,0.9999516562986013,-18.01625143972868
6.52,0.9999507416958273,-18.31522967876318
6.5280000000000005,0.9999498358606689,-18.614286118279544
6.536,0.9999489391707171,-18.913420056315516
6.5440000000000005,0.9999480519934363,-19.212630789394513
6.552,0.9999471746862445,-19.511917612546448
6.5600000000000005,0.9999463075965951,-19.81127981932978
6.568,0.9999454510620568,-20.110716701852667
6.5760000000000005,0.9999446054103965,-20.41022755079524
6.584,0.9999437709596606,-20.709811655431082
6.592,0.9999429480182576,-21.009468303649705
6.6,0.9999421368850415,-21.309196781978457
6.608,0.9999413378493947,-21.60899637560499
6.616,0.9999405511913111,-21.908866368399696
6.624,0.999939777181481,-22.208806042938306
6.632,0.9999390160813745,-22.50881468052461
6.64,0.9999382681433271,-22.808891561213294
6.648,0.9999375336106238,-23.109035963832934
6.656,0.9999368127175849,-23.409247166009067
6.664,0.9999361056896516,-23.709524444187405
6.672,0.9999354127434712,-24.009867073657208
6.68,0.9999347340869847,-24.310274328574693
6.688,0.9999340699195115,-24.610745481986612
6.696,0.999933420431838,-24.911279805853965
6.704,0.9999327858063023,-25.21187657107574
6.712,0.9999321662168845,-25.51253504751288
6.72,0.9999315618292912,-25.81325450401225
6.728,0.9999309728010448,-26.11403420843078
6.736,0.9999303992815713,-26.414873427659714
6.744,0.9999298414122878,-26.715771427648903
6.752,0.9999292993266921,-27.016727473431253
6.76,0.9999287731504499,-27.317740829147244
6.768,0.9999282630014837,-27.618810758069635
6.776,0.9999277689900627,-27.919936522628085
6.784,0.9999272912188908,-28.221117384434052
6.792,0.9999268297831962,-28.522352604305667
6.8,0.9999263847708207,-28.823641442292782
6.808,0.9999259562623092,-29.124983157702033
6.816,0.9999255443309987,-29.426377009122024
6.824,0.9999251490431091,-29.727822254448608
6.832,0.9999247704578323,-30.029318150910225
6.84,0.9999244086274217,-30.33086395509335
6.848,0.999924063597283,-30.63245892296801
6.856,0.9999237354060634,-30.9341023099133
6.864,0.9999234240857423,-31.235793370743174
6.872,0.9999231296617215,-31.537531359732036
6.88,0.9999228521529141,-31.839315530640707
6.888,0.9999225915718366,-32.14114513674213
6.896,0.9999223479246976,-32.44301943084748
6.904,0.9999221212114885,-32.744937665332046
6.912,0.999921911426074,-33.046899092161375
6.92,0.9999217185562816,-33.348902962917364
6.928,0.9999215425839928,-33.650948528824514
6.936,0.9999213834852319,-33.9530350407761
6.944,0.9999212412302568,-34.255161749360546
6.952,0.9999211157836496,-34.55732790488775
6.96,0.9999210071044057,-34.85953275741546
6.968,0.9999209151460239,-35.16177555677584
6.976,0.9999208398565957,-35.46405555260183
6.984,0.9999207811788972,-35.76637199435383
6.992,0.9999207390504754,-36.06872413134618
7.0,0.9999207134037397,-36.371111212773876
7.008,0.9999207041660518,-36.67353248773918
7.016,0.9999207112598134,-36.975987205278386
7.024,0.9999207346025558,-37.27847461438849
7.032,0.9999207741070297,-37.58099396405402
7.04,0.9999208296812926,-37.88354450327381
7.048,0.999920901228798,-38.18612548108782
7.056,0.9999209886484842,-38.488736146604026
7.064,0.9999210918348622,-38.79137574902526
7.072,0.9999212106781034,-39.094043537676164
7.08,0.999921345064128,-39.39673876203001
7.088,0.999921494874692,-39.699460671735736
7.096,0.9999216599874748,-40.00220851664484
7.104,0.9999218402761663,-40.30498154683835
7.112,0.999922035610554,-40.60777901265383
7.12,0.9999222458566094,-40.910600164712314
7.128,0.999922470876573,-41.21344425394529
7.136,0.999922710529044,-41.51631053162176
7.144,0.9999229646690612,-41.81919824937514
7.152,0.9999232331481923,-42.12210665923034
7.16,0.9999235158146175,-42.425035013630676
7.168,0.9999238125132137,-42.7279825654649
7.176,0.9999241230856413,-43.030948568094175
7.184,0.9999244473704251,-43.33393227537899
7.192,0.9999247852030412,-43.63693294170625
7.2,0.9999251364159987,-43.93994982201607
7.208,0.9999255008389231,-44.242982171828736
7.216,0.9999258782986395,-44.54602924727171
7.224,0.9999262686192547,-44.849090305106444
7.232,0.9999266716222392,-45.15216460275523
7.24,0.9999270871265082,-45.455251398328116
7.248,0.9999275149485048,-45.75834995064965
7.256,0.9999279549022781,-46.06145951928574
7.264,0.9999284067995651,-46.36457936457038
7.272,0.9999288704498704,-46.66770874763233
7.28,0.9999293456605454,-46.97084693042191
7.288,0.9999298322368682,-47.27399317573757
7.296,0.9999303299821208,-47.57714674725257
7.304,0.9999308386976687,-47.8803069095415
7.312,0.9999313581830379,-48.18347292810685
7.32,0.999931888235991,-48.48664406940549
7.328,0.9999324286526063,-48.78981960087511
7.336,0.9999329792273525,-49.09299879096059
7.344,0.9999335397531635,-49.39618090914039
7.352,0.9999341100215166,-49.699365225952775
7.36,0.9999346898225034,-50.00255101302212
7.368,0.9999352789449076,-50.30573754308496
7.376,0.9999358771762767,-50.60892409001628
7.384,0.9999364843029946,-50.91210992885541
7.392,0.9999371001103561,-51.215294335832105
7.4,0.9999377243826367,-51.518476588392396
7.4079999999999995,0.9999383569031672,-51.82165596522452
7.416,0.999938997454401,-52.12483174628473
7.4239999999999995,0.9999396458179862,-52.42800321282278
7.432,0.9999403017748372,-52.731169647407995
7.4399999999999995,0.9999409651052001,-53.03433033395429
7.448,0.9999416355887244,-53.33748455774622
7.4559999999999995,0.9999423130045297,-53.640631605463874
7.464,0.9999429971312735,-53.943770765208704
7.4719999999999995,0.999943687747218,-54.2469013265282
7.48,0.9999443846302961,-54.550022580441706
7.4879999999999995,0.9999450875581775,-54.85313381946481
7.496,0.9999457963083331,-55.15623433763495
7.504,0.9999465106581001,-55.45932343053576
7.5120000000000005,0.9999472303847452,-55.762400395322416
7.52,0.9999479552655277,-56.065464530745736
7.5280000000000005,0.999948685077762,-56.368515137177404
7.536,0.9999494195988798,-56.67155151663397
7.5440000000000005,0.9999501586064915,-56.97457297280163
7.552,0.9999509018784449,-57.277578811060216
7.5600000000000005,0.9999516491928881,-57.580568338507824
7.568,0.9999524003283258,-57.88354086398435
7.5760000000000005,0.9999531550636792,-58.18649569809611
7.584,0.9999539131783444,-58.48943215323911
7.5920000000000005,0.9999546744522478,-58.79234954362343
7.6,0.9999554386659049,-59.095247185296316
7.6080000000000005,0.9999562056004739,-59.39812439616623
7.616,0.9999569750378123,-59.70098049602584
7.6240000000000006,0.9999577467605307,-60.00381480657577
7.632,0.9999585205520469,-60.30662665144736
7.640000000000001,0.9999592961966387,-60.60941535622621
7.648,0.999960073479496,-60.91218024847462
7.656000000000001,0.9999608521867734,-61.214920657755044
7.664,0.9999616321056403,-61.51763591565209
7.672,0.99996241302433,-61.820325355795774
7.68,0.9999631947321924,-62.12298831388351
7.688,0.9999639770197398,-62.42562412770266
7.696,0.9999647596786964,-62.728232137152666
7.704,0.999965542502045,-63.03081168426709
7.712,0.9999663252840743,-63.33336211323559
7.72,0.9999671078204235,-63.63588277042571
7.728,0.9999678899081302,-63.93837300440449
7.736,0.999968671345671,-64.24083216596004
7.744,0.9999694519330088,-64.54325960812288
7.752,0.9999702314716327,-64.84565468618722
7.76,0.9999710097646034,-65.148016757732
7.768,0.9999717866165915,-65.4503451826419
7.776,0.9999725618339209,-65.7526393231281
7.784,0.9999733352246071,-66.05489854374896
7.792,0.9999741065983974,-66.35712221143059
7.8,0.9999748757668085,-66.65930969548711
7.808,0.9999756425431663,-66.96146036764095
7.816,0.99997640674264,-67.2635736020429
7.824,0.9999771681822809,-67.56564877529193
7.832,0.9999779266810569,-67.86768526645515
7.84,0.9999786820598874,-68.16968245708719
7.848,0.9999794341416767,-68.47163973124984
7.856,0.9999801827513493,-68.77355647553115
7.864,0.9999809277158807,-69.0754320790648
7.872,0.9999816688643294,-69.37726593354881
7.88,0.9999824060278688,-69.6790574332646
7.888,0.9999831390398171,-69.98080597509548
7.896,0.999983867735666,-70.28251095854523
7.904,0.9999845919531122,-70.58417178575635
7.912,0.9999853115320819,-70.88578786152833
7.92,0.9999860263147606,-71.18735859333555
7.928,0.9999867361456197,-71.48888339134515
7.936,0.9999874408714413,-71.79036166843477
7.944,0.9999881403413435,-72.09179284020993
7.952,0.9999888344068057,-72.39317632502141
7.96,0.9999895229216915,-72.69451154398249
7.968,0.9999902057422717,-72.99579792098575
7.976,0.9999908827272466,-73.29703488272014
7.984,0.9999915537377675,-73.59822185868741
7.992,0.999992218637457,-73.89935828121874
8.0,0.9999928772924301,-74.20044358549093
8.008,0.9999935295713122,-74.5014772095426
8.016,0.999994175345258,-74.80245859429019
8.024000000000001,0.9999948144879698,-75.10338718354357
8.032,0.9999954468757136,-75.40426242402172
8.04,0.9999960723873372,-75.70508376536834
8.048,0.999996690904284,-76.00585066016693
8.056000000000001,0.9999973023106085,-76.30656256395572
8.064,0.9999979064929913,-76.60721893524276
8.072,0.9999985033407511,-76.9078192355207
8.08,0.9999990927458597,-77.20836292928122
8.088000000000001,0.999999674602952,-77.50884948402928
8.096,1.0,-77.80927837029736
8.104,0.9999999999999999,-78.10964906165964
8.112,0.9999999999999998,-78.40996103474568
8.120000000000001,1.0,-78.71021376925387
8.128,1.0,-79.01040674796505
8.136,0.9999999999999999,-79.31053945675592
8.144,0.9999999999999999,-79.61061138461196
8.152000000000001,1.0,-79.91062202364019
8.16,1.0,-80.21057086908203
8.168,0.9999999999999999,-80.51045741932604
8.176,1.0,-80.81028117591998
8.184000000000001,1.0,-81.11004164358295
8.192,1.0,-81.40973833021751
8.2,1.0,-81.70937074692152
8.208,0.9999999999999999,-82.00893840799972
8.216000000000001,1.0,-82.30844083097494
8.224,0.9999999999999999,-82.60787753659952
8.232,0.9999999999999999,-82.90724804886642
8.24,0.9999999999999999,-83.20655189502011
8.248000000000001,1.0,-83.50578860556693
8.256,1.0,-83.80495771428585
8.264,1.0,-84.10405875823888
8.272,1.0,-84.40309127778099
8.280000000000001,1.0,-84.70205481657004
8.288,1.0,-85.00094892157658
8.296,1.0,-85.29977314309357
8.304,1.0,-85.59852703474562
8.312,1.0,-85.89721015349797
8.32,1.0,-86.19582205966604
8.328,1.0,-86.49436231692363
8.336,1.0,-86.7928304923121
8.344,0.9999999999999999,-87.09122615624841
8.352,1.0,-87.38954888253375
8.36,1.0,-87.68779824836116
8.368,0.9999999999999999,-87.985973834324
8.376,1.0,-88.2840752244231
8.384,1.0,-88.5821020060748
8.392,1.0,-88.88005377011777
8.4,0.9999999999999999,-89.17793011082075
8.408,1.0,-89.4757306258889
8.416,0.9999999999999999,-89.77345491647127
8.424,0.9999999999999999,-90.07110258716669
8.432,0.9999999999999999,-90.36867324603091
8.44,0.9999999999999999,-90.66616650458221
8.448,1.0,-90.96358197780798
8.456,1.0,-91.26091928417019
8.464,0.9999999999999999,-91.5581780456115
8.472,1.0,-91.85535788756029
8.48,0.9999999999999999,-92.15245843893656
8.488,1.0,-92.44947933215653
8.496,0.9999999999999999,-92.74642020313811
8.504,0.9999999999999999,-93.04328069130534
8.512,0.9999999999999999,-93.34006043959327
8.52,0.9999999999999999,-93.63675909445217
8.528,0.9999999999999999,-93.9333763058521
8.536,1.0,-94.22991172728658
8.544,0.9999999999999999,-94.52636501577706
8.552,0.9999999999999999,-94.82273583187607
8.56,0.9999999999999999,-95.11902383967129
8.568,1.0,-95.41522870678851
8.576,1.0,-95.71135010439531
8.584,1.0,-96.00738770720358
8.592,0.9999999999999998,-96.30334119347293
8.6,1.0,-96.59921024501286
8.608,1.0,-96.89499454718583
8.616,0.9999999999999999,-97.19069378890906
8.624,1.0,-97.48630766265727
8.632,0.9999999999999999,-97.78183586446417
8.64,1.0,-98.07727809392483
8.648,1.0,-98.37263405419682
8.656,1.0,-98.6679034520023
8.664,0.9999999999999999,-98.96308599762884
8.672,0.9999999999999999,-99.25818140493105
8.68,1.0,-99.55318939133116
8.688,1.0,-99.84810967782039
8.696,1.0,-100.1429419889591
8.704,0.9999999999999998,-100.43768605287782
8.712,1.0,-100.7323416012772
8.72,0.9999999999999999,-101.0269083694286
8.728,1.0,-101.32138609617373
8.736,1.0,-101.61577452392503
8.744,1.0,-101.91007339866484
8.752,1.0,-102.2042824699456
8.76,1.0,-102.49840149088864
8.768,0.9999999999999999,-102.79243021818405
8.776,1.0,-103.08636841208921
8.784,1.0,-103.38021583642835
8.792,0.9999999999999999,-103.67397225859072
8.8,0.9999999999999999,-103.96763744952989
8.808,1.0,-104.26121118376165
8.815999999999999,0.9999999999999999,-104.55469323936285
8.824,0.9999999999999999,-104.84808339796946
8.832,0.9999999999999998,-105.14138144477441
8.84,1.0,-105.43458716852568
8.847999999999999,1.0,-105.72770036152423
8.856,0.9999999999999999,-106.02072081962145
8.864,1.0,-106.3136483422165
8.872,1.0,-106.60648273225387
8.879999999999999,1.0,-106.89922379622055
8.888,1.0,-107.19187134414317
8.896,0.9999999999999999,-107.48442518958457
8.904,1.0,-107.77688514964083
8.911999999999999,0.9999999999999999,-108.0692510449381
8.92,0.9999999999999998,-108.3615226996288
8.928,1.0,-108.65369994138798
8.936,0.9999999999999999,-108.94578260140977
8.943999999999999,1.0,-109.23777051440341
8.952,1.0,-109.52966351858925
8.96,1.0,-109.82146145569442
8.968,1.0,-110.11316417094865
8.975999999999999,1.0,-110.40477151308005
8.984,1.0,-110.69628333431037
8.992,1.0,-110.9876994903502
9.0,1.0,-111.27901984039444
9.008,0.9999999999999999,-111.57024424711732
9.016,1.0,-111.86137257666735
9.024000000000001,1.0,-112.15240469866202
9.032,1.0,-112.44334048618268
9.04,0.9999999999999999,-112.73417981576914
9.048,0.9999999999999999,-113.02492256741418
9.056000000000001,0.9999999999999999,-113.31556862455768
9.064,0.9999999999999999,-113.60611787408106
9.072,0.9999999999999999,-113.89657020630155
9.08,1.0,-114.186925514966
9.088000000000001,1.0,-114.47718369724474
9.096,0.9999999999999999,-114.76734465372553
9.104,1.0,-115.05740828840725
9.112,1.0,-115.34737450869356
9.120000000000001,1.0,-115.63724322538599
9.128,0.9999999999999999,-115.92701435267767
9.136,0.9999999999999999,-116.21668780814657
9.144,1.0,-116.5062635127486
9.152000000000001,1.0,-116.79574139081052
9.16,1.0,-117.08512137002297
9.168,1.0,-117.37440338143362
9.176,1.0,-117.66358735943955
9.184000000000001,1.0,-117.95267324177996
9.192,0.9999999999999999,-118.24166096952887
9.2,1.0,-118.53055048708751
9.208,0.9999999999999999,-118.81934174217686
9.216000000000001,0.9999999999999999,-119.10803468582952
9.224,0.9999998810271526,-119.3966292723822
9.232,0.9999995274519766,-119.68512545946788
9.24,0.9999991745606625,-119.97352320800772
9.248000000000001,0.9999988224914215,-120.2618224822028
9.256,0.9999984713820932,-120.55002324952606
9.264,0.999998121370116,-120.83812548071435
9.272,0.9999977725924937,-121.12612914975968
9.280000000000001,0.9999974251857671,-121.41403423390092
9.288,0.9999970792859818,-121.70184071361527
9.296,0.9999967350286574,-121.98954857260985
9.304,0.9999963925487577,-122.27715779781299
9.312000000000001,0.9999960519806612,-122.56466837936513
9.32,0.9999957134581291,-122.8520803106104
9.328,0.999995377114277,-123.13939358808763
9.336,0.9999950430815454,-123.42660821152143
9.344,0.999994711491669,-123.71372418381272
9.352,0.9999943824756485,-124.00074151103036
9.36,0.999994056163721,-124.2876602024012
9.368,0.9999937326853313,-124.5744802703014
9.376,0.9999934121691034,-124.86120173024659
9.384,0.9999930947428118,-125.14782460088311
9.392,0.9999927805333538,-125.43434890397776
9.4,0.999992469666721,-125.72077466440906
9.408,0.9999921622679722,-126.00710191015695
9.416,0.9999918584612046,-126.2933306722938
9.424,0.9999915583695286,-126.57946098497403
9.432,0.9999912621150389,-126.8654928854249
9.44,0.9999909698187885,-127.15142641393624
9.448,0.9999906816007629,-127.43726161385092
9.456,0.999990397579852,-127.7229985315545
9.464,0.9999901178738262,-128.00863721646564
9.472,0.9999898425993092,-128.29417772102568
9.48,0.9999895718717527,-128.57962010068877
9.488,0.9999893058054122,-128.86496441391142
9.496,0.9999890445133212,-129.15021072214273
9.504,0.9999887881072662,-129.43535908981352
9.512,0.9999885366977636,-129.72040958432657
9.52,0.9999882903940335,-130.00536227604587
9.528,0.999988049303979,-130.29021723828643
9.536,0.9999878135341598,-130.57497454730358
9.544,0.9999875831897705,-130.8596342822828
9.552,0.9999873583746173,-131.14419652532882
9.56,0.9999871391910952,-131.4286613614553
9.568,0.9999869257401656,-131.7130288785739
9.576,0.9999867181213353,-131.99729916748404
9.584,0.9999865164326333,-132.28147232186166
9.592,0.9999863207705907,-132.56554843824904
9.6,0.9999861312302184,-132.84952761604342
9.608,0.9999859479049876,-133.13340995748672
9.616,0.9999857708868083,-133.41719556765418
9.624,0.99998560026601,-133.7008845544441
9.632,0.9999854361313214,-133.98447702856603
9.64,0.999985278569851,-134.26797310353092
9.648,0.9999851276670677,-134.55137289563905
9.656,0.9999849835067833,-134.83467652396976
9.664,0.9999848461711325,-135.11788411037014
9.672,0.9999847157405549,-135.400995779444
9.68,0.9999845922937789,-135.6840116585406
9.688,0.9999844759078017,-135.96693187774397
9.696,0.9999843666578744,-136.24975656986126
9.704,0.9999842646174841,-136.532485870412
9.712,0.9999841698583378,-136.81511991761647
9.72,0.9999840824503463,-137.09765885238505
9.728,0.9999840024616093,-137.38010281830645
9.736,0.9999839299583982,-137.66245196163698
9.744,0.9999838650051431,-137.94470643128864
9.752,0.9999838076644167,-138.22686637881858
