freq,mag,phase
6.0,1.0,125.27268164360456
6.008,0.9999999999999999,125.19595146629499
6.016,1.0000000000000002,125.1192071289834
6.024,1.0,125.04244860743411
6.032,0.9999999999999999,124.96567587744704
6.04,1.0,124.88888891485774
6.048,0.9999999999999999,124.81208769553731
6.056,0.9999999999999999,124.7352721953924
6.064,0.9999999815542132,124.65844239036518
6.072,0.9999999547843814,124.58159825643337
6.08,0.9999999291953805,124.50473976961011
6.088,0.9999999047695756,124.42786690594411
6.096,0.9999998814893335,124.35097964151943
6.104,0.9999998593370256,124.27407795245557
6.112,0.9999998382950273,124.19716181490743
6.12,0.9999998183457203,124.12023120506531
6.128,0.9999997994714941,124.04328609915483
6.136,0.9999997816547455,123.96632647343696
6.144,0.9999997648778827,123.889352304208
6.152,0.9999997491233238,123.81236356779951
6.16,0.9999997343734989,123.73536024057832
6.168,0.999999720610852,123.6583422989465
6.176,0.999999707817842,123.58130971934138
6.184,0.9999996959769427,123.50426247823543
6.192,0.9999996850706455,123.42720055213633
6.2,0.9999996750814598,123.35012391758696
6.208,0.9999996659919146,123.27303255116529
6.216,0.9999996577845596,123.19592642948436
6.224,0.9999996504419663,123.11880552919237
6.232,0.999999643946729,123.04166982697258
6.24,0.9999996382814667,122.96451929954328
6.248,0.9999996334288238,122.88735392365777
6.256,0.9999996293714707,122.81017367610437
6.264,0.9999996260921068,122.73297853370639
6.272,0.99999962357346,122.65576847332213
6.28,0.999999621798288,122.5785434718447
6.288,0.9999996207493811,122.5013035062023
6.296,0.9999996204095615,122.4240485533579
6.304,0.9999996207616855,122.34677859030937
6.312,0.9999996217886445,122.26949359408948
6.32,0.9999996234733666,122.19219354176573
6.328,0.9999996257988162,122.11487841044054
6.336,0.9999996287479983,122.03754817725105
6.344,0.9999996323039563,121.96020281936916
6.352,0.999999636449775,121.88284231400148
6.36,0.9999996411685815,121.80546663838943
6.368,0.9999996464435474,121.72807576980907
6.376,0.9999996522578875,121.65066968557112
6.384,0.9999996585948635,121.57324836302102
6.392,0.9999996654377838,121.49581177953874
6.4,0.9999996727700056,121.41835991253897
6.408,0.999999680574935,121.34089273947092
6.416,0.9999996888360291,121.2634102378184
6.424,0.9999996975367975,121.18591238509971
6.432,0.9999997066608015,121.10839915886777
6.44,0.9999997161916586,121.03087053670988
6.448,0.9999997261130401,120.95332649624795
6.456,0.9999997364086751,120.87576701513827
6.464,0.9999997470623505,120.79819207107153
6.472,0.9999997580579125,120.72060164177297
6.48,0.9999997693792667,120.64299570500206
6.4879999999999995,0.9999997810103819,120.56537423855283
6.496,0.9999997929352883,120.48773722025345
6.504,0.9999998051380806,120.41008462796663
6.5120000000000005,0.999999817602919,120.3324164395892
6.52,0.99999983031403,120.25473263305244
6.5280000000000005,0.9999998432557076,120.17703318632178
6.536,0.9999998564123147,120.09931807739697
6.5440000000000005,0.9999998697682844,120.02158728431195
6.552,0.9999998833081211,119.94384078513485
6.5600000000000005,0.9999998970164017,119.86607855796801
6.568,0.9999999108777766,119.78830058094793
6.5760000000000005,0.9999999248769721,119.71050683224523
6.584,0.9999999389987898,119.6326972900647
6.592,0.9999999532281086,119.55487193264514
6.6,0.9999999675498874,119.47703073825953
6.608,0.9999999819491641,119.39917368521479
6.616,0.9999999964110572,119.32130075185202
6.624,0.9999999999999999,119.24341191654621
6.632,1.0,119.16550715770644
6.64,1.0,119.08758645377566
6.648,1.0,119.00964978323091
6.656,1.0,118.93169712458304
6.664,1.0,118.8537284563769
6.672,0.9999999999999999,118.77574375719115
6.68,1.0,118.69774300563842
6.688,1.0,118.61972618036512
6.696,0.9999999999999999,118.54169326005155
6.704,0.9999999999999998,118.46364422341178
6.712,1.0,118.38557904919368
6.72,1.0,118.30749771617893
6.728,1.0,118.22940020318293
6.736,1.0,118.15128648905485
6.744,0.9999999999999999,118.07315655267755
6.752,1.0,117.9950103729676
6.76,1.0,117.91684792887519
6.768,0.9999999999999999,117.83866919938427
6.776,0.9999999999999999,117.76047416351236
6.784,0.9999999999999999,117.68226280031065
6.792,1.0,117.6040350888639
6.8,0.9999999999999999,117.52579100829047
6.808,1.0,117.44753053774228
6.816,1.0,117.36925365640481
6.824,0.9999999999999999,117.29096034349702
6.832,1.0,117.21265057827146
6.84,0.9999999999999999,117.13432434001413
6.848,1.0,117.05598160804453
6.856,1.0,116.97762236171562
6.864,1.0,116.89924658041373
6.872,1.0,116.82085424355874
6.88,1.0,116.74244533060387
6.888,0.9999999999999998,116.66401982103572
6.896,1.0,116.5855776943743
6.904,1.0,116.50711893017295
6.912,1.0,116.42864350801838
6.92,1.0,116.35015140753063
6.928,0.9999999999999998,116.27164260836304
6.936,0.9999999999999999,116.19311709020225
6.944,1.0,116.1145748327682
6.952,0.9999999999999999,116.03601581581404
6.96,1.0,115.95744001912624
6.968,1.0,115.87884742252449
6.976,1.0,115.80023800586171
6.984,0.9999999999999999,115.72161174902398
6.992,1.0,115.64296863193066
7.0,0.9999999999999999,115.56430863453421
7.008,1.0,115.48563173682034
7.016,1.0,115.4069379188079
7.024,1.0,115.32822716054882
7.032,1.0,115.24949944212825
7.04,1.0,115.17075474366443
7.048,1.0,115.09199304530871
7.056,1.0,115.01321432724552
7.064,1.0,114.93441856969244
7.072,0.9999999999999999,114.85560575290009
7.08,1.0,114.77677585715219
7.088,1.0,114.69792886276545
7.096,0.9999999999999999,114.61906475008973
7.104,1.0,114.54018349950789
7.112,1.0,114.46128509143583
7.12,0.9999999999999999,114.38236950632248
7.128,1.0,114.30343672464979
7.136,0.9999999999999999,114.22448672693272
7.144,0.9999999999999999,114.1455194937193
7.152,1.0,114.0665350055905
7.16,1.0,113.9875332431603
7.168,0.9999999999999999,113.9085141870757
7.176,1.0,113.8294778180167
7.184,0.9999999999999998,113.75042411669627
7.192,0.9999999999999999,113.67135306386034
7.2,0.9999999999999999,113.59226464028792
7.208,1.0,113.51315882679093
7.216,1.0000000000000002,113.43403560421427
7.224,1.0,113.35489495343587
7.232,1.0,113.27573685536663
7.24,0.9999999999999999,113.19656129095043
7.248,0.9999999999999998,113.11736824116413
7.256,1.0,113.03815768701763
7.264,1.0,112.95892960955378
7.272,1.0,112.87968398984846
7.28,1.0,112.80042080901055
7.288,1.0,112.72114004818195
7.296,1.0,112.64184168853758
7.304,1.0,112.5625257112854
7.312,1.0,112.48319209766642
7.32,0.9999999999999998,112.40384082895466
7.328,0.9999999999999999,112.32447188645727
7.336,0.999999994200692,112.24508525151442
7.344,0.9999999666362904,112.1656809054994
7.352,0.9999999382944299,112.0862588298186
7.36,0.9999999091739866,112.00681900591151
7.368,0.9999998792740677,111.92736141525081
7.376,0.9999998485940119,111.8478860393423
7.384,0.9999998171333931,111.76839285972491
7.392,0.9999997848920216,111.68888185797088
7.4,0.9999997518699466,111.60935301568563
7.4079999999999995,0.9999997180674602,111.52980631450772
7.416,0.999999683485097,111.45024173610912
7.4239999999999995,0.9999996481236392,111.37065926219503
7.432,0.9999996119841166,111.29105887450396
7.4399999999999995,0.9999995750678115,111.21144055480784
7.448,0.9999995373762591,111.1318042849119
7.4559999999999995,0.999999498911252,111.05215004665484
7.464,0.99999945967484,110.9724778219088
7.4719999999999995,0.9999994196693365,110.89278759257941
7.48,0.999999378897317,110.81307934060582
7.4879999999999995,0.9999993373616253,110.73335304796075
7.496,0.9999992950653736,110.65360869665051
7.504,0.9999992520119463,110.57384626871514
7.5120000000000005,0.9999992082050037,110.49406574622822
7.52,0.9999991636484825,110.41426711129725
7.5280000000000005,0.9999991183466004,110.33445034606343
7.536,0.9999990723038583,110.25461543270183
7.5440000000000005,0.9999990255250427,110.17476235342137
7.552,0.9999989780152306,110.09489109046503
7.5600000000000005,0.9999989297797893,110.01500162610971
7.568,0.9999988808243817,109.93509394266648
7.5760000000000005,0.9999988311549689,109.85516802248048
7.584,0.9999987807778129,109.77522384793109
7.5920000000000005,0.9999987296994791,109.69526140143194
7.6,0.999998677926841,109.61528066543107
7.6080000000000005,0.999998625467082,109.53528162241089
7.616,0.9999985723276988,109.45526425488838
7.6240000000000006,0.9999985185165049,109.375228545415
7.632,0.9999984640416343,109.29517447657699
7.640000000000001,0.9999984089115433,109.21510203099528
7.648,0.9999983531350164,109.13501119132566
7.656000000000001,0.9999982967211662,109.05490194025889
7.664,0.99999823967944,108.97477426052072
7.672,0.9999981820196215,108.89462813487208
7.68,0.9999981237518353,108.8144635461091
7.688,0.9999980648865492,108.73428047706331
7.696,0.9999980054345787,108.65407891060168
7.704,0.999997945407091,108.57385882962676
7.712,0.9999978848156075,108.4936202170768
7.72,0.9999978236720081,108.41336305592587
7.728,0.9999977619885353,108.33308732918401
7.736,0.9999976997777975,108.25279301989733
7.744,0.9999976370527726,108.17248011114815
7.752,0.9999975738268132,108.0921485860552
7.76,0.9999975101136486,108.01179842777371
7.768,0.9999974459273903,107.93142961949556
7.776,0.9999973812825352,107.85104214444944
7.784,0.9999973161939699,107.7706359859011
7.792,0.9999972506769753,107.69021112715335
7.8,0.9999971847472301,107.60976755154641
7.808,0.9999971184208144,107.52930524245798
7.816,0.999997051714216,107.44882418330342
7.824,0.9999969846443325,107.36832435753603
7.832,0.9999969172284765,107.28780574864719
7.84,0.9999968494843804,107.20726834016652
7.848,0.9999967814302003,107.12671211566223
7.856,0.9999967130845204,107.04613705874114
7.864,0.9999966444663577,106.96554315304911
7.872,0.9999965755951669,106.88493038227114
7.88,0.9999965064908435,106.8042987301316
7.888,0.9999964371737314,106.72364818039459
7.896,0.9999963676646237,106.6429787168641
7.904,0.9999962979847713,106.56229032338429
7.912,0.9999962281558842,106.48158298383983
7.92,0.9999961582001392,106.400856682156
7.928,0.9999960881401829,106.32011140229923
7.936,0.9999960179991372,106.2393471282772
7.944,0.9999959478006044,106.15856384413921
7.952,0.9999958775686717,106.07776153397656
7.96,0.9999958073279168,105.99694018192271
7.968,0.9999957371034125,105.91609977215384
7.976,0.9999956669207316,105.835240288889
7.984,0.999995596805953,105.75436171639056
7.992,0.9999955267856656,105.6734640389646
8.0,0.9999954568869746,105.59254724096117
8.008,0.9999953871375055,105.51161130677487
8.016,0.9999953175654106,105.43065622084501
8.024000000000001,0.999995248199373,105.3496819676563
8.032,0.9999951790686137,105.26868853173904
8.04,0.9999951102028947,105.18767589766969
8.048,0.9999950416325261,105.10664405007122
8.056000000000001,0.99999497338837,105.02559297361375
8.064,0.9999949055018477,104.94452265301484
8.072,0.9999948380049433,104.86343307304006
8.08,0.9999947709302098,104.78232421850352
8.088000000000001,0.999994704310775,104.70119607426837
8.096,0.9999946381803462,104.62004862524736
8.104,0.9999945725732151,104.53888185640336
8.112,0.9999945075242654,104.45769575274991
8.120000000000001,0.9999944430689756,104.37649029935189
8.128,0.9999943792434259,104.29526548132604
8.136,0.9999943160843026,104.21402128384163
8.144,0.9999942536289048,104.13275769212106
8.152000000000001,0.9999941919151488,104.05147469144056
8.16,0.9999941309815727,103.97017226713085
8.168,0.9999940708673437,103.88885040457777
8.176,0.999994011612261,103.80750908922312
8.184000000000001,0.9999939532567628,103.72614830656526
8.192,0.99999389584193,103.64476804216001
8.2,0.9999938394094922,103.56336828162125
8.208,0.9999937840018325,103.48194901062186
8.216000000000001,0.9999937296619921,103.40051021489447
8.224,0.9999936764336752,103.31905188023238
8.232,0.9999936243612539,103.23757399249027
8.24,0.999993573489773,103.15607653758522
8.248000000000001,0.9999935238649541,103.0745595014976
8.256,0.9999934755332,102.99302287027203
8.264,0.999993428541599,102.91146663001824
8.272,0.9999933829379297,102.82989076691214
8.280000000000001,0.9999933387706639,102.74829526719682
8.288,0.9999932960889715,102.66668011718366
8.296,0.9999932549427231,102.58504530325322
8.304,0.999993215382494,102.5033908118565
8.312,0.9999931774595674,102.42171662951608
8.32,0.9999931412259382,102.3400227428271
8.328,0.9999931067343139,102.25830913845864
8.336,0.9999930740381191,102.17657580315483
8.344,0.9999930431914966,102.09482272373614
8.352,0.9999930142493103,102.01304988710059
8.36,0.9999929872671459,101.93125728022521
8.368,0.9999929623013136,101.84944489016722
8.376,0.9999929394088477,101.76761270406551
8.384,0.999992918647509,101.685760709142
8.392,0.9999929000757836,101.60388889270318
8.4,0.999992883752884,101.52199724214144
8.408,0.9999928697387482,101.44008574493675
8.416,0.9999928580940388,101.35815438865808
8.424,0.9999928488801415,101.27620316096511
8.432,0.999992842159164,101.19423204960978
8.44,0.9999928379939328,101.112241042438
8.448,0.9999928364479906,101.03023012739133
8.456,0.9999928375855932,100.94819929250878
8.464,0.9999928414717046,100.86614852592848
8.472,0.9999928481719935,100.7840778158897
8.48,0.9999928577528273,100.70198715073448
8.488,0.9999928702812652,100.61987651890976
8.496,0.9999928858250532,100.5377459089692
8.504,0.9999929044526149,100.4555953095752
8.512,0.9999929262330449,100.37342470950092
8.52,0.9999929512360971,100.29123409763245
8.528,0.9999929795321773,100.20902346297076
8.536,0.9999930111923301,100.12679279463404
8.544,0.999993046288229,100.04454208185972
8.552,0.9999930848921611,99.96227131400693
8.56,0.9999931270770147,99.87998048055861
8.568,0.9999931729162637,99.79766957112395
8.576,0.9999932224839513,99.71533857544064
8.584,0.9999932758546722,99.6329874833775
8.592,0.999993333103555,99.55061628493674
8.6,0.9999933943062402,99.46822497025654
8.608,0.9999934595388605,99.3858135296136
8.616,0.999993528878018,99.30338195342571
8.624,0.9999936024007579,99.22093023225437
8.632,0.9999936801845449,99.13845835680752
8.64,0.9999937623072349,99.05596631794208
8.648,0.9999938488470452,98.97345410666688
8.656,0.9999939398825252,98.89092171414529
8.664,0.9999940354925224,98.80836913169814
8.672,0.9999941357561479,98.72579635080649
8.68,0.9999942407527415,98.64320336311452
8.688,0.9999943505618313,98.5605901604324
8.696,0.9999944652630947,98.47795673473938
8.704,0.999994584936314,98.39530307818652
8.712,0.9999947096613343,98.31262918309987
8.72,0.9999948395180128,98.22993504198331
8.728,0.9999949745861724,98.14722064752173
8.736,0.9999951149455469,98.06448599258394
8.744,0.9999952606757285,97.98173107022579
8.752,0.9999954118561094,97.89895587369317
8.76,0.9999955685658225,97.81616039642516
8.768,0.9999957308836778,97.73334463205698
8.776,0.9999958988880969,97.65050857442314
8.784,0.9999960726570456,97.56765221756042
8.792,0.9999962522679604,97.48477555571097
8.8,0.9999964377976751,97.40187858332524
8.808,0.9999966293223417,97.31896129506508
8.815999999999999,0.9999968269173499,97.2360236858066
8.824,0.9999970306572418,97.15306575064314
8.832,0.9999972406156233,97.07008748488815
8.84,0.9999974568650738,96.98708888407803
8.847999999999999,0.9999976794770482,96.90406994397485
8.856,0.9999979085217798,96.82103066056905
8.864,0.9999981440681772,96.73797103008219
8.872,0.9999983861837155,96.65489104896932
8.879999999999999,0.999998634934327,96.57179071392154
8.888,0.9999988903842862,96.4886700218683
8.896,0.9999991525960902,96.40552896997963
8.904,0.9999994216303364,96.32236755566831
8.911999999999999,0.9999996975455929,96.23918577659175
8.92,0.9999999803982701,96.15598363065382
8.928,1.0,96.07276111600662
8.936,0.9999999999999999,95.98951823105185
8.943999999999999,1.0,95.90625497444213
8.952,1.0,95.82297134508214
8.96,0.9999999999999999,95.73966734212948
8.968,0.9999999999999999,95.65634296499535
8.975999999999999,1.0,95.5729982133449
8.984,0.9999999999999999,95.4896330870974
8.992,0.9999999999999999,95.40624758642618
9.0,1.0,95.32284171175803
9.008,1.0,95.23941546377264
9.016,0.9999999999999999,95.15596884340135
9.024000000000001,0.9999999999999999,95.07250185182592
9.032,1.0,94.98901449047649
9.04,1.0,94.9055067610296
9.048,0.9999999999999999,94.82197866540541
9.056000000000001,1.0,94.73843020576483
9.064,1.0,94.65486138450595
9.072,1.0,94.57127220426001
9.08,0.9999999999999999,94.48766266788714
9.088000000000001,1.0,94.40403277847119
9.096,1.0,94.32038253931442
9.104,1.0,94.23671195393125
9.112,0.9999999999999999,94.1530210260417
9.120000000000001,1.0,94.06930975956425
9.128,1.0,93.9855781586078
9.136,1.0,93.90182622746326
9.144,1.0,93.81805397059435
9.152000000000001,1.0,93.73426139262777
9.16,1.0,93.65044849834261
9.168,1.0,93.56661529265908
9.176,0.9999999999999999,93.48276178062642
9.184000000000001,1.0,93.39888796741026
9.192,0.9999999999999999,93.314993858279
9.2,1.0000000000000002,93.23107945858933
9.208,1.0,93.1471447737713
9.216000000000001,1.0,93.06318980931226
9.224,0.9999999999999999,92.97921457074006
9.232,0.9999999999999999,92.89521906360545
9.24,0.9999999999999999,92.81120329346369
9.248000000000001,1.0,92.72716726585516
9.256,1.0,92.64311098628538
9.264,0.9999999999999999,92.55903446020386
9.272,0.9999999999999999,92.4749376929824
9.280000000000001,0.9999999999999999,92.39082068989245
9.288,1.0,92.3066834560817
9.296,0.9999999999999999,92.22252599654968
9.304,1.0,92.13834831612282
9.312000000000001,1.0,92.05415041942864
9.32,1.0,91.96993231086921
9.328,1.0,91.88569399459382
9.336,1.0,91.80143547447108
9.344,0.9999999999999999,91.7171567540603
9.352,1.0,91.63285783658236
9.36,0.9999999999999999,91.54853872488995
9.368,0.9999999999999998,91.46419942143724
9.376,1.0,91.37983992824937
9.384,0.9999999999999999,91.29546024689111
9.392,0.9999999999999999,91.21106037843577
9.4,1.0,91.12664032343326
9.408,1.0,91.04220008187845
9.416,0.9999999999999999,90.95773965317909
9.424,0.9999999999999999,90.87325903612404
9.432,0.9999999999999999,90.78875822885117
9.44,0.9999999999999998,90.70423722881587
9.448,1.0,90.61969603275946
9.456,1.0,90.53513463667815
9.464,0.9999999999999999,90.45055303579238
9.472,1.0,90.36595122451683
9.48,0.9999999999999999,90.28132919643097
9.488,1.0,90.1966869442506
9.496,1.0,90.11202445980001
9.504,1.0,90.02734173398552
9.512,0.9999999999999998,89.94263875676982
9.52,0.9999999999999999,89.85791551714783
9.528,1.0,89.77317200312373
9.536,0.9999999999999999,89.68840820168973
9.544,0.9999999999999999,89.6036240988061
9.552,1.0,89.51881967938327
9.56,0.9999999999999999,89.43399492726557
9.568,0.9999999999999999,89.3491498252169
9.576,1.0,89.26428435490857
9.584,0.9999999999999999,89.17939849690914
9.592,0.9999999999999999,89.09449223067658
9.6,1.0,89.00956553455278
9.608,0.9999999999999999,88.92461838576033
9.616,0.9999999999999999,88.83965076040195
9.624,1.0,88.7546626334623
9.632,1.0,88.66965397881258
9.64,1.0,88.5846247692175
9.648,0.9999999999999999,88.49957497634527
9.656,1.0,88.41450457078001
9.664,1.0,88.3294135220371
9.672,0.9999999999999999,88.24430179858105
9.68,1.0,88.1591693678464
9.688,1.0,88.07401619626094
9.696,1.0,87.98884224927204
9.704,1.0,87.90364749137518
9.712,1.0000000000000002,87.81843188614553
9.72,0.9999999999999998,87.73319539627155
9.728,0.9999999999999999,87.64793798359155
9.736,0.9999999999999998,87.56265960913213
9.744,0.9999999999999999,87.47736023314926
9.752,0.9999999999999999,87.39203981517126
9.76,0.9999999999999999,87.30669831404393
9.768,1.0,87.22133568797751
9.776,1.0,87.13595189459548
9.784,1.0,87.05054689098479
9.792,0.9999999999999999,86.96512063374787
9.8,1.0,86.87967307905555
9.808,1.0,86.7942041827014
9.816,1.0,86.70871390015682
9.824,0.9999999999999999,86.62320218662714
9.832,0.9999999999999999,86.53766899710791
9.84,1.0,86.45211428644222
9.847999999999999,1.0,86.36653800937754
9.856,1.0,86.28094012062311
9.864,0.9999999999999999,86.19532057490709
9.872,0.9999999999999999,86.10967932703322
9.879999999999999,1.0,86.02401633193713
9.888,1.0,85.93833154474194
9.896,1.0,85.85262492081307
9.904,0.9999999999999999,85.76689641581196
9.911999999999999,0.9999999999999999,85.68114598574859
9.92,0.9999999999999999,85.59537358703287
9.928,0.9999999999999999,85.50957917652444
9.936,1.0,85.4237627115809
