freq,mag,phase
6.0,0.9999920807333764,102.83074371283696
6.008,0.9999919896072637,102.71851430197106
6.016,0.9999918994194996,102.60624784124998
6.024,0.9999918101681119,102.49394431606517
6.032,0.9999917218510689,102.38160371188285
6.04,0.9999916344662803,102.26922601424452
6.048,0.9999915480115976,102.15681120876718
6.056,0.9999914624848147,102.04435928114368
6.064,0.999991377883668,101.93187021714297
6.072,0.9999912942058375,101.81934400261052
6.08,0.9999912114489466,101.70678062346853
6.088,0.9999911296105637,101.59418006571639
6.096,0.9999910486882017,101.48154231543081
6.104,0.9999909686793186,101.36886735876631
6.112,0.9999908895813189,101.2561551819554
6.12,0.9999908113915534,101.14340577130906
6.128,0.9999907341073196,101.03061911321686
6.136,0.9999906577258627,100.91779519414747
6.144,0.9999905822443755,100.80493400064886
6.152,0.9999905076599999,100.69203551934862
6.16,0.9999904339698263,100.5790997369544
6.168,0.9999903611708949,100.4661266402541
6.176,0.9999902892601961,100.35311621611623
6.184,0.9999902182346706,100.24006845149026
6.192,0.9999901480912102,100.12698333340694
6.2,0.9999900788266587,100.01386084897858
6.208,0.9999900104378113,99.90070098539945
6.216,0.9999899429214169,99.787503729946
6.224,0.9999898762741766,99.67426906997724
6.232,0.9999898104927455,99.56099699293515
6.24,0.9999897455737335,99.4476874863448
6.248,0.9999896815137042,99.33434053781491
6.256,0.9999896183091772,99.220956135038
6.264,0.9999895559566274,99.10753426579075
6.272,0.9999894944524864,98.99407491793441
6.28,0.9999894337931422,98.88057807941506
6.288,0.9999893739749406,98.76704373826391
6.296,0.9999893149941846,98.65347188259771
6.304,0.999989256847136,98.53986250061902
6.312,0.9999891995300152,98.42621558061653
6.32,0.9999891430390021,98.31253111096542
6.328,0.9999890873702367,98.1988090801277
6.336,0.9999890325198192,98.0850494766525
6.344,0.9999889784838103,97.9712522891764
6.352,0.9999889252582328,97.8574175064238
6.36,0.999988872839071,97.74354511720723
6.368,0.9999888212222721,97.62963511042767
6.376,0.9999887704037459,97.51568747507486
6.384,0.9999887203793658,97.40170220022769
6.392,0.9999886711449693,97.28767927505453
6.4,0.9999886226963581,97.17361868881348
6.408,0.9999885750292992,97.05952043085274
6.416,0.9999885281395254,96.94538449061105
6.424,0.9999884820227348,96.83121085761783
6.432,0.9999884366745926,96.71699952149368
6.44,0.999988392090731,96.6027504719506
6.448,0.9999883482667503,96.48846369879239
6.456,0.9999883051982176,96.37413919191496
6.464,0.9999882628806694,96.2597769413067
6.472,0.9999882213096116,96.14537693704874
6.48,0.9999881804805194,96.03093916931533
6.4879999999999995,0.9999881403888378,95.91646362837422
6.496,0.9999881010299829,95.80195030458687
6.504,0.999988062399342,95.68739918840895
6.5120000000000005,0.9999880244922734,95.5728102703905
6.52,0.9999879873041084,95.45818354117648
6.5280000000000005,0.9999879508301504,95.34351899150681
6.536,0.9999879150656762,95.22881661221706
6.5440000000000005,0.9999878800059363,95.11407639423847
6.552,0.999987845646155,94.99929832859851
6.5600000000000005,0.9999878119815317,94.88448240642107
6.568,0.9999877790072411,94.76962861892692
6.5760000000000005,0.9999877467184334,94.65473695743391
6.584,0.9999877151102345,94.53980741335751
6.592,0.9999876841777476,94.42483997821085
6.6,0.9999876539160534,94.3098346436054
6.608,0.999987624320209,94.19479140125102
6.616,0.9999875953852514,94.07971024295651
6.624,0.999987567106195,93.96459116062981
6.632,0.9999875394780335,93.84943414627843
6.64,0.9999875124957412,93.73423919200968
6.648,0.9999874861542719,93.61900629003117
6.656,0.9999874604485598,93.50373543265098
6.664,0.9999874353735212,93.38842661227818
6.672,0.9999874109240531,93.27307982142298
6.68,0.9999873870950357,93.15769505269719
6.688,0.9999873638813306,93.04227229881458
6.696,0.9999873412777837,92.92681155259112
6.704,0.9999873192792238,92.81131280694542
6.712,0.9999872978804644,92.69577605489901
6.72,0.9999872770763032,92.58020128957672
6.728,0.9999872568615237,92.46458850420699
6.736,0.9999872372308939,92.34893769212222
6.744,0.9999872181791686,92.23324884675915
6.752,0.9999871997010897,92.11752196165918
6.76,0.9999871817913851,92.00175703046867
6.768,0.9999871644447709,91.88595404693932
6.776,0.9999871476559511,91.77011300492855
6.784,0.9999871314196181,91.65423389839978
6.792,0.9999871157304542,91.53831672142285
6.8,0.9999871005831295,91.42236146817423
6.808,0.9999870859723056,91.30636813293751
6.816,0.9999870718926339,91.19033671010368
6.824,0.999987058338757,91.07426719417144
6.832,0.9999870453053088,90.95815957974766
6.84,0.999987032786915,90.84201386154756
6.848,0.9999870207781941,90.72583003439517
6.856,0.9999870092737569,90.6096080932237
6.864,0.9999869982682076,90.49334803307576
6.872,0.9999869877561449,90.3770498491038
6.88,0.999986977732161,90.26071353657046
6.888,0.9999869681908432,90.14433909084887
6.896,0.9999869591267743,90.027926507423
6.904,0.9999869505345317,89.91147578188803
6.912,0.9999869424086903,89.7949869099507
6.92,0.9999869347438208,89.67845988742961
6.928,0.9999869275344919,89.56189471025561
6.936,0.9999869207752689,89.44529137447218
6.944,0.9999869144607153,89.32864987623563
6.952,0.9999869085853934,89.21197021181564
6.96,0.9999869031438646,89.09525237759547
6.968,0.999986898130689,88.97849637007235
6.976,0.9999868935404278,88.86170218585785
6.984,0.9999868893676416,88.74486982167812
6.992,0.9999868856068918,88.62799927437445
7.0,0.9999868822527416,88.51109054090338
7.008,0.9999868792997554,88.39414361833718
7.016,0.9999868767425002,88.27715850386419
7.024,0.9999868745755452,88.16013519478912
7.032,0.9999868727934635,88.04307368853343
7.04,0.9999868713908308,87.92597398263568
7.048,0.9999868703622271,87.80883607475185
7.056,0.9999868697022369,87.6916599626557
7.064,0.99998686940545,87.57444564423918
7.072,0.9999868694664606,87.4571931175126
7.08,0.9999868698798695,87.33990238060521
7.088,0.9999868706402836,87.22257343176535
7.096,0.9999868717423158,87.10520626936095
7.104,0.9999868731805872,86.98780089187976
7.112,0.9999868749497255,86.87035729792973
7.12,0.9999868770443665,86.7528754862394
7.128,0.999986879459155,86.63535545565821
7.136,0.9999868821887445,86.51779720515688
7.144,0.9999868852277973,86.40020073382766
7.152,0.9999868885709858,86.28256604088483
7.16,0.999986892212993,86.16489312566492
7.168,0.999986896148511,86.04718198762708
7.176,0.9999869003722445,85.92943262635353
7.184,0.9999869048789098,85.81164504154975
7.192,0.9999869096632329,85.69381923304493
7.2,0.9999869147199546,85.57595520079232
7.208,0.999986920043827,85.45805294486946
7.216,0.9999869256296157,85.34011246547871
7.224,0.9999869314721002,85.22213376294746
7.232,0.9999869375660733,85.10411683772851
7.24,0.999986943906343,84.98606169040043
7.248,0.9999869504877315,84.86796832166792
7.256,0.999986957305076,84.74983673236208
7.264,0.9999869643532303,84.63166692344089
7.272,0.9999869716270636,84.5134588959894
7.28,0.999986979121462,84.39521265122022
7.288,0.9999869868313276,84.27692819047377
7.296,0.9999869947515808,84.15860551521864
7.304,0.9999870028771588,84.04024462705199
7.312,0.9999870112030179,83.92184552769983
7.32,0.999987019724132,83.80340821901741
7.328,0.9999870284354943,83.68493270298956
7.336,0.9999870373321169,83.56641898173095
7.344,0.9999870464090322,83.4478670574866
7.352,0.9999870556612926,83.32927693263211
7.36,0.9999870650839701,83.210648609674
7.368,0.9999870746721585,83.09198209125009
7.376,0.9999870844209725,82.97327738012986
7.384,0.9999870943255486,82.85453447921475
7.392,0.999987104381045,82.73575339153855
7.4,0.9999871145826426,82.6169341202677
7.4079999999999995,0.9999871249255453,82.49807666870169
7.416,0.9999871354049797,82.37918104027325
7.4239999999999995,0.9999871460161956,82.260247238549
7.432,0.9999871567544678,82.14127526722942
7.4399999999999995,0.999987167615095,82.02226513014955
7.448,0.9999871785933998,81.90321683127897
7.4559999999999995,0.9999871896847311,81.78413037472252
7.464,0.9999872008844621,81.6650057647203
7.4719999999999995,0.9999872121879926,81.54584300564831
7.48,0.9999872235907481,81.42664210201849
7.4879999999999995,0.9999872350881805,81.30740305847938
7.496,0.999987246675769,81.18812587981616
7.504,0.9999872583490197,81.06881057095126
7.5120000000000005,0.9999872701034663,80.94945713694446
7.52,0.9999872819346709,80.83006558299346
7.5280000000000005,0.9999872938382233,80.710635914434
7.536,0.999987305809742,80.59116813674038
7.5440000000000005,0.9999873178448748,80.47166225552564
7.552,0.9999873299392992,80.35211827654214
7.5600000000000005,0.9999873420887211,80.23253620568154
7.568,0.9999873542888774,80.11291604897555
7.5760000000000005,0.9999873665355359,79.99325781259587
7.584,0.9999873788244936,79.8735615028549
7.5920000000000005,0.9999873911515799,79.75382712620572
7.6,0.9999874035126547,79.63405468924277
7.6080000000000005,0.9999874159036098,79.5142441987019
7.616,0.9999874283203698,79.39439566146092
7.6240000000000006,0.9999874407588902,79.27450908453977
7.632,0.9999874532151608,79.15458447510103
7.640000000000001,0.9999874656852034,79.03462184045004
7.648,0.9999874781650735,78.9146211880355
7.656000000000001,0.9999874906508598,78.79458252544947
7.664,0.999987503138686,78.67450586042814
7.672,0.9999875156247089,78.5543912008517
7.68,0.9999875281051207,78.43423855474501
7.688,0.999987540576148,78.31404793027778
7.696,0.999987553034053,78.19381933576499
7.704,0.9999875654751333,78.07355277966712
7.712,0.9999875778957221,77.95324827059056
7.72,0.9999875902921893,77.83290581728795
7.728,0.9999876026609409,77.71252542865847
7.736,0.9999876149984194,77.59210711374811
7.744,0.9999876273011041,77.47165088175021
7.752,0.9999876395655128,77.35115674200554
7.76,0.9999876517881996,77.23062470400282
7.768,0.9999876639657569,77.11005477737892
7.776,0.9999876760948156,76.98944697191929
7.784,0.9999876881720448,76.86880129755825
7.792,0.9999877001941521,76.74811776437926
7.8,0.9999877121578842,76.62739638261536
7.808,0.9999877240600273,76.50663716264938
7.816,0.9999877358974071,76.38584011501442
7.824,0.9999877476668888,76.26500525039394
7.832,0.9999877593653783,76.14413257962237
7.84,0.9999877709898211,76.02322211368521
7.848,0.9999877825372032,75.90227386371944
7.856,0.9999877940045524,75.78128784101392
7.864,0.9999878053889373,75.66026405700954
7.872,0.999987816687467,75.53920252329968
7.88,0.9999878278972931,75.41810325163051
7.888,0.9999878390156088,75.29696625390127
7.896,0.9999878500396496,75.17579154216465
7.904,0.9999878609666929,75.05457912862705
7.912,0.999987871794059,74.93332902564893
7.92,0.9999878825191112,74.81204124574514
7.928,0.9999878931392552,74.69071580158523
7.936,0.9999879036519405,74.56935270599375
7.944,0.9999879140546603,74.44795197195063
7.952,0.9999879243449508,74.32651361259143
7.96,0.9999879345203924,74.20503764120765
7.968,0.9999879445786107,74.08352407124714
7.976,0.9999879545172742,73.9619729163143
7.984,0.9999879643340971,73.84038419017048
7.992,0.9999879740268375,73.71875790673427
8.0,0.9999879835932994,73.59709408008179
8.008,0.9999879930313315,73.47539272444703
8.016,0.999988002338828,73.35365385422213
8.024000000000001,0.999988011513729,73.23187748395776
8.032,0.9999880205540197,73.1100636283634
8.04,0.9999880294577322,72.98821230230762
8.048,0.9999880382229448,72.86632352081834
8.056000000000001,0.9999880468477812,72.74439729908326
8.064,0.999988055330413,72.62243365245025
8.072,0.9999880636690573,72.50043259642732
8.08,0.9999880718619787,72.3783941466832
8.088000000000001,0.9999880799074896,72.25631831904764
8.096,0.9999880878039481,72.13420512951164
8.104,0.9999880955497618,72.01205459422775
8.112,0.9999881031433836,71.88986672951032
8.120000000000001,0.9999881105833164,71.76764155183602
8.128,0.9999881178681094,71.64537907784398
8.136,0.9999881249963606,71.52307932433602
8.144,0.9999881319667164,71.40074230827713
8.152000000000001,0.9999881387778707,71.27836804679562
8.16,0.9999881454285674,71.15595655718361
8.168,0.9999881519175977,71.03350785689712
8.176,0.9999881582438027,70.91102196355641
8.184000000000001,0.9999881644060717,70.7884988949464
8.192,0.9999881704033433,70.66593866901692
8.2,0.9999881762346056,70.5433413038829
8.208,0.9999881818988956,70.42070681782475
8.216000000000001,0.9999881873953,70.29803522928869
8.224,0.9999881927229555,70.175326556887
8.232,0.9999881978810478,70.05258081939827
8.24,0.9999882028688126,69.92979803576775
8.248000000000001,0.9999882076855358,69.80697822510763
8.256,0.9999882123305535,69.68412140669736
8.264,0.9999882168032512,69.56122759998388
8.272,0.9999882211030655,69.43829682458187
8.280000000000001,0.9999882252294826,69.3153291002742
8.288,0.9999882291820398,69.1923244470121
8.296,0.9999882329603241,69.06928288491545
8.304,0.9999882365639741,68.946204434273
8.312,0.9999882399926782,68.8230891155429
8.32,0.999988243246176,68.69993694935263
8.328,0.9999882463242578,68.57674795649966
8.336,0.999988249226765,68.45352215795137
8.344,0.9999882519535899,68.33025957484561
8.352,0.9999882545046752,68.2069602284908
8.36,0.9999882568800164,68.08362414036637
8.368,0.9999882590796578,67.96025133212282
8.376,0.9999882611036967,67.83684182558223
8.384,0.9999882629522812,67.71339564273833
8.392,0.9999882646256103,67.58991280575701
8.4,0.9999882661239347,67.4663933369763
8.408,0.9999882674475565,67.34283725890691
8.416,0.999988268596829,67.21924459423231
8.424,0.9999882695721569,67.09561536580918
8.432,0.9999882703739968,66.97194959666746
8.44,0.9999882710028565,66.84824731001085
8.448,0.9999882714592948,66.72450852921685
8.456,0.9999882717439232,66.60073327783725
8.464,0.9999882718574037,66.47692157959821
8.472,0.9999882718004504,66.3530734584007
8.48,0.9999882715738285,66.22918893832049
8.488,0.9999882711783552,66.10526804360877
8.496,0.9999882706148988,65.98131079869214
8.504,0.9999882698843795,65.85731722817295
8.512,0.999988268987769,65.73328735682956
8.52,0.9999882679260901,65.6092212096167
8.528,0.9999882667004172,65.4851188116655
8.536,0.9999882653118767,65.36098018828399
8.544,0.9999882637616458,65.2368053649571
8.552,0.9999882620509531,65.11259436734723
8.56,0.999988260181079,64.98834722129419
8.568,0.9999882581533548,64.86406395281564
8.576,0.9999882559691632,64.73974458810727
8.584,0.999988253629938,64.61538915354312
8.592,0.9999882511371645,64.49099767567566
8.6,0.999988248492379,64.36657018123628
8.608,0.999988245697168,64.24210669713528
8.616,0.9999882427531702,64.1176072504624
8.624,0.9999882396620746,63.99307186848667
8.632,0.9999882364256207,63.86850057865713
8.64,0.9999882330455997,63.743893408602595
8.648,0.9999882295238524,63.619250386132336
8.656,0.9999882258622709,63.494571539235935
8.664,0.9999882220627971,63.36985689608378
8.672,0.9999882181274242,63.245106485027165
8.68,0.9999882140581949,63.12032033459861
8.688,0.9999882098572018,62.995498473511994
8.696,0.9999882055265892,62.87064093066294
8.704,0.9999882010685491,62.74574773512884
8.712,0.9999881964853252,62.62081891616927
8.72,0.9999881917792095,62.4958545032261
8.728,0.9999881869525442,62.370854525923804
8.736,0.9999881820077217,62.2458190140696
8.744,0.9999881769471821,62.120747997653794
8.752,0.9999881717734159,61.99564150684977
8.76,0.9999881664889617,61.87049957201456
8.768,0.9999881610964078,61.745322223688696
8.776,0.9999881555983905,61.62010949259675
8.784,0.9999881499975952,61.49486140964728
8.792,0.9999881442967553,61.36957800593327
8.8,0.9999881384986524,61.244259312732154
8.808,0.9999881326061161,61.118905361506194
8.815999999999999,0.9999881266220242,60.993516183902564
8.824,0.9999881205493016,60.86809181175361
8.832,0.9999881143909211,60.7426322770771
8.84,0.9999881081499025,60.6171376120764
8.847999999999999,0.999988101829313,60.49160784914061
8.856,0.999988095432266,60.36604302084482
8.864,0.9999880889619223,60.2404431599504
8.872,0.9999880824214883,60.114808299405105
8.879999999999999,0.9999880758142177,59.98913847234324
8.888,0.9999880691434094,59.86343371208596
8.896,0.9999880624124082,59.73769405214141
8.904,0.9999880556246044,59.61191952620491
8.911999999999999,0.9999880487834335,59.4861101681592
8.92,0.9999880418923764,59.36026601207455
8.928,0.9999880349549584,59.234387092209076
8.936,0.9999880279747498,59.10847344300883
8.943999999999999,0.9999880209553642,58.98252509910796
8.952,0.9999880139004602,58.856542095328976
8.96,0.9999880068137398,58.73052446668297
8.968,0.9999879996989482,58.60447224836971
8.975999999999999,0.9999879925598739,58.47838547577783
8.984,0.9999879854003488,58.35226418448499
8.992,0.9999879782242459,58.22610841025816
9.0,0.9999879710354822,58.09991818905379
9.008,0.999987963838016,57.97369355701781
9.016,0.9999879566358472,57.84743455048595
9.024000000000001,0.9999879494330166,57.72114120598392
9.032,0.9999879422336069,57.5948135602276
9.04,0.9999879350417409,57.468451650123015
9.048,0.9999879278615821,57.342055512766755
9.056000000000001,0.9999879206973334,57.215625185445994
9.064,0.9999879135532387,57.08916070563872
9.072,0.99998790643358,56.96266211101383
9.08,0.9999878993426785,56.836129439431296
9.088000000000001,0.9999878922848946,56.70956272894246
9.096,0.9999878852646262,56.58296201779005
9.104,0.9999878782863096,56.45632734440833
9.112,0.9999878713544186,56.3296587474233
9.120000000000001,0.9999878644734637,56.20295626565296
9.128,0.9999878576479928,56.07621993810723
9.136,0.9999878508825893,55.94944980398828
9.144,0.999987844181873,55.82264590269059
9.152000000000001,0.9999878375504994,55.69580827380111
9.16,0.9999878309931587,55.56893695709952
9.168,0.9999878245145759,55.44203199255813
9.176,0.9999878181195108,55.31509342034222
9.184000000000001,0.9999878118127558,55.18812128081018
9.192,0.9999878055991381,55.061115614513525
9.2,0.9999877994835167,54.934076462197105
9.208,0.9999877934707839,54.80700386479918
9.216000000000001,0.9999877875658635,54.67989786345168
9.224,0.9999877817737108,54.55275849948028
9.232,0.9999877760993129,54.42558581440438
9.24,0.9999877705476866,54.29837984993742
9.248000000000001,0.9999877651238797,54.17114064798697
9.256,0.9999877598329691,54.0438682506548
9.264,0.9999877546800605,53.91656270023702
9.272,0.9999877496702894,53.789224039224166
9.280000000000001,0.9999877448088182,53.66185231030144
9.288,0.9999877401008376,53.5344475563487
9.296,0.9999877355515654,53.40700982044061
9.304,0.9999877311662454,53.279539145846705
9.312000000000001,0.9999877269501479,53.15203557603166
9.32,0.9999877229085689,53.024499154655274
9.328,0.9999877190468281,52.896929925572515
9.336,0.9999877153702715,52.76932793283374
9.344,0.9999877118842667,52.64169322068485
9.352,0.9999877085942066,52.51402583356714
9.36,0.9999877055055053,52.38632581611773
9.368,0.9999877026235993,52.25859321316936
9.376,0.9999876999539468,52.130828069750734
9.384,0.9999876975020269,52.00303043108639
9.392,0.9999876952733384,51.875200342596976
9.4,0.9999876932734005,51.74733784989921
9.408,0.9999876915077504,51.61944299880609
9.416,0.9999876899819446,51.49151583532684
9.424,0.9999876887015571,51.36355640566711
9.432,0.9999876876721786,51.23556475622897
9.44,0.9999876868994165,51.107540933611105
9.448,0.999987686388894,50.97948498460871
9.456,0.9999876861462496,50.8513969562138
9.464,0.9999876861771354,50.72327689561506
9.472,0.999987686487218,50.59512485019804
9.48,0.9999876870821768,50.46694086754525
9.488,0.9999876879677035,50.33872499543613
9.496,0.9999876891495015,50.21047728184713
9.504,0.9999876906332846,50.082197774951965
9.512,0.9999876924247779,49.9538865231213
9.52,0.9999876945297146,49.825543574923216
9.528,0.9999876969538374,49.697168979122964
9.536,0.999987699702897,49.568762784683216
9.544,0.9999877027826506,49.44032504076397
9.552,0.9999877061988625,49.31185579672278
9.56,0.999987709957302,49.18335510211457
9.568,0.9999877140637439,49.05482300669191
9.576,0.9999877185239664,48.92625956040491
9.584,0.9999877233437517,48.797664813401354
9.592,0.9999877285288831,48.66903881602665
9.6,0.9999877340851474,48.54038161882402
9.608,0.9999877400183302,48.41169327253429
9.616,0.9999877463342185,48.28297382809626
9.624,0.9999877530385975,48.15422333664638
9.632,0.999987760137251,48.025441849519126
