freq,mag,phase
6.0,0.9999925444765451,-108.30668704389394
6.008,0.999989340060562,-108.70531994713832
6.016,0.9999862696584554,-109.10368731950919
6.024,0.9999833304362757,-109.50178926666932
6.032,0.9999805195937381,-109.89962590978737
6.04,0.9999778343641033,-110.29719738544068
6.048,0.9999752720140576,-110.69450384551726
6.056,0.9999728298435866,-111.09154545711803
6.064,0.9999705051858468,-111.48832240245837
6.072,0.999968295407033,-111.88483487876958
6.08,0.9999661979062437,-112.28108309819999
6.088,0.9999642101153428,-112.67706728771601
6.096,0.9999623294988157,-113.07278768900277
6.104,0.9999605535536276,-113.46824455836465
6.112,0.9999588798090729,-113.8634381666256
6.12,0.9999573058266262,-114.25836879902927
6.128,0.9999558291997888,-114.65303675513917
6.136,0.999954447553929,-115.04744234873829
6.144,0.9999531585461293,-115.4415859077291
6.152,0.999951959865017,-115.83546777403298
6.16,0.9999508492306048,-116.22908830348987
6.168,0.999949824394124,-116.62244786575768
6.176,0.9999488831378526,-117.01554684421173
6.184,0.9999480232749434,-117.40838563584406
6.192,0.999947242649251,-117.80096465116279
6.2,0.999946539135157,-118.19328431409126
6.208,0.9999459106373895,-118.58534506186749
6.216,0.9999453550908409,-118.97714734494333
6.224,0.9999448704603875,-119.36869162688382
6.232,0.9999444547407054,-119.75997838426642
6.24,0.9999441059560816,-120.15100810658053
6.248,0.9999438221602251,-120.54178129612677
6.256,0.9999436014360792,-120.93229846791637
6.264,0.999943441895625,-121.32256014957113
6.272,0.9999433416796952,-121.7125668812226
6.28,0.9999432989577682,-122.10231921541215
6.288,0.9999433119277805,-122.49181771699064
6.296,0.9999433788159213,-122.88106296301856
6.304,0.999943497876436,-123.27005554266614
6.312,0.9999436673914258,-123.65879605711343
6.32,0.999943885670641,-124.04728511945108
6.328,0.9999441510512799,-124.43552335458055
6.336,0.9999444618977833,-124.82351139911518
6.344,0.9999448166016269,-125.21124990128098
6.352,0.9999452135811149,-125.59873952081789
6.36,0.99994565128117,-125.985980928881
6.368,0.9999461281731241,-126.3729748079424
6.376,0.9999466427545127,-126.75972185169266
6.384,0.9999471935488528,-127.14622276494305
6.392,0.9999477791054409,-127.53247826352785
6.4,0.9999483979991338,-127.91848907420678
6.408,0.9999490488301388,-128.3042559345678
6.416,0.9999497302237945,-128.68977959293036
6.424,0.99995044083036,-129.0750608082483
6.432,0.9999511793247963,-129.46010035001396
6.44,0.9999519444065518,-129.84489899816185
6.448,0.9999527347993442,-130.22945754297282
6.456,0.9999535492509419,-130.6137767849787
6.464,0.9999543865329491,-130.99785753486705
6.472,0.9999552454405851,-131.38170061338633
6.48,0.99995612479247,-131.7653068512513
6.4879999999999995,0.9999570234304005,-132.14867708904893
6.496,0.9999579402191338,-132.5318121771447
6.504,0.9999588740461665,-132.91471297558846
6.5120000000000005,0.9999598238215203,-133.29738035402227
6.52,0.999960788477517,-133.67981519158653
6.5280000000000005,0.99996176696856,-134.0620183768285
6.536,0.9999627582709171,-134.44399080760937
6.5440000000000005,0.9999637613824996,-134.82573339101344
6.552,0.9999647753226422,-135.20724704325588
6.5600000000000005,0.9999657991318837,-135.58853268959265
6.568,0.999966831871749,-135.96959126422934
6.5760000000000005,0.9999678726245264,-136.3504237102315
6.584,0.9999689204930543,-136.73103097943434
6.592,0.9999699746004974,-137.11141403235388
6.6,0.9999710340901296,-137.49157383809785
6.608,0.9999720981251163,-137.87151137427702
6.616,0.9999731658882972,-138.2512276269172
6.624,0.9999742365819657,-138.63072359037153
6.632,0.9999753094276551,-139.01000026723327
6.64,0.9999763836659203,-139.38905866824874
6.648,0.9999774585561212,-139.76789981223112
6.656,0.9999785333762068,-140.1465247259743
6.664,0.9999796074225001,-140.52493444416749
6.672,0.9999806800094846,-140.90313000930988
6.68,0.9999817504695873,-141.28111247162605
6.688,0.9999828181529663,-141.65888288898182
6.696,0.999983882427299,-142.03644232680037
6.704,0.999984942677568,-142.41379185797882
6.712,0.9999859983058488,-142.79093256280552
6.72,0.999987048731101,-143.16786552887746
6.728,0.9999880933889552,-143.5445918510182
6.736,0.9999891317315063,-143.9211126311966
6.744,0.9999901632271018,-144.29742897844548
6.752,0.9999911873601348,-144.67354200878106
6.76,0.9999922036308382,-145.0494528451229
6.768,0.9999932115550744,-145.42516261721406
6.776,0.9999942106641343,-145.80067246154198
6.784,0.9999952005045287,-146.17598352125955
6.792,0.9999961806377868,-146.55109694610695
6.8,0.9999971506402524,-146.9260138923337
6.808,0.9999981101028813,-147.30073552262132
6.816,0.9999990586310405,-147.67526300600633
6.824,0.9999999958443092,-148.049597517804
6.832,1.0,-148.423740239532
6.84,0.9999999999999999,-148.79769235883538
6.848,0.9999999999999999,-149.17145506941102
6.856,1.0,-149.54502957093337
6.864,1.0,-149.91841706898026
6.872,0.9999999999999999,-150.29161877495918
6.88,0.9999999999999999,-150.66463590603408
6.888,0.9999999999999999,-151.03746968505288
6.896,1.0,-151.41012134047494
6.904,1.0,-151.7825921062994
6.912,0.9999999999999999,-152.1548832219939
6.92,0.9999999999999999,-152.5269959324237
6.928,1.0,-152.89893148778117
6.936,0.9999999999999999,-153.2706911435161
6.944,0.9999999999999999,-153.64227616026608
6.952,0.9999999999999999,-154.01368780378738
6.96,1.0,-154.3849273448867
6.968,1.0,-154.7559960593529
6.976,0.9999999999999999,-155.12689522788935
6.984,0.9999999999999999,-155.49762613604685
6.992,0.9999999999999999,-155.86819007415684
7.0,1.0,-156.23858833726516
7.008,1.0,-156.60882222506635
7.016,1.0,-156.978893041838
7.024,0.9999999999999999,-157.3488020963762
7.032,1.0,-157.71855070193072
7.04,1.0,-158.08814017614122
7.048,1.0,-158.45757184097363
7.056,1.0,-158.8268470226569
7.064,1.0,-159.19596705162044
7.072,0.9999999999999999,-159.5649332624318
7.08,0.9999999999999999,-159.93374699373473
7.088,1.0,-160.30240958818794
7.096,1.0,-160.67092239240407
7.104,1.0,-161.0392867568891
7.112,1.0,-161.40750403598233
7.12,1.0,-161.77557558779654
7.128,1.0,-162.14350277415883
7.136,1.0,-162.51128696055184
7.144,0.9999999999999999,-162.87892951605505
7.152,1.0,-163.24643181328696
7.16,1.0,-163.61379522834747
7.168,1.0000000000000002,-163.98102114076042
7.176,0.9999999999999999,-164.3481109334172
7.184,0.9999999999999998,-164.71506599251987
7.192,0.9999999999999999,-165.08188770752557
7.2,1.0,-165.44857747109063
7.208,1.0,-165.8151366790154
7.216,0.9999999999999999,-166.1815667301896
7.224,1.0,-166.54786902653743
7.232,1.0,-166.91404497296406
7.24,1.0,-167.2800959773016
7.248,1.0,-167.64602345025585
7.256,0.9999999999999999,-168.01182880535336
7.264,0.9999999999999999,-168.377513458889
7.272,0.9999999999999998,-168.7430788298735
7.28,1.0,-169.10852633998192
7.288,1.0,-169.47385741350195
7.296,0.9999999999999999,-169.83907347728285
7.304,1.0,-170.20417596068486
7.312,1.0,-170.56916629552845
7.32,0.9999999999999999,-170.93404591604457
7.328,1.0,-171.2988162588248
7.336,1.0,-171.66347876277192
7.344,1.0,-172.028034869051
7.352,1.0,-172.39248602104053
7.36,1.0,-172.7568336642842
7.368,1.0,-173.12107924644266
7.376,1.0,-173.48522421724599
7.384,1.0,-173.84927002844617
7.392,1.0,-174.21321813376989
7.4,1.0,-174.5770699888719
7.4079999999999995,0.9999999999999999,-174.94082705128855
7.416,0.9999999999999999,-175.30449078039152
7.4239999999999995,1.0,-175.66806263734182
7.432,0.9999999999999999,-176.03154408504463
7.4399999999999995,0.9999999999999999,-176.39493658810335
7.448,1.0,-176.7582416127754
7.4559999999999995,1.0,-177.12146062692662
7.464,1.0,-177.48459509998767
7.4719999999999995,0.9999999999999999,-177.84764650290919
7.48,1.0,-178.21061630811846
7.4879999999999995,1.0,-178.57350598947522
7.496,1.0,-178.93631702222896
7.504,1.0,-179.29905088297517
7.5120000000000005,1.0000000000000002,-179.6617090496131
7.52,1.0,179.97570699869743
7.5280000000000005,0.9999999999999999,179.61319578157764
7.536,0.9999999999999999,179.25075581747262
7.5440000000000005,1.0,178.88838562369259
7.552,1.0,178.52608371645496
7.5600000000000005,0.9999999999999999,178.16384861092519
7.568,0.9999999999999999,177.80167882125855
7.5760000000000005,0.9999999999999999,177.43957286064037
7.584,0.9999999999999999,177.07752924132743
7.5920000000000005,1.0,176.71554647468778
7.6,1.0,176.35362307124157
7.6080000000000005,1.0,175.99175754070055
7.616,1.0,175.6299483920085
7.6240000000000006,1.0,175.26819413338026
7.632,1.0,174.90649327234186
7.640000000000001,1.0,174.54484431576904
7.648,0.9999999999999999,174.183245769927
7.656000000000001,1.0,173.82169614050866
7.664,1.0,173.46019393267386
7.672,1.0,173.09873765108756
7.68,1.0,172.73732579995826
7.688,1.0,172.37595688307627
7.696,1.0,172.0146294038516
7.704,1.0,171.65334186535182
7.712,1.0,171.29209277033976
7.72,0.9999999999999999,170.9308806213111
7.728,1.0,170.56970392053162
7.736,1.0,170.20856117007457
7.744,0.9999999999999999,169.8474508718576
7.752,1.0,169.48637152767995
7.76,1.0,169.12532163925897
7.768,1.0000000000000002,168.76429970826715
7.776,1.0,168.4033042363683
7.784,1.0,168.04233372525434
7.792,0.9999999999999998,167.68138667668146
7.8,1.0,167.3204615925062
7.808,0.9999999999999999,166.95955697472186
7.816,1.0,166.5986713254942
7.824,1.0,166.2378031471975
7.832,0.9999999999999999,165.87695094245024
7.84,0.9999999999999999,165.5161132141509
7.848,1.0,165.15528846551345
7.856,1.0000000000000002,164.79447520010288
7.864,1.0,164.4336719218708
7.872,1.0,164.0728771351906
7.88,1.0,163.71208934489272
7.888,1.0,163.35130705630002
7.896,0.9999997015431915,162.99052877526276
7.904,0.9999991558201826,162.62975300819377
7.912,0.9999986114500224,162.2689782621034
7.92,0.9999980686358879,161.90820304463452
7.928,0.9999975275791303,161.54742586409745
7.936,0.9999969884792388,161.18664522950468
7.944,0.9999964515338015,160.82585965060582
7.952,0.9999959169384681,160.46506763792237
7.96,0.9999953848869153,160.10426770278235
7.968,0.9999948555708082,159.743458357355
7.976,0.9999943291797707,159.38263811468565
7.984,0.999993805901347,159.02180548873002
7.992,0.9999932859209713,158.66095899438918
8.0,0.9999927694219357,158.30009714754394
8.008,0.9999922565853583,157.93921846508945
8.016,0.999991747590153,157.57832146496986
8.024000000000001,0.9999912426129999,157.21740466621281
8.032,0.9999907418283165,156.85646658896414
8.04,0.9999902454082292,156.49550575452207
8.048,0.9999897535225468,156.13452068537214
8.056000000000001,0.9999892663387335,155.77350990522172
8.064,0.999988784021883,155.4124719390345
8.072,0.9999883067346941,155.051405313065
8.08,0.9999878346374459,154.69030855489322
8.088000000000001,0.9999873678879743,154.32918019345954
8.096,0.9999869066416499,153.96801875909904
8.104,0.9999864510513556,153.6068227835762
8.112,0.9999860012674647,153.24559080011971
8.120000000000001,0.9999855574378218,152.88432134345734
8.128,0.9999851197077214,152.52301294985054
8.136,0.9999846882198895,152.16166415712917
8.144,0.9999842631144661,151.80027350472642
8.152000000000001,0.9999838445289857,151.4388395337141
8.16,0.9999834325983613,151.07736078683706
8.168,0.9999830274548686,150.71583580854852
8.176,0.999982629228129,150.35426314504485
8.184000000000001,0.9999822380450952,149.99264134430123
8.192,0.999981854030038,149.63096895610647
8.2,0.9999814773045312,149.26924453209816
8.208,0.9999811079874392,148.90746662579818
8.216000000000001,0.9999807461949051,148.54563379264826
8.224,0.9999803920403383,148.18374459004534
8.232,0.9999800456344041,147.82179757737686
8.24,0.9999797070850135,147.45979131605674
8.248000000000001,0.9999793764973126,147.09772436956112
8.256,0.9999790539736746,146.73559530346412
8.264,0.9999787396136905,146.37340268547345
8.272,0.9999784335141619,146.01114508546675
8.280000000000001,0.9999781357690932,145.64882107552776
8.288,0.9999778464696858,145.28642922998236
8.296,0.9999775657043313,144.92396812543473
8.304,0.9999772935586067,144.56143634080388
8.312,0.9999770301152685,144.19883245736054
8.32,0.9999767754542507,143.836155058763
8.328,0.999976529652659,143.47340273109484
8.336,0.9999762927847688,143.11057406290078
8.344,0.9999760649220223,142.7476676452245
8.352,0.9999758461330271,142.38468207164516
8.36,0.9999756364835554,142.02161593831514
8.368,0.9999754360365406,141.65846784399682
8.376,0.9999752448520808,141.29523639010068
8.384,0.999975062987437,140.93192018072236
8.392,0.9999748904970335,140.5685178226809
8.4,0.9999747274324615,140.2050279255562
8.408,0.9999745738424785,139.8414491017276
8.416,0.9999744297730134,139.47777996641122
8.424,0.9999742952671675,139.1140191376994
8.432,0.9999741703652189,138.75016523659798
8.44,0.9999740551046274,138.38621688706607
8.448,0.9999739495200366,138.02217271605377
8.456,0.9999738536432828,137.658031353542
8.464,0.9999737675033974,137.29379143258078
8.472,0.9999736911266146,136.9294515893292
8.48,0.999973624536377,136.56501046309427
8.488,0.9999735677533442,136.20046669637094
8.496,0.9999735207953993,135.8358189348813
8.504,0.9999734836776573,135.47106582761512
8.512,0.9999734564124735,135.10620602686922
8.52,0.9999734390094535,134.7412381882885
8.528,0.9999734314754616,134.37616097090543
8.536,0.9999734338146306,134.01097303718163
8.544,0.9999734460283742,133.64567305304766
8.552,0.9999734681153959,133.2802596879449
8.56,0.9999735000717013,132.9147316148658
8.568,0.9999735418906098,132.5490875103959
8.576,0.9999735935627669,132.1833260547548
8.584,0.999973655076157,131.81744593183822
8.592,0.9999737264161165,131.45144582925948
8.6,0.9999738075653468,131.08532443839206
8.608,0.9999738985039304,130.71908045441114
8.616,0.9999739992093427,130.35271257633678
8.624,0.9999741096564683,129.98621950707584
8.632,0.9999742298176163,129.6195999534655
8.64,0.9999743596625361,129.25285262631556
8.648,0.9999744991584336,128.88597624045218
8.656,0.999974648269986,128.51896951476104
8.664,0.9999748069593619,128.15183117223103
8.672,0.9999749751862358,127.78455993999788
8.68,0.9999751529078076,127.41715454938848
8.688,0.9999753400788197,127.04961373596466
8.696,0.9999755366515767,126.68193623956813
8.704,0.9999757425759624,126.31412080436448
8.712,0.9999759577994612,125.94616617888857
8.72,0.9999761822671765,125.57807111608898
8.728,0.999976415921851,125.20983437337392
8.736,0.9999766587038871,124.84145471265583
8.744,0.9999769105513678,124.47293090039791
8.752,0.9999771714000774,124.10426170765909
8.76,0.9999774411835235,123.73544591014088
8.768,0.9999777198329589,123.36648228823296
8.776,0.9999780072774035,122.99736962706018
8.784,0.9999783034436655,122.62810671652879
8.792,0.9999786082563675,122.25869235137381
8.8,0.9999789216379668,121.88912533120553
8.808,0.9999792435087794,121.51940446055751
8.815999999999999,0.9999795737870054,121.14952854893347
8.824,0.9999799123887517,120.77949641085529
8.832,0.9999802592280567,120.40930686591109
8.84,0.999980614216916,120.03895873880327
8.847999999999999,0.9999809772653057,119.66845085939663
8.856,0.9999813482812102,119.29778206276711
8.864,0.9999817271706463,118.92695118925077
8.872,0.9999821138376894,118.5559570844926
8.879999999999999,0.9999825081845009,118.18479859949552
8.888,0.9999829101113532,117.81347459066987
8.896,0.9999833195166585,117.44198391988341
8.904,0.999983736296994,117.07032545451074
8.911999999999999,0.9999841603471309,116.69849806748319
8.92,0.9999845915600615,116.32650063733934
8.928,0.9999850298270275,115.95433204827542
8.936,0.9999854750375481,115.58199119019599
8.943999999999999,0.9999859270794489,115.20947695876438
8.952,0.99998638583889,114.83678825545404
8.96,0.9999868512003954,114.46392398759991
8.968,0.9999873230468838,114.09088306844961
8.975999999999999,0.9999878012596952,113.71766441721506
8.984,0.9999882857186234,113.34426695912425
8.992,0.9999887763019449,112.97068962547363
9.0,0.9999892728864491,112.59693135368002
9.008,0.9999897753474696,112.22299108733291
9.016,0.9999902835589136,111.84886777624725
9.024000000000001,0.9999907973932947,111.47456037651627
9.032,0.9999913167217623,111.10006785056441
9.04,0.9999918414141342,110.72538916720028
9.048,0.9999923713389279,110.35052330167008
9.056000000000001,0.9999929063633924,109.97546923571137
9.064,0.9999934463535404,109.60022595760657
9.072,0.9999939911741796,109.22479246223664
9.08,0.9999945406889467,108.84916775113528
9.088000000000001,0.9999950947603385,108.4733508325434
9.096,0.9999956532497457,108.0973407214632
9.104,0.9999962160174856,107.72113643971265
9.112,0.9999967829228348,107.34473701598031
9.120000000000001,0.999997353824063,106.96814148588044
9.128,0.9999979285784663,106.59134889200777
9.136,0.999998507042401,106.21435828399257
9.144,0.9999990890713171,105.83716871855617
9.152000000000001,0.9999996745197924,105.45977925956656
9.16,1.0,105.08218897809395
9.168,0.9999999999999998,104.70439695246624
9.176,1.0,104.32640226832518
9.184000000000001,0.9999999999999999,103.94820401868263
9.192,0.9999999999999999,103.5698013039765
9.2,0.9999999999999999,103.19119323212689
9.208,1.0,102.81237891859276
9.216000000000001,1.0,102.43335748642856
9.224,1.0,102.05412806634085
9.232,0.9999999999999999,101.67468979674481
9.24,1.0,101.29504182382139
9.248000000000001,0.9999999999999999,100.9151833015744
9.256,1.0,100.5351133918875
9.264,1.0,100.15483126458126
9.272,1.0,99.77433609747048
9.280000000000001,1.0,99.39362707642191
9.288,1.0,99.01270339541142
9.296,1.0,98.6315642565814
9.304,1.0,98.25020887029861
9.312000000000001,1.0,97.86863645521188
9.32,0.9999999999999999,97.48684623830988
9.328,1.0,97.10483745497855
9.336,1.0,96.72260934905927
9.344,1.0,96.34016117290697
9.352,0.9999999999999999,95.95749218744746
9.36,1.0,95.57460166223609
9.368,0.9999999999999999,95.19148887551516
9.376,1.0,94.80815311427253
9.384,1.0,94.42459367429903
9.392,0.9999999999999999,94.04080986024726
9.4,1.0,93.65680098568897
9.408,1.0,93.27256637317377
9.416,1.0,92.88810535428657
9.424,0.9999999999999998,92.50341726970632
9.432,1.0,92.11850146926336
9.44,1.0,91.73335731199818
9.448,1.0,91.34798416621864
9.456,1.0,90.96238140955872
9.464,1.0,90.57654842903561
9.472,0.9999999999999999,90.19048462110842
9.48,1.0,89.80418939173519
9.488,1.0,89.4176621564313
9.496,1.0,89.03090234032659
9.504,1.0,88.64390937822341
9.512,1.0,88.25668271465369
9.52,1.0,87.86922180393687
9.528,1.0,87.48152611023652
9.536,1.0,87.09359510761834
9.544,1.0,86.70542828010646
9.552,0.9999999999999999,86.31702512174111
9.56,1.0,85.92838513663472
9.568,1.0,85.5395078390294
9.576,1.0,85.15039275335262
9.584,1.0,84.76103941427445
9.592,1.0,84.37144736676296
9.6,1.0,83.98161616614102
9.608,0.9999999999999999,83.59154537814143
9.616,1.0,83.20123457896324
9.624,1.0,82.81068335532663
9.632,1.0,82.41989130452873
9.64,1.0,82.02885803449814
9.648,0.9999999999999999,81.63758316385022
9.656,1.0,81.24606632194119
9.664,1.0,80.85430714892296
9.672,0.9999999999999999,80.46230529579672
9.68,0.9999999999999999,80.07006042446727
9.688,1.0,79.67757220779602
9.696,1.0,79.28484032965481
9.704,0.9999999999999999,78.89186448497834
9.712,0.9999999999999999,78.49864437981743
9.72,1.0000000000000002,78.10517973139075
9.728,0.9999999999999999,77.71147026813748
9.736,1.0,77.31751572976843
9.744,0.9999999999999999,76.92331586731807
9.752,1.0,76.52887044319482
9.76,1.0,76.13417923123247
9.768,1.0,75.73924201673972
9.776,1.0,75.34405859655088
9.784,1.0,74.94862877907458
9.792,1.0,74.5529523843437
9.8,1.0,74.15702924406332
9.808,1.0,73.76085920165971
9.816,0.9999999999999999,73.36444211232755
9.824,1.0,72.96777784307797
9.832,0.9999999999999999,72.57086627278484
9.84,1.0,72.17370729223201
9.847999999999999,1.0,71.77630080415867
9.856,1.0,71.37864672330515
9.864,0.9999999999999999,70.98074497645817
9.872,0.9999999999999999,70.58259550249518
9.879999999999999,1.0,70.18419825242823
9.888,0.9999999999999999,69.78555318944754
9.896,0.9999999999999999,69.38666028896479
9.904,1.0,68.98751953865515
9.911999999999999,1.0,68.58813093849903
9.92,1.0,68.18849450082357
9.928,1.0,67.78861025034337
9.936,0.9999999999999999,67.38847822420047
9.943999999999999,1.0,66.98809847200363
9.952,0.9999999999999999,66.58747105586733
