freq,mag,phase
6.0,0.9999956710635269,94.22734730613739
6.008,0.9999957068601596,94.10319031394602
6.016,0.9999957424998341,93.97899512268633
6.024,0.9999957780157849,93.8547616669041
6.032,0.9999958134401427,93.73048988128976
6.04,0.9999958488039489,93.60617970067817
6.048,0.9999958841371686,93.4818310600487
6.056,0.9999959194687066,93.35744389452505
6.064,0.9999959548264195,93.23301813937518
6.072,0.9999959902371299,93.10855373001128
6.08,0.9999960257266416,92.98405060198965
6.088,0.9999960613197514,92.85950869101063
6.096,0.9999960970402643,92.73492793291842
6.104,0.9999961329110068,92.61030826370114
6.112,0.9999961689538392,92.48564961949057
6.12,0.9999962051896725,92.36095193656215
6.128,0.9999962416384781,92.23621515133478
6.136,0.9999962783193033,92.11143920037084
6.144,0.9999963152502848,91.9866240203759
6.152,0.9999963524486616,91.86176954819875
6.16,0.999996389930788,91.73687572083118
6.168,0.999996427712147,91.61194247540793
6.176,0.9999964658073651,91.48696974920644
6.184,0.9999965042302221,91.36195747964688
6.192,0.9999965429936676,91.23690560429182
6.2,0.9999965821098312,91.11181406084624
6.208,0.9999966215900389,90.98668278715733
6.216,0.9999966614448216,90.86151172121433
6.224,0.9999967016839313,90.73630080114836
6.232,0.9999967423163533,90.61104996523231
6.24,0.9999967833503182,90.48575915188067
6.248,0.9999968247933146,90.36042829964931
6.256,0.9999968666521023,90.23505734723535
6.264,0.9999969089327245,90.10964623347705
6.272,0.9999969516405206,89.98419489735353
6.28,0.9999969947801377,89.85870327798463
6.288,0.9999970383555451,89.73317131463078
6.296,0.9999970823700438,89.60759894669272
6.304,0.9999971268262805,89.48198611371137
6.312,0.9999971717262603,89.35633275536769
6.32,0.9999972170713574,89.23063881148236
6.328,0.9999972628623279,89.10490422201566
6.336,0.9999973090993214,88.9791289270673
6.344,0.9999973557818939,88.85331286687608
6.352,0.9999974029090188,88.72745598181989
6.36,0.9999974504790987,88.60155821241528
6.368,0.9999974984899774,88.4756194993174
6.376,0.9999975469389526,88.34963978331973
6.384,0.999997595822785,88.22361900535383
6.392,0.999997645137713,88.09755710648916
6.4,0.9999976948794619,87.97145402793284
6.408,0.9999977450432557,87.8453097110294
6.416,0.9999977956238296,87.71912409726062
6.424,0.9999978466154398,87.59289712824516
6.432,0.9999978980118766,87.46662874573843
6.44,0.9999979498064732,87.34031889163238
6.448,0.9999980019921185,87.21396750795505
6.456,0.999998054561269,87.08757453687059
6.464,0.9999981075059563,86.96113992067885
6.472,0.9999981608178017,86.83466360181512
6.48,0.9999982144880248,86.70814552284995
6.4879999999999995,0.9999982685074561,86.58158562648887
6.496,0.9999983228665448,86.45498385557201
6.504,0.9999983775553734,86.32834015307407
6.5120000000000005,0.9999984325636637,86.20165446210379
6.52,0.9999984878807922,86.07492672590394
6.5280000000000005,0.999998543495796,85.94815688785077
6.536,0.999998599397386,85.82134489145399
6.5440000000000005,0.9999986555739567,85.69449068035628
6.552,0.9999987120135952,85.56759419833323
6.5600000000000005,0.9999987687040933,85.44065538929279
6.568,0.9999988256329557,85.31367419727523
6.5760000000000005,0.9999988827874107,85.18665056645268
6.584,0.9999989401544206,85.05958444112898
6.592,0.9999989977206913,84.93247576573921
6.6,0.9999990554726814,84.80532448484956
6.608,0.9999991133966132,84.67813054315694
6.616,0.9999991714784807,84.55089388548873
6.624,0.999999229704061,84.42361445680238
6.632,0.9999992880589225,84.29629220218527
6.64,0.9999993465284344,84.16892706685421
6.648,0.999999405097777,84.04151899615526
6.656,0.9999994637519495,83.91406793556337
6.664,0.9999995224757808,83.78657383068209
6.672,0.9999995812539373,83.65903662724318
6.68,0.999999640070933,83.5314562711064
6.688,0.9999996989111373,83.40383270825913
6.696,0.9999997577587852,83.27616588481598
6.704,0.9999998165979853,83.14845574701859
6.712,0.999999875412729,83.02070224123518
6.72,0.9999999341868978,82.89290531396037
6.728,0.9999999929042748,82.76506491181466
6.736,0.9999999999999999,82.63718098154423
6.744,1.0,82.50925347002057
6.752,0.9999999999999999,82.38128232424009
6.76,1.0,82.25326749132387
6.768,1.0,82.12520891851723
6.776,1.0,81.99710655318945
6.784,1.0,81.86896034283339
6.792,1.0,81.74077023506511
6.8,0.9999999999999999,81.61253617762361
6.808,0.9999999999999999,81.48425811837038
6.816,1.0,81.3559360052891
6.824,1.0,81.22756978648528
6.832,0.9999999999999999,81.09915941018589
6.84,1.0,80.97070482473902
6.848,0.9999999999999999,80.84220597861348
6.856,0.9999999999999998,80.71366282039845
6.864,1.0,80.58507529880318
6.872,1.0,80.45644336265653
6.88,0.9999999999999999,80.32776696090663
6.888,0.9999999999999999,80.19904604262057
6.896,1.0,80.07028055698396
6.904,0.9999999999999998,79.94147045330058
6.912,0.9999999999999999,79.81261568099201
6.92,0.9999999999999999,79.68371618959723
6.928,1.0,79.55477192877235
6.936,0.9999999999999999,79.42578284829005
6.944,1.0,79.2967488980394
6.952,0.9999999999999999,79.16767002802527
6.96,1.0,79.03854618836814
6.968,0.9999999999999999,78.90937732930365
6.976,1.0,78.78016340118214
6.984,1.0,78.65090435446838
6.992,1.0,78.52160013974112
7.0,1.0,78.39225070769272
7.008,1.0,78.26285600912877
7.016,0.9999999999999999,78.13341599496763
7.024,1.0,78.00393061624021
7.032,1.0,77.87439982408935
7.04,1.0,77.74482356976966
7.048,1.0,77.61520180464693
7.056,0.9999999999999999,77.48553448019784
7.064,0.9999999999999999,77.35582154800957
7.072,1.0,77.22606295977938
7.08,1.0,77.09625866731419
7.088,1.0,76.96640862253021
7.096,1.0,76.83651277745257
7.104,1.0,76.70657108421486
7.112,1.0,76.57658349505877
7.12,0.9999999999999999,76.4465499623337
7.128,0.9999999999999999,76.31647043849634
7.136,1.0,76.18634487611024
7.144,0.9999999999999999,76.05617322784546
7.152,0.9999999999999999,75.92595544647818
7.16,0.9999999999999999,75.79569148489023
7.168,1.0,75.66538129606873
7.176,1.0000000000000002,75.53502483310568
7.184,1.0,75.40462204919756
7.192,0.9999999999999999,75.27417289764495
7.2,0.9999999999999999,75.14367733185203
7.208,1.0,75.01313530532633
7.216,1.0,74.88254677167818
7.224,1.0,74.75191168462041
7.232,1.0,74.62122999796783
7.24,1.0,74.49050166563698
7.248,1.0,74.3597266416456
7.256,0.9999999999999999,74.22890488011224
7.264,1.0,74.09803633525591
7.272,1.0,73.96712096139564
7.28,1.0,73.83615871295008
7.288,0.9999999999999999,73.70514954443708
7.296,1.0,73.57409341047331
7.304,0.9999999999999999,73.44299026577382
7.312,0.9999999999999999,73.3118400651517
7.32,0.9999999999999999,73.18064276351757
7.328,0.9999999999999999,73.04939831587927
7.336,1.0,72.91810667734146
7.344,0.9999999999999998,72.78676780310509
7.352,0.9999999999999999,72.65538164846718
7.36,1.0,72.52394816882024
7.368,0.9999999999999999,72.392467319652
7.376,1.0,72.26093905654491
7.384,0.9999999999999999,72.12936333517582
7.392,1.0,71.99774011131554
7.4,1.0,71.8660693408284
7.4079999999999995,1.0,71.73435097967194
7.416,1.0,71.60258498389639
7.4239999999999995,0.9999999999999999,71.4707713096444
7.432,1.0000000000000002,71.33890991315056
7.4399999999999995,1.0000000000000002,71.20700075074099
7.448,1.0,71.07504377883298
7.4559999999999995,1.0,70.94303895393463
7.464,0.9999999999999998,70.81098623264435
7.4719999999999995,1.0,70.67888557165061
7.48,0.9999999999999999,70.54673692773127
7.4879999999999995,1.0,70.41454025775361
7.496,1.0,70.28229551867352
7.504,0.9999999999999999,70.1500026675354
7.5120000000000005,1.0,70.01766166147156
7.52,1.0,69.88527245770204
7.5280000000000005,0.9999999999999999,69.75283501353398
7.536,1.0,69.62034928636147
7.5440000000000005,1.0,69.48781523366497
7.552,1.0,69.3552328130111
7.5600000000000005,1.0,69.22260198205201
7.568,1.0,69.08992269852534
7.5760000000000005,1.0,68.95719492025344
7.584,1.0,68.82441860514338
7.5920000000000005,1.0,68.69159371118624
7.6,1.0,68.55872019645699
7.6080000000000005,1.0,68.42579801911387
7.616,1.0,68.29282713739826
7.6240000000000006,1.0,68.1598075096341
7.632,0.9999999999999999,68.02673909422766
7.640000000000001,1.0,67.89362184966706
7.648,1.0,67.76045573452203
7.656000000000001,0.9999999999999998,67.62724070744333
7.664,0.9999999999999999,67.49397672716265
7.672,1.0,67.36066375249202
7.68,1.0,67.22730174232356
7.688,0.9999999999999999,67.0938906556291
7.696,0.9999999999999999,66.96043045145979
7.704,1.0,66.82692108894575
7.712,1.0,66.6933625272958
7.72,1.0,66.55975472579692
7.728,0.9999999999999999,66.42609764381405
7.736,0.9999999999999999,66.29239124078973
7.744,1.0000000000000002,66.15863547624365
7.752,1.0,66.02483030977237
7.76,1.0,65.89097570104899
7.768,1.0,65.75707160982277
7.776,1.0,65.62311799591878
7.784,1.0,65.4891148192376
7.792,0.9999999999999999,65.35506203975494
7.8,1.0,65.22095961752137
7.808,0.9999999999999999,65.08680751266182
7.816,1.0,64.95260568537549
7.824,1.0,64.8183540959353
7.832,1.0,64.68405270468774
7.84,0.9999999999999999,64.54970147205238
7.848,0.9999999999999999,64.41530035852165
7.856,1.0,64.28084932466051
7.864,1.0,64.14634833110608
7.872,0.9999999999999998,64.01179733856739
7.88,0.9999999999999998,63.877196307825024
7.888,0.9999999999999999,63.742545199730785
7.896,0.9999999999999999,63.60784397520745
7.904,1.0,63.473092595248374
7.912,1.0,63.33829102091732
7.92,1.0,63.20343921334798
7.928,1.0,63.06853713374384
7.936,1.0,62.93358474337774
7.944,1.0,62.79858200359174
7.952,1.0,62.663528875796636
7.96,1.0,62.528425321471836
7.968,0.9999999999999999,62.393271302164976
7.976,1.0,62.25806677949167
7.984,1.0,62.122811715135214
7.992,1.0,61.987506070846315
8.0,1.0,61.85214980844284
8.008,1.0,61.71674288980947
8.016,1.0,61.581285276897454
8.024000000000001,0.9999999999999999,61.445776931724446
8.032,1.0,61.31021781637411
8.04,0.9999999999999999,61.17460789299586
8.048,1.0,61.03894712380465
8.056000000000001,1.0,60.90323547108073
8.064,0.9999999999999999,60.76747289716936
8.072,1.0,60.63165936448059
8.08,0.9999999700703394,60.49579483548888
8.088000000000001,0.9999999101634739,60.35987927273306
8.096,0.9999998503073736,60.223912638815975
8.104,0.9999997905278553,60.08789489640422
8.112,0.9999997308509391,59.95182600822795
8.120000000000001,0.9999996713028436,59.81570593708062
8.128,0.9999996119099831,59.67953464581886
8.136,0.9999995526989615,59.543312097362026
8.144,0.9999994936965688,59.407038254692125
8.152000000000001,0.9999994349297758,59.27071308085368
8.16,0.9999993764257308,59.13433653895333
8.168,0.9999993182117533,58.997908592159696
8.176,0.9999992603153308,58.86142920370311
8.184000000000001,0.9999992027641131,58.724898336875576
8.192,0.999999145585908,58.588315955030396
8.2,0.9999990888086766,58.45168202158199
8.208,0.999999032460528,58.314996500005684
8.216000000000001,0.9999989765697147,58.17825935383768
8.224,0.9999989211646277,58.041470546674695
8.232,0.999998866273792,57.904630042173785
8.24,0.9999988119258597,57.76773780405214
8.248000000000001,0.9999987581496081,57.63079379608705
8.256,0.9999987049739314,57.493797982115616
8.264,0.9999986524278378,57.35675032603457
8.272,0.9999986005404429,57.21965079180003
8.280000000000001,0.9999985493409662,57.082499343427514
8.288,0.999998498858724,56.94529594499172
8.296,0.9999984491231253,56.8080405606262
8.304,0.9999984001636655,56.67073315452337
8.312,0.9999983520099227,56.533373690934354
8.32,0.9999983046915508,56.395962134168684
8.328,0.9999982582382752,56.25849844859439
8.336,0.9999982126798853,56.120982598637575
8.344,0.9999981680462328,55.98341454878252
8.352,0.999998124367222,55.84579426357136
8.36,0.9999980816728075,55.70812170760411
8.368,0.9999980399929865,55.57039684553836
8.376,0.9999979993577945,55.432619642089364
8.384,0.9999979597972994,55.294790062029655
8.392,0.9999979213415958,55.15690807018918
8.4,0.9999978840207989,55.018973631454976
8.408,0.9999978478650396,54.880986710771225
8.416,0.9999978129044581,54.74294727313898
8.424,0.9999977791691989,54.60485528361625
8.432,0.9999977466894037,54.46671070731767
8.44,0.9999977154952076,54.328513509414634
8.448,0.9999976856167317,54.19026365513501
8.456,0.9999976570840776,54.051961109763205
8.464,0.999997629927323,53.91360583863988
8.472,0.9999976041765125,53.77519780716215
8.48,0.9999975798616559,53.63673698078317
8.488,0.999997557012719,53.49822332501238
8.496,0.9999975356596191,53.35965680541515
8.504,0.9999975158322197,53.22103738761291
8.512,0.9999974975603224,53.082365037282976
8.52,0.9999974808736638,52.94363972015859
8.528,0.9999974658019072,52.80486140202869
8.536,0.9999974523746373,52.66603004873808
8.544,0.9999974406213553,52.52714562618713
8.552,0.9999974305714704,52.38820810033199
8.56,0.9999974222542974,52.249217437184285
8.568,0.9999974156990468,52.11017360281131
8.576,0.9999974109348216,51.97107656333579
8.584,0.9999974079906101,51.83192628493607
8.592,0.9999974068952798,51.69272273384577
8.6,0.9999974076775723,51.55346587635417
8.608,0.999997410366095,51.41415567880578
8.616,0.9999974149893182,51.27479210760061
8.624,0.9999974215755666,51.135375129194
8.632,0.9999974301530139,50.99590471009671
8.64,0.9999974407496773,50.856380816874804
8.648,0.9999974533934111,50.716803416149794
8.656,0.9999974681118996,50.57717247459844
8.664,0.9999974849326526,50.43748795895298
8.672,0.9999975038829991,50.29774983600094
8.68,0.9999975249900805,50.15795807258529
8.688,0.9999975482808445,50.01811263560433
8.696,0.9999975737820398,49.87821349201186
8.704,0.9999976015202097,49.738260608817015
8.712,0.9999976315216853,49.59825395308451
8.72,0.9999976638125818,49.45819349193444
8.728,0.9999976984187894,49.31807919254253
8.736,0.9999977353659691,49.17791102213997
8.744,0.9999977746795468,49.037688948013646
8.752,0.9999978163847063,48.89741293750599
8.76,0.9999978605063843,48.75708295801524
8.768,0.9999979070692635,48.616698976995245
8.776,0.9999979560977678,48.47626096195579
8.784,0.9999980076160548,48.335768880462375
8.792,0.9999980616480115,48.195222700136576
8.8,0.9999981182172474,48.05462238865577
8.808,0.9999981773470886,47.913967913753574
8.815999999999999,0.9999982390605725,47.77325924321956
8.824,0.9999983033804412,47.63249634489958
8.832,0.9999983703291364,47.49167918669574
8.84,0.9999984399287931,47.35080773656655
8.847999999999999,0.9999985122012337,47.209881962526914
8.856,0.9999985871679633,47.06890183264823
8.864,0.9999986648501616,46.927867315058606
8.872,0.99999874526868,46.78677837794285
8.879999999999999,0.9999988284440338,46.64563498954257
8.888,0.9999989143963978,46.50443711815624
8.896,0.9999990031455999,46.36318473213946
8.904,0.9999990947111153,46.221877799904966
8.911999999999999,0.9999991891120615,46.08051628992268
8.92,0.9999992863671934,45.93910017071984
8.928,0.9999993864948957,45.79762941088129
8.936,0.9999994895131792,45.65610397904948
8.943999999999999,0.9999995954396745,45.51452384392447
8.952,0.999999704291627,45.372888974264235
8.96,0.999999816085891,45.231199338884785
8.968,0.9999999308389247,45.08945490666023
8.975999999999999,0.9999999999999999,44.94765564652293
8.984,1.0,44.80580152746359
8.992,0.9999999999999998,44.663892518531576
9.0,1.0,44.52192858883491
9.008,0.9999999999999999,44.3799097075404
9.016,0.9999999999999998,44.23783584387389
9.024000000000001,1.0,44.09570696712038
9.032,0.9999999999999999,43.95352304662419
9.04,1.0,43.81128405178914
9.048,1.0,43.66898995207851
9.056000000000001,1.0,43.52664071701562
9.064,1.0,43.38423631618366
9.072,1.0,43.241776719225925
9.08,1.0,43.09926189584605
9.088000000000001,0.9999999999999999,42.95669181580823
9.096,0.9999999999999999,42.81406644893728
9.104,1.0,42.67138576511891
9.112,1.0,42.52864973429979
9.120000000000001,1.0,42.38585832648794
9.128,1.0,42.2430115117528
9.136,1.0,42.10010926022536
9.144,1.0,41.957151542098416
9.152000000000001,1.0,41.81413832762683
9.16,1.0,41.67106958712773
9.168,1.0,41.52794529098054
9.176,1.0,41.38476540962735
9.184000000000001,0.9999999999999998,41.24152991357311
9.192,1.0,41.09823877338583
9.2,1.0,40.95489195969669
9.208,0.9999999999999999,40.81148944320034
9.216000000000001,1.0,40.668031194655164
9.224,0.9999999999999999,40.52451718488344
9.232,1.0,40.38094738477157
9.24,1.0,40.23732176527015
9.248000000000001,0.9999999999999999,40.093640297394536
9.256,1.0,39.94990295222478
9.264,1.0,39.806109700905964
9.272,1.0,39.662260514648324
9.280000000000001,1.0,39.518355364727725
9.288,0.9999999999999999,39.37439422248564
9.296,0.9999999999999999,39.230377059329484
9.304,1.0,39.086303846732854
9.312000000000001,1.0,38.942174556235734
9.32,1.0,38.79798915944485
9.328,0.9999999999999999,38.65374762803372
9.336,0.9999999999999999,38.509449933743
9.344,0.9999999999999999,38.365096048380764
9.352,1.0,38.220685943822616
9.36,1.0,38.07621959201216
9.368,1.0,37.93169696496092
9.376,1.0,37.787118034748964
9.384,0.9999999999999999,37.642482773524776
9.392,0.9999999999999999,37.497791153505844
9.4,0.9999999999999999,37.35304314697862
9.408,0.9999999999999998,37.20823872629902
9.416,1.0,37.06337786389244
9.424,0.9999999999999999,36.918460532254244
9.432,1.0,36.77348670394978
9.44,0.9999999999999999,36.62845635161487
9.448,1.0,36.48336944795583
9.456,0.9999999999999999,36.33822596574992
9.464,0.9999999999999999,36.193025877845464
9.472,0.9999999999999999,36.0477691571622
9.48,1.0,35.90245577669144
9.488,0.9999999999999999,35.75708570949645
9.496,1.0,35.61165892871252
9.504,1.0,35.46617540754748
9.512,0.9999999999999999,35.32063511928165
9.52,0.9999999999999999,35.17503803726836
9.528,0.9999999999999998,35.029384134934034
9.536,1.0,34.88367338577859
9.544,1.0,34.73790576337548
9.552,1.0,34.59208124137221
9.56,1.0,34.446199793490344
9.568,0.9999999999999998,34.30026139352599
9.576,1.0,34.154266015349805
9.584,1.0,34.00821363290751
9.592,1.0,33.86210422021987
9.6,1.0,33.71593775138324
9.608,1.0,33.56971420056948
9.616,0.9999999999999998,33.42343354202656
9.624,1.0,33.277095750078466
9.632,1.0,33.13070079912576
9.64,1.0,32.98424866364552
9.648,1.0,32.83773931819191
9.656,1.0,32.69117273739608
9.664,1.0,32.544548895966734
9.672,1.0000000000000002,32.39786776869005
9.68,1.0,32.25112933043028
9.688,1.0,32.1043335561296
9.696,0.9999999999999998,31.957480420808682
9.704,1.0,31.81056989956665
9.712,1.0,31.663601967581606
9.72,1.0,31.51657660011049
9.728,0.9999999999999999,31.369493772489726
9.736,1.0,31.22235346013503
9.744,0.9999999999999999,31.07515563854202
9.752,1.0,30.927900283286093
9.76,0.9999999999999999,30.780587370022914
9.768,1.0,30.63321687448846
9.776,0.9999999999999999,30.485788772499372
9.784,1.0,30.33830303995293
9.792,1.0,30.190759652827612
9.8,1.0,30.0431585871829
9.808,0.9999999999999999,29.895499819159884
9.816,1.0,29.747783324981093
9.824,0.9999999999999999,29.600009080950997
9.832,0.9999999999999999,29.452177063455927
9.84,1.0,29.30428724896455
9.847999999999999,1.0,29.156339614027743
9.856,1.0,29.00833413527902
9.864,1.0,28.860270789434637
9.872,0.9999999999999999,28.712149553293752
9.879999999999999,1.0,28.563970403738573
9.888,0.9999999999999999,28.415733317734507
9.896,1.0,28.267438272330445
9.904,1.0000000000000002,28.119085244658876
9.911999999999999,1.0,27.970674211935886
9.92,1.0000000000000002,27.82220515146147
9.928,1.0,27.67367804061971
9.936,1.0,27.525092856878807
9.943999999999999,0.9999999999999999,27.376449577791238
9.952,1.0,27.22774818099387
9.96,0.9999999999999999,27.07898864420821
9.968,1.0,26.930170945240437
9.975999999999999,1.0,26.781295061981478
9.984,1.0,26.632360972407128
9.992,1.0,26.483368654578296
10.0,1.0,26.33431808664101
10.008,1.0,26.18520924682643
10.016,1.0,26.036042113451018
10.024000000000001,1.0,25.886816664916726
10.032,1.0,25.737532879710933
10.04,1.0,25.588190736406546
10.048,1.0,25.438790213662042
10.056000000000001,0.9999999999999999,25.289331290221668
10.064,1.0,25.139813944915385
10.072,1.0,24.99023815665889
10.08,1.0,24.840603904453687
10.088000000000001,0.9999999999999999,24.690911167387206
10.096,1.0,24.5411599246328
10.104,1.0,24.391350155449643
10.112,1.0,24.24148183918283
10.120000000000001,0.9999999999999999,24.091554955263522
10.128,1.0,23.941569483208756
10.136,0.9999999999999999,23.7915254026215
10.144,0.9999999999999999,23.641422693190613
