freq,mag,phase
6.0,1.000054234369595,-176.73406773845187
6.002286592,1.0001883683245938,-176.8868273866489
6.004572672,1.0003108933039861,-177.04136976605986
6.006859264,1.000414358245967,-177.19757012243412
6.009145344,1.0004919790583804,-177.35497304112332
6.011431936,1.0005390551845454,-177.51325596302252
6.013718016,1.0005524633276384,-177.67197466928386
6.016004608,1.000531236145016,-177.83054253403293
6.018290688,1.0004767480553414,-177.98854946641632
6.02057728,1.000392424257218,-178.14550652486312
6.022863872,1.0002835870433184,-178.3009917270295
6.025149952,1.0001570204945351,-178.45472455473146
6.027436544,1.000020788523504,-178.60651486044605
6.029722624,0.9998834803619229,-178.75626790663927
6.032009216,0.9997537867447294,-178.90407326907743
6.034295296,0.9996398840312577,-179.05000677730573
6.036581888,0.9995490063682453,-179.19440496584966
6.03886848,0.9994870692434966,-179.3376497071134
6.04115456,0.9994578422089277,-179.48017943215476
6.043441152,0.9994633162150794,-179.6225059913868
6.045727232,0.9995031921659817,-179.76508279448217
6.048013824,0.999574924111066,-179.9084457868064
6.050299904,0.999674031811738,179.94705263924058
6.052586496,0.9997942560222892,179.80098358359098
6.054872576,0.9999280896225007,179.65306538280487
6.057159168,1.0000669063698715,179.5032842147894
6.05944576,1.0002018716616086,179.35150149025358
6.06173184,1.0003247419366321,179.19795874066384
6.064018432,1.0004275085439518,179.04276020397316
6.066304512,1.0005038199467324,178.88634043758822
6.068591104,1.000548571903654,178.72908436388437
6.070877184,1.00055904776733,178.5714711236651
6.073163776,1.0005345738241502,178.41399961219895
6.075450368,1.000476650781744,178.2571575518117
6.077736448,1.0003888241496046,178.10144673308525
6.08002304,1.0002766830502674,177.94719304012511
6.08230912,1.0001473480533456,177.79475310510296
6.084595712,1.00000882421578,177.64432950689923
6.086881792,0.999869988293001,177.49595894506285
6.089168384,0.9997396622606939,177.34959961414248
6.091454464,0.9996258749572943,177.20503817700296
6.093741056,0.9995362542770942,177.06202619810855
6.096027648,0.9994762032946087,176.9201316615493
6.098313728,0.9994495714508855,176.7789444960921
6.10060032,0.9994581379633268,176.63793327024464
6.1028864,0.9995015479004751,176.49658368281507
6.105172992,0.9995768824436407,176.3544583337954
6.107459072,0.999679368387142,176.21103254826735
6.109745664,0.9998027861754004,176.0660672471239
6.112032256,0.9999390897368465,175.91923960487944
6.114318336,1.0000797353295814,175.77047037361513
6.116604928,1.000215973272362,175.61970896303126
6.118891008,1.000338910949015,175.46714187997853
6.1211776,1.0004409827186573,175.31296185959195
6.12346368,1.0005155182554937,175.1575371291583
6.125750272,1.0005579318801414,175.0013492364519
6.128036352,1.0005655506394813,174.84481965641717
6.130322944,1.0005376599974145,174.6884757426542
6.132609536,1.00047610727208,174.5328268939281
6.134895616,1.0003847826510965,174.37832306735444
6.137182208,1.0002691918912794,174.22540368504755
6.139468288,1.000136953347395,174.07429332491398
6.14175488,0.9999962676915017,173.9252416569823
6.14404096,0.9998559464573678,173.77825470322645
6.146327552,0.9997250945385263,173.63328678458285
6.148614144,0.9996118189437464,173.49014173146222
6.150900224,0.9995233372654084,173.34852317884335
6.153186816,0.9994653916734135,173.20803697260652
6.155472896,0.9994416055894436,173.06816309818475
6.157759488,0.9994534577367246,172.92847253656868
6.160045568,0.9995003958158418,172.78840212384404
6.16233216,0.9995793762848262,172.64744389468
6.16461824,0.9996854849628531,172.5051826519537
6.166904832,0.9998119308850437,172.3613149894043
6.169191424,0.9999508130263473,172.21554372476064
6.171477504,1.000093304819775,172.0677732575384
6.173764096,1.0002304157704827,171.91805047112285
6.176050176,1.0003535082037172,171.7664421161239
6.178336768,1.0004545831581424,171.61329614635605
6.180622848,1.0005274395162536,171.45888923199087
6.18290944,1.0005672694655587,171.30372058356846
6.18519552,1.0005717304274369,171.14829858155585
6.187482112,1.0005402089997342,170.99312413221352
6.189768704,1.0004749860733992,170.83866493616128
6.192054784,1.0003797785370814,170.68542715854682
6.194341376,1.000260925151015,170.5337958990153
6.196627456,1.0001258439590062,170.38403751274754
6.198914048,0.9999829308165438,170.23636399876148
6.201200128,0.9998413254778376,170.0907767915262
6.20348672,0.9997099204053103,169.94724638248547
6.205773312,0.9995972185636725,169.80554724404183
6.208059392,0.9995101459454513,169.66533908345693
6.210345984,0.999454489630242,169.5262438406426
6.212632064,0.9994335689547095,169.38773406204206
6.214918656,0.9994490851212813,169.2493236422483
6.217204736,0.9994996117671572,169.11048940160586
6.219491328,0.9995823813779458,168.97075333307527
6.221777408,0.999692170642108,168.82965009883
6.224064,0.9998218485922596,168.6868291852237
6.226350592,0.9999632848483311,168.54213394718025
6.228636672,1.000107639579965,168.39538927026584
6.230923264,1.000245516371536,168.24664503534865
6.233209344,1.0003684433977091,168.0960734858535
6.235495936,1.0004685537161093,167.94388411227118
6.237782016,1.0005393617606313,167.79050312114305
6.240068608,1.0005765298999718,167.63640823684668
6.2423552,1.0005776378030646,167.4821076052909
6.24464128,1.0005424487789185,167.32807152755797
6.246927872,1.000473324784306,167.1748166623248
6.249213952,1.0003744275829707,167.0228610346268
6.251500544,1.000252153760745,166.8725288971828
6.253786624,1.0001140869119307,166.7241586073295
6.256073216,0.9999690307192804,166.57785991921529
6.258359296,0.9998261285573232,166.43373623555408
6.260645888,0.9996944213911896,166.29162878906592
6.26293248,0.9995823050446858,166.1513698956878
6.26521856,0.9994969215500439,166.01258348308357
6.267505152,0.9994436557077946,165.87485058700554
6.269791232,0.9994259796791191,165.73771722189576
6.272077824,0.9994450180932857,165.6005993400805
6.274363904,0.9994996073614297,165.463019248065
6.276650496,0.9995861745961431,165.32446404707528
6.278937088,0.9996996328123687,165.18448587958613
6.281223168,0.9998324810988765,165.04278541008873
6.28350976,0.9999764297406567,164.8991206079393
6.28579584,1.0001224543670135,164.75338313210588
6.288082432,1.0002612170588747,164.60564534236562
6.290368512,1.000383860385118,164.45602600022957
6.292655104,1.0004826723264544,164.30486797180515
6.294941184,1.0005514608232484,164.15254006096305
6.297227776,1.0005857002658494,163.99949397828988
6.299514368,1.0005832713101501,163.8462747719806
6.301800448,1.000544221500129,163.69340721093758
6.30408704,1.000471146667973,163.54139692530313
6.30637312,1.0003684101927501,163.39069239579933
6.308659712,1.0002427317053484,163.24168382312757
6.310945792,1.0001016057637107,163.09467710058126
6.313232384,0.9999545579167664,162.94982667763924
6.315518464,0.9998104198574926,162.80711645130552
6.317805056,0.9996784865287671,162.66646308054032
6.320091648,0.999567138293589,162.5276282743422
6.322377728,0.9994835189638049,162.39027062492008
6.32466432,0.9994328774280866,162.25394294952113
6.3269504,0.9994184109404193,162.11815592849274
6.329236992,0.9994412661281542,161.98232278320864
6.331523072,0.9994998903448651,161.84598460960302
6.333809664,0.9995906369401469,161.70859032245244
6.336096256,0.9997077955925656,161.569785431386
6.338382336,0.9998437903717279,161.42912325411598
6.340668928,0.9999902590942388,161.2864807884625
6.342955008,1.0001379489888875,161.14174677032617
6.3452416,1.000277323690564,160.99500257503828
6.34752768,1.0003995932731053,160.84639667091682
6.349814272,1.0004970222294174,160.69623647493347
6.352100352,1.0005634537210966,160.5449080506062
6.354386944,1.0005946992920454,160.3929436271813
6.356673536,1.0005885010691404,160.24084182316116
6.358959616,1.0005455115534791,160.0890858742237
6.361246208,1.0004683818881481,159.93829952609275
6.363532288,1.0003617042744641,159.78889719636382
6.36581888,1.0002324408449896,159.64124285623288
6.36810496,1.0000885483172008,159.49561109071664
6.370391552,0.999939224100992,159.35216333952113
6.372678144,0.9997940646188938,159.21089678779342
6.374964224,0.9996621037086728,159.07167915290498
6.377250816,0.9995517862663438,158.9343035762033
6.379536896,0.9994700127600591,158.7983858156535
6.381823488,0.9994222664740452,158.66346232562358
6.384109568,0.9994112864306777,158.5289608868636
6.38639616,0.999438033672944,158.39445187134882
6.38868224,0.99950078176308,158.25934013678517
6.390968832,0.9995956322505076,158.12313404209118
6.393255424,0.9997165968915097,157.98540219784513
6.395541504,0.9998559467222286,157.84582099504158
6.397828096,1.0000048399245438,157.7041995785969
6.400114176,1.0001540141027867,157.56047737123004
6.402400768,1.0002939156484807,157.41466622223044
6.404686848,1.000415648843332,157.26703596389106
6.40697344,1.0005116374505216,157.1178411707176
6.409260032,1.0005755796798632,156.96756387751407
6.411546112,1.0006034493824454,156.81664334267748
6.413832704,1.0005935223331002,156.66560474416943
6.416118784,1.0005462771357545,156.51506288475306
6.418405376,1.0004648615390968,156.36550716261144
6.420691456,1.0003541154883653,156.2173753285115
6.422978048,1.0002213047338135,156.0710376577128
6.425264128,1.000074582633248,155.92680565061474
6.42755072,0.9999233013080093,155.7847866449752
6.429837312,0.9997770805639108,155.64495838052147
6.432123392,0.999645213791439,155.50723897901577
6.434409984,0.9995360522180898,155.3713027057296
6.436696064,0.9994564476883971,155.23678502394708
6.438982656,0.9994115622390763,155.1032084636759
6.441268736,0.9994042773164024,154.9700971070654
6.443555328,0.9994351691252004,154.83685751531712
6.44584192,0.9995022641660131,154.70294584784352
6.448128,0.9996014273815561,154.56789795151724
6.450414592,0.9997262081694829,154.43126546618487
6.452700672,0.999868827501573,154.29272493327494
6.454987264,1.000020186001738,154.15210418768672
6.457273344,1.0001707274452933,154.00931498016521
6.459559936,1.0003110920895268,153.8644910371707
6.461846016,1.0004320109485794,153.71780160904905
6.464132608,1.0005263014618488,153.56959610751298
6.4664192,1.0005875190518718,153.4203184709324
6.46870528,1.0006119491635026,153.2704454877793
6.470991872,1.0005979924351414,153.12054984646036
6.473277952,1.0005465601617325,152.97117238549166
6.475564544,1.0004607213885868,152.82282704106473
6.477850624,1.0003459684482296,152.67598146391845
6.480137216,1.0002093716380132,152.53102758750381
6.482423296,1.0000599292396846,152.38816548648444
6.484709888,0.999906740787994,152.247564250619
6.48699648,0.9997596891553641,152.10917938862056
6.48928256,0.9996279881608537,151.97291435598225
6.491569152,0.9995201220248804,151.83841032833746
6.493855232,0.9994428572226175,151.705300481968
6.496141824,0.9994012096185603,151.5731261740841
6.498427904,0.9993978382335257,151.44130857358448
6.500714496,0.9994331162122849,151.3093415544206
6.503001088,0.9995046180429425,151.17662253476314
6.505287168,0.9996079406294878,151.0427065921463
6.50757376,0.9997366166877353,150.9071352879553
6.50985984,0.9998825635325596,150.7696276243914
6.512146432,1.0000361990131346,150.6299797613474
6.514432512,1.000188164397709,150.48817895644882
6.516719104,1.0003286662802686,150.34427913665058
6.519005184,1.0004489452104601,150.1985198163708
6.521291776,1.000541118205118,150.0512696136819
6.523578368,1.000599577231101,149.9030012497792
6.525864448,1.0006202058026652,149.75417117845186
6.52815104,1.000602110019484,149.60537586936886
6.53043712,1.000546143426158,149.45714518411222
6.532723712,1.0004558748509678,149.31002589865966
6.535009792,1.0003368969862345,149.16447685904325
6.537296384,1.0001968482954886,149.02085062539396
6.539582976,1.0000444674296491,148.87940117239438
6.541869056,0.9998893348085406,148.74023872584843
6.544155648,0.999741489288663,148.60330352108002
6.546441728,0.9996102914080697,148.46846882442804
6.54872832,0.9995039088000326,148.33538104728518
6.5510144,0.9994291943197018,148.20371410078377
6.553300992,0.9993909773380428,148.07287768608873
6.555587072,0.9993916732928428,147.94239123112277
6.557873664,0.9994312549889973,147.81165209345474
6.560160256,0.9995074311824386,147.68010553090602
6.562446336,0.9996151125370428,147.54729709589185
6.564732928,0.9997476753867728,147.41280023425918
6.567019008,0.9998968899562645,147.27626552392104
6.5693056,1.0000529612305125,147.1375718947195
6.57159168,1.000206225205572,146.99670276320498
6.573878272,1.0003468422263577,146.85372704281468
6.576164864,1.0004659994536582,146.70892228638522
6.578450944,1.0005560160071263,146.56261323531302
6.580737536,1.0006112764688964,146.41529459098425
6.583023616,1.0006283242647491,146.26752275421472
6.585310208,1.0006057698401793,146.1198077799383
6.587596288,1.000545160925978,145.97276784043063
6.58988288,1.0004501567505335,145.82685292108187
6.59216896,1.0003271177047275,145.68257883515585
6.594455552,1.0001834106397194,145.54030166870524
6.596742144,1.0000282009326984,145.40023992555578
6.599028224,0.9998713340440072,145.26250469001306
6.601314816,0.9997229566825311,145.1270254272537
6.603600896,0.9995920995177081,144.99363321932003
6.605887488,0.9994875690120815,144.86199466515242
6.608173568,0.999415538048616,144.73166739743235
6.61046016,0.9993809559976895,144.60219265540567
6.612746752,0.9993859637187079,144.47300440510878
6.615032832,0.9994302519986122,144.3434710154943
6.617319424,0.9995110242218419,144.21310240423963
6.619605504,0.9996232744071951,144.08136714177513
6.621892096,0.999759927227815,143.94787822552834
6.624178176,0.9999121496636056,143.81235926496876
6.626464768,1.0000704398911069,143.6745796584244
6.628750848,1.000224888038375,143.5346030522477
6.63103744,1.000365510001328,143.39252703995464
6.633324032,1.000483351948899,143.24860290180237
6.635610112,1.0005710508300492,143.1032531853694
6.637896704,1.0006229817779202,142.9569055498088
6.640182784,1.000635858768952,142.81015745427982
6.642469376,1.0006087789350735,142.66352414711005
6.644755456,1.0005433724553128,142.51762710937552
6.647042048,1.0004438495127184,142.37294497696968
6.649328128,1.000316410673855,142.22995634421918
6.65161472,1.0001689422499345,142.0890193905853
6.653901312,1.0000111347878664,141.95035532331895
6.656187392,0.9998526430711351,141.81404761788215
6.658473984,0.9997037597811285,141.67996197159877
6.660760064,0.9995737746375525,141.5480273648389
6.663046656,0.9994710443657493,141.4178019129028
6.665332736,0.9994019887007247,141.28886041539187
6.667619328,0.9993713212211291,141.1607381789792
6.66990592,0.9993806738140054,141.03277800372194
6.672192,0.9994297437063361,140.90446189099245
6.674478592,0.9995153693480346,140.77521361502346
6.676764672,0.9996322231139225,140.64457042170378
6.679051264,0.9997726881481539,140.51207058329604
6.681337344,0.9999282006332343,140.37747508558905
6.683623936,1.0000887231120374,140.24062375128474
6.685910016,1.0002441158090045,140.10150928967266
6.688196608,1.0003845295524203,139.96030625278928
6.6904832,1.0005009202034167,139.81725922619907
6.69276928,1.0005861685042015,139.67282803591644
6.695055872,1.000634477608842,139.5274421814001
6.697341952,1.0006431157225122,139.3816951700628
6.699628544,1.000611206016576,139.23612684560138
6.701914624,1.0005410025945116,139.0913916102527
6.704201216,1.0004366305109353,138.94793681794
6.706487808,1.0003048444222744,138.80625312904826
6.708773888,1.000153860847195,138.66663154790695
6.71106048,0.9999933481571094,138.5293483474443
6.71334656,0.999833251962761,138.39442313687545
6.715633152,0.9996840906437723,138.26181867491945
6.717919232,0.999555096837213,138.13129440414247
6.720205824,0.999454301653132,138.00245354236262
6.722491904,0.9993885939240313,137.87487269160124
6.724778496,0.9993618190163447,137.74804344156863
6.727065088,0.9993759097268063,137.621340985423
6.729351168,0.9994299088635592,137.4942069857503
6.73163776,0.9995205309966084,137.36606676679125
6.73392384,0.999641983298373,137.23642994789657
6.736210432,0.9997865872694067,137.10489476762442
6.738496512,0.999945262678686,136.97120618241482
6.740783104,1.0001078364062714,136.83525406311244
6.743069696,1.0002639768975896,136.6969787076064
6.745355776,1.0004039403505984,136.55663247729652
6.747642368,1.0005187826182615,136.41445103363645
6.749928448,1.0006012519649001,136.27088681929465
6.75221504,1.0006458565439915,136.12646037811987
6.75450112,1.000649972711451,135.981719597815
6.756787712,1.0006132389640954,135.8372087078128
6.759073792,1.0005377078675848,135.69358833273486
6.761360384,1.0004286158441271,135.55134742519812
6.763646976,1.0002924151813932,135.4109320073421
6.765933056,1.0001377478354894,135.2726564727669
6.768219648,0.9999747198667608,135.1367678548021
6.770505728,0.999813273951474,135.00324614645086
6.77279232,0.9996638672624745,134.87206231687358
6.7750784,0.9995360191111621,134.74291468407685
6.777364992,0.9994376167286819,134.61549103166286
6.779651584,0.999375286201389,134.48925500094242
6.781937664,0.9993529042581243,134.3637270068544
6.784224256,0.9993717298892252,134.23822658243924
6.786510336,0.9994308435488559,134.11225795202452
6.788796928,0.9995264581167496,133.9851698522295
6.791083008,0.999652706674377,133.85652449403193
6.7933696,0.999801245124948,133.72593143551148
6.79565568,0.9999629464375867,133.59310867461767
6.797942272,1.0001274935463933,133.45798757759556
6.800228864,1.000284510634795,133.32055907795134
6.802514944,1.0004238452338206,133.18102602693097
6.804801536,1.0005367734406767,133.0396846907556
6.807087616,1.0006160997149671,132.89699829173423
6.809374208,1.0006568679884331,132.75348862372965
6.811660288,1.0006562396761574,132.6097109574645
6.81394688,1.0006143487674892,132.4662845462939
6.81623296,1.0005336927940536,132.32379680316964
6.818519552,1.000419687497108,132.18275844567935
6.820806144,1.0002790243639366,132.043622537674
6.823092224,1.0001209334551815,131.90667078736192
6.825378816,0.9999551722861876,131.77212457634045
6.827664896,0.9997925847990824,131.6400259499967
6.829951488,0.9996432038301186,131.5102311944602
6.832237568,0.999516550107949,131.3824786654937
6.83452416,0.9994208194952634,131.25641655014013
6.836810752,0.9993621603393897,131.13151183901087
6.839096832,0.9993440961694282,131.00723794453216
6.841383424,0.9993680680523475,130.88294220618556
6.843669504,0.9994324536412593,130.75806587331195
6.845956096,0.9995333959718908,130.63204673588893
6.848242176,0.9996642485315496,130.50435413916676
6.850528768,0.9998169298390993,130.37466317804464
6.852814848,0.9999816676668435,130.2427119739379
6.85510144,1.000148108737916,130.10837127199585
6.857388032,1.0003055572177462,129.9717468224017
6.859674112,1.000444106710087,129.8329933598077
6.861960704,1.0005549361182917,129.69246440489667
6.864246784,1.0006310862796262,129.5506518303328
6.866533376,1.0006675307564685,129.40802770005084
6.868819456,1.0006620237483879,129.2652398358843
6.871106048,1.0006149398033768,129.1228513081036
6.87339264,1.0005289587462212,128.9814546247734
6.87567872,1.0004097557587968,128.8416196535908
6.877965312,1.0002647310465125,128.70372265469882
6.880251392,1.0001031140089254,128.56811058606627
6.882537984,0.9999349873522234,128.43493773632738
6.884824064,0.9997712302663841,128.3042139339799
6.887110656,0.9996219917577003,128.17581835784367
6.889396736,0.9994971061372441,128.04945520514647
6.891683328,0.9994040570473824,127.92474561367357
6.89396992,0.9993492959502616,127.80111617414178
6.896256,0.9993360010572958,127.67809337333563
6.898542592,0.9993652036433216,127.55496670223904
6.900828672,0.9994351222385294,127.4311672951878
6.903115264,0.9995412495130359,127.30612827872514
6.905401344,0.9996769936585769,127.17937116446598
6.907687936,0.999833595487196,127.0505673884772
6.909974528,1.00000123189886,126.91942397569082
6.912260608,1.0001695071421768,126.78584043152838
6.9145472,1.0003271942938083,126.64999393555591
6.91683328,1.0004647402329974,126.51200878315431
6.919119872,1.0005732384180788,126.37226815011135
6.921405952,1.000645891614373,126.2312616721592
6.923692544,1.0006778671156396,126.08953700931754
