freq,mag,phase
6.0,0.999993073111367,28.525436261342435
6.008,0.9999939769922322,28.2932536330986
6.016,0.9999948520932423,28.061004976436987
6.024,0.9999956988842255,27.828690565897684
6.032,0.9999965178310872,27.59631067720334
6.04,0.9999973093958169,27.363865587256186
6.048,0.9999980740364934,27.131355574134943
6.056,0.9999988122072933,26.898780917091813
6.064,0.9999995243584958,26.666141896549284
6.072,1.0,26.43343879409697
6.08,1.0,26.200671892488355
6.088,0.9999999999999998,25.967841475637517
6.096,1.0,25.73494782861576
6.104,0.9999999999999998,25.5019912376482
6.112,1.0,25.26897199011035
6.12,1.0,25.035890374524588
6.128,1.0,24.802746680556574
6.136,0.9999999999999999,24.56954119901168
6.144,0.9999999999999999,24.336274221831317
6.152,0.9999999999999999,24.10294604208916
6.16,0.9999999999999999,23.86955695398743
6.168,1.0,23.636107252853073
6.176,1.0,23.402597235133854
6.184,0.9999999999999999,23.169027198394406
6.192,1.0,22.935397441312315
6.2,0.9999999999999999,22.70170826367399
6.208,1.0,22.467959966370696
6.216,1.0,22.23415285139426
6.224,1.0,22.00028722183302
6.232,1.0,21.766363381867485
6.24,1.0,21.532381636766058
6.248,1.0,21.29834229288072
6.256,1.0,21.064245657642562
6.264,0.9999999999999999,20.83009203955738
6.272,1.0,20.595881748201162
6.28,1.0,20.361615094215466
6.288,0.9999999999999999,20.127292389302916
6.296,1.0,19.892913946222436
6.304,1.0,19.65848007878459
6.312,0.9999999999999999,19.423991101846795
6.32,0.9999999999999999,19.18944733130849
6.328,0.9999999999999999,18.954849084106318
6.336,0.9999999999999999,18.7201966782091
6.344,0.9999999999999999,18.485490432612995
6.352,1.0,18.250730667336374
6.36,1.0,18.015917703414758
6.368,1.0,17.781051862895733
6.376,1.0,17.546133468833762
6.384,1.0,17.311162845284922
6.392,1.0,17.076140317301633
6.4,1.0,16.841066210927377
6.408,1.0,16.60594085319125
6.416,1.0,16.37076457210261
6.424,1.0,16.135537696645514
6.432,1.0,15.900260556773251
6.44,0.9999999999999999,15.664933483402736
6.448,0.9999999999999999,15.429556808408906
6.456,0.9999999999999999,15.194130864618995
6.464,1.0,14.95865598580687
6.472,1.0,14.723132506687197
6.48,1.0,14.487560762909675
6.4879999999999995,1.0,14.251941091053123
6.496,1.0,14.01627382861949
6.504,1.0,13.780559314028148
6.5120000000000005,1.0,13.54479788660947
6.52,0.9999999999999999,13.308989886599205
6.5280000000000005,1.0,13.07313565513194
6.536,1.0,12.837235534235345
6.5440000000000005,0.9999999999999999,12.601289866823587
6.552,0.9999999999999999,12.365298996691436
6.5600000000000005,0.9999999999999999,12.129263268507602
6.568,1.0,11.893183027808762
6.5760000000000005,0.9999999999999999,11.657058620992775
6.584,1.0,11.42089039531268
6.592,1.0,11.18467869886975
6.6,1.0,10.94842388060731
6.608,1.0,10.712126290304028
6.616,1.0,10.475786278567266
6.624,1.0,10.23940419682648
6.632,1.0,10.002980397326468
6.64,1.0,9.766515233120627
6.648,1.0,9.530009058064145
6.656,1.0,9.293462226807183
6.664,1.0000000000000002,9.056875094787944
6.672,1.0,8.820248018225792
6.68,0.9999999999999999,8.583581354114243
6.688,1.0,8.346875460213958
6.696,0.9999999999999999,8.110130695045696
6.704,1.0,7.873347417883189
6.712,0.9999999999999999,7.636525988746034
6.72,0.9999999999999999,7.399666768392475
6.728,1.0,7.1627701183121975
6.736,1.0,6.925836400719037
6.744,0.9999999999999999,6.6888659785437135
6.752,0.9999999999999999,6.451859215426437
6.76,0.9999999999999999,6.214816475709552
6.768,1.0,5.977738124430092
6.776,1.0,5.740624527312317
6.784,1.0,5.503476050760206
6.792,1.0,5.266293061849911
6.8,1.0,5.029075928322176
6.808,1.0,4.791825018574703
6.816,0.9999999999999999,4.554540701654501
6.824,0.9999999999999999,4.317223347250189
6.832,0.9999999999999999,4.079873325684243
6.84,0.9999999999999998,3.842491007905253
6.848,1.0,3.6050767654800864
6.856,0.9999999999999999,3.367630970586051
6.864,1.0,3.1301539960030187
6.872,1.0,2.8926462151055126
6.88,0.9999997936246849,2.655108001854727
6.888,0.9999995553922139,2.4175397307905753
6.896,0.9999993187050991,2.179941777023649
6.904,0.9999990836685597,1.9423145162271733
6.912,0.9999988503853537,1.7046583246288887
6.92,0.9999986189557944,1.4669735790029703
6.928,0.9999983894777699,1.2292606566618447
6.936,0.9999981620467614,0.9915199354480081
6.944,0.9999979367558635,0.7537517937257974
6.952,0.9999977136958008,0.5159566103731549
6.96,0.9999974929549481,0.27813476477332993
6.968,0.9999972746193502,0.040286636806563796
6.976,0.9999970587727383,-0.1975873931582478
6.984,0.9999968454965519,-0.4354869442719365
6.992,0.9999966348699556,-0.6734116352134745
7.0,0.9999964269698596,-0.9113610841983952
7.008,0.9999962218709383,-1.149334908987273
7.016,0.9999960196456502,-1.3873327268942097
7.024,0.9999958203642553,-1.625354154795361
7.032,0.9999956240948369,-1.863398809137483
7.04,0.9999954309033188,-2.101466305946511
7.048,0.9999952408534862,-2.3395562608361598
7.056,0.9999950540070038,-2.5776682890165747
7.064,0.9999948704234363,-2.8158020053029604
7.072,0.999994690160267,-3.0539570241242973
7.08,0.999994513272917,-3.2921329595320223
7.088,0.9999943398147664,-3.5303294252087816
7.096,0.9999941698371726,-3.768546034477167
7.104,0.999994003389489,-4.006782400308534
7.112,0.9999938405190867,-4.245038135331779
7.12,0.9999936812713718,-4.483312851842199
7.128,0.9999935256898067,-4.721606161810304
7.136,0.99999337381593,-4.95991767689072
7.144,0.9999932256893734,-5.198247008431106
7.152,0.9999930813478846,-5.4365937674810025
7.16,0.9999929408273456,-5.674957564800879
7.168,0.999992804161792,-5.913338010870984
7.176,0.9999926713834331,-6.151734715900411
7.184,0.999992542522672,-6.390147289836063
7.192,0.9999924176081252,-6.628575342371633
7.2,0.9999922966666406,-6.867018482956768
7.208,0.999992179723321,-7.1054763208059875
7.216,0.9999920668015396,-7.343948464907842
7.224,0.9999919579229627,-7.582434524033953
7.232,0.9999918531075676,-7.820934106748202
7.24,0.9999917523736644,-8.059446821415774
7.248,0.9999916557379137,-8.297972276212365
7.256,0.9999915632153463,-8.536510079133308
7.264,0.999991474819386,-8.775059838002713
7.272,0.9999913905618648,-9.013621160482762
7.28,0.9999913104530463,-9.252193654082792
7.288,0.9999912345016432,-9.490776926168605
7.296,0.9999911627148388,-9.729370583971646
7.304,0.9999910950983038,-9.967974234598259
7.312,0.9999910316562204,-10.206587485038966
7.32,0.9999909723912966,-10.445209942177712
7.328,0.9999909173047915,-10.683841212801122
7.336,0.99999086639653,-10.92248090360786
7.344,0.999990819664925,-11.161128621217866
7.352,0.9999907771069968,-11.399783972181678
7.36,0.999990738718392,-11.638446562989825
7.368,0.999990704493403,-11.87711600008202
7.376,0.9999906744249886,-12.115791889856657
7.384,0.9999906485047921,-12.354473838679999
7.392,0.9999906267231617,-12.593161452895693
7.4,0.9999906090691698,-12.831854338833995
7.4079999999999995,0.9999905955306315,-13.070552102821194
7.416,0.9999905860941252,-13.309254351189086
7.4239999999999995,0.9999905807450108,-13.54796069028409
7.432,0.9999905794674511,-13.78667072647698
7.4399999999999995,0.9999905822444275,-14.025384066171927
7.448,0.9999905890577627,-14.264100315816242
7.4559999999999995,0.9999905998881375,-14.50281908190943
7.464,0.9999906147151121,-14.741539971012916
7.4719999999999995,0.9999906335171422,-14.980262589759128
7.48,0.999990656271602,-15.218986544861274
7.4879999999999995,0.999990682954799,-15.457711443122317
7.496,0.9999907135419963,-15.696436891444861
7.504,0.9999907480074294,-15.935162496840102
7.5120000000000005,0.9999907863243266,-16.173887866437646
7.52,0.9999908284649269,-16.412612607494555
7.5280000000000005,0.9999908744004984,-16.65133632740513
7.536,0.9999909241013585,-16.89005863370994
7.5440000000000005,0.9999909775368905,-17.128779134105606
7.552,0.9999910346755643,-17.36749743645383
7.5600000000000005,0.9999910954849535,-17.606213148791213
7.568,0.9999911599317546,-17.84492587933822
7.5760000000000005,0.9999912279818046,-18.08363523650899
7.584,0.9999912996001008,-18.322340828920343
7.5920000000000005,0.9999913747508178,-18.561042265401596
7.6,0.9999914533973256,-18.799739155003472
7.6080000000000005,0.9999915355022096,-19.038431107007955
7.616,0.9999916210272862,-19.27711773093722
7.6240000000000006,0.9999917099336229,-19.51579863656341
7.632,0.9999918021815549,-19.754473433917624
7.640000000000001,0.9999918977307046,-19.99314173329964
7.648,0.9999919965399967,-20.23180314528686
7.656000000000001,0.999992098567679,-20.470457280744068
7.664,0.9999922037713382,-20.709103750832348
7.672,0.9999923121079178,-20.947742167018774
7.68,0.9999924235337367,-21.18637214108545
7.688,0.9999925380045048,-21.424993285138964
7.696,0.9999926554753416,-21.663605211619572
7.704,0.9999927759007936,-21.902207533310555
7.712,0.999992899234851,-22.140799863347475
7.72,0.9999930254309647,-22.37938181522739
7.728,0.9999931544420643,-22.61795300281813
7.736,0.9999932862205735,-22.856513040367496
7.744,0.9999934207184286,-23.09506154251252
7.752,0.999993557887094,-23.33359812428863
7.76,0.9999936976775798,-23.572122401138845
7.768,0.9999938400404579,-23.810633988922973
7.776,0.9999939849258791,-24.04913250392669
7.784,0.9999941322835879,-24.287617562870786
7.792,0.9999942820629413,-24.52608878292023
7.8,0.9999944342129228,-24.764545781693297
7.808,0.9999945886821601,-25.002988177270613
7.816,0.9999947454189404,-25.241415588204312
7.824,0.9999949043712266,-25.479827633527016
7.832,0.9999950654866719,-25.71822393276093
7.84,0.9999952287126386,-25.956604105926793
7.848,0.9999953939962101,-26.194967773552943
7.856,0.9999955612842091,-26.433314556684262
7.864,0.9999957305232118,-26.671644076891123
7.872,0.9999959016595642,-26.909955956278353
7.88,0.9999960746393954,-27.148249817494147
7.888,0.9999962494086352,-27.386525283738962
7.896,0.9999964259130273,-27.624781978774354
7.904,0.9999966040981451,-27.86301952693189
7.912,0.999996783909406,-28.101237553121905
7.92,0.9999969652920874,-28.33943568284237
7.928,0.9999971481913387,-28.577613542187628
7.936,0.9999973325521984,-28.815770757857173
7.944,0.9999975183196073,-29.053906957164386
7.952,0.9999977054384223,-29.292021768045196
7.96,0.9999978938534319,-29.530114819066817
7.968,0.9999980835093688,-29.768185739436348
7.976,0.9999982743509248,-30.006234159009455
7.984,0.9999984663227641,-30.24425970829894
7.992,0.9999986593695371,-30.48226201848331
8.0,0.9999988534358939,-30.720240721415358
8.008,0.9999990484664979,-30.958195449630608
8.016,0.9999992444060388,-31.19612583635594
8.024000000000001,0.999999441199247,-31.434031515517887
8.032,0.9999996387909043,-31.671912121751102
8.04,0.9999998371258588,-31.909767290406915
8.048,0.9999999999999999,-32.14759665756159
8.056000000000001,1.0,-32.38539986002459
8.064,0.9999999999999999,-32.623176535346936
8.072,1.0,-32.8609263218296
8.08,1.0,-33.09864885853174
8.088000000000001,0.9999999999999998,-33.336343785278686
8.096,1.0,-33.57401074267029
8.104,0.9999999999999999,-33.811649372089185
8.112,1.0,-34.0492593157088
8.120000000000001,1.0,-34.28684021650127
8.128,0.9999999999999999,-34.52439171824574
8.136,1.0,-34.76191346553631
8.144,1.0,-34.99940510379006
8.152000000000001,1.0,-35.23686627925476
8.16,0.9999999999999999,-35.47429663901704
8.168,0.9999999999999999,-35.71169583101024
8.176,1.0,-35.94906350402218
8.184000000000001,1.0,-36.18639930770287
8.192,1.0,-36.42370289257242
8.2,0.9999999999999999,-36.66097391002881
8.208,0.9999999999999999,-36.8982120123555
8.216000000000001,0.9999999999999999,-37.135416852729
8.224,1.0,-37.372588085226575
8.232,1.0,-37.60972536483392
8.24,1.0000000000000002,-37.84682834745261
8.248000000000001,1.0,-38.08389668990747
8.256,1.0,-38.320930049954214
8.264,0.9999999999999999,-38.55792808628689
8.272,1.0,-38.79489045854517
8.280000000000001,0.9999999999999999,-39.031816827321634
8.288,1.0,-39.26870685416914
8.296,1.0,-39.50556020160818
8.304,0.9999999999999999,-39.742376533134056
8.312,1.0,-39.97915551322377
8.32,1.0,-40.21589680734371
8.328,1.0,-40.45260008195616
8.336,0.9999999999999999,-40.689265004526874
8.344,0.9999999999999999,-40.925891243531616
8.352,1.0,-41.162478468463554
8.36,1.0,-41.39902634983977
8.368,1.0,-41.635534559208594
8.376,1.0,-41.872002769155934
8.384,1.0,-42.108430653312546
8.392,1.0,-42.344817886360396
8.4,0.9999999999999999,-42.581164144039725
8.408,1.0,-42.817469103155275
8.416,1.0,-43.05373244158337
8.424,1.0,-43.28995383827807
8.432,1.0,-43.52613297327809
8.44,0.9999999999999999,-43.76226952771281
8.448,1.0,-43.99836318380923
8.456,1.0,-44.23441362489786
8.464,0.9999999999999999,-44.47042053541948
8.472,0.9999999999999999,-44.70638360093107
8.48,1.0,-44.94230250811243
8.488,0.9999999999999999,-45.17817694477192
8.496,1.0,-45.41400659985313
8.504,1.0,-45.6497911634405
8.512,1.0,-45.885530326765796
8.52,0.9999999999999999,-46.12122378221368
8.528,0.9999999999999999,-46.35687122332821
8.536,1.0,-46.592472344818134
8.544,1.0,-46.828026842563354
8.552,1.0,-47.06353441362018
8.56,1.0,-47.29899475622765
8.568,0.9999999999999999,-47.53440756981276
8.576,1.0,-47.769772554996436
8.584,0.9999999999999999,-48.005089413598995
8.592,1.0,-48.240357848645885
8.6,1.0,-48.47557756437296
8.608,0.9999999999999999,-48.7107482662322
8.616,1.0,-48.9458696608969
8.624,1.0000000000000002,-49.180941456267284
8.632,0.9999999999999999,-49.415963361475534
8.64,1.0,-49.65093508689138
8.648,1.0,-49.885856344126985
8.656,1.0,-50.12072684604247
8.664,0.9999999999999999,-50.35554630675064
8.672,1.0000000000000002,-50.59031444162243
8.68,0.9999999999999999,-50.825030967291575
8.688,1.0,-51.059695601659904
8.696,0.9999999999999999,-51.29430806390185
8.704,1.0,-51.52886807446983
8.712,0.9999999999999999,-51.76337535509849
8.72,1.0,-51.99782962880995
8.728,1.0,-52.23223061991813
8.736,1.0,-52.46657805403369
8.744,1.0,-52.700871658068365
8.752,1.0,-52.93511116023985
8.76,0.9999999999999999,-53.169296290075884
8.768,0.9999999999999999,-53.40342677841912
8.776,0.9999999999999999,-53.63750235743106
8.784,1.0,-53.87152276059691
8.792,1.0,-54.10548772272935
8.8,0.9999999999999999,-54.33939697997324
8.808,0.9999999999999999,-54.573250269809336
8.815999999999999,0.9999999999999998,-54.80704733105883
8.824,1.0,-55.04078790388728
8.832,0.9999999999999999,-55.274471729808425
8.84,1.0000000000000002,-55.50809855168843
8.847999999999999,1.0,-55.74166811374971
8.856,0.9999999999999999,-55.97518016157487
8.864,1.0,-56.20863444211028
8.872,0.9999999999999999,-56.44203070367001
8.879999999999999,1.0,-56.67536869593963
8.888,1.0,-56.908648169979706
8.896,1.0,-57.14186887822935
8.904,1.0,-57.375030574509836
8.911999999999999,0.9999999999999999,-57.60813301402825
8.92,1.0,-57.84117595338071
8.928,0.9999999999999999,-58.07415915055577
8.936,1.0,-58.30708236493781
8.943999999999999,0.9999999999999999,-58.539945357310394
8.952,1.0,-58.77274788985939
8.96,1.0,-59.00548972617607
8.968,0.9999999999999999,-59.238170631260395
8.975999999999999,1.0,-59.47079037152396
8.984,1.0,-59.70334871479316
8.992,1.0,-59.93584543031193
9.0,0.9999999999999999,-60.16828028874469
9.008,0.9999999999999999,-60.40065306217943
9.016,1.0,-60.63296352413032
9.024000000000001,1.0,-60.865211449540375
9.032,1.0,-61.09739661478426
9.04,1.0,-61.32951879767101
9.048,1.0,-61.561577777446544
9.056000000000001,0.9999999999999999,-61.793573334796044
9.064,0.9999999999999999,-62.02550525184661
9.072,0.9999999999999999,-62.25737331216974
9.08,0.9999999999999999,-62.489177300783574
9.088000000000001,1.0,-62.72091700415518
9.096,1.0,-62.95259221020292
9.104,0.9999999999999999,-63.18420270829869
9.112,1.0,-63.41574828927007
9.120000000000001,1.0,-63.64722874540225
9.128,0.9999999999999999,-63.8786438704403
9.136,1.0,-64.10999345959114
9.144,1.0,-64.34127730952551
9.152000000000001,1.0,-64.57249521837969
9.16,1.0,-64.80364698575752
9.168,1.0,-65.03473241273218
9.176,0.9999999999999999,-65.26575130184797
9.184000000000001,0.9999999999999999,-65.49670345712184
9.192,1.0000000000000002,-65.72758868404507
9.2,1.0,-65.9584067895851
9.208,1.0000000000000002,-66.18915758218678
9.216000000000001,1.0,-66.41984087177396
9.224,1.0,-66.65045646975081
9.232,1.0,-66.88100418900352
9.24,1.0,-67.11148384390133
9.248000000000001,1.0000000000000002,-67.34189525029785
9.256,0.9999999999999999,-67.5722382255323
9.264,0.9999999999999998,-67.80251258843084
9.272,1.0,-68.03271815930758
9.280000000000001,0.9999999999999999,-68.26285475996552
9.288,0.9999999999999999,-68.49292221369774
9.296,1.0,-68.7229203452884
9.304,0.9999999999999999,-68.95284898101366
9.312000000000001,1.0,-69.1827079486423
9.32,1.0,-69.41249707743685
9.328,1.0,-69.64221619815426
9.336,1.0,-69.87186514304663
9.344,1.0,-70.10144374586174
9.352,1.0,-70.33095184184398
9.36,1.0,-70.56038926773452
9.368,0.9999999999999999,-70.78975586177229
9.376,1.0,-71.01905146369403
9.384,1.0,-71.24827591473503
9.392,0.9999999999999999,-71.4774290576293
9.4,1.0,-71.70651073661004
9.408,1.0,-71.93552079740984
9.416,0.9999999999999999,-72.16445908726097
9.424,0.9999999999999999,-72.39332545489543
9.432,1.0,-72.62211975054535
9.44,0.9999999999999999,-72.85084182594272
9.448,0.9999999999999998,-73.07949153431983
9.456,0.9999999999999999,-73.3080687304088
9.464,1.0,-73.5365732704421
9.472,1.0,-73.76500501215185
9.48,1.0,-73.99336381477009
9.488,1.0,-74.22164953902835
9.496,1.0,-74.4498620471577
9.504,1.0,-74.67800120288797
9.512,1.0,-74.906066871448
9.52,1.0,-75.13405891956472
9.528,1.0,-75.3619772154632
9.536,0.9999999999999999,-75.5898216288657
9.544,0.9999999999999999,-75.81759203099165
9.552,1.0,-76.04528829455661
9.56,1.0,-76.27291029377206
9.568,1.0,-76.50045790434444
9.576,1.0,-76.72793100347471
9.584,1.0,-76.95532946985735
9.592,0.9999999999999999,-77.18265318367983
9.6,1.0,-77.40990202662155
9.608,1.0,-77.63707588185315
9.616,1.0,-77.86417463403541
9.624,1.0,-78.0911981693185
9.632,1.0,-78.31814637534075
9.64,1.0,-78.54501914122784
9.648,1.0,-78.7718163575914
9.656,0.9999999999999998,-78.99853791652829
9.664,1.0,-79.22518371161897
9.672,1.0,-79.45175363792663
9.68,1.0,-79.67824759199573
9.688,1.0,-79.90466547185086
9.696,1.0,-80.13100717699515
9.704,1.0,-80.35727260840925
9.712,1.0,-80.58346166854946
9.72,1.0,-80.80957426134671
9.728,1.0,-81.03561029220462
9.736,0.9999999999999999,-81.26156966799842
9.744,0.9999999999999999,-81.48745229707283
9.752,1.0,-81.71325808924098
9.76,1.0,-81.93898695578227
9.768,0.9999999999999999,-82.16463880944103
9.776,0.9999999999999999,-82.3902135644244
9.784,0.9999999999999998,-82.61571113640105
9.792,1.0,-82.84113144249874
9.8,1.0,-83.06647440130307
9.808,1.0,-83.29173993285502
9.816,1.0,-83.51692795864953
9.824,1.0,-83.74203840163307
9.832,1.0,-83.96707118620198
9.84,1.0,-84.19202623820011
9.847999999999999,1.0,-84.41690348491703
9.856,1.0,-84.64170285508574
9.864,1.0,-84.86642427888049
9.872,0.9999999999999999,-85.09106768791452
9.879999999999999,1.0,-85.31563301523815
9.888,1.0,-85.54012019533619
9.896,0.9999999999999999,-85.76452916412569
9.904,1.0,-85.98885985895363
9.911999999999999,0.9999999999999999,-86.21311221859466
9.92,1.0,-86.43728618324857
9.928,1.0,-86.66138169453778
9.936,1.0,-86.88539869550495
9.943999999999999,1.0,-87.10933713061051
9.952,1.0,-87.33319694573015
9.96,1.0,-87.55697808815198
9.968,1.0,-87.78068050657411
9.975999999999999,0.9999999999999999,-88.00430415110215
9.984,1.0,-88.22784897324621
9.992,1.0,-88.4513149259184
10.0,1.0,-88.67470196342994
10.008,0.9999999999999999,-88.89801004148862
10.016,1.0,-89.12123911719581
10.024000000000001,0.9999999999999999,-89.3443891490436
10.032,1.0,-89.56746009691192
10.04,0.9999999999999999,-89.7904519220659
10.048,1.0,-90.01336458715265
10.056000000000001,0.9999998682692004,-90.23619805619836
10.064,0.9999997372605481,-90.45895229460537
10.072,0.9999996077636806,-90.68162726914912
10.08,0.9999994798116603,-90.90422294797519
10.088000000000001,0.9999993534371817,-91.12673930059599
10.096,0.9999992286725613,-91.34917629788782
10.104,0.9999991055497288,-91.5715339120878
10.112,0.9999989841002221,-91.7938121167906
10.120000000000001,0.9999988643551775,-92.01601088694514
10.128,0.9999987463453223,-92.23813019885154
10.136,0.9999986301009679,-92.46017003015783
