freq,mag,phase
6.0,0.9999982787822058,61.474547498911704
6.008,0.999998252222104,61.27802296573293
6.016,0.9999982188247813,61.08136009839739
6.024,0.999998178778642,60.8845589012699
6.032,0.999998132269959,60.68761938016663
6.04,0.9999980794828816,60.49054154236118
6.048,0.9999980205994419,60.29332539659055
6.056,0.9999979557995632,60.09597095306128
6.064,0.9999978852610669,59.89847822345539
6.072,0.9999978091596806,59.70084722093638
6.08,0.9999977276690448,59.50307796015522
6.088,0.9999976409607216,59.30517045725631
6.096,0.9999975492042018,59.10712472988354
6.104,0.999997452566912,58.908940797186
6.112,0.9999973512142245,58.71061867982412
6.12,0.9999972453094628,58.512158399975455
6.128,0.9999971350139109,58.313559981340596
6.136,0.9999970204868204,58.114823449149014
6.144,0.9999969018854198,57.91594883016502
6.152,0.9999967793649205,57.71693615269337
6.16,0.9999966530785275,57.51778544658533
6.168,0.9999965231774448,57.31849674324431
6.176,0.9999963898108858,57.11907007563164
6.184,0.9999962531260802,56.91950547827241
6.192,0.9999961132682832,56.71980298726111
6.2,0.9999959703807834,56.51996264026743
6.208,0.9999958246049107,56.31998447654181
6.216,0.9999956760800457,56.1198685369213
6.224,0.9999955249436279,55.91961486383504
6.232,0.9999953713311636,55.719223501309905
6.24,0.999995215376235,55.51869449497624
6.248,0.9999950572105096,55.318027892073246
6.256,0.9999948969637472,55.11722374145471
6.264,0.9999947347638097,54.916282093594376
6.272,0.9999945707366701,54.71520300059155
6.28,0.9999944050064206,54.513986516176566
6.288,0.9999942376952816,54.312632695716225
6.296,0.9999940689236114,54.11114159621918
6.304,0.9999938988099142,53.90951327634142
6.312,0.999993727470849,53.70774779639162
6.32,0.9999935550212403,53.50584521833647
6.328,0.9999933815740848,53.30380560580594
6.336,0.9999932072405627,53.10162902409873
6.344,0.9999930321300453,52.899315540187395
6.352,0.9999928563501057,52.69686522272361
6.36,0.9999926800065263,52.494278142043434
6.368,0.9999925032033098,52.29155437017242
6.376,0.9999923260426872,52.08869398083079
6.384,0.9999921486251292,51.885697049438605
6.392,0.9999919710493532,51.68256365312072
6.4,0.9999917934123339,51.47929387071196
6.408,0.9999916158093138,51.275887782762126
6.416,0.9999914383338112,51.072345471540935
6.424,0.9999912610776304,50.86866702104302
6.432,0.9999910841308717,50.66485251699283
6.44,0.9999909075819414,50.46090204684955
6.448,0.9999907315175601,50.25681569981195
6.456,0.9999905560227745,50.05259356682322
6.464,0.999990381180965,49.84823574057572
6.472,0.9999902070738577,49.64374231551574
6.48,0.999990033781533,49.43911338784833
6.4879999999999995,0.9999898613824356,49.23434905554183
6.496,0.999989689953386,49.02944941833255
6.504,0.9999895195695879,48.82441457772951
6.5120000000000005,0.9999893503046406,48.61924463701882
6.52,0.9999891822305482,48.41393970126842
6.5280000000000005,0.9999890154177299,48.208499877332294
6.536,0.9999888499350295,48.00292527385531
6.5440000000000005,0.9999886858497268,47.79721600127724
6.552,0.9999885232275472,47.5913721718375
6.5600000000000005,0.9999883621326722,47.38539389957913
6.568,0.9999882026277489,47.1792813003535
6.5760000000000005,0.9999880447739027,46.973034491824116
6.584,0.9999878886307446,46.76665359347132
6.592,0.999987734256384,46.56013872659596
6.6,0.9999875817074377,46.35349001432395
6.608,0.9999874310390419,46.14670758161014
6.616,0.9999872823048613,45.939791555242394
6.624,0.9999871355571008,45.732742063845635
6.632,0.9999869908465149,45.52555923788577
6.64,0.9999868482224203,45.3182432096736
6.648,0.9999867077327038,45.110794113368705
6.656,0.999986569423836,44.9032120849833
6.664,0.9999864333408799,44.69549726238592
6.672,0.9999862995275025,44.48764978530525
6.68,0.9999861680259855,44.279669795333795
6.688,0.9999860388772364,44.07155743593143
6.696,0.9999859121207985,43.863312852429104
6.704,0.9999857877948632,43.65493619203233
6.712,0.9999856659362797,43.446427603824674
6.72,0.9999855465805667,43.23778723877122
6.728,0.9999854297619226,43.029015249721915
6.736,0.9999853155132372,42.82011179141501
6.744,0.9999852038661026,42.61107702048027
6.752,0.9999850948508245,42.40191109544228
6.76,0.9999849884964322,42.192614176723545
6.768,0.9999848848306916,41.98318642664775
6.776,0.9999847838801136,41.77362800944274
6.784,0.9999846856699687,41.56393909124368
6.792,0.9999845902242951,41.35411984009592
6.8,0.9999844975659116,41.14417042595799
6.808,0.9999844077164285,40.93409102070442
6.816,0.9999843206962593,40.72388179812869
6.824,0.9999842365246299,40.5135429339458
6.832,0.9999841552195928,40.30307460579521
6.84,0.9999840767980372,40.09247699324328
6.848,0.9999840012756991,39.88175027778604
6.856,0.9999839286671746,39.67089464285161
6.864,0.9999838589859298,39.459910273802784
6.872,0.9999837922443137,39.24879735793939
6.88,0.9999837284535679,39.03755608450068
6.888,0.9999836676238394,38.82618664466769
6.896,0.9999836097641913,38.61468923156542
6.904,0.9999835548826146,38.40306404026509
6.912,0.9999835029860392,38.191311267786226
6.92,0.9999834540803461,37.97943111309879
6.928,0.9999834081703782,37.76742377712516
6.936,0.9999833652599528,37.555289462742046
6.944,0.9999833253518723,37.343028374782506
6.952,0.9999832884479347,37.13064072003767
6.96,0.9999832545489482,36.91812670725852
6.968,0.9999832236547398,36.70548654715765
6.976,0.9999831957641686,36.49272045241086
6.984,0.9999831708751363,36.279828637658746
6.992,0.9999831489845997,36.06681131950827
7.0,0.9999831300885818,35.853668716534116
7.008,0.9999831141821832,35.640401049280165
7.016,0.9999831012595948,35.4270085402608
7.024,0.9999830913141073,35.213491413962124
7.032,0.9999830843381261,34.99984989684317
7.04,0.9999830803231787,34.78608421733706
7.048,0.9999830792599309,34.57219460585204
7.056,0.9999830811381942,34.358181294772436
7.064,0.9999830859469414,34.144044518459665
7.072,0.9999830936743144,33.92978451325303
7.08,0.9999831043076386,33.7154015174705
7.088,0.9999831178334334,33.500895771409446
7.096,0.9999831342374249,33.28626751734736
7.104,0.9999831535045557,33.07151699954232
7.112,0.999983175618998,32.85664446423358
7.12,0.9999832005641647,32.64165015964199
7.128,0.9999832283227217,32.42653433597038
7.136,0.9999832588765982,32.211297245403856
7.144,0.9999832922069998,31.99593914211
7.152,0.9999833282944192,31.780460282239098
7.16,0.9999833671186479,31.56486092392414
7.168,0.9999834086587881,31.349141327280957
7.176,0.9999834528932647,31.13330175440797
7.184,0.9999834997998353,30.917342469386288
7.192,0.9999835493556037,30.70126373827935
7.2,0.999983601537031,30.485065829132676
7.208,0.9999836563199459,30.268749011973583
7.216,0.9999837136795577,30.0523135588106
7.224,0.9999837735904672,29.835759743633215
7.232,0.9999838360266782,29.619087842411044
7.24,0.9999839009616098,29.402298133093364
7.248,0.9999839683681065,29.18539089560829
7.256,0.999984038218451,28.96836641186202
7.264,0.9999841104843751,28.751224965737915
7.272,0.9999841851370707,28.533966843095616
7.28,0.9999842621472022,28.316592331769897
7.288,0.9999843414849177,28.099101721569678
7.296,0.9999844231198596,27.88149530427675
7.304,0.9999845070211768,27.66377337364461
7.312,0.999984593157536,27.44593622539697
7.32,0.9999846814971323,27.22798415722649
7.328,0.9999847720077016,27.009917468793198
7.336,0.9999848646565316,26.791736461722888
7.344,0.9999849594104719,26.57344143960557
7.352,0.9999850562359467,26.355032707993615
7.36,0.9999851550989658,26.136510574400017
7.368,0.9999852559651351,25.917875348296448
7.376,0.9999853587996683,25.699127341111353
7.384,0.9999854635673978,25.4802668662278
7.392,0.9999855702327862,25.261294238981417
7.4,0.9999856787599365,25.042209776658133
7.4079999999999995,0.9999857891126043,24.82301379849194
7.416,0.9999859012542085,24.603706625662344
7.4239999999999995,0.9999860151478414,24.38428858129222
7.432,0.9999861307562804,24.16475999044487
7.4399999999999995,0.9999862480419994,23.94512118012181
7.448,0.9999863669671786,23.72537247925962
7.4559999999999995,0.9999864874937162,23.50551421872764
7.464,0.9999866095832384,23.285546731324636
7.4719999999999995,0.9999867331971115,23.065470351776217
7.48,0.9999868582964511,22.845285416731453
7.4879999999999995,0.9999869848421339,22.624992264760156
7.496,0.9999871127948075,22.404591236349237
7.504,0.9999872421149024,22.184082673899827
7.5120000000000005,0.9999873727626409,21.963466921723516
7.52,0.9999875046980489,21.74274432603929
7.5280000000000005,0.9999876378809656,21.521915234969597
7.536,0.9999877722710546,21.300979998537105
7.5440000000000005,0.9999879078278138,21.079938968660603
7.552,0.9999880445105858,20.85879249915163
7.5600000000000005,0.9999881822785691,20.637540945710143
7.568,0.999988321090827,20.416184665921026
7.5760000000000005,0.9999884609062983,20.194724019249577
7.584,0.9999886016838089,19.97315936703779
7.5920000000000005,0.999988743382079,19.75149107249977
7.6,0.9999888859597363,19.529719500717803
7.6080000000000005,0.9999890293753241,19.30784501863757
7.616,0.9999891735873114,19.085867995064074
7.6240000000000006,0.9999893185541039,18.863788800656668
7.632,0.9999894642340528,18.641607807924842
7.640000000000001,0.999989610585465,18.419325391223065
7.648,0.9999897575666128,18.196941926746383
7.656000000000001,0.9999899051357438,17.974457792525104
7.664,0.9999900532510905,17.75187336842023
7.672,0.99999020187088,17.52918903611796
7.68,0.9999903509533429,17.306405179124884
7.688,0.9999905004567237,17.08352218276253
7.696,0.9999906503392887,16.860540434162118
7.704,0.9999908005593375,16.637460322259113
7.712,0.9999909510752115,16.414282237787717
7.72,0.9999911018453017,16.191006573275295
7.728,0.9999912528280596,15.967633723036691
7.736,0.9999914039820055,15.744164083168489
7.744,0.9999915552657384,15.520598051543086
7.752,0.9999917066379437,15.296936027802856
7.76,0.9999918580574025,15.073178413354082
7.768,0.9999920094830019,14.849325611360843
7.776,0.9999921608737412,14.625378026738847
7.784,0.9999923121887432,14.401336066149113
7.792,0.9999924633872603,14.177200137991655
7.8,0.9999926144286864,13.952970652398989
7.808,0.9999927652725613,13.728648021229631
7.816,0.9999929158785825,13.504232658061456
7.824,0.9999930662066121,13.279724978184987
7.832,0.9999932162166852,13.055125398596605
7.84,0.9999933658690185,12.830434337991692
7.848,0.9999935151240177,12.605652216757631
7.856,0.9999936639422866,12.380779456966794
7.864,0.999993812284634,12.155816482369362
7.872,0.9999939601120831,11.930763718386153
7.88,0.9999941073858769,11.705621592101288
7.888,0.9999942540674891,11.480390532254814
7.896,0.999994400118629,11.255070969235218
7.904,0.9999945455012508,11.029663335071886
7.912,0.9999946901775607,10.804168063427438
7.92,0.9999948341100239,10.578585589590027
7.928,0.9999949772613727,10.352916350465499
7.936,0.9999951195946128,10.127160784569531
7.944,0.9999952610730322,9.901319332019611
7.952,0.9999954016602062,9.675392434527012
7.96,0.9999955413200059,9.449380535388636
7.968,0.999995680016605,9.223284079478766
7.976,0.9999958177144864,8.997103513240777
7.984,0.9999959543784487,8.770839284678736
7.992,0.9999960899736134,8.544491843348926
8.0,0.9999962244654315,8.31806164035127
8.008,0.9999963578196899,8.091549128320738
8.016,0.9999964900025173,7.86495476141848
8.024000000000001,0.9999966209803921,7.638278995323265
8.032,0.9999967507201468,7.411522287222451
8.04,0.9999968791889755,7.184685095802925
8.048,0.9999970063544397,6.957767881242156
8.056000000000001,0.9999971321844736,6.73077110519917
8.064,0.9999972566473913,6.503695230805236
8.072,0.9999973797118911,6.276540722654477
8.08,0.999997501347063,6.049308046794606
8.088000000000001,0.9999976215223925,5.821997670717574
8.096,0.9999977402077673,5.594610063349943
8.104,0.9999978573734833,5.367145695043191
8.112,0.999997972990248,5.139605037564112
8.120000000000001,0.9999980870291872,4.911988564085166
8.128,0.9999981994618509,4.684296749174541
8.136,0.9999983102602159,4.45653006878612
8.144,0.9999984193966931,4.228689000249611
8.152000000000001,0.999998526844132,4.0007740222605594
8.16,0.9999986325758247,3.7727856148701067
8.168,0.9999987365655102,3.5447242594746724
8.176,0.9999988387873806,3.316590438805741
8.184000000000001,0.9999989392160855,3.0883846369196113
8.192,0.9999990378267342,2.860107339186835
8.2,0.9999991345949023,2.631759032281593
8.208,0.9999992294966353,2.4033402041712066
8.216000000000001,0.9999993225084521,2.174851344105559
8.224,0.9999994136073501,1.9462929426062723
8.232,0.9999995027708082,1.7176654914557632
8.24,0.9999995899767906,1.4889694836864777
8.248000000000001,0.9999996752037514,1.2602054135700267
8.256,0.9999997584306377,1.0313737766060576
8.264,0.9999998396368927,0.8024750695110403
8.272,0.9999999188024602,0.5735097902072124
8.280000000000001,0.9999999959077865,0.3444784378114334
8.288,1.0,0.11538151262376789
8.296,1.0,-0.11378048388400021
8.304,1.0,-0.34300704907968804
8.312,0.9999999999999999,-0.5722976791821078
8.32,0.9999999999999999,-0.8016518692729973
8.328,0.9999999999999999,-1.0310691133082572
8.336,1.0,-1.2605489041300761
8.344,1.0,-1.4900907334783104
8.352,1.0,-1.7196940920027461
8.36,0.9999999999999999,-1.9493584692745867
8.368,0.9999999999999999,-2.1790833537988554
8.376,0.9999999999999999,-2.408868233026019
8.384,1.0,-2.6387125933645055
8.392,1.0,-2.8686159201924615
8.4,1.0,-3.098577697870381
8.408,1.0,-3.3285974097530118
8.416,1.0,-3.558674538202084
8.424,1.0,-3.7888085645983414
8.432,1.0,-4.018998969354394
8.44,1.0,-4.24924523192688
8.448,1.0,-4.479546830829412
8.456,1.0,-4.7099032436448685
8.464,0.9999999999999999,-4.940313947038464
8.472,1.0,-5.170778416770129
8.48,1.0,-5.401296127707736
8.488,1.0,-5.631866553839542
8.496,0.9999999999999999,-5.862489168287541
8.504,0.9999999999999998,-6.093163443320046
8.512,1.0,-6.323888850365113
8.52,0.9999999999999999,-6.55466486002324
8.528,1.0,-6.7854909420809
8.536,1.0,-7.016366565523343
8.544,1.0,-7.2472911985482344
8.552,1.0,-7.478264308578534
8.56,1.0,-7.70928536227627
8.568,0.9999999999999999,-7.940353825555525
8.576,1.0,-8.17146916359624
8.584,0.9999999999999999,-8.402630840857354
8.592,0.9999999999999999,-8.633838321090701
8.6,1.0,-8.865091067354216
8.608,1.0,-9.096388542025952
8.616,1.0,-9.327730206817336
8.624,1.0000000000000002,-9.559115522787321
8.632,1.0,-9.790543950355719
8.64,1.0,-10.022014949317391
8.648,1.0,-10.253527978855733
8.656,0.9999999999999999,-10.485082497556917
8.664,0.9999999999999999,-10.71667796342344
8.672,1.0,-10.948313833888488
8.68,1.0,-11.179989565829525
8.688,0.9999999999999998,-11.411704615582765
8.696,0.9999999999999998,-11.643458438956808
8.704,1.0,-11.87525049124719
8.712,0.9999999999999999,-12.107080227250147
8.72,0.9999999999999999,-12.338947101277146
8.728,1.0,-12.57085056716877
8.736,1.0,-12.802790078309334
8.744,1.0,-13.034765087640794
8.752,1.0,-13.266775047677454
8.76,1.0,-13.498819410519936
8.768,0.9999999999999999,-13.730897627869947
8.776,0.9999999999999999,-13.963009151044286
8.784,0.9999999999999999,-14.195153430989723
8.792,0.9999999999999999,-14.427329918297016
8.8,1.0,-14.659538063215862
8.808,1.0,-14.89177731566898
8.815999999999999,0.9999999331625802,-15.124047125267031
8.824,0.999999853660126,-15.356346941323064
8.832,0.9999997720493452,-15.588676212866952
8.84,0.9999996883481376,-15.821034388660188
8.847999999999999,0.9999996025748851,-16.053420917210588
8.856,0.9999995147484486,-16.28583524678688
8.864,0.9999994248881634,-16.51827682543329
8.872,0.9999993330138361,-16.750745100984325
8.879999999999999,0.9999992391457397,-16.983239521079653
8.888,0.9999991433046108,-17.21575953317871
8.896,0.999999045511644,-17.448304584575375
8.904,0.9999989457884886,-17.680874122412874
8.911999999999999,0.9999988441572442,-17.913467593698645
8.92,0.999998740640456,-18.146084445319108
8.928,0.9999986352611109,-18.37872412405431
8.936,0.999998528042632,-18.611386076592954
8.943999999999999,0.9999984190088748,-18.844069749547334
8.952,0.9999983081841225,-19.07677458946804
8.96,0.999998195593081,-19.309500042858836
8.968,0.9999980812608732,-19.542245556191585
8.975999999999999,0.9999979652130357,-19.77501057592127
8.984,0.9999978474755133,-20.007794548500822
8.992,0.9999977280746527,-20.2405969203959
9.0,0.9999976070371989,-20.47341713809995
9.008,0.9999974843902891,-20.706254648149223
9.016,0.9999973601614484,-20.93910889713762
9.024000000000001,0.9999972343785826,-21.1719793317315
9.032,0.999997107069975,-21.40486539868482
9.04,0.9999969782642791,-21.637766544854045
9.048,0.9999968479905146,-21.870682217213144
9.056000000000001,0.99999671627806,-22.10361186286835
9.064,0.9999965831566487,-22.33655492907322
9.072,0.9999964486563621,-22.569510863243767
9.08,0.9999963128076242,-22.802479112973227
9.088000000000001,0.9999961756411959,-23.035459126046934
9.096,0.9999960371881682,-23.268450350457424
9.104,0.9999958974799578,-23.501452234419403
9.112,0.9999957565482992,-23.73446422638463
9.120000000000001,0.9999956144252401,-23.96748577505679
9.128,0.9999954711431341,-24.20051632940643
9.136,0.9999953267346356,-24.4335553386861
9.144,0.9999951812326924,-24.666602252445074
9.152000000000001,0.9999950346705405,-24.899656520544212
9.16,0.9999948870816966,-25.132717593170952
9.168,0.9999947384999521,-25.365784920854328
9.176,0.9999945889593673,-25.598857954479666
9.184000000000001,0.9999944384942638,-25.831936145303455
9.192,0.9999942871392182,-26.06501894496826
9.2,0.9999941349290564,-26.29810580551764
9.208,0.9999939818988451,-26.531196179410962
9.216000000000001,0.9999938280838873,-26.76428951953799
9.224,0.9999936735197134,-26.99738527923391
9.232,0.9999935182420758,-27.23048291229415
9.24,0.9999933622869418,-27.46358187298907
9.248000000000001,0.9999932056904861,-27.6966816160786
9.256,0.9999930484890844,-27.929781596827087
9.264,0.9999928907193066,-28.162881271018065
9.272,0.9999927324179089,-28.39598009496894
9.280000000000001,0.9999925736218277,-28.629077525545473
9.288,0.9999924143681724,-28.86217302017656
9.296,0.9999922546942175,-29.095266036868956
9.304,0.9999920946373964,-29.32835603422184
9.312000000000001,0.9999919342352933,-29.561442471441186
9.32,0.9999917735256374,-29.794524808354517
9.328,0.9999916125462934,-30.02760250542546
9.336,0.999991451335257,-30.260675023768265
9.344,0.9999912899306449,-30.493741825162
9.352,0.9999911283706895,-30.726802372065418
9.36,0.9999909666937303,-30.959856127631006
9.368,0.9999908049382075,-31.19290255571976
9.376,0.9999906431426534,-31.42594112091507
9.384,0.9999904813456865,-31.65897128853762
9.392,0.9999903195860024,-31.891992524659138
9.4,0.9999901579023679,-32.12500429611713
9.408,0.9999899963336117,-32.35800607052874
9.416,0.9999898349186194,-32.590997316305305
9.424,0.9999896736963232,-32.82397750266617
9.432,0.9999895127056966,-33.056946099653196
9.44,0.9999893519857456,-33.2899025781445
9.448,0.9999891915755016,-33.522846409868826
9.456,0.9999890315140137,-33.755777067419324
9.464,0.9999888718403412,-33.988694024267794
9.472,0.9999887125935458,-34.22159675477836
9.48,0.999988553812685,-34.454484734221694
9.488,0.9999883955368027,-34.68735743878852
9.496,0.9999882378049226,-34.92021434560385
9.504,0.9999880806560415,-35.153054932740424
9.512,0.9999879241291201,-35.38587867923279
9.52,0.9999877682630757,-35.61868506509062
9.528,0.9999876130967756,-35.85147357131286
9.536,0.9999874586690286,-36.08424367990087
9.544,0.9999873050185779,-36.31699487387246
9.552,0.9999871521840923,-36.54972663727492
9.56,0.9999870002041605,-36.782438455199085
9.568,0.9999868491172818,-37.01512981379224
9.576,0.9999866989618593,-37.24780020027199
9.584,0.9999865497761927,-37.48044910293915
9.592,0.99998640159847,-37.71307601119151
9.6,0.9999862544667597,-37.94568041553669
9.608,0.9999861084190043,-38.178261807605665
9.616,0.9999859634930119,-38.41081968016566
9.624,0.9999858197264494,-38.64335352713351
9.632,0.9999856771568341,-38.875862843588436
9.64,0.9999855358215262,-39.10834712578538
9.648,0.999985395757723,-39.34080587116762
9.656,0.9999852570024497,-39.57323857838001
9.664,0.9999851195925515,-39.805644747281455
9.672,0.9999849835646887,-40.03802387895814
