freq,mag,phase
6.0,0.9999969304641319,-123.14455730977443
6.008,0.999995740949231,-123.50659287551059
6.016,0.999994599644777,-123.86825138818256
6.024,0.9999935054269627,-124.22953469346524
6.032,0.9999924571886778,-124.59044464703915
6.04,0.9999914538393652,-124.95098311443759
6.048,0.9999904943048794,-125.31115197089511
6.056,0.9999895775273444,-125.67095310119754
6.064,0.9999887024650115,-126.03038839953372
6.072,0.9999878680921143,-126.38945976934868
6.08,0.99998707339873,-126.74816912319797
6.088,0.9999863173906326,-127.10651838260425
6.096,0.9999855990891514,-127.46450947791499
6.104,0.9999849175310314,-127.8221443481614
6.112,0.9999842717682836,-128.17942494091946
6.12,0.999983660868049,-128.53635321217226
6.128,0.9999830839124539,-128.89293112617344
6.136,0.9999825399984645,-129.24916065531278
6.144,0.999982028237749,-129.60504377998288
6.152,0.9999815477565317,-129.96058248844747
6.16,0.9999810976954542,-130.3157787767111
6.168,0.9999806772094321,-130.67063464839038
6.176,0.9999802854675124,-131.02515211458675
6.184,0.9999799216527349,-131.37933319376071
6.192,0.9999795849619898,-131.73317991160735
6.2,0.9999792746058755,-132.08669430093354
6.208,0.9999789898085633,-132.43987840153645
6.216,0.9999787298076518,-132.7927342600835
6.224,0.9999784938540318,-133.14526392999397
6.232,0.9999782812117435,-133.4974694713217
6.24,0.9999780911578413,-133.84935295063943
6.248,0.9999779229822537,-134.2009164409244
6.256,0.999977775987646,-134.5521620214457
6.264,0.999977649489282,-134.90309177765258
6.272,0.9999775428148898,-135.25370780106434
6.28,0.9999774553045228,-135.60401218916186
6.288,0.999977386310426,-135.95400704527978
6.296,0.9999773351968985,-136.30369447850106
6.304,0.9999773013401592,-136.653076603552
6.312,0.9999772841282191,-137.00215554069908
6.32,0.999977282960737,-137.35093341564706
6.328,0.9999772972488957,-137.69941235943833
6.336,0.9999773264152628,-138.0475945083537
6.344,0.9999773698936667,-138.39548200381444
6.352,0.9999774271290591,-138.74307699228538
6.36,0.9999774975773869,-139.09038162518002
6.368,0.9999775807054634,-139.43739805876604
6.376,0.9999776759908389,-139.7841284540727
6.384,0.9999777829216722,-140.1305749767993
6.392,0.9999779009966024,-140.4767397972249
6.4,0.9999780297246237,-140.82262509011917
6.408,0.9999781686249567,-141.16823303465486
6.416,0.9999783172269257,-141.5135658143211
6.424,0.999978475069832,-141.858625616838
6.432,0.999978641702832,-142.2034146340726
6.44,0.9999788166848114,-142.54793506195605
6.448,0.9999789995842662,-142.8921891004018
6.456,0.9999791899791742,-143.23617895322485
6.464,0.9999793874568845,-143.57990682806275
6.472,0.9999795916139885,-143.923374936297
6.48,0.9999798020562046,-144.26658549297622
6.4879999999999995,0.9999800183982583,-144.60954071674013
6.496,0.9999802402637665,-144.95224282974485
6.504,0.999980467285117,-145.29469405758874
6.5120000000000005,0.9999806991033557,-145.63689662924068
6.52,0.9999809353680704,-145.9788527769676
6.5280000000000005,0.9999811757372747,-146.32056473626506
6.536,0.9999814198772963,-146.66203474578688
6.5440000000000005,0.9999816674626631,-147.00326504727803
6.552,0.9999819181759922,-147.34425788550627
6.5600000000000005,0.9999821717078768,-147.6850155081971
6.568,0.9999824277567777,-148.02554016596767
6.5760000000000005,0.9999826860289124,-148.36583411226349
6.584,0.9999829462381478,-148.70589960329463
6.592,0.9999832081058915,-149.04573889797442
6.6,0.9999834713609846,-149.38535425785753
6.608,0.9999837357395955,-149.72474794708063
6.616,0.9999840009851164,-150.0639222323027
6.624,0.999984266848055,-150.40287938264717
6.632,0.9999845330859352,-150.74162166964462
6.64,0.999984799463192,-151.08015136717646
6.648,0.9999850657510693,-151.41847075141968
6.656,0.99998533172752,-151.75658210079231
6.664,0.9999855971771043,-152.09448769589994
6.672,0.9999858618908933,-152.43218981948317
6.68,0.9999861256663664,-152.76969075636575
6.688,0.9999863883073162,-153.1069927934039
6.696,0.999986649623752,-153.44409821943606
6.704,0.9999869094318019,-153.78100932523395
6.712,0.9999871675536196,-154.1177284034543
6.72,0.9999874238172884,-154.45425774859126
6.728,0.9999876780567291,-154.79059965692986
6.736,0.9999879301116075,-155.12675642650012
6.744,0.9999881798272408,-155.4627303570322
6.752,0.9999884270545084,-155.79852374991194
6.76,0.9999886716497622,-156.13413890813757
6.768,0.999988913474736,-156.46957813627714
6.776,0.999989152396457,-156.80484374042635
6.784,0.9999893882871596,-157.13993802816762
6.792,0.9999896210241976,-157.4748633085296
6.8,0.9999898504899589,-157.80962189194753
6.808,0.9999900765717797,-158.14421609022423
6.816,0.9999902991618614,-158.4786482164919
6.824,0.9999905181571853,-158.8129205851745
6.832,0.9999907334594317,-159.147035511951
6.84,0.9999909449748974,-159.48099531371915
6.848,0.9999911526144144,-159.81480230855993
6.856,0.9999913562932704,-160.14845881570275
6.864,0.9999915559311287,-160.48196715549133
6.872,0.99999175145195,-160.81532964934996
6.88,0.9999919427839142,-161.14854861975076
6.888,0.9999921298593445,-161.48162639018125
6.896,0.9999923126146294,-161.81456528511268
6.904,0.9999924909901486,-162.14736762996895
6.912,0.9999926649301977,-162.48003575109618
6.92,0.9999928343829151,-162.8125719757326
6.928,0.9999929993002078,-163.14497863197926
6.936,0.9999931596376799,-163.4772580487714
6.944,0.9999933153545603,-163.8094125558499
6.952,0.9999934664136331,-164.1414444837339
6.96,0.9999936127811656,-164.47335616369332
6.968,0.9999937544268416,-164.80514992772245
6.976,0.9999938913236897,-165.1368281085136
6.984,0.9999940234480187,-165.4683930394317
6.992,0.9999941507793484,-165.79984705448888
7.0,0.9999942733003436,-166.13119248832
7.008,0.9999943909967488,-166.46243167615845
7.016,0.9999945038573242,-166.79356695381222
7.024,0.9999946118737792,-167.12460065764085
7.032,0.9999947150407112,-167.45553512453256
7.04,0.9999948133555425,-167.78637269188175
7.048,0.9999949068184565,-168.11711569756713
7.056,0.9999949954323387,-168.44776647993007
7.064,0.9999950792027154,-168.77832737775356
7.072,0.9999951581376924,-169.1088007302414
7.08,0.9999952322478971,-169.43918887699786
7.088,0.9999953015464201,-169.7694941580077
7.096,0.999995366048757,-170.09971891361647
7.104,0.9999954257727505,-170.42986548451145
7.112,0.9999954807385348,-170.75993621170258
7.12,0.9999955309684794,-171.0899334365039
7.128,0.9999955764871336,-171.4198595005155
7.136,0.9999956173211726,-171.74971674560547
7.144,0.999995653499343,-172.07950751389228
7.152,0.9999956850524102,-172.40923414772766
7.16,0.9999957120131048,-172.73889898967946
7.168,0.9999957344160711,-173.068504382515
7.176,0.9999957522978163,-173.3980526691848
7.184,0.9999957656966592,-173.7275461928062
7.192,0.9999957746526805,-174.0569872966476
7.2,0.9999957792076721,-174.38637832411285
7.208,0.99999577940509,-174.71572161872575
7.216,0.9999957752900049,-175.04501952411502
7.224,0.9999957669090546,-175.37427438399934
7.232,0.999995754310397,-175.70348854217252
7.24,0.9999957375436648,-176.03266434248914
7.248,0.9999957166599172,-176.36180412885014
7.256,0.9999956917115967,-176.69091024518883
7.264,0.9999956627524835,-177.01998503545676
7.272,0.9999956298376511,-177.34903084361014
7.28,0.9999955930234239,-177.67805001359616
7.288,0.9999955523673321,-178.00704488933957
7.296,0.9999955079280712,-178.33601781472927
7.304,0.9999954597654597,-178.6649711336054
7.312,0.9999954079403959,-178.993907189746
7.32,0.9999953525148199,-179.3228283268544
7.328,0.9999952935516715,-179.65173688854614
7.336,0.9999952311148509,-179.98063521833652
7.344,0.9999951652691783,179.69047434037216
7.352,0.9999950960803589,179.361589444303
7.36,0.9999950236149395,179.03270775031706
7.368,0.9999949479402742,178.7038269154256
7.376,0.9999948691244878,178.37494459680246
7.384,0.999994787236436,178.0460584517963
7.392,0.9999947023456727,177.71716613794288
7.4,0.9999946145224119,177.38826531297698
7.4079999999999995,0.999994523837493,177.05935363484494
7.416,0.9999944303623478,176.7304287617163
7.4239999999999995,0.9999943341689639,176.40148835199653
7.432,0.9999942353298529,176.07253006433854
7.4399999999999995,0.9999941339180153,175.74355155765528
7.448,0.9999940300069109,175.41455049113145
7.4559999999999995,0.9999939236704218,175.08552452423615
7.464,0.9999938149828248,174.75647131673458
7.4719999999999995,0.9999937040187592,174.4273885287008
7.48,0.999993590853193,174.0982738205294
7.4879999999999995,0.999993475561396,173.76912485294858
7.496,0.9999933582189082,173.43993928703176
7.504,0.9999932389015099,173.11071478421084
7.5120000000000005,0.9999931176851931,172.78144900628809
7.52,0.9999929946461327,172.45213961544943
7.5280000000000005,0.9999928698606586,172.12278427427654
7.536,0.9999927434052273,171.79338064576044
7.5440000000000005,0.9999926153563934,171.46392639331384
7.552,0.9999924857907855,171.13441918078473
7.5600000000000005,0.999992354785077,170.80485667246919
7.568,0.9999922224159605,170.47523653312533
7.5760000000000005,0.9999920887601225,170.145556427986
7.584,0.9999919538942185,169.81581402277365
7.5920000000000005,0.9999918178948458,169.48600698371288
7.6,0.9999916808385214,169.15613297754567
7.6080000000000005,0.9999915428016568,168.82618967154463
7.616,0.9999914038605336,168.49617473352822
7.6240000000000006,0.9999912640912805,168.1660858318746
7.632,0.9999911235698506,167.83592063553726
7.640000000000001,0.9999909823719989,167.50567681405929
7.648,0.9999908405732588,167.17535203758933
7.656000000000001,0.9999906982489204,166.84494397689642
7.664,0.999990555474011,166.51445030338635
7.672,0.9999904123232706,166.1838686891173
7.68,0.9999902688711342,165.85319680681607
7.688,0.9999901251917079,165.52243232989488
7.696,0.9999899813587525,165.19157293246792
7.704,0.9999898374456608,164.86061628936858
7.712,0.9999896935254393,164.52956007616675
7.72,0.9999895496706888,164.19840196918648
7.728,0.9999894059535862,163.86713964552416
7.736,0.9999892624458651,163.53577078306657
7.744,0.9999891192187986,163.20429306050977
7.752,0.9999889763431812,162.8727041573779
7.76,0.9999888338893108,162.5410017540426
7.768,0.9999886919269718,162.2091835317426
7.776,0.9999885505254196,161.87724717260392
7.784,0.9999884097533618,161.54519035966004
7.792,0.9999882696789439,161.21301077687298
7.8,0.9999881303697327,160.88070610915418
7.808,0.9999879918927002,160.54827404238634
7.816,0.9999878543142094,160.2157122634452
7.824,0.9999877176999992,159.88301846022205
7.832,0.999987582115169,159.55019032164645
7.84,0.9999874476241642,159.21722553770965
7.848,0.9999873142907637,158.88412179948799
7.856,0.9999871821780645,158.55087679916736
7.864,0.9999870513484692,158.21748823006754
7.872,0.9999869218636721,157.8839537866674
7.88,0.999986793784647,157.5502711646304
7.888,0.9999866671716339,157.21643806083048
7.896,0.999986542084127,156.88245217337885
7.904,0.9999864185808629,156.54831120165065
7.912,0.9999862967198084,156.21401284631278
7.92,0.999986176558149,155.87955480935176
7.928,0.9999860581522774,155.54493479410232
7.936,0.9999859415577838,155.21015050527646
7.944,0.9999858268294435,154.8751996489933
7.952,0.9999857140212073,154.54007993280896
7.96,0.9999856031861913,154.2047890657476
7.968,0.999985494376667,153.86932475833254
7.976,0.9999853876440513,153.5336847226184
7.984,0.9999852830388974,153.19786667222328
7.992,0.9999851806108858,152.86186832236217
8.0,0.9999850804088145,152.52568738988055
8.008,0.9999849824805914,152.1893215932886
8.016,0.9999848868732254,151.85276865279624
8.024000000000001,0.9999847936328178,151.51602629034872
8.032,0.9999847028045558,151.1790922296629
8.04,0.9999846144327027,150.84196419626386
8.048,0.9999845285605923,150.50463991752267
8.056000000000001,0.9999844452306211,150.16711712269458
8.064,0.9999843644842409,149.8293935429579
8.072,0.9999842863619522,149.49146691145333
8.08,0.9999842109032986,149.15333496332434
8.088000000000001,0.9999841381468587,148.8149954357585
8.096,0.9999840681302421,148.47644606802865
8.104,0.9999840008900824,148.13768460153543
8.112,0.9999839364620321,147.7987087798505
8.120000000000001,0.9999838748807561,147.45951634876047
8.128,0.9999838161799286,147.12010505631144
8.136,0.999983760392226,146.78047265285426
8.144,0.9999837075493242,146.44061689109074
8.152000000000001,0.9999836576818922,146.10053552612075
8.16,0.9999836108195899,145.7602263154899
8.168,0.9999835669910614,145.41968701923759
8.176,0.9999835262239344,145.07891539994682
8.184000000000001,0.999983488544814,144.73790922279417
8.192,0.9999834539792802,144.39666625560076
8.2,0.9999834225518851,144.0551842688838
8.208,0.9999833942861488,143.7134610359092
8.216000000000001,0.9999833692045579,143.37149433274553
8.224,0.9999833473285629,143.02928193831772
8.232,0.9999833286785741,142.68682163446243
8.24,0.9999833132739613,142.34411120598415
8.248000000000001,0.9999833011330511,142.001148440712
8.256,0.9999832922731259,141.65793112955794
8.264,0.9999832867104204,141.31445706657476
8.272,0.9999832844601225,140.9707240490162
8.280000000000001,0.9999832855363716,140.6267298773976
8.288,0.9999832899522559,140.282472355557
8.296,0.9999832977198143,139.93794929071763
8.304,0.9999833088500337,139.5931584935513
8.312,0.9999833233528505,139.24809777824294
8.32,0.9999833412371478,138.90276496255512
8.328,0.999983362510759,138.55715786789526
8.336,0.9999833871804652,138.21127431938186
8.344,0.999983415251996,137.86511214591346
8.352,0.9999834467300316,137.5186691802371
8.36,0.9999834816182023,137.1719432590193
8.368,0.9999835199190893,136.8249322229162
8.376,0.9999835616342275,136.47763391664694
8.384,0.9999836067641048,136.13004618906578
8.392,0.9999836553081652,135.78216689323727
8.4,0.9999837072648098,135.43399388651073
8.408,0.9999837626313985,135.08552503059732
8.416,0.9999838214042536,134.73675819164683
8.424,0.9999838835786601,134.3876912403267
8.432,0.9999839491488691,134.03832205190102
8.44,0.9999840181081017,133.6886485063116
8.448,0.9999840904485491,133.33866848825934
8.456,0.999984166161378,132.98837988728738
8.464,0.999984245236733,132.63778059786452
8.472,0.9999843276637401,132.2868685194708
8.48,0.9999844134305096,131.93564155668307
8.488,0.9999845025241414,131.5840976192628
8.496,0.9999845949307277,131.23223462224394
8.504,0.9999846906353563,130.88005048602284
8.512,0.9999847896221178,130.52754313644868
8.52,0.9999848918741073,130.17471050491545
8.528,0.9999849973734304,129.82155052845474
8.536,0.9999851061012077,129.46806114983025
8.544,0.9999852180375792,129.11424031763244
8.552,0.9999853331617115,128.76008598637588
8.56,0.9999854514518002,128.40559611659612
8.568,0.9999855728850783,128.05076867494924
8.576,0.9999856974378202,127.69560163431117
8.584,0.9999858250853476,127.34009297387983
8.592,0.9999859558020366,126.98424067927672
8.6,0.9999860895613237,126.62804274265133
8.608,0.9999862263357102,126.27149716278544
8.616,0.9999863660967726,125.91460194519979
8.624,0.9999865088151658,125.55735510226084
8.632,0.9999866544606321,125.19975465328994
8.64,0.9999868030020072,124.84179862467265
8.648,0.9999869544072284,124.48348504997021
8.656,0.999987108643341,124.12481197003137
8.664,0.9999872656765073,123.76577743310652
8.672,0.9999874254720128,123.40637949496188
8.68,0.9999875879942756,123.04661621899616
8.688,0.9999877532068537,122.6864856763573
8.696,0.9999879210724533,122.3259859460616
8.704,0.9999880915529371,121.96511511511312
8.712,0.999988264609334,121.60387127862519
8.72,0.9999884402018471,121.24225253994243
8.728,0.9999886182898626,120.88025701076481
8.736,0.9999887988319583,120.51788281127217
8.744,0.9999889817859154,120.15512807025102
8.752,0.9999891671087245,119.79199092522138
8.76,0.9999893547565986,119.4284695225662
8.768,0.9999895446849796,119.06456201766088
8.776,0.9999897368485513,118.70026657500519
8.784,0.9999899312012479,118.3355813683554
8.792,0.999990127696264,117.97050458085874
8.8,0.9999903262860662,117.60503440518804
8.808,0.9999905269224029,117.23916904367881
8.815999999999999,0.9999907295563156,116.87290670846664
8.824,0.999990934138149,116.50624562162643
8.832,0.9999911406175631,116.13918401531282
8.84,0.999991348943544,115.77172013190192
8.847999999999999,0.9999915590644154,115.40385222413386
8.856,0.9999917709278493,115.0355785552573
8.864,0.9999919844808798,114.6668973991751
8.872,0.9999921996699128,114.29780704059083
8.879999999999999,0.9999924164407394,113.92830577515676
8.888,0.9999926347385476,113.55839190962331
8.896,0.9999928545079346,113.18806376198977
8.904,0.9999930756929195,112.81731966165603
8.911999999999999,0.9999932982369562,112.44615794957551
8.92,0.9999935220829455,112.07457697840968
8.928,0.9999937471732482,111.70257511268385
8.936,0.9999939734496998,111.33015072894386
8.943999999999999,0.9999942008536212,110.95730221591407
8.952,0.9999944293258343,110.58402797465672
8.96,0.9999946588066735,110.2103264187328
8.968,0.9999948892360017,109.83619597436362
8.975999999999999,0.9999951205532229,109.46163508059355
8.984,0.9999953526972956,109.08664218945457
8.992,0.9999955856067482,108.71121576613157
9.0,0.9999958192196927,108.33535428912909
9.008,0.9999960534738394,107.95905625043862
9.016,0.9999962883065106,107.58232015570786
9.024000000000001,0.9999965236546564,107.20514452441094
9.032,0.9999967594548692,106.82752789001954
9.04,0.9999969956433986,106.44946880017503
9.048,0.9999972321561659,106.07096581686226
9.056000000000001,0.9999974689287799,105.69201751658422
9.064,0.9999977058965532,105.31262249053778
9.072,0.999997942994516,104.93277934479018
9.08,0.999998180157433,104.55248670045724
9.088000000000001,0.9999984173198183,104.17174319388246
9.096,0.9999986544159511,103.79054747681681
9.104,0.999998891379894,103.40889821659981
9.112,0.9999991281455054,103.02679409634153
9.120000000000001,0.9999993646464592,102.6442338151061
9.128,0.9999996008162584,102.26121608809548
9.136,0.9999998365882543,101.8777396468344
9.144,0.9999999999999999,101.4938032393565
9.152000000000001,1.0,101.10940563039156
9.16,1.0,100.72454560155307
9.168,0.9999999999999999,100.33922195152697
9.176,1.0,99.9534334962614
9.184000000000001,0.9999999999999999,99.56717906915735
9.192,1.0,99.18045752126004
9.2,0.9999999999999999,98.79326772145072
9.208,1.0,98.40560855663996
9.216000000000001,1.0,98.01747893196156
9.224,1.0,97.62887777096687
9.232,1.0,97.2398040158199
9.24,1.0,96.85025662749337
9.248000000000001,1.0,96.46023458596565
9.256,1.0,96.06973689041777
9.264,0.9999999999999999,95.67876255943123
9.272,1.0,95.28731063118667
9.280000000000001,1.0,94.89538016366316
9.288,1.0,94.50297023483766
9.296,0.9999999999999999,94.11007994288505
9.304,1.0,93.71670840637896
9.312000000000001,1.0,93.32285476449309
9.32,1.0000000000000002,92.92851817720256
9.328,1.0,92.53369782548567
9.336,1.0,92.13839291152654
9.344,1.0,91.7426026589178
9.352,0.9999999999999999,91.34632631286323
9.36,1.0,90.94956314038144
9.368,0.9999999999999999,90.55231243050885
9.376,1.0,90.1545734945039
9.384,1.0,89.75634566605028
9.392,0.9999999999999998,89.3576283014616
9.4,1.0,88.9584207798847
9.408,1.0,88.55872250350454
9.416,0.9999999999999998,88.15853289774752
9.424,0.9999999999999999,87.7578514114864
9.432,1.0,87.35667751724357
9.44,1.0,86.95501071139574
9.448,0.9999999999999999,86.55285051437701
9.456,1.0,86.15019647088319
9.464,1.0,85.74704815007445
9.472,1.0,85.34340514577924
9.48,0.9999999999999999,84.93926707669628
9.488,1.0,84.53463358659778
9.496,0.9999999999999999,84.12950434453066
9.504,1.0,83.72387904501905
9.512,1.0,83.31775740826451
9.52,1.0,82.91113918034735
9.528,1.0,82.50402413342587
9.536,1.0,82.09641206593648
9.544,0.9999999999999999,81.6883028027915
9.552,1.0,81.27969619557787
9.56,1.0,80.87059212275359
9.568,1.0,80.46099048984465
9.576,1.0,80.05089122963976
9.584,0.9999999999999999,79.6402943023855
9.592,1.0,79.22919969597915
9.6,0.9999999999999999,78.81760742616171
9.608,1.0,78.40551753670873
9.616,0.9999999999999999,77.99293009962089
9.624,1.0000000000000002,77.57984521531263
9.632,1.0,77.16626301280031
9.64,1.0,76.752183649888
9.648,1.0,76.33760731335325
9.656,0.9999999999999999,75.9225342191299
9.664,1.0,75.50696461249099
9.672,0.9999999999999998,75.09089876822851
