freq,mag,phase
6.0,1.000060317700123,-9.00070146404704
6.002575872,0.9999432810010783,-9.089760978197871
6.005151232,0.9998296190342791,-9.177168007604903
6.007727104,0.9997263802184976,-9.263025528480258
6.010302464,0.9996405668062338,-9.347518710393466
6.012878336,0.9995775376671793,-9.430944211464189
6.015454208,0.9995411108963793,-9.513617403056966
6.018029568,0.9995338097518195,-9.596037811090769
6.02060544,0.9995560243759246,-9.678539256394139
6.0231808,0.9996063660466568,-9.76153654355876
6.025756672,0.9996814224950455,-9.84552168600634
6.028332032,0.9997768964113922,-9.930760291838501
6.030907904,0.999886437556548,-10.017491711574742
6.033483776,1.0000030573127339,-10.105860006732653
6.036059136,1.0001194614572437,-10.19596633584425
6.038635008,1.0002281445152978,-10.287652186234407
6.041210368,1.0003224500138324,-10.38089951619429
6.04378624,1.0003960374742153,-10.475358896303197
6.046362112,1.0004445116385725,-10.57065975864713
6.048937472,1.0004645775314047,-10.666522713097304
6.051513344,1.0004550973495725,-10.76250695161063
6.054088704,1.0004166370581247,-10.858134608478716
6.056664576,1.000351669677324,-10.952987452924003
6.059239936,1.0002641153375031,-11.046764174263151
6.061815808,1.0001598476462632,-11.139156718750163
6.06439168,1.0000451954784522,-11.229943019526289
6.06696704,0.9999275760859978,-11.319094718337336
6.069542912,0.9998143533832613,-11.406583070789548
6.072118272,0.9997128697875903,-11.492473716753183
6.074694144,0.9996293562804559,-11.577026980171931
6.077270016,0.9995694350037767,-11.660577717174187
6.079845376,0.999536616392101,-11.743421007008754
6.082421248,0.9995332098954578,-11.826047217352608
6.084996608,0.9995593393289961,-11.908835112007125
6.08757248,0.9996133849643244,-11.992208636354203
6.090148352,0.9996919236057602,-12.076554497480005
6.092723712,0.9997899107322665,-12.162207463326753
6.095299584,0.9999012551021927,-12.249394913456026
6.097874944,1.0000187742241062,-12.338277116770344
6.100450816,1.0001350391758044,-12.428852287117552
6.103026176,1.0002425267675648,-12.521080605181165
6.105602048,1.00033484877668,-12.614762751345554
6.10817792,1.000405663216173,-12.709625913795012
6.11075328,1.000450568078237,-12.805341906930398
6.113329152,1.000466924226771,-12.901499545479814
6.115904512,1.000453442655105,-12.997747383746061
6.118480384,1.0004111627531784,-13.093549591563663
6.121056256,1.0003426439655159,-13.188622061408234
6.123631616,1.0002521887530147,-13.282516063944074
6.126207488,1.0001456155033177,-13.374951761044445
6.128782848,1.0000297309641737,-13.465817263063121
6.13135872,0.999911711139657,-13.55497170093119
6.13393408,0.9997991765879627,-13.642495379094488
6.136509952,0.9996993739436301,-13.728447626122346
6.139085824,0.9996184481925152,-13.81305582108369
6.141661184,0.9995617048450464,-13.896743381306488
6.144237056,0.9995327109740837,-13.979790360834906
6.146812416,0.9995331959691446,-14.06268132227106
6.149388288,0.9995632777710738,-14.145732264562913
6.15196416,0.9996210594837924,-14.229477413623057
6.15453952,0.9997028039907172,-14.314219128942266
6.157115392,0.9998033790203938,-14.40032677986134
6.159690752,0.9999162453516255,-14.48800039579605
6.162266624,1.0000345805204538,-14.57733375828108
6.164842496,1.0001506469416805,-14.66840866764123
6.167417856,1.0002568990879463,-14.76109427997055
6.169993728,1.0003468973989413,-14.855224522615163
6.172569088,1.000414703074708,-14.950548540140948
6.17514496,1.0004563087066136,-15.046630527667746
6.17772032,1.0004687688354208,-15.143141206304618
6.180296192,1.0004512534861858,-15.239634029788114
6.182872064,1.0004051359372457,-15.335682202746602
6.185447424,1.000333189404879,-15.43085128199321
6.188023296,1.0002398612740502,-15.524857031174857
6.190598656,1.0001312489949545,-15.61737747834859
6.193174528,1.0000141628129389,-15.70827825898185
6.1957504,0.9998961099151836,-15.797478279991092
6.19832576,0.9997843271269674,-15.885002745843094
6.200901632,0.9996861890242497,-15.971062281576964
6.203476992,0.9996080123713472,-16.055822546589585
6.206052864,0.9995543668150266,-16.139625913755083
6.208628224,0.9995291018300775,-16.222872299831405
6.211204096,0.9995336652184645,-16.305932024082175
6.213779968,0.9995676657612096,-16.389341934299587
6.216355328,0.999629095011103,-16.473423205791274
6.2189312,0.999713968438336,-16.55856562144571
6.22150656,0.99981706765271,-16.645130218397615
6.224082432,0.9999314992572319,-16.73325945157567
6.226658304,1.0000503491265769,-16.82313794653777
6.229233664,1.0001660455146746,-16.914671888124133
6.231809536,1.0002709110769974,-17.007822007746615
6.234384896,1.0003587126302886,-17.102449739658915
6.236960768,1.0004236335068812,-17.198152383421153
6.239536128,1.0004615341635528,-17.29461700172811
6.242112,1.0004700957964159,-17.39147231161175
6.244687872,1.0004485999346313,-17.48816984371843
6.247263232,1.0003986306969546,-17.584408464349575
6.249839104,1.000323373611442,-17.6797757949622
6.252414464,1.0002271742717044,-17.773850158463812
6.254990336,1.0001166573000564,-17.866487846623187
6.257566208,0.9999984757969927,-17.957439358156428
6.260141568,0.9998804101421523,-18.04666630683243
6.26271744,0.9997695929148224,-18.13428875748465
6.2652928,0.9996734113242655,-18.220367683839882
6.267868672,0.999597838070361,-18.305204530862053
6.270444544,0.9995476436374487,-18.38914587461542
6.273019904,0.9995261280252851,-18.472601766795698
6.275595776,0.9995345685639503,-18.555950737250196
6.278171136,0.9995725054102974,-18.63965392524616
6.280747008,0.9996375992764939,-18.72412337652228
6.283322368,0.9997254156938619,-18.809697981888792
6.28589824,0.9998309141727397,-18.896705232417236
6.288474112,0.9999469535253717,-18.985317585739274
6.291049472,1.0000662265363116,-19.0756683932182
6.293625344,1.000181402416475,-19.167751580217036
6.296200704,1.000284709778311,-19.261377386231732
6.298776576,1.000370095118317,-19.35643637092056
6.301352448,1.0004319427902615,-19.45256634246248
6.303927808,1.0004662220527294,-19.54939438683114
6.30650368,1.0004708611819932,-19.646535586823177
6.30907904,1.0004454486947314,-19.743534590914653
6.311654912,1.000391645842506,-19.83997205710796
6.314230272,1.000312917401149,-19.935460159166944
6.316806144,1.0002141910294913,-20.029647052032225
6.319382016,1.0001017411611444,-20.122326013013428
6.321957376,0.9999827460528778,-20.21334282441496
6.324533248,0.9998646417833218,-20.30262209461371
6.327108608,0.9997549552984191,-20.390247637212237
6.32968448,0.9996607331628339,-20.476449798547897
6.332260352,0.9995879076298886,-20.561399097390346
6.334835712,0.9995411668248078,-20.645488668057634
6.337411584,0.9995235920655574,-20.729140543663544
6.339986944,0.9995359665047056,-20.81275924442351
6.342562816,0.9995778448123028,-20.89677865491385
6.345138688,0.9996463512117001,-20.981615749225508
6.347714048,0.9997373007846267,-21.067600986221585
6.35028992,0.9998449577034836,-21.155086547181952
6.35286528,0.999962260611739,-21.244187420554248
6.355441152,1.0000821510790536,-21.3350285692838
6.358016512,1.0001965530631383,-21.427586459625093
6.360592384,1.0002983060473,-21.52175020872695
6.363168256,1.0003812355145927,-21.617212932140447
6.365743616,1.000439771700816,-21.71378991424886
6.368319488,1.0004704594063858,-21.810998021765222
6.370894848,1.0004711391595615,-21.90842937125441
6.37347072,1.0004417485028594,-22.005653104800853
6.376046592,1.00038428291552,-22.102309015987892
6.378621952,1.0003023530934148,-22.197925311808422
6.381197824,1.0002010144364737,-22.29221103191431
6.383773184,1.0000867894947683,-22.384965048877834
6.386349056,0.9999669222558527,-22.476041737597782
6.388924416,0.9998490201851628,-22.565344705892482
6.391500288,0.9997406009831455,-22.65305619485857
6.39407616,0.9996484252766143,-22.73930241019051
6.39665152,0.9995784995548179,-22.824402011472298
6.399227392,0.9995353029144378,-22.908635486074008
6.401802752,0.9995214008713088,-22.99250927160903
6.404378624,0.9995378898510251,-23.07640279628337
6.406954496,0.9995835607417115,-23.1607544595691
6.409529856,0.9996557231367506,-23.24595500700897
6.412105728,0.9997495496075199,-23.33242554664874
6.414681088,0.9998592976950726,-23.42032393244041
6.41725696,0.9999778611329956,-23.509918791682434
6.419832832,1.0000978890512684,-23.60129982157066
6.422408192,1.0002115688745963,-23.694369931835574
6.424984064,1.0003116751246874,-23.788993902027766
6.427559424,1.0003919944890614,-23.88492755576164
6.430135296,1.0004473153626954,-23.981893804982967
6.432710656,1.0004742159787068,-24.079449687625683
6.435286528,1.000470974225102,-24.177202256094812
6.4378624,1.000437622904989,-24.274680925562922
6.44043776,1.000376462193422,-24.37151026027258
6.443013632,1.0002913132436149,-24.467222308249966
6.445588992,1.000187409224709,-24.561654339111566
6.448164864,1.0000715578781243,-24.654471787768248
6.450740736,0.9999509243067557,-24.745565668415615
6.453316096,0.9998334073774254,-24.834956949378856
6.455891968,0.9997262720511704,-24.922714675331406
6.458467328,0.9996363482467336,-25.009028529741073
6.4610432,0.9995695307116514,-25.094258847469096
6.46361856,0.999529767692805,-25.178698757267572
6.466194432,0.9995197788322489,-25.262791418957868
6.468770304,0.9995402913181785,-25.346940002426937
6.471345664,0.9995897846449957,-25.43165331304494
6.473921536,0.9996654555533931,-25.517240454609343
6.476496896,0.9997620933260074,-25.604106715347697
6.479072768,0.9998738999304042,-25.69252849302372
6.48164864,0.9999935577621015,-25.78263918852498
6.484224,1.0001137144653782,-25.87450593688048
6.486799872,1.0002263826293314,-25.968083625486713
6.489375232,1.000324795358578,-26.063178157168903
6.491951104,1.0004024611944455,-26.159578497460505
6.494526976,1.0004544923213572,-26.256925724283064
6.497102336,1.0004776691827244,-26.354799312025385
6.499678208,1.0004703708807112,-26.45289331270077
6.502253568,1.0004331133216726,-26.550601760925712
6.50482944,1.0003682259809994,-26.64759455461929
6.5074048,1.0002798503804575,-26.743515735474016
6.509980672,1.0001736995901573,-26.838008566907654
6.512556544,1.0000562516758427,-26.93088000642089
6.515131904,0.9999351260666476,-27.022042284213565
6.517707776,0.9998180549563104,-27.111485620466702
6.520283136,0.9997122733194174,-27.199306243825422
6.522859008,0.9996246970107003,-27.285725003674234
6.52543488,0.9995607902625123,-27.371079404516244
6.52801024,0.9995247404934454,-27.455678964965713
6.530586112,0.9995186351495151,-27.540011304912156
6.533161472,0.9995431322479364,-27.624438139160656
6.535737344,0.999596640174486,-27.709490116242463
6.538312704,0.9996755305616358,-27.79552201874062
6.540888576,0.9997750252886353,-27.882819386077166
6.543464448,0.9998887077018971,-27.971721941997163
6.546039808,1.0000093561167538,-28.062328229338924
6.54861568,1.0001294110198222,-28.154701657346003
6.55119104,1.0002412713597013,-28.248729764659394
6.553766912,1.0003377062113574,-28.344365033475732
6.556342784,1.0004125953787029,-28.441178926088103
6.558918144,1.0004612732758817,-28.53893965972537
6.561494016,1.0004804825013673,-28.637240378126997
6.564069376,1.0004691719280414,-28.735556199726346
6.566645248,1.0004280040213342,-28.83354045839031
6.569220608,1.0003595678222559,-28.930690202100237
6.57179648,1.0002681765046477,-29.0267627496714
6.574372352,1.0001596514389441,-29.121327689400356
6.576947712,1.000040798129258,-29.21428871987181
6.579523584,0.9999192466317689,-29.305506306166155
6.582098944,0.9998026870772484,-29.394984603777267
6.584674816,0.9996985874841435,-29.482861818872745
6.587250688,0.9996133618450176,-29.569400810617807
6.589826048,0.9995525223200009,-29.654865306261954
6.59240192,0.9995201755039579,-29.739690247940015
6.59497728,0.9995180473782358,-29.824245336944617
6.597553152,0.9995464883449608,-29.909005507021273
6.600129024,0.9996037813676454,-29.994412979597975
6.602704384,0.9996859345590186,-30.080837426071984
6.605280256,0.9997881609549061,-30.168594495359326
6.607855616,0.9999036303974312,-30.257993624555223
6.610431488,1.0000252786780668,-30.34904286682759
6.613006848,1.0001451251429183,-30.44194614458142
6.61558272,1.0002558806191528,-30.536511202950656
6.618158592,1.000350061811207,-30.632558621400843
6.620733952,1.0004222242247514,-30.729869821248613
6.623309824,1.000467541114078,-30.82802378477139
6.625885184,1.0004828833937014,-30.926649117647518
6.628461056,1.000467589275514,-31.02523748947966
6.631036928,1.0004224565941333,-31.123451540398744
6.633612288,1.0003505406623567,-31.220801844829154
6.63618816,1.0002562370875006,-31.316968599423415
6.63876352,1.0001453708723413,-31.411662747678523
6.641339392,1.0000252743675226,-31.50469087945362
6.643914752,0.9999034901925935,-31.59593673528117
6.646490624,0.999787302045977,-31.685498708493796
6.649066496,0.9996848155375333,-31.77347607856097
6.651641856,0.9996022296850985,-31.860086069568336
6.654217728,0.999544862921962,-31.945660882529875
6.656793088,0.9995160682370744,-32.03069558958956
6.65936896,0.9995179305798746,-32.11550587038938
6.661944832,0.9995503545202907,-32.20058355027185
6.664520192,0.9996113489218198,-32.28633330758107
6.667096064,0.9996967434071321,-32.37317633995512
6.669671424,0.999801641154019,-32.46143361910583
6.672247296,0.9999188332101924,-32.551286559561774
6.674823168,1.0000411549684198,-32.64290193896826
6.677398528,1.0001609906050188,-32.73631218461237
6.6799744,1.000270252676693,-32.831358975558935
6.68254976,1.0003624633323942,-32.92793677255125
6.685125632,1.0004315390925904,-33.02565896242144
6.687700992,1.0004731753491092,-33.124207961226176
6.690276864,1.0004848181270494,-33.22313165532628
6.692852736,1.0004654700872642,-33.32205729683363
6.695428096,1.0004165799406872,-33.42046929377526
6.698003968,1.0003410313799217,-33.51798698428922
6.700579328,1.0002437775350785,-33.61428720536574
6.7031552,1.0001309079121825,-33.709028471265654
6.705731072,1.0000094580301615,-33.802116608056316
6.708306432,0.9998874312330803,-33.893470550763695
6.710882304,0.9997723345439284,-33.98307456803711
6.713457664,0.9996715667917194,-34.07110832078922
6.716033536,0.999591588563372,-34.15785655108634
6.718608896,0.999537343103018,-34.243629370186625
6.721184768,0.9995123223286357,-34.32883490418479
6.72376064,0.9995182156111038,-34.41390715572091
6.726336,0.9995546978663258,-34.499306837669835
6.728911872,0.9996192472529577,-34.58544645666747
6.731487232,0.9997081195893515,-34.67270631286772
6.734063104,0.9998152737440906,-34.76139444100635
6.736638976,0.9999340802871495,-34.85178735913056
6.739214336,1.000056984787834,-34.94390631352093
6.741790208,1.0001763944295103,-35.037789548577265
6.744365568,1.0002843879686292,-35.13339151962203
6.74694144,1.0003742866086904,-35.23039798956287
6.749517312,1.0004405501632014,-35.32856292081449
6.752092672,1.000478563980622,-35.42750749491812
6.754668544,1.0004862389026956,-35.526808543858216
6.757243904,1.0004628603225862,-35.625993721468525
6.759819776,1.000410118635884,-35.72464087544085
6.762395136,1.0003311269549404,-35.82230398670363
6.764971008,1.000231116752977,-35.9187363428807
6.76754688,1.000116133144996,-36.0135694542769
6.77012224,0.9999936679730232,-36.10669974056584
6.772698112,0.9998715416760755,-36.19811652339875
6.775273472,0.9997573479695208,-36.287748002111464
6.777849344,0.9996585457751025,-36.375907005846784
6.780425216,0.999581198675458,-36.46271818412977
6.783000576,0.9995302968864247,-36.548707768005606
6.785576448,0.999509216598093,-36.63408849646
6.788151808,0.9995190502599512,-36.71946055487678
6.79072768,0.9995594441235217,-36.80517698229404
6.79330304,0.9996277100460538,-36.891671516389266
6.795878912,0.9997195981099144,-36.97940952204723
6.798454784,0.9998291747876146,-37.06855592977713
6.801030144,0.9999496560223682,-37.15940965487849
6.803606016,1.0000730435456382,-37.252081753829685
6.806181376,1.0001918150812035,-37.34648994441746
6.808757248,1.0002984116083826,-37.4425863022906
6.81133312,1.000385967621909,-37.540058512473955
6.81390848,1.0004490411997613,-37.63866642598187
6.816484352,1.0004834447222197,-37.73801618793023
6.819059712,1.0004872447433335,-37.837596158885454
6.821635584,1.000459823452824,-37.93706343455266
6.824211456,1.0004031173335481,-38.03593298944325
6.826786816,1.0003208916615096,-38.13379022140267
6.829362688,1.0002179831467781,-38.230333367969116
6.831938048,1.0001011836470175,-38.325281562743974
6.83451392,0.9999778404305454,-38.41848134712931
6.83708928,0.9998556900105318,-38.50989321283603
6.839665152,0.9997426128346459,-38.59966042250287
6.842241024,0.999645688017136,-38.68786484278768
6.844816384,0.9995711017296841,-38.77481605553049
6.847392256,0.999523647780104,-38.86092712848883
6.849967616,0.9995063934179287,-38.946581910255745
6.852543488,0.9995203381481147,-39.03220411873781
6.85511936,0.9995646585625789,-39.11824253124302
6.85769472,0.9996365320488908,-39.20515359726362
6.860270592,0.9997314908574259,-39.293297403948834
6.862845952,0.9998433856776604,-39.38295281549926
6.865421824,0.9999650307944574,-39.474331626283785
6.867997184,1.0000889348785322,-39.56749101456585
6.870573056,1.0002072067090633,-39.66243050973862
6.873148928,1.000312189049563,-39.75900845816995
6.875724288,1.0003972697009191,-39.856977908457225
6.87830016,1.0004570338125276,-39.956013726618956
6.88087552,1.0004878459184543,-40.05571013333395
6.883451392,1.0004875190612352,-40.155679958552206
6.886027264,1.0004562714889695,-40.255391218551246
6.888602624,1.0003957976952123,-40.35444730068813
6.891178496,1.0003101860661476,-40.45248849455326
6.893753856,1.0002047176464715,-40.549115132610574
6.896329728,1.000086066036967,-40.64417844225128
6.8989056,0.9999618615478755,-40.73742932381972
6.90148096,0.9998399538702909,-40.82888784911606
6.904056832,0.999727957765033,-40.918696137864735
6.906632192,0.9996330955569246,-41.00701867697075
6.909208064,0.9995614453981408,-41.09414377815955
6.911783424,0.9995174636595346,-41.18039995295687
6.914359296,0.9995040596777837,-41.266280348208724
6.916935168,0.9995219755252733,-41.352184374848676
6.919510528,0.9995703341874667,-41.43856333937413
6.9220864,0.9996457569849293,-41.52588403229202
6.92466176,0.9997435406681665,-41.61447399254881
6.927237632,0.9998577209899969,-41.70460947847126
6.929813504,0.9999808029370488,-41.79648380173988
6.932388864,1.0001049377073918,-41.890202193476036
6.934964736,1.0002223760369895,-41.98564333978822
6.937540096,1.0003258368960957,-42.08271941923306
6.940115968,1.0004082247915036,-42.18116973730605
6.942691328,1.0004648763099204,-42.280617710490155
6.9452672,1.0004919253114637,-42.38069108810566
6.947843072,1.0004876429630696,-42.480978947286204
6.950418432,1.0004522354478085,-42.58095272231083
6.952994304,1.0003880697777818,-42.68021687775401
6.955569664,1.0002992578359613,-42.778405291983596
6.958145536,1.0001911346754815,-42.87514780125879
6.960721408,1.0000709042043354,-42.9702545143187
6.963296768,0.9999458296390616,-43.06361244221828
6.96587264,0.9998241531346519,-43.15514621691237
6.968448,0.99971359924724,-43.24502541210918
6.971023872,0.9996208905063446,-43.33343941666206
6.973599232,0.9995522038649984,-43.42070503814079
6.976175104,0.999511865585818,-43.50711258502588
6.978750976,0.9995022987537504,-43.593235922709034
6.981326336,0.999524295300219,-43.67945260696856
6.983902208,0.9995765549750791,-43.76620491449191
6.986477568,0.9996554322503624,-43.85390608814006
6.98905344,0.9997562296295058,-43.942974062900326
6.991629312,0.9998723451072938,-44.03358468496348
6.994204672,0.9999965917980153,-44.125978239100135
6.996780544,1.0001208877256256,-44.22021080474984
6.999355904,1.0002377015577903,-44.31617283664249
7.001931776,1.000339115838077,-44.41374069319001
7.004507648,1.000418946396523,-44.512676594698995
7.007083008,1.000472353597291,-44.612552911316584
7.00965888,1.0004955825740665,-44.712966271601466
7.01223424,1.0004870605192577,-44.813556431613485
7.014810112,1.0004479134121076,-44.91381683144237
7.017385472,1.0003799214940297,-45.01329104055348
7.019961344,1.0002878480022257,-45.11163722219951
7.022537216,1.0001773845349735,-45.208503928782406
7.025112576,1.000055376436599,-45.30368652231938
