freq,mag,phase
6.0,0.999999023581182,119.16210599640812
6.008,0.9999994554574907,119.07617217688895
6.016,0.9999998729975799,118.99021900129917
6.024,1.0000000000000002,118.90424643781621
6.032,0.9999999999999999,118.81825445458824
6.04,1.0,118.73224301973433
6.048,1.0,118.64621210134429
6.056,1.0,118.5601616674788
6.064,1.0,118.47409168616917
6.072,0.9999999999999999,118.38800212541767
6.08,1.0,118.30189295319707
6.088,0.9999999999999998,118.21576413745095
6.096,1.0000000000000002,118.12961564609348
6.104,1.0,118.04344744700956
6.112,1.0,117.95725950805449
6.12,1.0,117.87105179705426
6.128,1.0,117.78482428180523
6.136,1.0,117.69857693007421
6.144,0.9999999999999999,117.61230970959838
6.152,1.0,117.52602258808518
6.16,0.9999999999999999,117.43971553321232
6.168,1.0,117.35338851262762
6.176,1.0,117.26704149394904
6.184,0.9999999999999999,117.18067444476439
6.192,0.9999999999999999,117.09428733263154
6.2,1.0,117.00788012507807
6.208,1.0,116.92145278960125
6.216,1.0,116.83500529366799
6.224,0.9999999999999999,116.7485376047147
6.232,1.0,116.66204969014707
6.24,0.9999999999999999,116.57554151734014
6.248,0.9999999999999999,116.48901305363799
6.256,1.0,116.40246426635365
6.264,1.0,116.31589512276909
6.272,1.0,116.2293055901349
6.28,0.9999999999999999,116.14269563567014
6.288,1.0,116.05606522656231
6.296,0.9999999999999998,115.96941432996704
6.304,0.9999999999999999,115.88274291300806
6.312,1.0,115.79605094277679
6.32,1.0,115.70933838633242
6.328,0.9999999999999999,115.62260521070142
6.336,1.0,115.53585138287761
6.344,1.0000000000000002,115.44907686982174
6.352,1.0,115.36228163846127
6.36,0.9999999999999999,115.27546565569031
6.368,0.9999999999999998,115.18862888836918
6.376,0.9999999999999998,115.10177130332423
6.384,1.0,115.01489286734757
6.392,0.9999999999999998,114.92799354719683
6.4,0.9999999999999999,114.8410733095948
6.408,0.9999999999999999,114.75413212122925
6.416,1.0,114.66716994875243
6.424,1.0,114.580186758781
6.432,1.0,114.49318251789548
6.44,1.0,114.40615719264004
6.448,0.9999999999999999,114.31911074952214
6.456,1.0,114.23204315501212
6.464,0.9999999999999999,114.14495437554284
6.472,1.0,114.05784437750928
6.48,1.0,113.97071312726824
6.4879999999999995,1.0,113.88356059113777
6.496,0.9999999999999998,113.79638673539682
6.504,0.9999999999999999,113.70919152628485
6.5120000000000005,1.0,113.62197493000127
6.52,1.0,113.5347369127051
6.5280000000000005,1.0,113.44747744051432
6.536,1.0,113.36019647950555
6.5440000000000005,0.9999999999999999,113.27289399571337
6.552,0.9999999999999998,113.18556995512998
6.5600000000000005,1.0,113.09822432370444
6.568,0.9999999999999999,113.01085706734233
6.5760000000000005,1.0,112.92346815190494
6.584,1.0,112.83605754320892
6.592,1.0,112.74862520702548
6.6,0.9999999999999999,112.66117110907986
6.608,0.9999999999999999,112.5736952150506
6.616,1.0,112.48619749056903
6.624,1.0,112.39867790121839
6.632,1.0,112.31113641253332
6.64,1.0,112.22357298999893
6.648,1.0,112.13598759905032
6.656,0.9999999999999999,112.04838020507158
6.664,1.0,111.96075077339515
6.672,0.9999999999999999,111.87309926930097
6.68,0.9999999999999999,111.78542565801568
6.688,1.0,111.69772990471175
6.696,0.9999999999999999,111.6100119745067
6.704,1.0,111.52227183246211
6.712,1.0,111.43450944358274
6.72,0.9999999999999999,111.34672477281569
6.728,1.0000000000000002,111.25891778504932
6.736,1.0,111.17108844511243
6.744,0.9999999374514988,111.0832367177731
6.752,0.9999997427036919,110.99536256773783
6.76,0.9999995480922719,110.90746595965037
6.768,0.999999353745535,110.81954685809076
6.776,0.999999159791191,110.73160522757422
6.784,0.9999989663563572,110.64364103254998
6.792,0.9999987735675522,110.55565423740023
6.8,0.9999985815506859,110.46764480643895
6.808,0.9999983904310532,110.37961270391068
6.816,0.9999982003333243,110.29155789398939
6.824,0.9999980113815351,110.2034803407772
6.832,0.999997823699076,110.11538000830325
6.84,0.9999976374086823,110.02725686052226
6.848,0.999997452632422,109.93911086131332
6.856,0.9999972694916814,109.85094197447872
6.864,0.9999970881071536,109.76275016374234
6.872,0.999996908598823,109.67453539274854
6.88,0.9999967310859503,109.58629762506068
6.888,0.9999965556870566,109.49803682415973
6.896,0.9999963825199049,109.40975295344289
6.904,0.9999962117014835,109.32144597622215
6.912,0.9999960433479851,109.2331158557228
6.92,0.9999958775747875,109.1447625550821
6.928,0.9999957144964308,109.05638603734761
6.936,0.9999955542265969,108.96798626547583
6.944,0.999995396878082,108.8795632023307
6.952,0.9999952425627745,108.79111681068201
6.96,0.9999950913916265,108.70264705320395
6.968,0.9999949434746256,108.61415389247348
6.976,0.9999947989207679,108.52563729096893
6.984,0.9999946578380237,108.4370972110683
6.992,0.9999945203333069,108.34853361504784
7.0,0.999994386512442,108.25994646508046
7.008,0.9999942564801254,108.17133572323415
7.016,0.9999941303398909,108.08270135147049
7.024,0.9999940081940697,107.9940433116431
7.032,0.9999938901437494,107.90536156549612
7.04,0.999993776288731,107.81665607466273
7.048,0.9999936667274849,107.72792680066362
7.056,0.9999935615571052,107.63917370490557
7.064,0.999993460873259,107.55039674868001
7.072,0.9999933647701387,107.46159589316154
7.08,0.9999932733404061,107.37277109940665
7.088,0.9999931866751418,107.2839223283523
7.096,0.9999931048637835,107.19504954081475
7.104,0.999993027994071,107.10615269748814
7.112,0.9999929561519827,107.01723175894348
7.12,0.9999928894216716,106.92828668562736
7.128,0.9999928278853994,106.83931743786108
7.136,0.9999927716234689,106.75032397583945
7.144,0.9999927207141516,106.66130625963005
7.152,0.9999926752336147,106.57226424917235
7.16,0.9999926352558449,106.48319790427693
7.168,0.9999926008525698,106.394107184625
7.176,0.999992572093177,106.30499204976773
7.184,0.9999925490446293,106.21585245912601
7.192,0.9999925317713793,106.12668837199003
7.2,0.99999252033528,106.03749974751929
7.208,0.9999925147954927,105.94828654474261
7.216,0.999992515208393,105.8590487225582
7.224,0.999992521627474,105.76978623973415
7.232,0.9999925341032461,105.68049905490888
7.24,0.9999925526831361,105.59118712659188
7.248,0.999992577411381,105.50185041316466
7.256,0.9999926083289217,105.41248887288185
7.264,0.9999926454732936,105.32310246387257
7.272,0.9999926888785141,105.23369114414204
7.28,0.9999927385749681,105.1442548715735
7.288,0.9999927945892927,105.05479360393012
7.296,0.9999928569442574,104.96530729885771
7.304,0.9999929256586442,104.87579591388715
7.312,0.9999930007471248,104.78625940643747
7.32,0.9999930822201369,104.69669773381926
7.328,0.9999931700837579,104.60711085323817
7.336,0.9999932643395792,104.517498721799
7.344,0.9999933649845768,104.42786129651005
7.352,0.9999934720109824,104.33819853428781
7.36,0.9999935854061539,104.24851039196221
7.368,0.9999937051524459,104.15879682628201
7.376,0.9999938312270776,104.06905779392089
7.384,0.9999939636020049,103.97929325148371
7.392,0.9999941022437883,103.88950315551347
7.4,0.9999942471134659,103.79968746249854
7.4079999999999995,0.9999943981664248,103.70984612888047
7.416,0.9999945553522753,103.61997911106214
7.4239999999999995,0.9999947186147268,103.53008636541666
7.432,0.9999948878914663,103.44016784829651
7.4399999999999995,0.9999950631140394,103.3502235160434
7.448,0.9999952442077359,103.26025332499839
7.4559999999999995,0.9999954310914771,103.17025723151293
7.464,0.9999956236777106,103.08023519196006
7.4719999999999995,0.9999958218723074,102.99018716274634
7.48,0.9999960255744667,102.90011310032432
7.4879999999999995,0.9999962346766255,102.8100129612055
7.496,0.9999964490643759,102.71988670197379
7.504,0.99999666861639,102.62973427929967
7.5120000000000005,0.9999968932043521,102.53955564995469
7.52,0.9999971226929018,102.44935077082668
7.5280000000000005,0.9999973569395837,102.35911959893531
7.536,0.9999975957948111,102.26886209144824
7.5440000000000005,0.9999978391018376,102.17857820569775
7.552,0.999998086696742,102.0882678991979
7.5600000000000005,0.9999983384084262,101.99793112966195
7.568,0.9999985940586256,101.90756785502045
7.5760000000000005,0.999998853461933,101.81717803343948
7.584,0.9999991164258389,101.72676162333956
7.5920000000000005,0.9999993827507867,101.63631858341448
7.6,0.9999996522302429,101.5458488726509
7.6080000000000005,0.9999999246507859,101.45535245034769
7.616,0.9999999999999999,101.364829276136
7.6240000000000006,0.9999999999999999,101.27427930999902
7.632,1.0,101.1837025122922
7.640000000000001,0.9999999999999998,101.09309884376319
7.648,0.9999999999999999,101.00246826557219
7.656000000000001,1.0,100.9118107393117
7.664,1.0,100.82112622702664
7.672,1.0,100.73041469123385
7.68,1.0,100.63967609494155
7.688,0.9999999999999999,100.54891040166834
7.696,1.0,100.45811757546178
7.704,0.9999999999999999,100.36729758091644
7.712,1.0,100.27645038319133
7.72,0.9999999999999999,100.1855759480266
7.728,0.9999999999999999,100.09467424175965
7.736,1.0,100.00374523134009
7.744,0.9999999999999999,99.91278888434391
7.752,0.9999999999999999,99.82180516898669
7.76,1.0,99.7307940541354
7.768,1.0,99.63975550931931
7.776,0.9999999999999999,99.54868950473936
7.784,0.9999999999999999,99.4575960112762
7.792,1.0,99.36647500049685
7.8,0.9999999999999999,99.27532644465977
7.808,0.9999999999999999,99.18415031671826
7.816,1.0,99.0929465903222
7.824,1.0,99.00171523981811
7.832,1.0,98.91045624024737
7.84,1.0,98.81916956734256
7.848,0.9999999999999999,98.72785519752189
7.856,1.0,98.63651310788183
7.864,1.0,98.54514327618756
7.872,1.0,98.45374568086167
7.88,1.0,98.36232030097074
7.888,1.0,98.27086711620989
7.896,1.0,98.17938610688547
7.904,1.0,98.08787725389574
7.912,1.0,97.99634053870959
7.92,1.0,97.90477594334338
7.928,0.9999999999999999,97.81318345033591
7.936,0.9999999999999999,97.72156304272164
7.944,1.0,97.6299147040022
7.952,1.0,97.53823841811622
7.96,0.9999999999999999,97.44653416940757
7.968,0.9999999999999999,97.35480194259227
7.976,1.0000000000000002,97.26304172272393
7.984,1.0,97.17125349515798
7.992,0.9999999999999999,97.07943724551485
8.0,1.0,96.98759295964211
8.008,1.0,96.8957206235757
8.016,1.0,96.8038202235005
8.024000000000001,0.9999999999999999,96.7118917457104
8.032,1.0,96.6199351765679
8.04,1.0,96.52795050246327
8.048,1.0,96.43593770977375
8.056000000000001,1.0,96.34389678482289
8.064,1.0,96.25182771383982
8.072,0.9999999999999999,96.15973048291889
8.08,1.0,96.06760507797993
8.088000000000001,1.0,95.97545148472909
8.096,1.0,95.88326968862027
8.104,1.0,95.79105967481769
8.112,1.0,95.69882142815919
8.120000000000001,0.9999999999999999,95.60655493312109
8.128,1.0,95.51426017378392
8.136,0.9999999999999999,95.42193713379967
8.144,0.9999999999999999,95.32958579636058
8.152000000000001,1.0,95.23720614416945
8.16,0.9999999999999998,95.14479815941151
8.168,1.0,95.05236182372815
8.176,0.9999999999999999,94.95989711819226
8.184000000000001,1.0,94.86740402328564
8.192,1.0,94.77488251887813
8.2,0.9999999999999999,94.68233258420854
8.208,0.9999999999999999,94.58975419786772
8.216000000000001,1.0,94.4971473377836
8.224,1.0,94.40451198120799
8.232,1.0,94.31184810470542
8.24,1.0,94.21915568414383
8.248000000000001,1.0,94.1264346946875
8.256,1.0,94.03368511079134
8.264,0.9999999999999998,93.94090690619737
8.272,0.9999999999999999,93.84810005393291
8.280000000000001,1.0,93.7552645263106
8.288,0.9999999999999999,93.66240029492982
8.296,1.0,93.56950733068003
8.304,1.0,93.47658560374553
8.312,1.0,93.38363508361175
8.32,1.0,93.29065573907282
8.328,0.9999999999999999,93.19764753824064
8.336,0.9999999999999999,93.10461044855508
8.344,1.0,93.01154443679535
8.352,1.0,92.91844946909247
8.36,0.9999999999999999,92.82532551094275
8.368,1.0,92.73217252722212
8.376,1.0,92.63899048220138
8.384,1.0,92.54577933956196
8.392,1.0,92.45253906241274
8.4,0.9999999999999999,92.35926961330696
8.408,1.0,92.26597095426006
8.416,0.9999999999999999,92.17264304676756
8.424,0.9999999999999999,92.07928585182366
8.432,1.0,91.9858993299397
8.44,1.0,91.8924834411632
8.448,1.0,91.79903814509673
8.456,1.0,91.70556340091714
8.464,0.9999999999999999,91.61205916739448
8.472,1.0,91.51852540291112
8.48,1.0,91.42496206548068
8.488,0.9999999999999999,91.33136911276684
8.496,1.0,91.2377465021018
8.504,1.0,91.14409419050487
8.512,0.9999999999999999,91.05041213470034
8.52,1.0,90.95670029113535
8.528,1.0,90.86295861599724
8.536,0.9999999999999999,90.76918706523075
8.544,1.0,90.67538559455443
8.552,1.0,90.58155415947711
8.56,1.0,90.48769271531351
8.568,0.9999999999999999,90.39380121719971
8.576,1.0,90.2998796201078
8.584,1.0,90.20592787886052
8.592,1.0,90.1119459481449
8.6,0.9999999999999999,90.01793378252576
8.608,1.0,89.92389133645847
8.616,1.0,89.82981856430148
8.624,1.0,89.73571542032799
8.632,1.0,89.64158185873738
8.64,1.0,89.54741783366602
8.648,0.9999999999999999,89.45322329919759
8.656,0.9999999999999999,89.35899820937291
8.664,1.0,89.26474251819931
8.672,1.0,89.17045617965941
8.68,1.0,89.07613914771962
8.688,1.0,88.98179137633788
8.696,1.0,88.88741281947131
8.704,1.0,88.79300343108298
8.712,1.0,88.69856316514881
8.72,1.0,88.60409197566335
8.728,1.0,88.50958981664587
8.736,0.9999999999999999,88.4150566421454
8.744,1.0,88.32049240624596
8.752,1.0,88.22589706307093
8.76,1.0,88.13127056678744
8.768,0.9999999999999999,88.0366128716101
8.776,1.0,87.94192393180477
8.784,1.0,87.84720370169151
8.792,1.0,87.7524521356478
8.8,1.0,87.65766918811092
8.808,0.9999999999999999,87.56285481358051
8.815999999999999,1.0,87.46800896662053
8.824,1.0,87.37313160186108
8.832,0.9999999999999999,87.27822267400008
8.84,1.0,87.18328213780462
8.847999999999999,0.9999999999999998,87.08830994811203
8.856,0.9999999999999999,86.99330605983077
8.864,1.0,86.89827042794134
8.872,0.9999999999999999,86.80320300749672
8.879999999999999,0.9999999999999999,86.7081037536227
8.888,1.0000000000000002,86.61297262151808
8.896,1.0,86.51780956645491
8.904,0.9999999999999998,86.42261454377821
8.911999999999999,1.0,86.32738750890572
8.92,1.0,86.23212841732763
8.928,0.9999999999999999,86.13683722460611
8.936,1.0,86.0415138863747
8.943999999999999,1.0,85.94615835833751
8.952,1.0,85.85077059626855
8.96,0.9999999999999998,85.75535055601077
8.968,0.9999999999999999,85.65989819347519
8.975999999999999,0.9999999999999999,85.5644134646397
8.984,0.9999999999999999,85.46889632554807
8.992,0.9999999999999999,85.37334673230875
9.0,1.0,85.2777646410936
9.008,0.9999999999999999,85.18215000813657
9.016,1.0,85.08650278973245
9.024000000000001,0.9999999999999999,84.99082294223541
9.032,1.0,84.8951104220576
9.04,0.9999999999999999,84.7993651856677
9.048,1.0,84.70358718958934
9.056000000000001,1.0,84.60777639039975
9.064,0.9999999999999999,84.51193274472811
9.072,1.0,84.41605620925398
9.08,0.9999999999999999,84.32014674070567
9.088000000000001,1.0,84.22420429585883
9.096,1.0,84.1282288315347
9.104,0.9999999999999999,84.03222030459845
9.112,1.0,83.9361786719577
9.120000000000001,0.9999999999999999,83.84010389056081
9.128,1.0,83.74399591739527
9.136,1.0,83.64785470948601
9.144,1.0,83.5516802238939
9.152000000000001,0.9999999999999999,83.45547241771402
9.16,1.0,83.3592312480741
9.168,1.0,83.26295667213284
9.176,1.0,83.16664864707838
9.184000000000001,1.0,83.07030713012664
9.192,1.0,82.97393207851981
9.2,1.0,82.87752344952469
9.208,0.9999999999999999,82.78108120043115
9.216000000000001,0.9999999999999999,82.68460528855063
9.224,1.0,82.58809567121456
9.232,0.9999999999999999,82.49155230577283
9.24,1.0,82.39497514959224
9.248000000000001,1.0,82.29836416005514
9.256,1.0,82.20171929455786
9.264,0.9999999999999999,82.1050405105092
9.272,1.0,82.00832776532906
9.280000000000001,1.0,81.91158101644703
9.288,1.0,81.8148002213009
9.296,1.0,81.71798533733535
9.304,0.9999999999999999,81.62113632200044
9.312000000000001,1.0,81.52425313275043
9.32,1.0,81.42733572704235
9.328,1.0,81.33038406233457
9.336,1.0,81.23339809608571
9.344,0.9999999999999999,81.13637778575317
9.352,1.0,81.03932308879192
9.36,1.0,80.94223396265333
9.368,1.0,80.84511036478375
9.376,1.0,80.74795225262346
9.384,1.0,80.65075958360538
9.392,0.9999999999999999,80.55353231515393
9.4,1.0,80.4562704046838
9.408,1.0,80.3589738095989
9.416,1.0,80.26164248729108
9.424,1.0,80.1642763951392
9.432,1.0,80.06687549050781
9.44,1.0,79.96943973074626
9.448,1.0,79.87196907318751
9.456,1.0,79.77446347514716
9.464,1.0,79.67692289392227
9.472,1.0000000000000002,79.57934728679051
9.48,0.9999999999999999,79.48173661100901
9.488,0.9999999999999999,79.38409082381347
9.496,1.0,79.28640988241705
9.504,1.0,79.18869374400958
9.512,1.0,79.0909423657564
9.52,1.0,78.99315570479763
9.528,0.9999999999999998,78.89533371824699
9.536,0.9999999999999999,78.79747636319118
9.544,1.0,78.69958359668873
9.552,0.9999999999999998,78.60165537576921
9.56,1.0,78.50369165743238
9.568,1.0,78.4056923986473
9.576,0.9999999999999999,78.30765755635134
9.584,1.0,78.20958708744963
9.592,1.0,78.11148094881392
9.6,0.9999999999999999,78.01333909728193
9.608,1.0,77.91516148965647
9.616,1.0,77.81694808270474
9.624,0.9999999999999999,77.71869883315732
9.632,1.0,77.62041369770766
9.64,0.9999999999999999,77.52209263301104
9.648,1.0,77.42373559568405
9.656,1.0,77.3253425423036
9.664,1.0,77.22691342940638
9.672,1.0000000000000002,77.12844821348791
9.68,0.9999999999999999,77.02994685100205
9.688,0.9999999999999999,76.93140929836005
9.696,1.0,76.83283551192996
9.704,0.9999999999999999,76.73422544803584
9.712,1.0000000000000002,76.63557906295722
9.72,0.9999999999999999,76.53689631292814
9.728,1.0,76.43817715413671
9.736,0.9999999999999998,76.33942154272427
9.744,1.0,76.24062943478481
9.752,0.9999999999999999,76.14180078636421
9.76,0.9999999999999999,76.04293555345964
9.768,1.0,75.94403369201889
9.776,1.0,75.8450951579397
9.784,1.0,75.74611990706909
9.792,1.0,75.64710789520281
9.8,1.0,75.54805907808453
9.808,1.0,75.44897341140543
9.816,1.0,75.34985085080335
9.824,1.0,75.25069135186232
9.832,0.9999999999999999,75.15149487011186
9.84,0.9999999999999999,75.0522613610264
9.847999999999999,1.0,74.95299078002463
9.856,0.9999999999999999,74.8536830824689
9.864,0.9999999999999999,74.75433822366469
9.872,0.9999999999999999,74.65495615885989
9.879999999999999,0.9999999999999999,74.55553684324427
9.888,0.9999999999999999,74.45608023194882
9.896,0.9999999999999999,74.35658628004525
9.904,0.9999999999999999,74.25705494254538
9.911999999999999,1.0,74.15748617440045
9.92,1.0,74.05787993050062
9.928,0.9999999999999999,73.9582361656744
9.936,1.0,73.85855483468809
9.943999999999999,1.0,73.75883589224507
9.952,1.0,73.65907929298527
9.96,1.0,73.55928499148477
9.968,0.9999999999999999,73.45945294225498
9.975999999999999,0.9999999999999999,73.35958309974225
9.984,0.9999999999999999,73.25967541832712
9.992,0.9999999999999999,73.15972985232398
10.0,1.0,73.05974635598034
10.008,1.0000000000000002,72.95972488347628
10.016,1.0,72.85966538892389
10.024000000000001,0.9999999999999999,72.7595678263668
10.032,1.0,72.65943214977953
10.04,1.0,72.55925831306692
10.048,0.9999999999999999,72.45904627006357
10.056000000000001,1.0,72.35879597453335
10.064,1.0,72.25850738016881
10.072,0.9999999999999999,72.15818044059056
10.08,0.9999999999999999,72.05781510934673
10.088000000000001,1.0,71.95741133991253
10.096,0.9999999999999998,71.85696908568956
10.104,0.9999999999999999,71.75648830000526
10.112,0.9999999999999999,71.6559689361124
10.120000000000001,1.0,71.55541094718855
10.128,1.0,71.45481428633546
10.136,0.9999999999999999,71.35417890657853
10.144,0.9999999999999999,71.25350476086619
10.152000000000001,0.9999999999999999,71.15279180206949
10.16,0.9999999999999998,71.05203998298141
10.168,1.0,70.95124925631634
10.176,1.0,70.8504195747095
10.184000000000001,1.0,70.74955089071649
10.192,0.9999999999999999,70.64864315681257
10.2,1.0,70.54769632539218
10.208,0.9999999999999999,70.4467103487684
10.216000000000001,1.0,70.34568517917239
10.224,1.0,70.24462076875274
10.232,0.9999999999999999,70.14351706957504
10.24,0.9999999999999999,70.04237403362114
10.248000000000001,1.0000000000000002,69.9411916127888
10.256,0.9999999999999999,69.83996975889099
10.264,1.0,69.7387084236553
10.272,1.0,69.63740755872342
10.280000000000001,1.0,69.53606711565068
