freq,mag,phase
6.0,0.9999957954056231,57.62641583507565
6.008,0.9999952420760855,57.42933723298486
6.016,0.9999946973056393,57.23215511840042
6.024,0.9999941610301378,57.03486965602616
6.032,0.9999936331855916,56.83748101204518
6.04,0.9999931137081682,56.63998935412184
6.048,0.9999926025341948,56.44239485140347
6.056,0.9999920996001582,56.24469767452231
6.064,0.9999916048427069,56.046897995597064
6.072,0.9999911181986529,55.848995988234805
6.08,0.9999906396049704,55.65099182753247
6.088,0.9999901689987999,55.452885690078666
6.096,0.9999897063174477,55.254677753955065
6.104,0.9999892514983878,55.056368198738156
6.112,0.999988804479263,54.857957205500604
6.12,0.999988365197885,54.65944495681276
6.128,0.999987933592238,54.46083163674415
6.136,0.999987509600477,54.262117430864784
6.144,0.9999870931609314,54.06330252624654
6.152,0.9999866842121048,53.864387111464445
6.16,0.9999862826926765,53.66537137659801
6.168,0.9999858885415034,53.46625551323229
6.176,0.9999855016976187,53.267039714459294
6.184,0.9999851221002372,53.067724174878876
6.192,0.9999847496887523,52.86830909059999
6.2,0.9999843844027393,52.66879465924172
6.208,0.9999840261819568,52.46918107993417
6.216,0.9999836749663465,52.26946855331958
6.224,0.9999833306960356,52.06965728155313
6.232,0.999982993311337,51.869747468303885
6.24,0.9999826627527507,51.66973931875555
6.248,0.9999823389609652,51.46963303960732
6.256,0.9999820218768586,51.269428839074564
6.264,0.9999817114414992,51.06912692688957
6.272,0.9999814075961466,50.86872751430217
6.28,0.9999811102822543,50.66823081408028
6.288,0.9999808194414685,50.46763704051057
6.296,0.9999805350156307,50.26694640939887
6.304,0.9999802569467777,50.066159138070674
6.312,0.9999799851771449,49.8652754453716
6.32,0.9999797196491642,49.66429555166767
6.328,0.9999794603054672,49.46321967884563
6.336,0.9999792070888862,49.262048050313375
6.344,0.9999789599424538,49.060780890999965
6.352,0.999978718809406,48.85941842735592
6.36,0.9999784836331815,48.657960887353354
6.368,0.9999782543574233,48.45640850048599
6.376,0.9999780309259795,48.2547614977693
6.384,0.9999778132829059,48.05302011174033
6.392,0.9999776013724642,47.8511845764578
6.4,0.9999773951391255,47.649255127501824
6.408,0.9999771945275696,47.447232001973894
6.416,0.9999769994826871,47.245115438496576
6.424,0.99997680994958,47.0429056772133
6.432,0.9999766258735627,46.84060295978796
6.44,0.9999764472001621,46.638207529404646
6.448,0.9999762738751209,46.43571963076714
6.456,0.9999761058443952,46.23313951009853
6.464,0.9999759430541592,46.03046741514064
6.472,0.9999757854508023,45.827703595153444
6.48,0.9999756329809333,45.62484830091452
6.4879999999999995,0.9999754855913789,45.42190178471831
6.496,0.9999753432291869,45.21886430037535
6.504,0.9999752058416247,45.01573610321171
6.5120000000000005,0.9999750733761824,44.812517450067816
6.52,0.9999749457805714,44.60920859929793
6.5280000000000005,0.9999748230027277,44.40580981076896
6.536,0.9999747049908108,44.20232134585962
6.5440000000000005,0.9999745916932061,43.998743467459256
6.552,0.9999744830585247,43.795076439966934
6.5600000000000005,0.999974379035604,43.591320529290066
6.568,0.99997427957351,43.387476002843506
6.5760000000000005,0.9999741846215368,43.18354312954791
6.584,0.9999740941292082,42.97952217982884
6.592,0.9999740080462777,42.775413425615056
6.6,0.9999739263227302,42.57121714033738
6.608,0.9999738489087819,42.36693359892699
6.616,0.9999737757548827,42.16256307781408
6.624,0.9999737068117145,41.95810585492615
6.632,0.9999736420301938,41.75356220968646
6.64,0.9999735813614724,41.54893242301232
6.648,0.9999735247569373,41.34421677731328
6.656,0.9999734721682123,41.13941555648945
6.664,0.9999734235471577,40.934529045929544
6.672,0.999973378845872,40.729557532509055
6.68,0.9999733380166924,40.52450130458817
6.688,0.9999733010121948,40.319360652009905
6.696,0.999973267785196,40.114135866097904
6.704,0.9999732382887525,39.908827239654364
6.712,0.9999732124761624,39.703435066957816
6.72,0.9999731903009661,39.49795964376093
6.728,0.9999731717169463,39.292401267288156
6.736,0.9999731566781291,39.086760236233424
6.744,0.9999731451387842,38.881036850757674
6.752,0.9999731370534264,38.67523141248638
6.76,0.9999731323768152,38.469344224507175
6.768,0.9999731310639559,38.263375591367016
6.776,0.9999731330701005,38.05732581906972
6.784,0.9999731383507475,37.851195215073226
6.792,0.9999731468616432,37.64498408828687
6.8,0.9999731585587817,37.43869274906846
6.808,0.9999731733984062,37.23232150922156
6.816,0.9999731913370089,37.02587068199245
6.824,0.9999732123313309,36.819340582067206
6.832,0.9999732363383642,36.612731525568584
6.84,0.9999732633153522,36.40604383005306
6.848,0.9999732932197885,36.19927781450749
6.856,0.9999733260094181,35.99243379934604
6.864,0.9999733616422397,35.785512106406884
6.872,0.9999734000765033,35.57851305894882
6.88,0.9999734412707126,35.37143698164794
6.888,0.9999734851836244,35.16428420059416
6.896,0.9999735317742504,34.957055043287745
6.904,0.9999735810018555,34.749749838635694
6.912,0.9999736328259602,34.54236891694817
6.92,0.9999736872063402,34.33491260993482
6.928,0.9999737441030262,34.12738125070101
6.936,0.999973803476306,33.919775173744085
6.944,0.9999738652867224,33.71209471494945
6.952,0.9999739294950754,33.50434021158671
6.96,0.9999739960624225,33.29651200230571
6.968,0.999974064950078,33.08861042713248
6.976,0.9999741361196139,32.88063582746518
6.984,0.9999742095328606,32.67258854606991
6.992,0.999974285151906,32.46446892707662
7.0,0.9999743629390975,32.25627731597469
7.008,0.9999744428570405,32.04801405960882
7.016,0.9999745248685997,31.839679506174434
7.024,0.9999746089368995,31.63127400521344
7.032,0.9999746950253233,31.422797907609652
7.04,0.9999747830975146,31.21425156558425
7.048,0.9999748731173768,31.00563533269118
7.056,0.999974965049073,30.79694956381251
7.064,0.9999750588570279,30.58819461515372
7.072,0.9999751545059251,30.379370844238874
7.08,0.99997525196071,30.1704786099058
7.088,0.9999753511865886,29.96151827230129
7.096,0.9999754521490278,29.752490192876017
7.104,0.9999755548137557,29.543394734379593
7.112,0.999975659146761,29.334232260855536
7.12,0.9999757651142944,29.12500313763608
7.128,0.9999758726828676,28.915707731337047
7.136,0.999975981819254,28.70634640985261
7.144,0.9999760924904881,28.49691954234995
7.152,0.9999762046638667,28.287427499263966
7.16,0.9999763183069471,28.077870652291857
7.168,0.9999764333875488,27.868249374387627
7.176,0.9999765498737535,27.658564039756595
7.184,0.9999766677339031,27.448815023849818
7.192,0.9999767869366023,27.239002703358445
7.2,0.9999769074507171,27.029127456208002
7.208,0.9999770292453745,26.81918966155274
7.216,0.9999771522899632,26.60918969976975
7.224,0.9999772765541336,26.39912795245311
7.232,0.9999774020077973,26.189004802407993
7.24,0.9999775286211265,25.978820633644727
7.248,0.9999776563645556,25.76857583137271
7.256,0.9999777852087793,25.558270781994384
7.264,0.9999779151247526,25.347905873099073
7.272,0.9999780460836925,25.13748149345679
7.28,0.9999781780570755,24.926998033012005
7.288,0.9999783110166386,24.716455882877362
7.296,0.9999784449343802,24.50585543532727
7.304,0.9999785797825566,24.29519708379156
7.312,0.9999787155336854,24.08448122284899
7.32,0.9999788521605434,23.873708248220726
7.328,0.9999789896361666,23.662878556763786
7.336,0.9999791279338498,23.45199254646439
7.344,0.9999792670271471,23.241050616431338
7.352,0.9999794068898712,23.030053166889196
7.36,0.9999795474960923,22.819000599171602
7.368,0.9999796888201391,22.60789331571437
7.376,0.9999798308365977,22.39673172004862
7.384,0.9999799735203114,22.185516216793832
7.392,0.9999801168463811,21.974247211650876
7.4,0.9999802607901633,21.762925111394917
7.4079999999999995,0.9999804053272715,21.551550323868376
7.416,0.9999805504335745,21.340123257973694
7.4239999999999995,0.9999806960851969,21.128644323666297
7.432,0.9999808422585185,20.917113931947114
7.4399999999999995,0.9999809889301726,20.705532494855547
7.448,0.9999811360770481,20.4939004254618
7.4559999999999995,0.9999812836762872,20.282218137859825
7.464,0.9999814317052852,20.070486047159495
7.4719999999999995,0.9999815801416898,19.858704569479546
7.48,0.9999817289634021,19.64687412193952
7.4879999999999995,0.9999818781485736,19.434995122652666
7.496,0.9999820276756086,19.22306799071781
7.504,0.9999821775231615,19.011093146212126
7.5120000000000005,0.9999823276701366,18.799071010182935
7.52,0.9999824780956884,18.587002004640354
7.5280000000000005,0.9999826287792205,18.374886552549015
7.536,0.9999827797003852,18.162725077820603
7.5440000000000005,0.9999829308390823,17.950518005305504
7.552,0.9999830821754597,17.738265760785204
7.5600000000000005,0.9999832336899113,17.525968770963917
7.568,0.9999833853630777,17.313627463460836
7.5760000000000005,0.9999835371758449,17.10124226680166
7.584,0.9999836891093437,16.888813610410807
7.5920000000000005,0.9999838411449493,16.676341924602795
7.6,0.9999839932642801,16.463827640574397
7.6080000000000005,0.9999841454491978,16.25127119039594
7.616,0.9999842976818055,16.03867300700331
7.6240000000000006,0.9999844499444486,15.826033524189254
7.632,0.9999846022197126,15.613353176595238
7.640000000000001,0.9999847544904238,15.400632399702646
7.648,0.9999849067396466,15.187871629824635
7.656000000000001,0.9999850589506846,14.975071304097154
7.664,0.9999852111070789,14.762231860470749
7.672,0.9999853631926076,14.549353737701558
7.68,0.9999855151912851,14.336437375342872
7.688,0.9999856670873603,14.123483213736291
7.696,0.9999858188653178,13.910491694002962
7.704,0.9999859705098748,13.697463258034793
7.712,0.999986122005982,13.484398348485595
7.72,0.999986273338822,13.271297408762168
7.728,0.999986424493808,13.058160883015383
7.736,0.9999865754565836,12.84498921613125
7.744,0.9999867262130224,12.63178285372183
7.752,0.9999868767492254,12.418542242116269
7.76,0.999987027051522,12.205267828351673
7.768,0.9999871771064677,11.99196006016399
7.776,0.9999873269008432,11.778619385978875
7.784,0.9999874764216553,11.565246254902455
7.792,0.9999876256561335,11.351841116712148
7.8,0.9999877745917298,11.138404421847365
7.808,0.9999879232161188,10.92493662140022
7.816,0.9999880715171957,10.711438167106202
7.824,0.9999882194830755,10.497909511334782
7.832,0.9999883671020914,10.284351107080042
7.84,0.9999885143627955,10.070763407951215
7.848,0.9999886612539557,9.857146868163229
7.856,0.999988807764556,9.643501942527195
7.864,0.9999889538837946,9.429829086440884
7.872,0.9999890996010841,9.216128755879144
7.88,0.9999892449060488,9.002401407384324
7.888,0.9999893897885249,8.788647498056637
7.896,0.9999895342385586,8.574867485544504
7.904,0.9999896782464056,8.361061828034849
7.912,0.9999898218025297,8.147230984243416
7.92,0.999989964897601,7.933375413405001
7.928,0.9999901075224965,7.719495575263673
7.936,0.9999902496682965,7.50559193006299
7.944,0.9999903913262868,7.291664938536155
7.952,0.9999905324879539,7.077715061896165
7.96,0.9999906731449858,6.863742761825931
7.968,0.999990813289271,6.649748500468356
7.976,0.9999909529128964,6.435732740416419
7.984,0.9999910920081468,6.221695944703195
7.992,0.9999912305675032,6.007638576791894
8.0,0.9999913685836418,5.793561100565824
8.008,0.9999915060494329,5.579463980318404
8.016,0.9999916429579391,5.365347680742989
8.024000000000001,0.9999917793024149,5.151212666922991
8.032,0.9999919150763052,4.937059404321669
8.04,0.9999920502732431,4.722888358771926
8.048,0.9999921848870502,4.50869999646623
8.056000000000001,0.9999923189117338,4.294494783946573
8.064,0.999992452341487,4.08027318809418
8.072,0.9999925851706859,3.8660356761192167
8.08,0.9999927173938895,3.651782715550652
8.088000000000001,0.9999928490058385,3.437514774226122
8.096,0.9999929800014523,3.223232320281574
8.104,0.9999931103758304,3.0089358221408897
8.112,0.9999932401242481,2.7946257485056942
8.120000000000001,0.9999933692421575,2.58030256834513
8.128,0.9999934977251842,2.365966750885455
8.136,0.9999936255691283,2.151618765599578
8.144,0.9999937527699607,1.9372590821968232
8.152000000000001,0.999993879323823,1.722888170612637
8.16,0.999994005227026,1.5085065009981198
8.168,0.999994130476048,1.294114543709519
8.176,0.9999942550675337,1.079712769297927
8.184000000000001,0.9999943789982927,0.8653016484989409
8.192,0.9999945022652974,0.6508816522221413
8.2,0.9999946248656832,0.4364532515405381
8.208,0.9999947467967458,0.22201691768022386
8.216000000000001,0.9999948680559404,0.007573122009989269
8.224,0.9999949886408788,-0.20687766396924348
8.232,0.9999951085493306,-0.42133496863501363
8.24,0.9999952277792198,-0.6357983202536985
8.248000000000001,0.9999953463286236,-0.8502672469909488
8.256,0.9999954641957715,-1.064741276922278
8.264,0.9999955813790432,-1.2792199380436786
8.272,0.9999956978769684,-1.4937027582820532
8.280000000000001,0.9999958136882234,-1.7081892655056534
8.288,0.999995928811631,-1.922678987534697
8.296,0.9999960432461588,-2.137171452152026
8.304,0.9999961569909182,-2.3516661871135245
8.312,0.9999962700451605,-2.5661627201585615
8.32,0.9999963824082793,-2.780660579020848
8.328,0.9999964940798057,-2.995159291438623
8.336,0.9999966050594086,-3.2096583851655858
8.344,0.999996715346892,-3.4241573879810803
8.352,0.9999968249421951,-3.638655827701031
8.36,0.9999969338453889,-3.853153232188114
8.368,0.9999970420566758,-4.067649129362716
8.376,0.9999971495763883,-4.28214304721309
8.384,0.9999972564049866,-4.496634513806325
8.392,0.9999973625430578,-4.711123057298484
8.4,0.9999974679913142,-4.925608205945568
8.408,0.9999975727505912,-5.1400894881136745
8.416,0.9999976768218465,-5.354566432289928
8.424,0.9999977802061591,-5.569038567092649
8.432,0.9999978829047254,-5.783505421282264
8.44,0.99999798491886,-5.997966523771477
8.448,0.9999980862499943,-6.212421403636149
8.456,0.9999981868996726,-6.426869590125491
8.464,0.9999982868695526,-6.641310612672909
8.472,0.9999983861614035,-6.855744000906163
8.48,0.9999984847771037,-7.070169284658244
8.488,0.9999985827186403,-7.284585993977489
8.496,0.9999986799881059,-7.498993659138453
8.504,0.9999987765876995,-7.713391810651984
8.512,0.999998872519723,-7.927779979276092
8.52,0.9999989677865802,-8.142157696026024
8.528,0.9999990623907743,-8.356524492185068
8.536,0.9999991563349093,-8.57087989931464
8.544,0.9999992496216851,-8.78522344926506
8.552,0.9999993422538971,-8.999554674185594
8.56,0.9999994342344353,-9.21387310653523
8.568,0.9999995255662826,-9.428178279092677
8.576,0.9999996162525121,-9.642469724967121
8.584,0.9999997062962868,-9.856746977608202
8.592,0.999999795700857,-10.071009570816724
8.6,0.9999998844695606,-10.285257038754603
8.608,0.9999999726058184,-10.49948891595557
8.616,1.0,-10.713704737335066
8.624,0.9999999999999999,-10.927904038200902
8.632,0.9999999999999999,-11.142086354263133
8.64,1.0,-11.356251221644696
8.648,1.0,-11.570398176891217
8.656,1.0,-11.784526756981624
8.664,0.9999999999999999,-11.998636499337934
8.672,1.0,-12.212726941835792
8.68,1.0,-12.426797622814249
8.688,0.9999999999999999,-12.640848081086238
8.696,1.0,-12.854877855948311
8.704,1.0000000000000002,-13.068886487191081
8.712,1.0,-13.28287351510892
8.72,1.0,-13.496838480510329
8.728,1.0,-13.710780924727592
8.736,1.0,-13.92470038962716
8.744,0.9999999999999999,-14.138596417619171
8.752,0.9999999999999999,-14.352468551667807
8.76,1.0,-14.566316335300808
8.768,0.9999999999999998,-14.780139312619736
8.776,1.0,-14.993937028309446
8.784,0.9999999999999999,-15.20770902764829
8.792,1.0,-15.421454856517553
8.8,1.0,-15.635174061411577
8.808,1.0,-15.848866189447161
8.815999999999999,1.0,-16.062530788373557
8.824,1.0,-16.276167406582097
8.832,1.0,-16.489775593115645
8.84,0.9999999999999999,-16.70335489767841
8.847999999999999,0.9999999999999999,-16.91690487064559
8.856,0.9999999999999999,-17.13042506307284
8.864,1.0,-17.343915026705726
8.872,1.0,-17.557374313989307
8.879999999999999,0.9999999999999998,-17.770802478077712
8.888,1.0,-17.98419907284346
8.896,0.9999999999999999,-18.19756365288678
8.904,0.9999999999999999,-18.410895773545064
8.911999999999999,1.0,-18.624194990902307
8.92,0.9999999999999999,-18.83746086179827
8.928,0.9999999999999999,-19.05069294383774
8.936,1.0,-19.263890795399732
8.943999999999999,0.9999999999999999,-19.477053975646875
8.952,1.0,-19.690182044534417
8.96,1.0,-19.903274562819256
8.968,1.0,-20.116331092069164
8.975999999999999,1.0,-20.329351194671833
8.984,1.0,-20.54233443384387
8.992,0.9999999999999999,-20.755280373639643
9.0,1.0,-20.968188578960277
9.008,0.9999999999999999,-21.181058615562694
9.016,1.0,-21.393890050068297
9.024000000000001,1.0,-21.60668244997176
9.032,1.0,-21.819435383649836
9.04,0.9999999999999999,-22.032148420370195
9.048,0.9999999999999999,-22.244821130300053
9.056000000000001,0.9999999999999999,-22.457453084514647
9.064,1.0,-22.67004385500605
9.072,0.9999999999999999,-22.882593014691682
9.08,0.9999999999999999,-23.095100137422858
9.088000000000001,0.9999999999999999,-23.30756479799314
9.096,1.0,-23.519986572146802
9.104,1.0,-23.732365036587417
9.112,1.0,-23.944699768986027
9.120000000000001,1.0,-24.15699034798937
9.128,1.0,-24.36923635322828
9.136,1.0,-24.581437365325932
9.144,0.9999999999999999,-24.793592965905958
9.152000000000001,0.9999999999999999,-25.005702737600426
9.16,1.0,-25.21776626405809
9.168,1.0,-25.429783129952416
9.176,1.0,-25.64175292098957
9.184000000000001,1.0,-25.85367522391617
9.192,1.0,-26.06554962652735
9.2,1.0,-26.27737571767463
9.208,1.0,-26.48915308727369
9.216000000000001,0.9999999999999999,-26.700881326311904
9.224,0.9999999999999999,-26.9125600268563
9.232,1.0,-27.124188782061143
9.24,1.0,-27.335767186175534
9.248000000000001,1.0,-27.54729483455085
9.256,0.9999999999999999,-27.75877132364833
9.264,1.0,-27.970196251046627
9.272,0.9999999999999999,-28.181569215449127
9.280000000000001,1.0,-28.392889816691195
9.288,0.9999999999999999,-28.60415765574756
9.296,0.9999999999999999,-28.815372334739713
9.304,1.0,-29.026533456942925
9.312000000000001,1.0,-29.237640626793407
9.32,0.9999999999999999,-29.448693449895444
9.328,1.0,-29.65969153302851
9.336,1.0,-29.870634484154223
9.344,1.0000000000000002,-30.08152191242316
9.352,1.0,-30.292353428181993
9.36,1.0,-30.503128642980005
9.368,1.0,-30.71384716957629
9.376,1.0,-30.924508621946053
9.384,1.0,-31.135112615287685
9.392,0.9999999999999999,-31.345658766028958
9.4,0.9999999999999999,-31.55614669183412
9.408,0.9999999999999999,-31.766576011609864
9.416,0.9999999999999999,-31.9769463455123
9.424,1.0,-32.1872573149529
9.432,1.0,-32.3975085426053
9.44,1.0,-32.60769965241121
9.448,0.9999999999999999,-32.81783026958701
9.456,0.9999999999999999,-33.02790002062959
9.464,1.0,-33.237908533322816
9.472,0.9999999999999999,-33.447855436743346
9.48,1.0,-33.65774036126694
9.488,1.0000000000000002,-33.8675629385741
9.496,0.9999999999999999,-34.07732280165634
9.504,0.9999999999999999,-34.28701958482166
9.512,1.0,-34.49665292370077
9.52,0.9999999999999999,-34.70622245525248
9.528,1.0,-34.915727817769685
9.536,0.9999999999999999,-35.12516865088472
9.544,1.0,-35.3345445955752
9.552,0.9999999999999999,-35.54385529416936
9.56,0.9999999999999999,-35.75310039035169
9.568,0.9999999999999999,-35.96227952916813
9.576,0.9999999999999999,-36.171392357031706
9.584,0.9999999999999999,-36.38043852172753
9.592,1.0,-36.589417672418264
9.6,0.9999999999999999,-36.798329459649224
9.608,1.0,-37.007173535353544
9.616,1.0,-37.21594955285713
9.624,0.9999999999999999,-37.4246571668839
9.632,1.0,-37.63329603356045
9.64,0.9999999999999999,-37.841865810421275
9.648,1.0,-38.05036615641328
9.656,0.9999999999999999,-38.25879673190089
9.664,1.0,-38.467157198670485
9.672,0.9999999999999999,-38.67544721993532
9.68,1.0,-38.88366646033991
9.688,1.0,-39.09181458596485
9.696,0.9999999999999999,-39.299891264330995
9.704,0.9999999999999998,-39.507896164404194
9.712,0.9999999999999999,-39.71582895659947
9.72,0.9999999999999999,-39.923689312785505
9.728,1.0,-40.131476906288704
9.736,0.9999999999999999,-40.339191411897666
9.744,1.0,-40.546832505867044
9.752,1.0,-40.75439986592196
9.76,1.0,-40.96189317126167
9.768,1.0,-41.16931210256395
9.776,0.9999999999999999,-41.376656341988635
