freq,mag,phase
6.0,1.000942830030551,84.17071304078515
6.002288128,1.000673174736079,84.00150913015678
6.004576768,1.0003617233242976,83.83653225587913
6.006864896,1.0000274804713496,83.67624024291246
6.009153536,0.9996915274750285,83.52083762413788
6.011441664,0.9993751025564428,83.37021970941187
6.013729792,0.9990983758379032,83.2239025502048
6.016018432,0.9988789106400467,83.08124756491006
6.01830656,0.998730474182657,82.94127160318618
6.0205952,0.99866269535498,82.80291162469389
6.022883328,0.9986799804554255,82.66494780064514
6.025171456,0.9987809666007801,82.52612139087647
6.027460096,0.9989595187394105,82.3853013945425
6.029748224,0.9992042358995854,82.24140189315841
6.032036864,0.9994996987526581,82.09358353915552
6.034324992,0.9998271155478582,81.94126274708493
6.03661312,1.000165699950772,81.78411485910021
6.03890176,1.0004941618413146,81.62214900846764
6.041189888,1.000791639336628,81.45564151000083
6.043478016,1.0010393387618068,81.28521630886736
6.045766656,1.0012216764676003,81.11167896399856
6.048054784,1.001326991440094,80.93608917219689
6.050343424,1.0013488372828478,80.75958023273891
6.052631552,1.001285566485135,80.58337372963076
6.05491968,1.0011411928747274,80.40868878955486
6.05720832,1.0009249192486411,80.23662485565394
6.059496448,1.000650255184126,80.06815157237656
6.061785088,1.0003345391327259,79.90394954480475
6.064073216,0.9999976347693972,79.74450699063485
6.066361344,0.9996610592250722,79.58997558764406
6.068649984,0.9993458540935618,79.44019873620223
6.070938112,0.999072178186895,79.29472625048385
6.073226752,0.998857298067711,79.15281493496572
6.07551488,0.9987150108915087,79.01354146724147
6.077803008,0.9986543150414647,78.87577144405094
6.080091648,0.9986790382695951,78.73827471873
6.082379776,0.9987876797633923,78.59982444622618
6.084668416,0.9989734341370252,78.4592391034495
6.086956544,0.9992244090795762,78.31548686274988
6.089244672,0.999524876588158,78.16774987745758
6.091533312,0.9998556581960992,78.01542187724839
6.09382144,1.0001958112755147,77.85824556326257
6.09611008,1.0005238836738475,77.69623204401361
6.098398208,1.000819138498898,77.52970409918696
6.100686336,1.0010628352510778,77.35929014564232
6.102974976,1.0012396049803054,77.1858338017572
6.105263104,1.0013383675391176,77.01041036443695
6.107551232,1.0013527105031632,76.83416089389722
6.109839872,1.0012818163645922,76.6583337450957
6.112128,1.001129970626491,76.48413778633974
6.11441664,1.000906956799707,76.31265840889536
6.116704768,1.0006266242939326,76.14483421675118
6.118992896,1.000306712443171,75.98137117482858
6.121281536,0.9999674144819675,75.82271026104723
6.123569664,0.9996302116520467,75.66898901509715
6.125858304,0.9993164628896626,75.52000227737746
6.128146432,0.9990459940927617,75.375284236141
6.13043456,0.9988361255767585,75.23407469866034
6.1327232,0.9987000751292521,75.09540720656175
6.135011328,0.998646490059916,74.95814790766376
6.137299968,0.9986789488444829,74.82106530217071
6.139588096,0.9987953349928512,74.6828848861183
6.141876224,0.9989882560194622,74.54249663046706
6.144164864,0.9992455740737289,74.39882425348192
6.146452992,0.999550872651672,74.25106754665748
6.148741632,0.9998848780993614,74.0986766016283
6.15102976,1.0002264808066237,73.94139471894312
6.153317888,1.000554126645632,73.77926202732361
6.155606528,1.0008468454994925,73.61264100679372
6.157894656,1.0010863667832512,73.44217472644773
6.160183296,1.001257466765182,73.2687421770882
6.162471424,1.0013493004910092,73.09341911855425
6.164759552,1.0013561632983015,72.91737545562887
6.167048192,1.0012774380700935,72.74187312169853
6.16933632,1.0011181356784147,72.56808879700594
6.17162496,1.000888322915831,72.39713758347102
6.173913088,1.0006023058786568,72.22992641148295
6.176201216,1.000278335745,72.06715456427227
6.178489856,0.9999366461643122,71.90923171514233
6.180777984,0.9995990778275378,71.7562373529656
6.183066112,0.9992868526382528,71.60798272123786
6.185354752,0.9990198635044418,71.46396883771408
6.18764288,0.9988150418340365,71.32339471074819
6.18993152,0.9986853274464242,71.18527417402969
6.192219648,0.9986391217633623,71.04845607274653
6.194507776,0.9986793245509756,70.9116816063094
6.196796416,0.998803447443285,70.77374268093519
6.199084544,0.9990037037419016,70.6334321822384
6.201373184,0.9992671290180103,70.48976816170855
6.203661312,0.9995773836947228,70.34192815581912
6.20594944,0.9999146031838393,70.18940711799391
6.20823808,1.0002574403945457,70.0319412063604
6.210526208,1.000584366944927,69.86962090540898
6.212814848,1.0008744814010935,69.702839068258
6.215102976,1.0011096481388637,69.5322519485557
6.217391104,1.0012749189574521,69.35878233905594
6.219679744,1.0013597271200756,69.18351664585322
6.221967872,1.0013589181245621,69.00761424399602
6.224256512,1.0012723729515274,68.83238399633278
6.22654464,1.0011055075675195,68.65895767549284
6.228832768,1.0008688757860875,68.48848180410359
6.231121408,1.0005773222570888,68.32182977316948
6.233409536,1.0002493763087412,68.15968518010979
6.235698176,0.9999055133259119,68.0024252832646
6.237986304,0.9995676835245532,67.85012680642254
6.240274432,0.9992572431677409,67.70254100791773
6.242563072,0.9989938891352232,67.55914240617791
6.2448512,0.9987942713849935,67.4191475345532
6.24713984,0.9986712052023583,67.28149395001137
6.249427968,0.9986324836381054,67.14504143347848
6.251716096,0.9986805690317881,67.0085335390213
6.254004736,0.9988124224004238,66.87071657582945
6.256292864,0.9990199338401513,66.73044410078542
6.258580992,0.9992896815536726,66.5867038056439
6.260869632,0.9996046617249931,66.43871722564674
6.26315776,0.9999449020868509,66.28596984335339
6.2654464,1.0002889474012557,66.12826164749505
6.267734528,1.0006148720960466,65.9656741826714
6.270022656,1.0009022477591902,65.79867528530995
6.272311296,1.0011328808237605,65.62792161234496
6.274599424,1.0012920667003335,65.4543334982586
6.276888064,1.0013698039762076,65.27905113731495
6.279176192,1.00136120027978,65.10324308785056
6.28146432,1.0012667204733188,64.92821662726007
6.28375296,1.001092239276593,64.75511681028524
6.286041088,1.0008488909731348,64.58505137085885
6.288329728,1.0005518401254752,64.41888946713414
6.290617856,1.0002198915887663,64.25733554924669
6.292905984,0.9998740357630294,64.10066387219766
6.295194624,0.9995361502485688,63.9489929556192
6.297482752,0.9992275980466612,63.80201952811101
6.299771392,0.9989679347534102,63.65919261589364
6.30205952,0.9987738242704564,63.51968068071006
6.304347648,0.9986574642836443,63.38244844915134
6.306636288,0.9986263001150979,63.24628292764352
6.308924416,0.9986822805409582,63.10995419865157
6.311213056,0.9988221265162879,62.972212743088086
6.313501184,0.9990367721590097,62.83189502450433
6.315789312,0.9993126161481386,62.68799591680942
6.318077952,0.9996322791283203,62.539779301819365
6.32036608,0.9999754728736089,62.38673280580606
6.322654208,1.0003204990278867,62.228719055035256
6.324942848,1.0006454641653564,62.065825050727355
6.327230976,1.0009298028561509,61.898517143399324
6.329519616,1.0011556658106036,61.72751809515254
6.331807744,1.0013087073473232,61.55376754285276
6.334095872,1.001379230841999,61.378404545717494
6.336384512,1.0013627085949939,61.20266206994805
6.33867264,1.0012602584930046,61.02776384981854
6.34096128,1.0010782267320892,60.85493855934918
6.343249408,1.0008281003292918,60.68523263766327
6.345537536,1.00052560405799,60.519529148941075
6.347826176,1.0001898930352275,60.358458358052594
6.350114304,0.9998420744669402,60.20236256387823
6.352402944,0.9995043046464283,60.051250137279176
6.354691072,0.9991978501708711,59.9048105319772
6.3569792,0.9989422234848709,59.762483757964205
6.35926784,0.9987535779791042,59.62341036991219
6.361555968,0.9986441197465971,59.48649806574267
6.363844608,0.9986206238538026,59.35056007020381
6.366132736,0.9986847986833219,59.214351957199916
6.368420864,0.9988324486737314,59.07658386528287
6.370709504,0.9990543193953951,58.93612974657301
6.372997632,0.9993362541471018,58.792026740039454
6.375286272,0.9996605534983741,58.64351204325194
6.3775744,1.0000064581094987,58.49010196850631
6.379862528,1.000352338895578,58.331691824188155
6.382151168,1.0006761259328065,58.16841523565396
6.384439296,1.0009573389170443,58.000753321346366
6.386727936,1.00117822825441,57.82945422494423
6.389016064,1.0013249596056841,57.65547153141482
6.391304192,1.0013880378970819,57.47999355707364
6.393592832,1.0013635906505611,57.30422597605894
6.39588096,1.0012531353524632,57.129430163190804
6.398169088,1.0010635236524195,56.956801385069745
6.400457728,1.0008066584510915,56.78741396450619
6.402745856,1.0004988935737904,56.62208332376782
6.405034496,1.000159462609867,56.46147477267909
6.407322624,0.9998098663781613,56.30585410237878
6.409610752,0.9994722990297401,56.155249618125325
6.411899392,0.9991681662626617,56.009300941550556
6.41418752,0.9989166131400185,55.86740691476914
6.41647616,0.9987337872169902,55.72866752205501
6.418764288,0.9986312905033278,55.59203382515384
6.421052416,0.9986156390884221,55.45624957161833
6.423341056,0.9986878387215595,55.32006713721447
6.425629184,0.9988434207243109,55.1822296308787
6.427917824,0.9990724882587587,55.04157814488625
6.430205952,0.9993605244814184,54.89717767109167
6.43249408,0.9996892505954426,54.74827050753593
6.43478272,1.0000379608935117,54.59444574516709
6.437070848,1.0003843851254777,54.43556102243063
6.439359488,1.0007068175308436,54.27183417351047
6.441647616,1.0009847968786014,54.103751857231764
6.443935744,1.0012006081767928,53.932084496503286
6.446224384,1.001340797508169,53.757832356816195
6.448512512,1.001396449736035,53.58216772532314
6.450801152,1.0013639470392353,53.40632542769319
6.45308928,1.0012453997485469,53.23156827533925
6.455377408,1.001048261222923,53.05907452240648
6.457666048,1.0007847129916274,52.88994121517602
6.459954176,1.00047171459138,52.72494500514112
6.462242816,1.0001286657521482,52.564744419898076
6.464530944,0.9997775180304003,52.40955666596595
6.466819072,0.9994402987498117,52.259388781584185
6.469107712,0.9991385044564018,52.113850973083274
6.47139584,0.998891392547454,51.97230848675141
6.473683968,0.998714428311794,51.83388517311805
6.475972608,0.9986189618282628,51.697426401392775
6.478260736,0.9986112789335543,51.56171728746372
6.480549376,0.9986916229277789,51.42549615737801
6.482837504,0.9988551624138797,51.28748673548411
6.485125632,0.9990913182122091,51.146574861013455
6.487414272,0.99938538732036,51.00178038044314
6.4897024,0.9997184861620997,50.852446186759344
6.49199104,1.0000697060956707,50.69812200255269
6.494279168,1.0004166923586233,50.5387279273414
6.496567296,1.000737566779434,50.37446072976501
6.498855936,1.0010120011117218,50.205900569526385
6.501144064,1.0012226096035286,50.03380244229457
6.503432704,1.0013562616390532,49.85922222372576
6.505720832,1.0014042174090922,49.68329432821557
6.50800896,1.0013637371500637,49.507320839875604
6.5102976,1.0012371193125007,49.332535166757296
6.512585728,1.001032292309762,49.160158444556956
6.514874368,1.000762242037989,48.991204531033354
6.517162496,1.0004439267964795,48.826513194057235
6.519450624,1.0000974808754732,48.66663287289525
6.521739264,0.999744856261582,48.51181759736102
6.524027392,0.9994082862952767,48.36201786507374
6.526316032,0.99910905796034,48.216844702563016
6.52860416,0.998866336183279,48.07558585482388
6.530892288,0.998695455354149,47.93739248703094
6.533180928,0.9986072377498105,47.80104580801333
6.535469056,0.9986074664500157,47.665362541431065
6.537757184,0.9986960698958057,47.52902495106761
6.540045824,0.9988675470194252,47.39077538991123
6.542333952,0.99911082695923,47.249527452345134
6.544622592,0.9994107482935181,47.104279478960834
6.54691072,0.9997481859116818,46.95440859901483
6.549198848,1.0001017054185688,46.79951621759519
6.551487488,1.0004490841808384,46.63952378959447
6.553775616,1.0007682188896234,46.47470043634976
6.556064256,1.0010390662180326,46.305574289420825
6.558352384,1.001244391619798,46.132997279706835
6.560640512,1.001371274431161,45.957998271419285
6.562929152,1.0014116413058334,45.78179137160352
6.56521728,1.001362895198208,45.605618967818565
6.56750592,1.0012281173650133,45.430774487023484
6.569794048,1.0010157891175127,45.258430145744825
6.572082176,1.0007391980386287,45.089606339779856
6.574370816,1.0004158571341986,44.92512530124031
6.576658944,1.0000660969701896,44.765543873845246
6.578947584,0.9997121038217324,44.61102148465654
6.581235712,0.9993762557085805,44.46154370481881
6.58352384,0.9990798298259947,44.31665175005345
6.58581248,0.9988416136445094,44.17564676178262
6.588100608,0.998676862972414,44.037557093840014
6.590389248,0.9985960786316418,43.9012865440708
6.592677376,0.9986042548390602,43.7655307252677
6.594965504,0.9987011176654146,43.62900424863382
6.597254144,0.9988804022683134,43.490444344397034
6.599542272,0.9991308304769428,43.348761584789365
6.601830912,0.9994364762575136,43.20301081951143
6.60411904,0.9997781086343265,43.052576390202326
6.606407168,1.0001338834709708,42.89703972376408
6.608695808,1.0004814850458077,42.736376621720574
6.610983936,1.0007987886020278,42.570901331008585
6.613272064,1.001065795801337,42.40115926055889
6.615560704,1.0012656477874315,42.22804660033451
6.617848832,1.0013856787795639,42.05260576574862
6.620137472,1.001418235691869,41.87600306993892
6.6224256,1.001361405959584,41.69960895001174
6.624713728,1.0012185170259162,41.52462577754675
6.627002368,1.0009986244813704,41.352266798383894
6.629290496,1.0007155921262643,41.18354083620909
6.631579136,1.0003873621618562,41.01921470357631
6.633867264,1.0000343882552853,40.85984317917976
6.636155392,0.9996791942770846,40.70557406838263
6.638444032,0.9993442568611436,40.55635149313708
6.64073216,0.9990507310187904,40.41165124695211
6.6430208,0.9988172802831775,40.27083121517413
6.645308928,0.9986587993398813,40.13283376886577
6.647597056,0.9985854059374611,39.9965074804215
6.649885696,0.9986017741998492,39.86060570473267
6.652173824,0.9987068216347529,39.723830592369424
6.654462464,0.9988940132951626,39.58490952276252
6.656750592,0.9991514019655129,39.44271873067996
6.65903872,0.9994627802668508,39.29638368758863
6.66132736,0.9998083822105049,39.14528485557371
6.663615488,1.0001663408652155,38.989041260470444
6.665904128,1.0005139212285463,38.8276586369528
6.668192256,1.0008292791561884,38.661468257029505
6.670480384,1.0010923374461425,38.491047387708115
6.672769024,1.0012865365358903,38.31732422503809
6.675057152,1.001399622366965,38.14135822936751
6.677345792,1.0014244326268156,37.964371985610846
6.67963392,1.0013593079820895,37.787662685610435
6.681922048,1.0012083552205813,37.6125008847598
6.684210688,1.0009809806881227,37.440067418809036
6.686498816,1.0006916005241053,37.27136134725608
6.688786944,1.000358395636468,37.107145293717736
6.691075584,1.000002441042397,36.94791599832117
6.693363712,0.9996462326364657,36.79386096405808
6.695652352,0.9993123404080807,36.64479955828031
6.69794048,0.9990218857975852,36.500275083468495
6.700228608,0.9987933038525149,36.35952641258306
6.702517248,0.9986412221411252,36.221543272057424
6.704805376,0.998575283781065,36.08513567390706
6.707094016,0.9985998296869181,35.94902577444482
6.709382144,0.9987130999376371,35.81189154700969
6.711670272,0.9989081372328488,35.67249949834492
6.713958912,0.999172455736133,35.52975273780495
6.71624704,0.9994894300167576,35.38278926900411
6.71853568,0.9998389780050045,35.23093667642504
6.720823808,1.0001988899983982,35.07392079000151
6.723111936,1.000546383215009,34.91174665588945
6.725400576,1.0008595313209558,34.74477811170642
6.727688704,1.001118532801761,34.57364576593163
6.729977344,1.0013070565154258,34.39925811403703
6.732265472,1.0014130518221773,34.222715703007246
6.7345536,1.0014299866787226,34.04526087616172
6.73684224,1.0013567147932174,33.86819658704045
6.739130368,1.0011976390987498,33.69280348464804
6.741419008,1.0009628764165461,33.52022962024946
6.743707136,1.0006671951929902,33.35148062661339
6.745995264,1.0003292370654475,33.18732022238394
6.748283904,0.999970385891753,33.02817919421129
6.750572032,0.9996133334841298,32.874241269012586
6.75286016,0.9992805473580654,32.72530645949019
6.7551488,0.9989933242546728,32.58086763621387
6.757436928,0.9987697599961134,32.440136043912155
6.759725568,0.9986241879121367,32.30208482269114
6.762013696,0.9985658097047112,32.16552954628958
6.764301824,0.9985984310710484,32.029111491898696
6.766590464,0.9987199419895939,31.891580538480078
6.768878592,0.9989227790564331,31.751674454147295
6.771167232,0.9991940013352296,31.60829824898943
6.77345536,0.9995164601051131,31.460586791909538
6.775743488,0.9998697344299833,31.307947191794792
6.778032128,1.0002314391680798,31.150091819684697
6.780320256,1.0005787419648418,30.98706029285914
6.782608896,1.000889640390861,30.81925439697066
6.784897024,1.0011444082812397,30.64732531782581
6.787185152,1.0013271107400474,30.472208149154362
6.789473792,1.001426022718415,30.29505265559249
6.79176192,1.0014350351706276,30.117060200122236
6.79405056,1.0013534035961291,29.939589802093053
6.796338688,1.0011863012188917,29.76388727619768
6.798626816,1.000944289927354,29.59113147463837
6.800915456,1.0006424224180712,29.42229721312321
6.803203584,1.0002998994497496,29.258117443454353
6.805492224,0.999938240599449,29.099023578425566
6.807780352,0.9995803314604494,28.94515156711676
6.81006848,0.9992489536561799,28.796265246090368
6.81235712,0.9989650302672788,28.651839432102754
6.814645248,0.9987466481589637,28.51106234033535
6.816933888,0.9986076097468772,28.37288909828696
6.819222016,0.9985568234738779,28.23607042583229
6.821510144,0.9985976296939133,28.099313161722836
6.823798784,0.9987274174840145,27.961300960855947
6.826086912,0.9989380200976287,27.82079937589933
6.82837504,0.9992160058602042,27.67671509745818
6.83066368,0.9995438126953619,27.528212022258984
6.832951808,0.9999006971040066,27.37469154872928
6.835240448,1.0002641573022313,27.215937713174693
6.837528576,1.0006110149225254,27.051997442194516
6.839816704,1.0009194523038634,26.88328751888856
6.842105344,1.0011700411293298,26.71051003127017
6.844393472,1.001346670909165,26.53460925467433
6.846682112,1.0014384601845576,26.35675031267587
6.84897024,1.001439568442729,26.178194597826412
6.851258368,1.0013496508723096,26.000261351048394
6.853547008,1.0011745113772235,25.82420161129693
6.855835136,1.0009251928436746,25.651203921105743
6.858123776,1.000617328625073,25.48222335656494
6.860411904,1.0002702886629251,25.317968963503684
6.862700032,0.9999059951151026,25.15885698968692
6.864988672,0.9995475599768944,25.004963474835048
6.8672768,0.9992175812904961,24.856054022851318
6.86956544,0.9989370606428819,24.71159338779992
6.871853568,0.9987237939850433,24.570706000158385
6.874141696,0.9985914229405043,24.432317699447648
6.876430336,0.9985483591016805,24.295194771509262
6.878718464,0.9985972882873696,24.15799945831729
6.881007104,0.9987353323584238,24.019448182257122
6.883295232,0.9989535212429355,23.87827520133441
6.88558336,0.9992382909354856,23.733415496435764
6.887872,0.9995713798549013,23.58403501649573
6.890160128,0.9999318351141138,23.429591151231786
6.892448768,1.0002968110873516,23.26986586013438
6.894736896,1.0006431546462382,23.104959022258814
6.897025024,1.0009490654339503,22.93529425042794
6.899313664,1.0011951373796044,22.76158764065887
6.901601792,1.0013658554520035,22.584853667896375
6.90388992,1.0014504508439197,22.406262467509393
6.90617856,1.0014435247061486,22.227068039204234
6.908466688,1.001345493989924,22.04859943953455
6.910755328,1.0011623908927663,21.872150111463508
6.913043456,1.0009059266490057,21.698843371650078
6.915331584,1.0005920293662438,21.52965021705994
6.917620224,1.0002406058133178,21.36524729556958
6.919908352,0.9998738051574177,21.206061703984705
6.922196992,0.9995148545690956,21.052106514097538
6.92448512,0.9991865167673867,20.903125512705607
6.926773248,0.9989095849129617,20.758537560515006
6.929061888,0.998701621182414,20.61746434933113
6.931350016,0.9985760488539849,20.478784614670797
6.933638656,0.9985405629699101,20.34129191173971
6.935926784,0.998597675794038,20.203596309486798
