freq,mag,phase
6.0,1.0001886780720766,103.80406035961376
6.002287616,1.000334792233444,103.65770834261825
6.004575232,1.0004601351934799,103.509379618603
6.006862848,1.0005562729711548,103.35947694648506
6.009150464,1.0006174124353706,103.2084916612115
6.011438592,1.0006395629655018,103.05694033792767
6.013726208,1.0006213325278395,102.90538379792085
6.016013824,1.0005637663805003,102.75440676934348
6.01830144,1.0004705861672165,102.6045574074004
6.020589056,1.0003476995315228,102.45631476096095
6.022876672,1.0002026061382543,102.31005794962573
6.025164288,1.0000448435053388,102.16603326165472
6.027451904,0.9998843001474297,102.02436853679389
6.029740032,0.9997310528337366,101.885021315427
6.032027648,0.9995949846536356,101.74781414443265
6.034315264,0.9994847561498942,101.61244484906744
6.03660288,0.9994073806176091,101.47849595675223
6.038890496,0.9993676939509657,101.34543202066297
6.041178112,0.9993683201291663,101.2126519984731
6.043465728,0.9994092988557987,101.07964199853814
6.045753344,0.9994880089750741,100.94579428592444
6.04804096,0.9995995247232725,100.81059768816213
6.050329088,0.9997365080898036,100.67364575992713
6.052616704,0.9998907262458255,100.53458568147664
6.05490432,1.0000519425452603,100.39326619367503
6.057191936,1.0002102321402864,100.24965762354321
6.059479552,1.000355353216284,100.10389172898874
6.061767168,1.0004782194719133,99.95618097331372
6.064054784,1.000570908112915,99.80696869690537
6.0663424,1.0006276891810217,99.656663941366
6.068630016,1.0006446570081646,99.50588726902434
6.070918144,1.0006210189697011,99.35520283841461
6.07320576,1.0005580557804732,99.20513336975634
6.075493376,1.0004597963514383,99.0562924076389
6.077780992,1.000332393179153,98.90914325904915
6.080068608,1.0001840567884672,98.76400754833823
6.082356224,1.0000240487381071,98.621151635034
6.08464384,0.9998626177288821,98.4806644146864
6.086931456,0.9997097084014229,98.34250252429868
6.089219584,0.9995755309973335,98.20646547945097
6.0915072,0.9994684164109373,98.07221583229982
6.093794816,0.9993949954614456,97.93934031640256
6.096082432,0.9993603283013416,97.8072460034529
6.098370048,0.9993663327994099,97.67542259707432
6.100657664,0.999412865023679,97.54326501110027
6.10294528,0.9994968730145295,97.41019410604073
6.105232896,0.999613074534725,97.2756912669672
6.107520512,0.9997540862541615,97.1393334113452
6.10980864,0.9999109983247614,97.00084366737799
6.112096256,1.0000738432427436,96.86006988591579
6.114383872,1.000232142896804,96.71697027293327
6.116671488,1.0003761010233871,96.57171033371127
6.118959104,1.0004963661840116,96.42456632135354
6.12124672,1.000585319141885,96.27595398909185
6.123534336,1.0006373877150303,96.12632809407295
6.125821952,1.000649133015508,95.97627007023344
6.128109568,1.0006198912738737,95.82636280873875
6.130397696,1.0005515283106923,95.67719011159983
6.132685312,1.0004481565262948,95.52927739966525
6.134972928,1.0003164145731738,95.38314528048572
6.137260544,1.0001646502124872,95.23906036892208
6.13954816,1.0000024927537217,95.09730066497274
6.141835776,0.9998402508868718,94.95795618632152
6.144123392,0.999688197989333,94.82090274350007
6.146411008,0.9995560048004622,94.68595866279189
6.148699136,0.999451966493023,94.55279302397523
6.150986752,0.9993830089695399,94.42090750872762
6.153274368,0.9993533771544649,94.28975044891837
6.155561984,0.9993650313157755,94.15878465087019
6.1578496,0.9994171044395352,94.02738762083364
6.160137216,0.9995065171241699,93.8950008577627
6.162424832,0.9996274314988093,93.76107919646323
6.164712448,0.9997722774577259,93.62526159318443
6.167000064,0.9999319029234062,93.48726414192845
6.169288192,1.0000960645750698,93.34696432294677
6.171575808,1.0002543874198833,93.20431655803948
6.173863424,1.0003967967976197,93.05951281608797
6.17615104,1.000514267084449,92.91287777778354
6.178438656,1.00059935607466,92.76476254450249
6.180726272,1.0006466425632623,92.61573080675196
6.183013888,1.0006530274352603,92.46631400621382
6.185301504,1.0006180287888684,92.31716953473416
6.18758912,1.0005440402661256,92.16879586673302
6.189877248,1.0004355196725025,92.02180390048576
6.192164864,1.0002994491355388,91.87661679639946
6.19445248,1.0001445276558647,91.73355258994366
6.196740096,0.9999803728571289,91.5928477507149
6.199027712,0.9998175455214345,91.45453332217275
6.201315328,0.9996662802737405,91.31857734840166
6.203602944,0.999536296996617,91.18465424345867
6.20589056,0.9994358885121737,91.05246068795289
6.208178688,0.9993714378498106,90.92150205977224
6.210466304,0.9993470079906759,90.79121499786791
6.21275392,0.9993641880807481,90.66102875007532
6.215041536,0.999422026671042,90.53031327517024
6.217329152,0.9995168795402071,90.39849578617141
6.219616768,0.9996425853379903,90.26514355081211
6.221904384,0.9997912067926363,90.12978220657406
6.224192,0.9999533388144586,89.99220619453041
6.226479616,1.0001187177448925,89.85229774847605
6.228767744,1.0002767397536858,89.71002595466871
6.23105536,1.0004177329238342,89.5656001637876
6.233342976,1.0005321451469065,89.41937463632546
6.235630592,1.0006129821845695,89.27171909378892
6.237918208,1.0006552746307187,89.12320810043686
6.240205824,1.000656091534096,88.97442387663475
6.24249344,1.0006153754058877,88.82594816075414
6.244781056,1.0005357264566552,88.67830789260735
6.247068672,1.000422215083014,88.53215958788516
6.2493568,1.0002819025237761,88.38787810468031
6.251644416,1.0001236623487146,88.2457901857029
6.253932032,0.9999577161415235,88.10607286994545
6.256219648,0.999794475049714,87.96875385973229
6.258507264,0.9996442815033384,87.83379058134487
6.26079488,0.9995168053173707,87.70084625572179
6.263082496,0.9994200671377845,87.56955953411199
6.265370112,0.9993602181995082,87.43944760034789
6.26765824,0.9993412161444268,87.30996408908823
6.269945856,0.9993642577823618,87.18047669237468
6.272233472,0.9994278350108887,87.05035466309361
6.274521088,0.9995280405248362,86.91908712172297
6.276808704,0.9996584397355958,86.78614565821964
6.27909632,0.9998107470459608,86.65120310761837
6.281383936,0.9999753940448248,86.51395394293134
6.283671552,1.0001417592348634,86.37433495966108
6.285959168,1.0002994970625778,86.23236314705828
6.288247296,1.0004383074147671,86.0882636831033
6.290534912,1.0005496591720096,85.94239082777658
6.292822528,1.0006261999652903,85.79515246233687
6.295110144,1.000663241728709,85.64709663756551
6.29739776,1.0006583427587281,85.49884516390063
6.299685376,1.0006118475255026,85.35099753836927
6.301972992,1.0005265238441523,85.2040985564544
6.304260608,1.000407912098133,85.05873493053448
6.306548224,1.0002633918757546,84.91528642578369
6.308836352,1.0001022123908798,84.77408817343809
6.311123968,0.9999345737974655,84.6353059504325
6.313411584,0.9997711621814175,84.49895090447025
6.3156992,0.9996222024389353,84.36489242654064
6.317986816,0.9994974093868364,84.23286777705898
6.320274432,0.9994046117232742,84.1024280923715
6.322562048,0.9993496945269618,83.97311769800291
6.324849664,0.9993362972695488,83.84431462914465
6.327137792,0.9993652218301322,83.71542908284623
6.329425408,0.9994346644181177,83.58587195643678
6.331713024,0.9995403042862064,83.45503933021509
6.33400064,0.9996753283701567,83.32247751421069
6.336288256,0.9998312521971325,83.18781965190185
6.338575872,0.9999981681692804,83.05082973504858
6.340863488,1.0001654992857676,82.91142968937099
6.343151104,1.0003224712291836,82.76971467131142
6.34543872,1.0004592656819982,82.62587746558765
6.347726848,1.0005671029718506,82.48026736714523
6.350014464,1.0006392635262344,82.33334983269064
6.35230208,1.000670808184558,82.1857374418541
6.354589696,1.0006600344005523,82.03797500256135
6.356877312,1.0006075975046103,81.8906590252924
6.359164928,1.000516568894103,81.74443601249928
6.361452544,1.0003928526990244,81.59979244860712
6.36374016,1.0002442071530049,81.45714572373588
6.366027776,1.0000800642111314,81.31678411947381
6.368315904,0.9999109887745569,81.17887826631556
6.37060352,0.9997474494880986,81.04338988275916
6.372891136,0.9996000301725255,80.91022766142127
6.375178752,0.9994781525383482,80.77901958756233
6.377466368,0.99938939605447,80.64938888055715
6.379753984,0.9993395742342854,80.5207603144656
6.3820416,0.999331931703288,80.39258229823393
6.384329216,0.9993669062730316,80.26426156293996
6.386617344,0.9994422416647597,80.13510712643468
6.38890496,0.9995533595437026,80.00466715680331
6.391192576,0.9996929153592233,79.87240846674379
6.393480192,0.9998523878608162,79.73798446795963
6.395767808,1.00002144465352,79.60119400334895
6.398055424,1.0001893920222669,79.46195387146955
6.40034304,1.0003455130559673,79.32039072142408
6.402630656,1.000479999033461,79.17671143339274
6.404918272,1.0005842296062666,79.03133026575733
6.4072064,1.0006516547880522,78.88473999699714
6.409494016,1.0006777446219828,78.73745223952447
6.411781632,1.0006610815508887,78.59010144316854
6.414069248,1.0006024667049547,78.44333194346449
6.416356864,1.0005057355783782,78.29770851016323
6.41864448,1.0003769455261566,78.15372971560566
6.420932096,1.00022435360147,78.01180735174894
6.423219712,1.0000574363500283,77.87224251669497
6.425507328,0.9998869321499362,77.73514170932918
6.427795456,0.9997236293630529,77.60048983221047
6.430083072,0.9995779655982799,77.46811818252107
6.432370688,0.9994590412220387,77.337682886256
6.434658304,0.9993747003316171,77.20875986949628
6.43694592,0.9993301743382753,77.08078912723138
6.439233536,0.9993283546328414,76.95316321101414
6.441521152,0.999369372066102,76.82528596780152
6.443808768,0.9994507522562691,76.69654767160223
6.446096896,0.9995672159692398,76.56635766059051
6.448384512,0.9997114249069626,76.43431463229386
6.450672128,0.9998742146410512,76.30004105234225
6.452959744,1.0000452530613737,76.16335643480548
6.45524736,1.000213715295941,76.02421070143916
6.457534976,1.0003687537880568,75.88273814915881
6.459822592,1.0005007957474608,75.73919110071908
6.462110208,1.0006009867519654,75.59394863903609
6.464397824,1.0006633989820877,75.44755291201994
6.466685952,1.0006838268906435,75.30057559658944
6.468973568,1.0006610725232805,75.1536195900695
6.471261184,1.000596388636624,75.0073201445071
6.4735488,1.000493913401858,74.86222738980474
6.475836416,1.0003601232324617,74.71887583766151
6.478124032,1.0002035714829443,74.5776491387995
6.480411648,1.0000340831276302,74.43880170551341
6.482699264,0.9998623760790566,74.30246696830034
6.48498688,0.9996994798376347,74.16858030525108
6.487275008,0.9995558021010041,74.03694991324573
6.489562624,0.9994402145261343,73.90720852596992
6.49185024,0.9993602984224923,73.77891714346816
6.494137856,0.9993213085514892,73.6515019929351
6.496425472,0.999325530130475,73.5243825596875
6.498713088,0.9993727452191549,73.39689226813348
6.501000704,0.999460051269352,73.26842179562132
6.50328832,0.9995819480100887,73.13848169479698
6.505576448,0.9997306570448344,73.00655492119502
6.507864064,0.9998966712392483,72.8723658187616
6.51015168,1.0000695313414365,72.73570377464748
6.512439296,1.0002382148352702,72.59658871317183
6.514726912,1.000392024334966,72.4551457792687
6.517014528,1.0005211002885002,72.311643693822
6.519302144,1.000617456520372,72.16651656397956
6.52158976,1.0006747114325865,72.02027293925242
6.523877376,1.000689305773588,71.873522037589
6.526165504,1.0006603426148286,71.72690157715611
6.52845312,1.000589485671816,71.58099908389995
6.530740736,1.0004812890720305,71.43641776757049
6.533028352,1.0003425655708138,71.29365129406396
6.535315968,1.0001821353494362,71.15304755034691
6.537603584,1.0000101421696406,71.01487703004778
6.5398912,0.999837512306679,70.8792175700148
6.542178816,0.999675186966721,70.74602512900935
6.544466432,0.999533667258064,70.6150675981581
6.54675456,0.9994216382921016,70.48597882358264
6.549042176,0.9993464693670304,70.35827239016415
6.551329792,0.999313079181473,70.23133323836899
6.553617408,0.9993234756481926,70.10461333204397
6.555905024,0.9993768770948139,69.97742914670371
6.55819264,0.9994702723470447,69.84918431212215
6.560480256,0.9995975416297395,69.71934460043573
6.562767872,0.999750565030404,69.58748899541816
6.565056,0.9999196870142998,69.45330227003689
6.567343616,1.0000942081851294,69.31661215921193
6.569631232,1.00026290925538,69.177458760582
6.571918848,1.0004152415770298,69.0359471797212
6.574206464,1.0005414190560258,68.8924403218174
6.57649408,1.0006334414326779,68.74734334170374
6.578781696,1.0006854612295597,68.60121786526665
6.581069312,1.0006940252004661,68.45466885271811
6.583356928,1.0006587143072834,68.30829898846403
6.585645056,1.0005816674028254,68.16274255215784
6.587932672,1.000467700851442,68.01859503097708
6.590220288,1.0003241824034712,67.87634390206445
6.592507904,1.000159980921673,67.73631387203609
6.59479552,0.999985660687952,67.59878042876612
6.597083136,0.9998122975044956,67.46377961815641
6.599370752,0.9996507849686536,67.33124560529166
6.601658368,0.9995115100419016,67.20087215251176
6.603945984,0.9994032718676099,67.07233499194217
6.606234112,0.9993332093724439,66.94510872004325
6.608521728,0.99930550897437,66.81862634708254
6.610809344,0.999322035305283,66.69222040933948
6.61309696,0.9993819750881234,66.56527442888265
6.615384576,0.9994813270917587,66.43718469411493
6.617672192,0.999613891763873,66.3074075720745
6.619959808,0.9997712822606692,66.1755146746588
6.622247424,0.9999433639232904,66.04124972573459
6.624535552,1.0001192954901696,65.90444799479378
6.626823168,1.0002879660539443,65.76516889123464
6.629110784,1.0004385542995746,65.62358550434158
6.6313984,1.000561496672812,65.47997480594962
6.633686016,1.0006489833152006,65.33485783305653
6.635973632,1.0006955363620034,65.18879206204711
6.638261248,1.0006979879542464,65.04235037060353
6.640548864,1.0006562765076588,64.8961859255331
6.64283648,1.0005730073178383,64.75098188499354
6.645124608,1.0004533653686725,64.60722472259306
6.647412224,1.0003050255286257,64.46541248278989
6.64969984,1.0001372019778647,64.32594140853445
6.651987456,0.9999607290591672,64.18894340591955
6.654275072,0.9997867628535018,64.05451674151912
6.656562688,0.9996264149703367,63.92253668375285
6.658850304,0.9994897268508333,63.7927333425317
6.66113792,0.9993855506171682,63.664684582419284
6.663426048,0.9993205398899857,63.53788854573658
6.665713664,0.9992987103760134,63.4117530764466
6.66800128,0.999321696039602,63.28558964284629
6.670288896,0.9993880046673494,63.15880443243499
6.672576512,0.9994933765065407,63.03076378982733
6.674864128,0.9996312452821916,62.90096708001638
6.677151744,0.9997927236732552,62.76899936111546
6.67943936,0.9999676809565365,62.63458712210855
6.681726976,1.0001448312487333,62.49761405170905
6.684015104,1.0003131210587026,62.358141218634934
6.68630272,1.000461794395673,62.216344314366665
6.688590336,1.000581310626681,62.07261558934727
6.690877952,1.0006642271503627,61.927420817422075
6.693165568,1.000705017480788,61.781332598448856
6.695453184,1.0007012690656842,61.63498828177232
6.6977408,1.000653055613847,61.48899969508285
6.700028416,1.0005634602130522,61.344022030599454
6.702316032,1.0004382610720843,61.200618157219026
6.70460416,1.000285165141756,61.05920840818977
6.706891776,1.0001139625554367,60.92019296956025
6.709179392,0.9999354918120293,60.78372417654962
6.711467008,0.9997611244699246,60.6498275862058
6.713754624,0.9996019746230417,60.51834601779617
6.71604224,0.9994681333662497,60.38902680609756
6.718329856,0.9993681320516873,60.261418083235256
6.720617472,0.999308443156135,60.13497604580014
6.7229056,0.9992927693211836,60.009094865901815
6.725193216,0.9993222236513617,59.88310877586291
6.727480832,0.9993949552388577,59.756396462814074
6.729768448,0.9995064552895966,59.6283622392768
6.732056064,0.9996494178813519,59.49844775493345
6.73434368,0.9998150048179996,59.36630232599038
6.736631296,0.9999925236810154,59.23166869424612
6.738918912,1.0001708222994656,59.094445828817726
6.741206528,1.0003385727895868,58.95473095588143
6.743494656,1.0004850755929762,58.81269271849973
6.745782272,1.000600884131686,58.66877350803522
6.748069888,1.0006788531985435,58.52344891782426
6.750357504,1.0007138822982615,58.3772848865226
6.75264512,1.0007037281430595,58.2309528921963
6.754932736,1.0006490010595432,58.085088346846284
6.757220352,1.0005531286741087,57.94030349080374
6.759507968,1.000422224311758,57.79717665587079
6.761795584,1.0002645263324814,57.65615283428083
6.764083712,1.000089995902734,57.51753334197199
6.766371328,0.9999097359912045,57.38151913822218
6.768658944,0.9997353457467838,57.2480688416054
6.77094656,0.9995776179529553,57.117043712426536
6.773234176,0.9994467755408412,56.98813744098195
6.775521792,0.9993512120357158,56.86086386502486
6.777809408,0.9992969520879263,56.73473030374197
6.780097024,0.9992875335167962,56.609035207464274
6.782385152,0.9993235493540732,56.48316353273985
6.784672768,0.9994028277006761,56.35645717239721
6.786960384,0.9995202073429905,56.22830726083111
6.789248,0.999668351144948,56.098241646454724
6.791535616,0.9998378601751314,55.965862840161854
6.793823232,1.0000178616516273,55.830923506259765
6.796110848,1.0001970094034571,55.693390147797416
6.798398464,1.0003639469564192,55.55332147383293
6.80068608,1.000507977580444,55.411003087843696
6.802974208,1.0006199986153814,55.26681225709755
6.805261824,1.0006928222095925,55.12127422830216
6.80754944,1.0007219214172265,54.975011639704036
6.809837056,1.0007052069282079,54.828638423536226
6.812124672,1.0006438910412438,54.68282200252999
6.814412288,1.0005417604239089,54.53820236974173
6.816699904,1.0004052617645836,54.39531764843569
6.81898752,1.0002430353809326,54.254598465815576
6.821275136,1.0000653271704365,54.11634818899634
6.823563264,0.9998834970329071,53.98070940806825
6.82585088,0.9997090771812892,53.8476656984509
6.828138496,0.9995531262019245,53.71704239068303
6.830426112,0.9994256470457494,53.588467193246075
6.832713728,0.999334650104086,53.46151921602163
6.835001344,0.9992860422922022,53.335547884483084
6.83728896,0.9992830098424869,53.210001846504966
6.839576576,0.999325716146888,53.08414175166439
6.841864704,0.9994114527973826,52.957347579395865
6.84415232,0.9995347780942432,52.829059666218974
6.846439936,0.9996879543789283,52.698732166557896
6.848727552,0.9998612500921792,52.566016886562274
6.851015168,1.0000435785158635,52.43072253424588
6.853302784,1.000223380453155,52.29278481838706
6.8555904,1.000389335815704,52.15235041619028
6.857878016,1.0005307663451226,52.00964949140745
6.860165632,1.0006386375261584,51.865158976485326
6.86245376,1.000706273794891,51.719360206061275
6.864741376,1.000729143132817,51.57290971268448
6.867028992,1.0007059001022918,51.42645915026681
6.869316608,1.0006379296453358,51.28066325332764
6.871604224,1.000529442456994,51.136142734563926
6.87389184,1.0003875089790175,50.993430619011825
6.876179456,1.0002207892863941,50.85296255882115
6.878467072,1.0000402199762597,50.715020695112294
6.880754688,0.9998569869813745,50.57971738071324
6.883042816,0.9996828086073193,50.4470154394078
6.885330432,0.9995287906752086,50.3167076792661
6.887618048,0.9994047196726739,50.188429654031324
6.889905664,0.9993186031824584,50.06167073597344
6.89219328,0.9992758718359721,49.93587157614138
6.894480896,0.999279228336268,49.810343313525536
6.896768512,0.9993286533446245,49.6844310424221
6.899056128,0.9994209203199329,49.557502430443854
6.901344256,0.9995502131439438,49.42893588491537
6.903631872,0.9997083864950247,49.298285057991485
6.905919488,0.9998853219186491,49.165183561196606
6.908207104,1.0000696898952177,49.029458925914064
6.91049472,1.000250059333083,48.89106637725298
6.912782336,1.0004146620049512,48.75016411107588
6.915069952,1.0005532191679867,48.6070477966763
6.917357568,1.0006568849265365,48.46216834704051
6.919645184,1.0007189474718035,48.316069934805526
6.921933312,1.0007356821041262,48.16938158918368
6.924220928,1.0007057141845617,48.02279247901161
6.926508544,1.0006310673836267,47.87696634620538
6.92879616,1.000516332015378,47.73250070084524
6.931083776,1.0003688751730475,47.58990666100275
6.933371392,1.0001979722127479,47.44966152369421
6.935659008,1.0000145094450086,47.311952185303916
6.937946624,0.9998300823001562,47.17693655688798
