freq,mag,phase
6.0,1.0005037599977473,154.55523416629183
6.002286592,1.000550250165223,154.39885059965573
6.004572672,1.0005625273596346,154.2420553357098
6.006859264,1.0005397920576151,154.08540110710177
6.009145344,1.0004832227181257,153.92939027877722
6.011431936,1.000396615157516,153.77448096443842
6.013718016,1.000285272114184,153.62104207791137
6.016004608,1.0001562798347265,153.46940949342041
6.018290688,1.0000179218852823,153.31978039859513
6.02057728,0.9998785897638361,153.17225801217762
6.022863872,0.9997475914833164,153.02674788626217
6.025149952,0.9996328767310041,152.88303797179387
6.027436544,0.9995419765815697,152.7409493392577
6.029722624,0.9994804878410445,152.59997539191875
6.032009216,0.9994523900989395,152.45974830866894
6.034295296,0.9994594326902679,152.31971178758823
6.036581888,0.9995015159988653,152.1794119675532
6.03886848,0.9995755098432687,152.03830816645151
6.04115456,0.9996771013661919,151.89596628564067
6.043441152,0.9997996573813762,151.75207597399807
6.045727232,0.9999354060868741,151.60636397102033
6.048013824,1.0000759646047892,151.45867978750437
6.050299904,1.0002123238336724,151.30910047145042
6.052586496,1.0003356399720453,151.15763682834955
6.054872576,1.0004383123597351,151.0046164774743
6.057159168,1.000513805673095,150.85032364070992
6.05944576,1.000557431791683,150.6952557710789
6.06173184,1.0005659568734844,150.53986114587755
6.064018432,1.0005394335619238,150.38461910265715
6.066304512,1.000479078115154,150.23013079453227
6.068591104,1.000388763801716,150.07674312460753
6.070877184,1.0002744171666105,149.92490952516354
6.073163776,1.000142907067218,149.7748984473394
6.075450368,1.0000028581961518,149.62694841615615
6.077736448,0.999863046489109,149.4810561152113
6.08002304,0.9997322710450304,149.3372082274268
6.08230912,0.9996189799393795,149.19519734715533
6.084595712,0.9995301371252104,149.05472052001363
6.086881792,0.9994715595789213,148.9153611123513
6.089168384,0.999447011869092,148.77669555939866
6.091454464,0.9994580399677496,148.63815012230197
6.093741056,0.9995037733655768,148.499275964678
6.096027648,0.9995817523879601,148.35952491044642
6.098313728,0.9996866449698221,148.21856383321938
6.10060032,0.9998119885390854,148.07596611702468
6.1028864,0.999949897031835,147.9314776794164
6.105172992,1.0000913884982021,147.7850530844393
6.107459072,1.0002278172032868,147.63662513317882
6.109745664,1.0003503164006968,147.4864285513598
6.112032256,1.0004512096968659,147.33460783436547
6.114318336,1.0005240313910921,147.181595870731
6.116604928,1.0005641375090446,147.02782266449412
6.118891008,1.0005689169735952,146.87379813545311
6.1211776,1.0005383995063621,146.71997821630362
6.12346368,1.0004740905454772,146.56693116745274
6.125750272,1.0003802436842486,146.41508505971896
6.128036352,1.0002627030146127,146.26483217984688
6.130322944,1.000128835775446,146.11644502165254
6.132609536,0.999987226790326,145.97011793321707
6.134895616,0.9998469337237675,145.82588031618494
6.137182208,0.9997166126483821,145.683697499431
6.139468288,0.9996046007168985,145.54331960780863
6.14175488,0.9995183712131891,145.4044445020368
6.14404096,0.9994629455215388,145.2666992881378
6.146327552,0.99944207894997,145.1295063308633
6.148614144,0.999456919010999,144.99243990752294
6.150900224,0.9995069274246879,144.85497471970533
6.153186816,0.9995885989550207,144.71657856710857
6.155472896,0.9996970569147765,144.57688854908366
6.157759488,0.9998251052578612,144.43554247922356
6.160045568,0.9999649510701925,144.2922565141828
6.16233216,1.0001075276801208,144.14699941403734
6.16461824,1.0002438968057037,143.99977760600498
6.166904832,1.0003652935125338,143.8507176541566
6.169191424,1.0004642087334583,143.70014676535735
6.171477504,1.0005341442811675,143.5483560591044
6.173764096,1.0005708813217755,143.3958761186126
6.176050176,1.0005719596794678,143.24317778755588
6.178336768,1.000537035290864,143.09076109851887
6.180622848,1.0004687440285536,142.9391477031591
6.18290944,1.0003711081507387,142.78880564397576
6.18519552,1.0002504245208113,142.64012432326714
6.187482112,1.000114185073532,142.49330760379897
6.189768704,0.9999711834690329,142.34861024582108
6.192054784,0.9998303427067489,142.20602339992803
6.194341376,0.9997006603113193,142.0654771841249
6.196627456,0.9995904083978387,141.9267171954808
6.198914048,0.9995065106364841,141.78943479954287
6.201200128,0.9994542561475896,141.6531829492324
6.20348672,0.9994372134150233,141.51750955023573
6.205773312,0.9994562891584327,141.38186516639905
6.208059392,0.9995104318672062,141.245781791687
6.210345984,0.9995962159846347,141.10872588535375
6.212632064,0.9997079808126398,140.97023458729836
6.214918656,0.9998389384505044,140.8300678593847
6.217204736,0.9999807894367991,140.6879885917803
6.219491328,1.000124208122659,140.54387273022473
6.221777408,1.0002604876421441,140.39779624091864
6.224064,1.0003806760127876,140.2498941003231
6.226350592,1.000477359222108,140.10048159517348
6.228636672,1.0005442322396776,139.94991185914836
6.230923264,1.000577237390892,139.79866806483184
6.233209344,1.0005743506996052,139.64726677556666
6.235495936,1.000535294653549,139.4962415629363
6.237782016,1.0004628093413286,139.34605427883443
6.240068608,1.0003615116491584,139.19721612484017
6.2423552,1.000237534665592,139.05000504121935
6.24464128,1.0000989839208851,138.9048039990863
6.246927872,0.9999544873863085,138.7617036662078
6.249213952,0.9998133431808693,138.6207296490552
6.251500544,0.9996844187597284,138.48178612521315
6.253786624,0.9995758258835467,138.34460079916457
6.256073216,0.9994947174154974,138.20886769510525
6.258359296,0.9994459665592882,138.0741367822144
6.260645888,0.9994328711534747,137.9399072108322
6.26293248,0.9994562618574827,137.80565791640214
6.26521856,0.9995146177992619,137.6708796756827
6.267505152,0.9996044201423845,137.53509694858693
6.269791232,0.9997197917327054,137.3978432938366
6.272077824,0.9998533307537238,137.25882951814432
6.274363904,0.9999968922385748,137.1179020488145
6.276650496,1.0001412954814968,136.9748832533884
6.278937088,1.000277230360387,136.82989980174256
6.281223168,1.0003961439802573,136.6831052580725
6.28350976,1.0004903897222328,136.5348347639468
6.28579584,1.0005542948766382,136.38543984544245
6.288082432,1.000583404302247,136.23542360460016
6.290368512,1.0005761232258297,136.08529265731957
6.292655104,1.0005328048748392,135.93561826304185
6.294941184,1.000456025562718,135.7868398502581
6.297227776,1.0003509458759798,135.6394476739882
6.299514368,1.000223834003883,135.4937586432247
6.301800448,1.0000830512093752,135.35008093495028
6.30408704,0.9999372766031969,135.20857090061904
6.30637312,0.9997958783879054,135.06919920872903
6.308659712,0.9996677727326366,134.93181857085776
6.310945792,0.9995611529852092,134.79617036138933
6.313232384,0.9994828686380398,134.66199244394167
6.315518464,0.9994377534279985,134.5287061786049
6.317805056,0.9994287247121961,134.39590559708748
6.320091648,0.9994566560948406,134.26301305432278
6.322377728,0.9995193730285461,134.12954051617456
6.32466432,0.9996130694643517,133.99494653907712
6.3269504,0.9997319420259418,133.85887406049838
6.329236992,0.9998684645746367,133.72099958259352
6.331523072,1.0000137273966905,133.58111210464767
6.333809664,1.0001588672132526,133.4391600910254
6.336096256,1.0002943614852733,133.2952452235415
6.338382336,1.0004116764924953,133.14955470975158
6.340668928,1.0005035113685936,133.0023430153388
6.342955008,1.0005639919651814,132.85412633267853
6.3452416,1.0005892200355577,132.705293710627
6.34752768,1.000577469907668,132.55644728768632
6.349814272,1.0005296664895627,132.40805756870776
6.352100352,1.0004485121697015,132.2606878573891
6.354386944,1.000339660603222,132.11469468881185
6.356673536,1.0002096055007414,131.97051116315987
6.358959616,1.000066291989047,131.8283497273213
6.361246208,0.9999194420956719,131.68839018011784
6.363532288,0.9997779258532095,131.55055868381072
6.36581888,0.9996508718783121,131.41471939872633
6.36810496,0.9995465013676486,131.28063373216148
6.370391552,0.9994712743398882,131.14791257826315
6.372678144,0.9994299759200642,131.01610731208612
6.374964224,0.9994252199722353,130.884675133994
6.377250816,0.999457536937821,130.75308708767798
6.379536896,0.9995247955622975,130.62081463177222
6.381823488,0.9996227564475463,130.48741777254475
6.384109568,0.999745255463908,130.35246224908087
6.38639616,0.9998842593681233,130.21565423887648
6.38868224,1.0000312564461258,130.0768240951825
6.390968832,1.000176878373236,129.93588035251477
6.393255424,1.000311836987068,129.79300777610263
6.395541504,1.0004276208378982,129.64830744851972
6.397828096,1.0005166809092396,129.50220067981445
6.400114176,1.0005735794755393,129.35508961218386
6.402400768,1.0005945960483393,129.20743901933054
6.404686848,1.000578316161955,129.0597715971449
6.40697344,1.0005259545710934,128.91269377370435
6.409260032,1.000440603047218,128.76666021017866
6.411546112,1.0003276643873624,128.62209689207546
6.413832704,1.000194368931122,128.47937294032263
6.416118784,1.000049042216614,128.33873125530536
6.418405376,0.9999010137895401,128.20028586155516
6.420691456,0.999759639720404,128.06397640088875
6.422978048,0.9996338548276388,127.92965445506177
6.425264128,0.9995316368704992,127.79706440466562
6.42755072,0.9994596293673446,127.66577390213533
6.429837312,0.9994222725633524,127.53536350446674
6.432123392,0.9994220699198741,127.40525428347198
6.434409984,0.9994590638661194,127.27494133449122
6.436696064,0.9995309450366857,127.14390550593846
6.438982656,0.9996329848690445,127.01162363872395
6.441268736,0.9997589442825467,126.87771599901319
6.443555328,0.9999007845185756,126.7419308113394
6.44584192,1.0000494678535086,126.60410346692693
6.448128,1.0001954361040166,126.46419405454867
6.450414592,1.0003295799895402,126.32224901171838
6.452700672,1.0004435817260338,126.17855096449688
6.454987264,1.0005296730931743,126.03347071303993
6.457273344,1.0005829214934425,125.88740565004001
6.459559936,1.0005995730823862,125.74089608941826
6.461846016,1.0005787209681647,125.59445159724483
6.464132608,1.0005216234504715,125.44862743259961
6.4664192,1.00043177160858,125.30391447633737
6.46870528,1.0003150744283902,125.16071329432998
6.470991872,1.0001786020951413,125.01944560554792
6.473277952,1.0000312326725334,124.88029193423074
6.475564544,0.9998821730160972,124.74331170469203
6.477850624,0.9997409383536744,124.6085114689081
6.480137216,0.9996166288453341,124.47567487939686
6.482423296,0.9995169680820397,124.34453808281195
6.484709888,0.9994483097571262,124.2146730521695
6.48699648,0.9994152046318053,124.08561190667655
6.48928256,0.99941965764752,123.95677587659296
6.491569152,0.9994614386411484,123.82767657901138
6.493855232,0.9995377998779711,123.69778111052307
6.496141824,0.9996442595050359,123.56659594824895
6.498427904,0.9997736472681161,123.43373859607111
6.500714496,0.9999180849171484,123.29892987941444
6.503001088,1.000068233370358,123.16202890237864
6.505287168,1.0002144567252973,123.02302404641547
6.50757376,1.000347848584561,122.88205035771567
6.50985984,1.000459655100536,122.73927184736382
6.512146432,1.0005427789628365,122.59520692157618
6.514432512,1.0005921508964086,122.4501912051911
6.516719104,1.0006041905343694,122.30476752049049
6.519005184,1.0005785999614787,122.15946359174033
6.521291776,1.000516667188691,122.01488367721862
6.523578368,1.0004222770802722,121.87146839957836
6.525864448,1.0003015129138724,121.72964461995268
6.52815104,1.0001620174540446,121.58977359830499
6.53043712,1.0000126471370017,121.45205263979203
6.532723712,0.9998626761814816,121.3165687173237
6.535009792,0.9997218759272325,121.18320474497195
6.537296384,0.9995990494115607,121.05184711678058
6.539582976,0.9995020949950908,120.92213174813806
6.541869056,0.9994371261412719,120.79361422440232
6.544155648,0.999408271652617,120.66587521941743
6.546441728,0.9994174532643499,120.53829651319295
6.54872832,0.9994642248141307,120.41039132914831
6.5510144,0.9995453674495304,120.28156244707601
6.553300992,0.9996559575863256,120.15142139216995
6.555587072,0.9997890322422941,120.01953273583409
6.557873664,0.9999358395639407,119.88564912013807
6.560160256,1.000087450737951,119.74967549686824
6.562446336,1.0002339355718106,119.61154727604826
6.564732928,1.0003660919135622,119.4714261434005
6.567019008,1.0004757771033397,119.3296135827694
6.5693056,1.0005556297420168,119.18647721197873
6.57159168,1.0006006973718984,119.0424380615074
6.573878272,1.0006082343429974,118.89810113343329
6.576164864,1.0005776418794616,118.75395017997646
6.578450944,1.0005109177084472,118.61055787158645
6.580737536,1.000411859732783,118.46841983427836
6.583023616,1.0002872268691971,118.32794795555724
6.585310208,1.0001447495103657,118.18945284558662
6.587596288,0.9999934129109003,118.05312874609128
6.58988288,0.9998428527967124,117.91904433646735
6.59216896,0.9997026274609266,117.78715603604441
6.594455552,0.9995815969700823,117.65721514952376
6.596742144,0.9994873332381476,117.5288456707706
6.599028224,0.9994263021495947,117.40169448082521
6.601314816,0.9994019442071193,117.27521039610964
6.603600896,0.999416157297132,117.14882639652767
6.605887488,0.9994678053363036,117.02204660889447
6.608173568,0.9995537661984799,116.89426235493211
6.61046016,0.9996686565003767,116.76510406628448
6.612746752,0.999805073391436,116.63415255360646
6.615032832,0.9999544417529505,116.50114852150061
6.617319424,1.0001071706330078,116.36598242565137
6.619605504,1.0002537676736967,116.22871066134826
6.621892096,1.0003847933570258,116.08944536751895
6.624178176,1.0004918478973008,115.94849530774287
6.626464768,1.0005683515738146,115.80626014631426
6.628750848,1.0006090735142963,115.6632175635029
6.63103744,1.0006118524529553,115.51990322734818
6.633324032,1.0005760897902003,115.37687629469741
6.635610112,1.0005042093393095,115.2346585905927
6.637896704,1.0004007462291453,115.09373714564947
6.640182784,1.000272188958268,114.95455334095875
6.642469376,1.0001267863901573,114.81741381567855
6.644755456,0.9999735333326092,114.68250027195748
6.647042048,0.999822347263764,114.54982266508733
6.649328128,0.9996828380183311,114.41934060776639
6.65161472,0.9995636672656502,114.29074735571228
6.653901312,0.9994727152347309,114.16376739812455
6.656187392,0.999415517674831,114.0378720183149
6.658473984,0.9993959498329291,113.91259613461946
6.660760064,0.99941513316779,113.78736301290105
6.663046656,0.9994720347054136,113.6616435242919
6.665332736,0.9995628043202636,113.53491166043847
6.667619328,0.999682106134773,113.40664709622108
6.66990592,0.9998218101910512,113.27657480986227
6.672192,0.9999736853079533,113.14440467604872
6.674478592,1.00012757089672,113.01005579168279
6.676764672,1.0002739822003106,112.87355750010461
6.679051264,1.0004035246849614,112.73509635824931
6.681337344,1.0005079853778371,112.59500202830223
6.683623936,1.0005806544343008,112.45363614732473
6.685910016,1.0006170035548718,112.31154324434361
6.688196608,1.000614706694081,112.16921689526194
6.6904832,1.0005738245737743,112.02722631832914
6.69276928,1.000496920115467,111.88618217419813
6.695055872,1.0003888781729549,111.74646504159489
6.697341952,1.0002564491288035,111.6085709311558
6.699628544,1.0001082184664583,111.47275695618616
6.701914624,0.9999531525824039,111.33920624523802
6.704201216,0.9998015588739877,111.20789343613887
6.706487808,0.9996628882412584,111.07875550925638
6.708773888,0.9995460556343329,110.95150851339292
6.71106048,0.9994582898293553,110.82582282993006
6.71334656,0.9994054071245846,110.70118839426743
6.715633152,0.9993907396368822,110.57708540348172
6.717919232,0.9994151399236239,110.45297369886278
6.720205824,0.9994773012403784,110.32825188055276
6.722491904,0.9995730635843687,110.20243306885085
6.724778496,0.9996964707766949,110.0750733383763
6.727065088,0.9998397381258464,109.94579656808962
6.729351168,0.9999937733739128,109.81443826647217
6.73163776,1.0001487011751609,109.68082066925986
6.73392384,1.0002946972808786,109.54509016455182
6.736210432,1.0004226087060935,109.40739716122434
6.738496512,1.0005241836809695,109.2680689059453
6.740783104,1.000593012038167,109.12756337153023
6.743069696,1.0006246210941905,108.98632367574494
6.745355776,1.0006170763760607,108.84497523018685
6.747642368,1.0005709001289853,108.70405468840829
6.749928448,1.000488896303372,108.56410747294689
6.75221504,1.000376055860192,108.42560862754418
6.75450112,1.000239772008641,108.28895529772612
6.756787712,1.000088659290042,108.15439027573854
6.759073792,0.9999320834171557,108.02218981547921
6.761360384,0.999780240956149,107.8922119587434
6.763646976,0.9996426589372112,107.76440815149577
6.765933056,0.9995280952095975,107.63845844433614
6.768219648,0.9994438979522523,107.51401970692868
6.770505728,0.9993953742748487,107.39058567238855
6.77279232,0.9993857569983157,107.2676353041465
6.7750784,0.9994156487567877,107.14453960002061
6.777364992,0.9994830276055392,107.02079092168567
6.779651584,0.9995838927213432,106.89590418857898
6.781937664,0.9997115555177708,106.76937621137138
6.784224256,0.9998582548109913,106.6408614616278
6.786510336,1.0000142518548951,106.5102181444586
6.788796928,1.0001700656141403,106.3773081388527
6.791083008,1.0003156377065712,106.24227224236432
6.7933696,1.000441573097845,106.10529470188806
6.79565568,1.0005400717084951,105.96671761585104
6.797942272,1.0006049111253108,105.82699546734976
6.800228864,1.000631695204128,105.68663863875425
6.802514944,1.000618837493976,105.546229062266
6.804801536,1.0005671414884985,105.40628717587222
6.807087616,1.0004799112452456,105.26743684020447
6.809374208,1.0003624327411291,105.13010561723944
6.811660288,1.000222280919598,104.9946617465296
6.81394688,1.0000683708181908,104.86140735656905
6.81623296,0.9999104901914799,104.73044700900216
6.818519552,0.9997584349454196,104.60180030646255
6.820806144,0.9996222518328909,104.47527390631375
6.823092224,0.9995102677741827,104.35058958188705
6.825378816,0.9994298597813671,104.2273728671615
6.827664896,0.9993859382042666,104.10509695678506
6.829951488,0.999381604135446,103.9832122076138
6.832237568,0.9994168003487903,103.86115903831264
6.83452416,0.9994896721283448,103.73832516014927
6.836810752,0.9995954713618804,103.61424723483707
6.839096832,0.9997274842569774,103.48850027940763
6.841383424,0.999877353670268,103.36070162029249
6.843669504,1.0000355364896445,103.23071222420637
6.845956096,1.000191949064018,103.09848961147902
6.848242176,1.000336784521847,102.96408229997265
6.850528768,1.0004607602395588,102.82778901570869
6.852814848,1.0005558348031773,102.68991963243559
6.85510144,1.0006164004875486,102.55094678720124
6.857388032,1.0006380922079392,102.41142950791726
6.859674112,1.000619788712104,102.27192008503857
6.861960704,1.0005625103750262,102.13299760500499
6.864246784,1.000469935450326,101.99516389598372
6.866533376,1.0003478794228846,101.85896451053046
6.868819456,1.0002038476769606,101.72471747578197
6.871106048,1.0000473362925077,101.59268650865351
6.87339264,0.9998881730061085,101.46300489988225
6.87567872,0.999736401256097,101.33561698802552
6.877965312,0.9996016023399719,101.21035223386069
6.880251392,0.9994924474429262,101.08691164413425
6.882537984,0.9994158864070875,100.96485364564506
6.884824064,0.9993769094652893,100.84367760490878
6.887110656,0.9993778509168773,100.72284775699117
6.889396736,0.9994188648504777,100.6017128348167
6.891683328,0.9994972808526974,100.4797683058417
6.89396992,0.9996080625705615,100.35646475842248
6.896256,0.9997443913565421,100.23142714432021
6.898542592,0.9998974096832227,100.10430321476733
6.900828672,1.0000573870810658,99.9749653127995
6.903115264,1.0002144443292234,99.84332334754698
6.905401344,1.0003582630729804,99.70953329055786
6.907687936,1.0004799752436175,99.57385484696256
6.909974528,1.0005716815554888,99.43666090974652
6.912260608,1.0006276103344787,99.29840886048044
6.9145472,1.0006440680788735,99.15969593653821
6.91683328,1.0006201636452943,99.02105440950913
6.919119872,1.0005572315585263,98.88304714304431
6.921405952,1.0004592724673242,98.74627840027925
6.923692544,1.0003324872124861,98.6111538696032
