freq,mag,phase
6.0,0.9999938822797848,86.64398944168195
6.008,0.9999938160022109,86.50904163689589
6.016,0.9999937531836708,86.3740548087741
6.024,0.9999936938065898,86.23902890153778
6.032,0.9999936378521637,86.10396385970553
6.04,0.9999935853003876,85.9688596280929
6.048,0.9999935361300863,85.83371615181171
6.056,0.9999934903189408,85.69853337626954
6.064,0.9999934478435182,85.56331124716903
6.072,0.9999934086793001,85.42804971050731
6.08,0.9999933728007105,85.29274871257539
6.088,0.999993340181143,85.15740819995747
6.096,0.9999933107929896,85.02202811953035
6.104,0.9999932846076662,84.88660841846271
6.112,0.9999932615956422,84.75114904421456
6.12,0.999993241726465,84.61564994453643
6.128,0.9999932249687881,84.48011106746881
6.136,0.9999932112903971,84.34453236134141
6.144,0.9999932006582358,84.20891377477248
6.152,0.9999931930384325,84.0732552566681
6.16,0.999993188396324,83.93755675622145
6.168,0.9999931866964844,83.80181822291219
6.176,0.9999931879027472,83.66603960650563
6.184,0.9999931919782313,83.53022085705202
6.192,0.999993198885366,83.39436192488583
6.2,0.9999932085859149,83.2584627606251
6.208,0.9999932210410015,83.12252331517047
6.216,0.9999932362111309,82.98654353970466
6.224,0.999993254056216,82.85052338569155
6.232,0.9999932745355989,82.71446280487547
6.24,0.9999932976080755,82.57836174928039
6.248,0.9999933232319186,82.44222017120923
6.256,0.9999933513648992,82.30603802324296
6.264,0.9999933819643111,82.16981525823986
6.272,0.9999934149869916,82.03355182933474
6.28,0.9999934503893438,81.89724768993808
6.288,0.9999934881273597,81.7609027937353
6.296,0.9999935281566393,81.62451709468586
6.304,0.9999935704324151,81.48809054702252
6.312,0.99999361490957,81.35162310525044
6.32,0.9999936615426598,81.21511472414643
6.328,0.9999937102859342,81.07856535875807
6.336,0.9999937610933568,80.94197496440287
6.344,0.9999938139186234,80.80534349666745
6.352,0.9999938687151845,80.66867091140668
6.36,0.9999939254362635,80.53195716474283
6.368,0.9999939840348769,80.39520221306476
6.376,0.9999940444638517,80.25840601302696
6.384,0.9999941066758465,80.1215685215488
6.392,0.9999941706233687,79.98468969581363
6.4,0.9999942362587932,79.84776949326785
6.408,0.9999943035343811,79.71080787162015
6.416,0.9999943724022965,79.57380478884052
6.424,0.9999944428146259,79.43676020315948
6.432,0.9999945147233936,79.29967407306712
6.44,0.9999945880805802,79.16254635731225
6.448,0.9999946628381399,79.02537701490155
6.456,0.9999947389480157,78.88816600509858
6.464,0.9999948163621575,78.750913287423
6.472,0.999994895032537,78.61361882164964
6.48,0.9999949749111646,78.47628256780757
6.4879999999999995,0.9999950559501054,78.33890448617925
6.496,0.999995138101493,78.20148453729959
6.504,0.999995221317547,78.06402268195514
6.5120000000000005,0.999995305550587,77.92651888118303
6.52,0.9999953907530472,77.78897309627027
6.5280000000000005,0.9999954768774914,77.65138528875265
6.536,0.9999955638766268,77.51375542041396
6.5440000000000005,0.9999956517033198,77.37608345328505
6.552,0.9999957403106071,77.23836934964294
6.5600000000000005,0.9999958296517121,77.1006130720098
6.568,0.9999959196800563,76.9628145831523
6.5760000000000005,0.999996010349274,76.82497384608033
6.584,0.9999961016132242,76.68709082404648
6.592,0.9999961934260039,76.54916548054481
6.6,0.9999962857419601,76.41119777931017
6.608,0.9999963785157029,76.27318768431714
6.616,0.9999964717021168,76.13513515977915
6.624,0.9999965652563726,75.99704017014768
6.632,0.99999665913394,75.85890268011119
6.64,0.999996753290597,75.72072265459428
6.648,0.9999968476824431,75.58250005875684
6.656,0.9999969422659093,75.44423485799302
6.664,0.9999970369977684,75.30592701793044
6.672,0.9999971318351462,75.16757650442918
6.68,0.9999972267355317,75.02918328358096
6.688,0.9999973216567867,74.89074732170818
6.696,0.9999974165571562,74.75226858536298
6.704,0.9999975113952778,74.6137470413265
6.712,0.9999976061301904,74.47518265660779
6.72,0.9999977007213445,74.33657539844296
6.728,0.9999977951286108,74.19792523429436
6.736,0.9999978893122886,74.05923213184957
6.744,0.9999979832331147,73.92049605902065
6.752,0.9999980768522713,73.78171698394304
6.76,0.999998170131395,73.64289487497489
6.768,0.9999982630325838,73.504029700696
6.776,0.9999983555184052,73.36512142990698
6.784,0.9999984475519038,73.22617003162844
6.792,0.9999985390966083,73.08717547509998
6.8,0.9999986301165389,72.94813772977943
6.808,0.9999987205762141,72.80905676534185
6.816,0.9999988104406575,72.66993255167881
6.824,0.9999988996754033,72.5307650588973
6.832,0.9999989882465047,72.39155425731906
6.84,0.9999990761205377,72.25230011747962
6.848,0.9999991632646085,72.11300261012744
6.856,0.9999992496463584,71.97366170622306
6.864,0.9999993352339699,71.8342773769382
6.872,0.9999994199961717,71.69484959365501
6.88,0.9999995039022436,71.55537832796506
6.888,0.9999995869220216,71.41586355166864
6.896,0.9999996690259032,71.2763052367738
6.904,0.9999997501848508,71.13670335549561
6.912,0.9999998303703976,70.99705788025524
6.92,0.9999999095546497,70.8573687836791
6.928,0.9999999877102921,70.71763603859816
6.936,0.9999999999999999,70.57785961804693
6.944,1.0,70.43803949526279
6.952,1.0,70.29817564368503
6.96,0.9999999999999999,70.15826803695423
6.968,1.0,70.01831664891118
6.976,0.9999999999999999,69.87832145359636
6.984,1.0,69.73828242524888
6.992,0.9999999999999999,69.5981995383059
7.0,0.9999999999999999,69.45807276740165
7.008,1.0,69.31790208736675
7.016,1.0,69.17768747322741
7.024,1.0,69.03742890020459
7.032,0.9999999999999999,68.89712634371334
7.04,0.9999999999999999,68.75677977936192
7.048,1.0,68.61638918295104
7.056,1.0,68.47595453047316
7.064,0.9999999999999999,68.33547579811169
7.072,1.0,68.19495296224021
7.08,1.0,68.05438599942184
7.088,1.0,67.91377488640836
7.096,1.0,67.77311960013954
7.104,1.0,67.63242011774238
7.112,1.0,67.49167641653045
7.12,1.0,67.35088847400307
7.128,1.0,67.21005626784469
7.136,1.0000000000000002,67.06917977592406
7.144,0.9999999999999999,66.9282589762937
7.152,1.0,66.78729384718902
7.16,0.9999999999999999,66.64628436702775
7.168,1.0,66.50523051440915
7.176,1.0,66.36413226811348
7.184,1.0,66.22298960710114
7.192,1.0,66.08180251051212
7.2,1.0,65.94057095766529
7.208,0.9999999999999999,65.7992949280578
7.216,1.0,65.65797440136431
7.224,0.9999999999999999,65.51660935743645
7.232,1.0,65.37519977630214
7.24,0.9999999999999999,65.23374563816493
7.248,1.0,65.09224692340344
7.256,0.9999999999999999,64.95070361257063
7.264,1.0,64.80911568639331
7.272,0.9999999999999999,64.6674831257714
7.28,0.9999999999999998,64.52580591177741
7.288,0.9999999999999999,64.38408402565587
7.296,1.0,64.24231744882259
7.304,1.0,64.10050616286426
7.312,1.0,63.95865014953773
7.32,1.0,63.81674939076951
7.328,1.0,63.67480386865515
7.336,1.0,63.532813565458774
7.344,1.0,63.39077846361239
7.352,1.0,63.24869854571544
7.36,1.0,63.10657379453427
7.368,1.0,62.96440419300151
7.376,1.0,62.8221897242156
7.384,1.0,62.67993037144027
7.392,1.0,62.53762611810405
7.4,1.0,62.395276947799694
7.4079999999999995,1.0,62.25288284428372
7.416,0.9999999999999999,62.11044379147585
7.4239999999999995,0.9999999999999998,61.96795977345873
7.432,1.0,61.82543077447713
7.4399999999999995,1.0,61.68285677893779
7.448,1.0000000000000002,61.54023777140863
7.4559999999999995,1.0,61.39757373661863
7.464,1.0,61.25486465945706
7.4719999999999995,1.0,61.11211052497331
7.48,1.0,60.96931131837616
7.4879999999999995,0.9999999999999999,60.826467025033615
7.496,1.0,60.6835776304723
7.504,1.0,60.54064312037715
7.5120000000000005,1.0,60.39766348059088
7.52,1.0,60.254638697113684
7.5280000000000005,0.9999999999999999,60.11156875610276
7.536,1.0,59.96845364387204
7.5440000000000005,1.0,59.82529334689153
7.552,1.0,59.68208785178731
7.5600000000000005,1.0,59.53883714534081
7.568,1.0,59.3955412144887
7.5760000000000005,0.9999999999999999,59.252200046322336
7.584,0.9999999999999999,59.10881362808757
7.5920000000000005,0.9999999999999999,58.96538194718425
7.6,1.0,58.82190499116604
7.6080000000000005,1.0,58.67838274773994
7.616,0.9999999999999998,58.534815204766076
7.6240000000000006,0.9999999999999999,58.391202350257274
7.632,1.0,58.24754417237886
7.640000000000001,0.9999999999999998,58.10384065944826
7.648,1.0,57.960091799934766
7.656000000000001,1.0,57.816297582459185
7.664,1.0,57.67245799579364
7.672,0.9999999999999999,57.52857302886117
7.68,1.0,57.38464267073555
7.688,1.0,57.24066691064104
7.696,1.0,57.09664573795204
7.704,0.9999999999999999,56.95257914219289
7.712,1.0,56.808467113037665
7.72,1.0,56.66430964030981
7.728,1.0,56.5201067139821
7.736,0.9999999999999999,56.375858324176214
7.744,0.9999999999999999,56.23156446116262
7.752,1.0,56.087225115360404
7.76,1.0000000000000002,55.94284027733696
7.768,1.0,55.79840993780784
7.776,0.9999999999999999,55.65393408763662
7.784,1.0,55.5094127178346
7.792,0.9999999999999999,55.36484581956072
7.8,1.0,55.22023338412132
7.808,0.9999999355975769,55.07557540297
7.816,0.9999998677539332,54.93087186770754
7.824,0.9999997993988478,54.786122770081555
7.832,0.99999973056102,54.64132810198656
7.84,0.9999996612693511,54.49648785546369
7.848,0.999999591552935,54.3516020227006
7.856,0.999999521441051,54.20667059603135
7.864,0.9999994509631565,54.0616935679363
7.872,0.9999993801488808,53.91667093104197
7.88,0.999999309028017,53.77160267812092
7.888,0.999999237630514,53.626488802091636
7.896,0.9999991659864711,53.481329296018494
7.904,0.9999990941261285,53.336124153111626
7.912,0.9999990220798621,53.19087336672686
7.92,0.9999989498781743,53.045576930365556
7.928,0.9999988775516881,52.900234837674695
7.936,0.9999988051311396,52.754847082446624
7.944,0.9999987326473689,52.609413658619154
7.952,0.9999986601313168,52.4639345602754
7.96,0.9999985876140122,52.31840978164378
7.968,0.9999985151265695,52.172839317097996
7.976,0.999998442700179,52.027223161156954
7.984,0.9999983703660994,51.88156130848469
7.992,0.9999982981556523,51.735853753890446
8.0,0.9999982261002126,51.59010049232862
8.008,0.9999981542312034,51.44430151889869
8.016,0.9999980825800878,51.29845682884523
8.024000000000001,0.9999980111783607,51.15256641755799
8.032,0.9999979400575443,51.006630280571855
8.04,0.9999978692491777,50.860648413566736
8.048,0.9999977987848121,50.714620812367684
8.056000000000001,0.9999977286960029,50.568547472945
8.064,0.9999976590143019,50.422428391414115
8.072,0.9999975897712515,50.27626356403565
8.08,0.9999975209983761,50.130052987215464
8.088000000000001,0.9999974527271768,49.98379665750474
8.096,0.9999973849891224,49.837494571600004
8.104,0.999997317815644,49.69114672634311
8.112,0.9999972512381271,49.544753118721324
8.120000000000001,0.9999971852879048,49.3983137458675
8.128,0.9999971199962513,49.25182860506001
8.136,0.9999970553943748,49.10529769372288
8.144,0.9999969915134094,48.95872100942577
8.152000000000001,0.9999969283844103,48.8120985498842
8.16,0.9999968660383463,48.66543031295962
8.168,0.999996804506091,48.51871629665935
8.176,0.9999967438184197,48.37195649913675
8.184000000000001,0.999996684006,48.225150918691455
8.192,0.999996625099385,48.07829955376934
8.2,0.9999965671290091,47.931402402962576
8.208,0.999996510125178,47.78445946500987
8.216000000000001,0.9999964541180656,47.63747073879658
8.224,0.9999963991377042,47.49043622335478
8.232,0.9999963452139813,47.34335591786335
8.24,0.9999962923766299,47.19622982164817
8.248000000000001,0.9999962406552243,47.04905793418231
8.256,0.9999961900791728,46.90184025508611
8.264,0.9999961406777123,46.754576784127245
8.272,0.9999960924799003,46.607267521220955
8.280000000000001,0.9999960455146102,46.45991246643026
8.288,0.9999959998105251,46.31251161996603
8.296,0.9999959553961302,46.165064982187154
8.304,0.9999959122997083,46.01757255360066
8.312,0.9999958705493329,45.87003433486207
8.32,0.9999958301728622,45.72245032677529
8.328,0.999995791197934,45.57482053029309
8.336,0.9999957536519588,45.427144946517004
8.344,0.9999957175621144,45.279423576697724
8.352,0.9999956829553391,45.13165642223514
8.36,0.9999956498583288,44.9838434846787
8.368,0.9999956182975275,44.83598476572738
8.376,0.9999955882991245,44.688080267230106
8.384,0.9999955598890479,44.54012999118573
8.392,0.9999955330929585,44.3921339397435
8.4,0.9999955079362454,44.24409211520301
8.408,0.9999954844440198,44.0960045200146
8.416,0.9999954626411096,43.94787115677943
8.424,0.9999954425520549,43.799692028249844
8.432,0.9999954242011024,43.65146713732938
8.44,0.9999954076121994,43.503196487073296
8.448,0.9999953928089897,43.35488008068844
8.456,0.9999953798148087,43.20651792153383
8.464,0.9999953686526768,43.05811001312056
8.472,0.9999953593452966,42.90965635911235
8.48,0.9999953519150464,42.761156963325476
8.488,0.9999953463839759,42.612611829729296
8.496,0.9999953427738023,42.46402096244619
8.504,0.9999953411059044,42.31538436575217
8.512,0.9999953414013177,42.16670204407676
8.52,0.9999953436807315,42.01797400200355
8.528,0.9999953479644837,41.869200244270154
8.536,0.9999953542725553,41.720380775768824
8.544,0.9999953626245673,41.5715156015463
8.552,0.9999953730397763,41.42260472680446
8.56,0.9999953855370695,41.273648156900244
8.568,0.9999954001349612,41.1246458973462
8.576,0.9999954168515891,40.97559795381047
8.584,0.9999954357047087,40.826504332117395
8.592,0.9999954567116913,40.677365038247416
8.6,0.9999954798895191,40.52818007833767
8.608,0.9999955052547812,40.37894945868196
8.616,0.9999955328236704,40.22967318573135
8.624,0.999995562611979,40.08035126609414
8.632,0.9999955946350959,39.93098370653641
8.64,0.9999956289080025,39.781570513982025
8.648,0.9999956654452699,39.6321116955132
8.656,0.9999957042610539,39.48260725837048
8.664,0.9999957453690943,39.33305720995336
8.672,0.9999957887827096,39.18346155782023
8.68,0.9999958345147941,39.03382030968897
8.688,0.9999958825778156,38.88413347343693
8.696,0.9999959329838121,38.73440105710155
8.704,0.9999959857443883,38.58462306888029
8.712,0.999996040870714,38.4347995171313
8.72,0.9999960983735194,38.28493041037333
8.728,0.9999961582630942,38.13501575728635
8.736,0.999996220549284,37.98505556671157
8.744,0.9999962852414882,37.83504984765198
8.752,0.999996352348657,37.68499860927242
8.76,0.9999964218792896,37.534901860900085
8.768,0.9999964938414313,37.38475961202458
8.776,0.9999965682426714,37.23457187229847
8.784,0.9999966450901413,37.084338651537344
8.792,0.9999967243905123,36.934059959720315
8.8,0.9999968061499935,36.783735806990094
8.808,0.9999968903743297,36.63336620365358
8.815999999999999,0.9999969770687993,36.48295116018185
8.824,0.9999970662382138,36.33249068721055
8.832,0.9999971578869143,36.181984795540394
8.84,0.9999972520187708,36.03143349613721
8.847999999999999,0.9999973486371809,35.8808368001323
8.856,0.9999974477450684,35.73019471882274
8.864,0.9999975493448799,35.579507263671765
8.872,0.9999976534385866,35.428774446309006
8.879999999999999,0.9999977600276809,35.27799627853067
8.888,0.9999978691131755,35.12717277229998
8.896,0.9999979806956032,34.97630393974745
8.904,0.9999980947750148,34.82538979317119
8.911999999999999,0.9999982113509793,34.674430345037045
8.92,0.9999983304225817,34.52342560797906
8.928,0.9999984519884229,34.372375594799735
8.936,0.99999857604662,34.22128031847031
8.943999999999999,0.9999987025948037,34.07013979213099
8.952,0.9999988316301195,33.918954029091246
8.96,0.9999989631492258,33.76772304283024
8.968,0.9999990971482946,33.61644684699699
8.975999999999999,0.9999992336230112,33.465125455410636
8.984,0.9999993725685723,33.313758882060746
8.992,0.9999995139796889,33.16234714110767
9.0,0.9999996578505828,33.01089024688278
9.008,0.9999998041749895,32.85938821388871
9.016,0.9999999529461563,32.70784105679962
9.024000000000001,0.9999999999999999,32.5562487904616
9.032,1.0,32.40461142989289
9.04,1.0,32.252928990284026
9.048,0.9999999999999999,32.101201486998235
9.056000000000001,1.0,31.949428935571756
9.064,0.9999999999999999,31.797611351714078
9.072,1.0,31.645748751308034
9.08,0.9999999999999999,31.493841150410272
9.088000000000001,1.0,31.341888565251462
9.096,1.0000000000000002,31.189891012236586
9.104,1.0,31.03784850794511
9.112,0.9999999999999998,30.88576106913123
9.120000000000001,1.0,30.733628712724332
9.128,1.0,30.581451455829043
9.136,1.0,30.429229315725514
9.144,1.0,30.276962309869692
9.152000000000001,1.0,30.1246504558936
9.16,1.0,29.972293771605635
9.168,0.9999999999999998,29.819892274990583
9.176,1.0,29.667445984210055
9.184000000000001,0.9999999999999999,29.514954917602697
9.192,1.0,29.362419093684423
9.2,1.0,29.209838531148566
9.208,1.0,29.057213248866148
9.216000000000001,0.9999999999999999,28.904543265886186
9.224,1.0,28.75182860143586
9.232,1.0,28.59906927492064
9.24,0.9999999999999999,28.446265305924584
9.248000000000001,0.9999999999999999,28.29341671421064
9.256,0.9999999999999999,28.140523519720738
9.264,1.0,27.987585742575984
9.272,1.0,27.834603403076912
9.280000000000001,1.0,27.681576521703743
9.288,0.9999999999999999,27.528505119116485
9.296,1.0,27.375389216155156
9.304,0.9999999999999999,27.222228833839942
9.312000000000001,1.0,27.06902399337149
9.32,1.0,26.915774716131057
9.328,1.0,26.762481023680575
9.336,1.0,26.609142937762908
9.344,0.9999999999999999,26.45576048030212
9.352,1.0,26.302333673403467
9.36,0.9999999999999999,26.148862539353722
9.368,1.0,25.99534710062115
9.376,1.0,25.84178737985597
9.384,0.9999999999999999,25.688183399890086
9.392,0.9999999999999999,25.534535183737688
9.4,0.9999999999999999,25.380842754594998
9.408,0.9999999999999999,25.227106135840753
9.416,1.0,25.073325351036033
9.424,0.9999999999999999,24.919500423924685
9.432,1.0,24.765631378433184
9.44,0.9999999999999999,24.61171823867102
9.448,1.0,24.457761028930534
9.456,1.0,24.303759773687354
9.464,0.9999999999999999,24.14971449760016
9.472,1.0,23.995625225511148
9.48,1.0,23.841491982445802
9.488,0.9999999999999999,23.687314793613268
9.496,0.9999999999999999,23.533093684406214
9.504,1.0,23.378828680401153
9.512,1.0,23.224519807358273
9.52,0.9999999999999999,23.070167091221805
9.528,1.0,22.915770558119775
9.536,0.9999999999999999,22.7613302343644
9.544,1.0,22.606846146451865
9.552,0.9999999999999999,22.452318321062616
9.56,1.0,22.297746785061225
9.568,1.0,22.143131565496653
9.576,1.0,21.988472689602013
9.584,0.9999999999999999,21.83377018479493
9.592,0.9999999999999999,21.67902407867728
9.6,0.9999999999999999,21.524234399035485
9.608,1.0,21.369401173840277
9.616,0.9999999999999999,21.214524431247007
9.624,1.0,21.059604199595338
9.632,1.0000000000000002,20.904640507409585
9.64,1.0,20.7496333833984
9.648,1.0,20.59458285645507
9.656,0.9999999999999999,20.439488955657243
9.664,1.0,20.284351710267153
9.672,1.0,20.129171149731356
9.68,1.0,19.973947303680998
9.688,1.0,19.818680201931468
9.696,1.0,19.66336987448266
9.704,0.9999999999999999,19.508016351518698
9.712,1.0,19.352619663408056
9.72,0.9999999999999999,19.19717984070337
9.728,1.0000000000000002,19.041696914141564
9.736,0.9999999999999999,18.886170914643504
9.744,1.0,18.730601873314292
9.752,1.0,18.574989821442816
9.76,1.0,18.41933479050201
9.768,1.0,18.263636812148462
9.776,0.9999999999999999,18.107895918222617
9.784,1.0,17.95211214074838
9.792,1.0,17.796285511933313
9.8,0.9999999999999999,17.640416064168228
9.808,1.0,17.48450383002736
9.816,1.0,17.328548842267942
9.824,0.9999999999999999,17.172551133830403
9.832,1.0,17.0165107378379
9.84,0.9999999999999999,16.860427687596495
9.847999999999999,1.0000000000000002,16.704302016594752
9.856,0.9999999999999999,16.548133758503667
9.864,1.0,16.391922947176628
9.872,0.9999999999999999,16.235669616649112
9.879999999999999,0.9999999999999999,16.079373801138505
9.888,1.0,15.923035535043944
9.896,1.0,15.766654852946234
9.904,1.0,15.610231789607587
9.911999999999999,0.9999999999999999,15.45376637997133
9.92,1.0,15.297258659161768
9.928,1.0,15.140708662484096
9.936,0.9999999999999999,14.984116425424029
9.943999999999999,1.0,14.827481983647587
9.952,0.9999999999999999,14.670805373000869
9.96,1.0,14.514086629509936
9.968,0.9999999999999999,14.357325789380475
9.975999999999999,1.0,14.200522888997467
9.984,1.0,14.04367796492501
9.992,1.0,13.886791053906151
10.0,1.0,13.729862192862486
10.008,1.0,13.572891418893871
