freq,mag,phase
6.0,0.9999910889933067,113.28194630723144
6.008,0.9999915955228047,113.17557416206019
6.016,0.9999920905109503,113.06912828908416
6.024,0.9999925740948087,112.96260857336479
6.032,0.9999930464106267,112.85601489996405
6.04,0.9999935075938327,112.7493471539456
6.048,0.9999939577790389,112.6426052203756
6.056,0.999994397100043,112.53578898432357
6.064,0.9999948256898273,112.42889833086356
6.072,0.9999952436805617,112.3219331450748
6.08,0.9999956512036038,112.21489331204288
6.088,0.9999960483895008,112.10777871686062
6.096,0.9999964353679902,112.00058924462901
6.104,0.9999968122680005,111.8933247804582
6.112,0.999997179217654,111.78598520946846
6.12,0.9999975363442664,111.67857041679116
6.128,0.9999978837743484,111.57108028756973
6.136,0.9999982216336073,111.46351470696064
6.144,0.9999985500469482,111.35587356013446
6.152,0.9999988691384741,111.24815673227671
6.16,0.9999991790314896,111.14036410858901
6.168,0.9999994798484991,111.03249557428997
6.176,0.99999977171121,110.92455101461628
6.184,0.9999999999999999,110.81653031482362
6.192,1.0,110.70843336018784
6.2,1.0,110.60026003600579
6.208,0.9999999999999999,110.49201022759647
6.216,1.0,110.38368382030202
6.224,0.9999999999999999,110.2752806994888
6.232,1.0,110.1668007505484
6.24,0.9999999999999999,110.05824385889866
6.248,1.0,109.94960990998476
6.256,0.9999999999999999,109.84089878928029
6.264,1.0,109.73211038228827
6.272,1.0,109.62324457454226
6.28,0.9999999999999999,109.5143012516074
6.288,1.0,109.4052802990815
6.296,1.0,109.29618160259615
6.304,0.9999999999999999,109.18700504781776
6.312,1.0,109.0777505204487
6.32,0.9999999999999999,108.96841790622838
6.328,1.0,108.85900709093434
6.336,1.0,108.74951796038337
6.344,0.9999999999999999,108.63995040043264
6.352,0.9999999999999999,108.53030429698083
6.36,1.0,108.4205795359692
6.368,0.9999999999999999,108.31077600338278
6.376,0.9999999999999999,108.20089358525149
6.384,1.0,108.09093216765125
6.392,1.0,107.98089163670518
6.4,0.9999999999999999,107.87077187858472
6.408,0.9999999999999999,107.76057277951081
6.416,1.0,107.65029422575499
6.424,1.0,107.53993610364068
6.432,1.0,107.42949829954426
6.44,1.0,107.31898069989627
6.448,0.9999999999999999,107.20838319118268
6.456,0.9999999999999999,107.09770565994592
6.464,1.0,106.98694799278621
6.472,1.0,106.87611007636274
6.48,1.0,106.7651917973948
6.4879999999999995,1.0,106.65419304266315
6.496,1.0,106.543113699011
6.504,0.9999999999999999,106.43195365334554
6.5120000000000005,0.9999999999999999,106.32071279263884
6.52,1.0,106.2093910039294
6.5280000000000005,0.9999999999999999,106.0979881743231
6.536,1.0,105.98650419099476
6.5440000000000005,0.9999999999999999,105.87493894118904
6.552,1.0,105.76329231222202
6.5600000000000005,1.0,105.65156419148225
6.568,1.0,105.53975446643214
6.5760000000000005,1.0,105.42786302460915
6.584,0.9999999999999999,105.31588975362719
6.592,1.0,105.20383454117773
6.6,1.0,105.09169727503127
6.608,0.9999999999999999,104.97947784303851
6.616,1.0,104.86717613313176
6.624,1.0,104.75479203332618
6.632,1.0,104.64232543172109
6.64,1.0000000000000002,104.52977621650133
6.648,0.9999999999999999,104.41714427593857
6.656,0.9999999999999999,104.3044294983927
6.664,1.0,104.19163177231303
6.672,0.9999999999999998,104.0787509862398
6.68,1.0,103.96578702880541
6.688,0.9999999999999998,103.85273978873583
6.696,1.0,103.73960915485199
6.704,0.9999999999999998,103.62639501607106
6.712,1.0,103.51309726140794
6.72,1.0,103.39971577997652
6.728,0.9999999999999999,103.2862504609912
6.736,0.9999999999999999,103.17270119376815
6.744,1.0,103.0590678677268
6.752,1.0,102.9453503723912
6.76,0.9999999999999999,102.83154859739152
6.768,0.9999999999999999,102.71766243246529
6.776,0.9999999999999999,102.60369176745898
6.784,0.9999999999999999,102.48963649232941
6.792,1.0,102.3754964971451
6.8,0.9999999999999999,102.26127167208777
6.808,1.0,102.14696190745383
6.816,1.0,102.03256709365576
6.824,1.0,101.91808712122358
6.832,0.9999999999999998,101.80352188080634
6.84,1.0,101.68887126317362
6.848,1.0,101.57413515921695
6.856,1.0,101.45931345995129
6.864,1.0,101.34440605651659
6.872,0.9999999999999999,101.22941284017924
6.88,1.0,101.11433370233355
6.888,1.0,100.99916853450331
6.896,1.0,100.88391722834331
6.904,1.0,100.76857967564078
6.912,1.0,100.65315576831699
6.92,0.9999999999999999,100.53764539842881
6.928,1.0,100.42204845817014
6.936,0.9999999999999999,100.30636483987357
6.944,1.0,100.19059443601186
6.952,1.0,100.07473713919957
6.96,0.9999999999999999,99.95879284219451
6.968,1.0,99.84276143789945
6.976,1.0,99.72664281936359
6.984,0.9999999999999999,99.61043687978422
6.992,1.0,99.49414351250822
7.0,0.9999999999999999,99.37776261103375
7.008,1.0,99.26129406901181
7.016,0.9999999999999998,99.1447377802479
7.024,1.0,99.02809363870347
7.032,1.0,98.91136153849781
7.04,1.0,98.79454137390942
7.048,0.9999999999999999,98.67763303937781
7.056,0.9999999999999999,98.56063642950508
7.064,0.9999998986827344,98.44355143905756
7.072,0.9999997759972118,98.32637796296748
7.08,0.9999996533407836,98.20911589633468
7.088,0.9999995307545391,98.09176513442816
7.096,0.9999994082789709,97.97432557268785
7.104,0.9999992859539777,97.85679710672623
7.112,0.9999991638188644,97.7391796323301
7.12,0.9999990419123459,97.62147304546222
7.128,0.9999989202725506,97.5036772422629
7.136,0.9999987989370192,97.38579211905196
7.144,0.9999986779427105,97.26781757233016
7.152,0.9999985573260021,97.14975349878115
7.16,0.9999984371226931,97.03159979527305
7.168,0.9999983173680066,96.91335635886023
7.176,0.9999981980965909,96.79502308678505
7.184,0.9999980793425239,96.6765998764796
7.192,0.9999979611393138,96.55808662556746
7.2,0.9999978435199027,96.43948323186538
7.208,0.9999977265166673,96.32078959338521
7.216,0.9999976101614236,96.20200560833551
7.224,0.9999974944854277,96.08313117512337
7.232,0.9999973795193787,95.96416619235623
7.24,0.9999972652934209,95.84511055884364
7.248,0.9999971518371468,95.72596417359907
7.256,0.9999970391795991,95.6067269358417
7.264,0.9999969273492734,95.48739874499822
7.272,0.9999968163741204,95.36797950070464
7.28,0.9999967062815492,95.24846910280816
7.288,0.9999965970984283,95.12886745136895
7.296,0.9999964888510893,95.009174446662
7.304,0.9999963815653297,94.88938998917897
7.312,0.9999962752664141,94.76951397963
7.32,0.9999961699790783,94.64954631894562
7.328,0.9999960657275302,94.52948690827854
7.336,0.9999959625354539,94.4093356490056
7.344,0.9999958604260109,94.28909244272958
7.352,0.9999957594218442,94.16875719128109
7.36,0.9999956595450796,94.04832979672047
7.368,0.9999955608173289,93.9278101613397
7.376,0.999995463259692,93.80719818766424
7.384,0.99999536689276,93.68649377845499
7.392,0.9999952717366186,93.56569683671019
7.4,0.9999951778108486,93.44480726566728
7.4079999999999995,0.9999950851345305,93.32382496880496
7.416,0.9999949937262463,93.20274984984495
7.4239999999999995,0.9999949036040826,93.0815818127541
7.432,0.9999948147856326,92.96032076174615
7.4399999999999995,0.9999947272879994,92.83896660128384
7.448,0.9999946411277983,92.7175192360808
7.4559999999999995,0.9999945563211603,92.59597857110353
7.464,0.9999944728837336,92.47434451157328
7.4719999999999995,0.999994390830687,92.3526169629682
7.48,0.9999943101767129,92.23079583102516
7.4879999999999995,0.9999942309360296,92.10888102174185
7.496,0.9999941531223842,91.98687244137864
7.504,0.9999940767490554,91.86476999646081
7.5120000000000005,0.9999940018288557,91.74257359378028
7.52,0.9999939283741356,91.62028314039785
7.5280000000000005,0.9999938563967847,91.49789854364508
7.536,0.9999937859082361,91.37541971112643
7.5440000000000005,0.9999937169194675,91.25284655072113
7.552,0.9999936494410057,91.13017897058546
7.5600000000000005,0.9999935834829282,91.00741687915449
7.568,0.999993519054867,90.8845601851445
7.5760000000000005,0.9999934561660101,90.7616087975546
7.584,0.999993394825106,90.6385626256693
7.5920000000000005,0.9999933350404657,90.51542157906005
7.6,0.9999932768199652,90.39218556758779
7.6080000000000005,0.9999932201710493,90.26885450140468
7.616,0.9999931651007338,90.14542829095643
7.6240000000000006,0.9999931116156089,90.02190684698425
7.632,0.9999930597218414,89.89829008052703
7.640000000000001,0.9999930094251791,89.77457790292338
7.648,0.999992960730951,89.65077022581386
7.656000000000001,0.9999929136440737,89.5268669611429
7.664,0.9999928681690515,89.40286802116121
7.672,0.9999928243099812,89.27877331842764
7.68,0.9999927820705535,89.15458276581147
7.688,0.999992741454058,89.03029627649454
7.696,0.9999927024633838,88.90591376397334
7.704,0.9999926651010244,88.78143514206127
7.712,0.9999926293690797,88.65686032489069
7.72,0.9999925952692599,88.5321892269152
7.728,0.9999925628028871,88.40742176291167
7.736,0.9999925319708995,88.2825578479826
7.744,0.9999925027738544,88.1575973975582
7.752,0.9999924752119314,88.03254032739859
7.76,0.9999924492849329,87.90738655359598
7.768,0.9999924249922922,87.78213599257698
7.776,0.9999924023330713,87.6567885611047
7.784,0.9999923813059678,87.53134417628102
7.792,0.9999923619093157,87.40580275554879
7.8,0.99999234414109,87.28016421669408
7.808,0.9999923279989085,87.15442847784841
7.816,0.9999923134800358,87.02859545749101
7.824,0.9999923005813864,86.902665074451
7.832,0.9999922892995275,86.77663724790973
7.84,0.999992279630682,86.65051189740296
7.848,0.9999922715707327,86.52428894282326
7.856,0.9999922651152233,86.39796830442204
7.864,0.9999922602593642,86.27154990281205
7.872,0.9999922569980337,86.14503365896961
7.88,0.9999922553257824,86.0184194942368
7.888,0.9999922552368355,85.89170733032387
7.896,0.9999922567250964,85.76489708931146
7.904,0.99999225978415,85.63798869365294
7.912,0.9999922644072654,85.51098206617677
7.92,0.9999922705874007,85.38387713008865
7.928,0.9999922783172032,85.25667380897406
7.936,0.9999922875890163,85.12937202680041
7.944,0.9999922983948796,85.0019717079195
7.952,0.999992310726534,84.8744727770697
7.96,0.9999923245754248,84.74687515937848
7.968,0.9999923399327036,84.61917878036463
7.976,0.9999923567892334,84.49138356594068
7.984,0.9999923751355909,84.36348944241519
7.992,0.9999923949620699,84.23549633649519
8.0,0.9999924162586843,84.10740417528847
8.008,0.9999924390151721,83.97921288630607
8.016,0.9999924632209981,83.8509223974645
8.024000000000001,0.9999924888653577,83.72253263708829
8.032,0.9999925159371797,83.59404353391231
8.04,0.9999925444251304,83.4654550170841
8.048,0.9999925743176155,83.3367670161663
8.056000000000001,0.999992605602785,83.20797946113923
8.064,0.9999926382685361,83.07909228240307
8.072,0.9999926723025162,82.95010541078034
8.08,0.999992707692126,82.82101877751833
8.088000000000001,0.9999927444245238,82.69183231429164
8.096,0.9999927824866279,82.56254595320446
8.104,0.9999928218651214,82.43315962679299
8.112,0.9999928625464535,82.303673268028
8.120000000000001,0.9999929045168446,82.17408681031725
8.128,0.9999929477622889,82.04440018750786
8.136,0.9999929922685582,81.91461333388887
8.144,0.9999930380212052,81.78472618419352
8.152000000000001,0.9999930850055665,81.65473867360195
8.16,0.9999931332067667,81.52465073774358
8.168,0.9999931826097214,81.39446231269946
8.176,0.9999932331991404,81.26417333500486
8.184000000000001,0.9999932849595318,81.13378374165175
8.192,0.9999933378752048,81.00329347009136
8.2,0.9999933919302736,80.87270245823647
8.208,0.9999934471086608,80.742010644464
8.216000000000001,0.9999935033941006,80.6112179676176
8.224,0.999993560770142,80.48032436701013
8.232,0.9999936192201531,80.34932978242595
8.24,0.9999936787273243,80.21823415412372
8.248000000000001,0.9999937392746706,80.08703742283879
8.256,0.9999938008450375,79.95573952978572
8.264,0.9999938634211016,79.82434041666075
8.272,0.9999939269853767,79.69284002564443
8.280000000000001,0.9999939915202147,79.56123829940412
8.288,0.9999940570078125,79.42953518109654
8.296,0.9999941234302114,79.29773061437021
8.304,0.9999941907693042,79.16582454336809
8.312,0.9999942590068364,79.03381691273017
8.32,0.9999943281244107,78.90170766759586
8.328,0.9999943981034902,78.76949675360672
8.336,0.9999944689254022,78.63718411690884
8.344,0.9999945405713415,78.50476970415568
8.352,0.9999946130223738,78.37225346251023
8.36,0.9999946862594395,78.239635339648
8.368,0.9999947602633568,78.10691528375924
8.376,0.9999948350148261,77.9740932435518
8.384,0.9999949104944322,77.84116916825346
8.392,0.9999949866826492,77.70814300761477
8.4,0.9999950635598428,77.57501471191134
8.408,0.999995141106275,77.44178423194673
8.416,0.9999952193021066,77.30845151905478
8.424,0.9999952981274015,77.17501652510244
8.432,0.9999953775621295,77.0414792024921
8.44,0.9999954575861713,76.90783950416447
8.448,0.9999955381793195,76.77409738360096
8.456,0.999995619321285,76.64025279482647
8.464,0.9999957009916981,76.50630569241176
8.472,0.9999957831701145,76.37225603147638
8.48,0.9999958658360161,76.23810376769094
8.488,0.9999959489688166,76.10384885728007
8.496,0.9999960325478641,75.96949125702467
8.504,0.9999961165524455,75.83503092426491
8.512,0.9999962009617887,75.7004678169025
8.52,0.9999962857550675,75.56580189340364
8.528,0.9999963709114043,75.43103311280136
8.536,0.9999964564098736,75.29616143469839
8.544,0.9999965422295065,75.16118681926957
8.552,0.9999966283492931,75.02610922726473
8.56,0.999996714748187,74.89092862001105
8.568,0.9999968014051074,74.75564495941599
8.576,0.9999968882989446,74.62025820796961
8.584,0.9999969754085622,74.48476832874756
8.592,0.9999970627128009,74.34917528541342
8.6,0.9999971501904823,74.21347904222155
8.608,0.999997237820412,74.07767956401959
8.616,0.9999973255813837,73.94177681625123
8.624,0.9999974134521818,73.80577076495874
8.632,0.9999975014115866,73.6696613767858
8.64,0.9999975894383758,73.53344861897988
8.648,0.9999976775113293,73.3971324593952
8.656,0.9999977656092324,73.2607128664951
8.664,0.9999978537108797,73.12418980935496
8.672,0.9999979417950773,72.98756325766462
8.68,0.9999980298406482,72.85083318173123
8.688,0.9999981178264347,72.7139995524817
8.696,0.9999982057313014,72.5770623414656
8.704,0.9999982935341395,72.44002152085764
8.712,0.9999983812138713,72.30287706346041
8.72,0.9999984687494512,72.16562894270699
8.728,0.9999985561198708,72.02827713266366
8.736,0.9999986433041625,71.89082160803252
8.744,0.9999987302814018,71.75326234415424
8.752,0.9999988170307127,71.61559931701052
8.76,0.9999989035312686,71.47783250322702
8.768,0.9999989897622985,71.3399618800758
8.776,0.9999990757030884,71.20198742547815
8.784,0.9999991613329857,71.06390911800705
8.792,0.9999992466314018,70.92572693689007
8.8,0.9999993315778168,70.78744086201183
8.808,0.9999994161517823,70.64905087391683
8.815999999999999,0.9999995003329242,70.51055695381193
8.824,0.9999995841009468,70.3719590835691
8.832,0.999999667435637,70.23325724572817
8.84,0.9999997503168657,70.09445142349936
8.847999999999999,0.9999998327245927,69.95554160076595
8.856,0.9999999146388696,69.81652776208696
8.864,0.9999999960398431,69.67740989269986
8.872,1.0,69.53818797852317
8.879999999999999,0.9999999999999999,69.39886200615904
8.888,1.0,69.25943196289603
8.896,1.0,69.11989783671171
8.904,1.0,68.98025961627536
8.911999999999999,1.0,68.84051729095046
8.92,1.0,68.7006708507975
8.928,1.0,68.56072028657653
8.936,0.9999999999999999,68.42066558974994
8.943999999999999,0.9999999999999999,68.28050675248487
8.952,1.0,68.14024376765602
8.96,1.0,67.99987662884826
8.968,0.9999999999999999,67.8594053303593
8.975999999999999,0.9999999999999999,67.71882986720217
8.984,1.0,67.57815023510796
8.992,1.0,67.43736643052848
9.0,1.0,67.29647845063887
9.008,0.9999999999999999,67.15548629334012
9.016,1.0000000000000002,67.01438995726176
9.024000000000001,0.9999999999999999,66.8731894417645
9.032,0.9999999999999998,66.73188474694287
9.04,0.9999999999999999,66.59047587362768
9.048,1.0,66.44896282338877
9.056000000000001,1.0,66.30734559853761
9.064,1.0,66.1656242021298
9.072,0.9999999999999999,66.02379863796776
9.08,0.9999999999999999,65.88186891060319
9.088000000000001,1.0,65.73983502533991
9.096,1.0,65.59769698823625
9.104,1.0,65.4554548061076
9.112,1.0,65.31310848652903
9.120000000000001,0.9999999999999999,65.17065803783802
9.128,1.0,65.02810346913687
9.136,0.9999999999999999,64.88544479029525
9.144,1.0,64.74268201195277
9.152000000000001,1.0,64.59981514552166
9.16,0.9999999999999999,64.4568442031892
9.168,1.0,64.3137691979203
9.176,1.0,64.17059014345996
9.184000000000001,1.0,64.02730705433598
9.192,0.9999999999999999,63.8839199458614
9.2,1.0,63.74042883413694
9.208,1.0,63.59683373605363
9.216000000000001,0.9999999999999999,63.4531346692953
9.224,0.9999999999999999,63.309331652341136
9.232,0.9999999999999999,63.16542470446803
9.24,1.0,63.021413845753194
9.248000000000001,0.9999999999999999,62.87729909707669
9.256,1.0,62.73308048012387
9.264,1.0,62.58875801738776
9.272,1.0,62.44433173217163
9.280000000000001,1.0,62.299801648591504
9.288,1.0,62.15516779157856
9.296,1.0,62.01043018688155
9.304,0.9999999999999999,61.86558886106922
9.312000000000001,1.0,61.72064384153294
9.32,0.9999999999999999,61.57559515648897
9.328,1.0,61.43044283498088
9.336,0.9999999999999999,61.285186906881975
9.344,1.0,61.13982740289787
9.352,0.9999999999999999,60.99436435456863
9.36,0.9999999999999999,60.84879779427142
9.368,1.0,60.70312775522263
9.376,0.9999999999999999,60.55735427148055
9.384,1.0,60.41147737794745
9.392,1.0,60.2654971103722
9.4,1.0,60.1194135053524
9.408,1.0,59.97322660033693
9.416,1.0,59.82693643362808
9.424,1.0,59.680543044384116
9.432,0.9999999999999999,59.53404647262136
9.44,1.0,59.387446759216736
9.448,1.0,59.240743945909806
9.456,1.0,59.09393807530538
9.464,1.0,58.947029190875476
9.472,1.0,58.80001733696189
9.48,1.0,58.65290255877818
9.488,1.0,58.505684902412234
9.496,0.9999999999999999,58.35836441482817
9.504,0.9999999999999998,58.21094114386888
9.512,1.0,58.063415138258044
9.52,0.9999999999999999,57.91578644760249
9.528,0.9999999999999999,57.76805512239427
9.536,1.0,57.620221214013
9.544,0.9999999999999998,57.472284774727854
9.552,1.0,57.324245857699964
9.56,1.0,57.17610451698439
9.568,1.0,57.02786080753239
9.576,1.0,56.879514785193436
9.584,1.0,56.73106650671759
9.592,1.0,56.582516029757244
9.6,1.0,56.43386341286961
9.608,1.0,56.285108715518575
9.616,0.9999999999999999,56.136251998076865
9.624,1.0,55.98729332182804
9.632,1.0,55.838232748968736
9.64,1.0,55.68907034261046
9.648,1.0,55.53980616678187
9.656,0.9999999999999999,55.39044028643056
9.664,1.0,55.24097276742534
9.672,1.0,55.09140367655788
9.68,1.0,54.941733081545095
9.688,1.0000000000000002,54.79196105103074
9.696,1.0,54.64208765458769
9.704,1.0,54.492112962719595
9.712,1.0,54.34203704686306
9.72,1.0,54.191859979389335
9.728,0.9999999999999999,54.041581833606436
9.736,1.0,53.89120268376083
9.744,1.0,53.74072260503953
9.752,1.0,53.59014167357165
9.76,1.0,53.439459966430604
9.768,1.0,53.28867756163566
9.776,0.9999999999999998,53.13779453815389
9.784,1.0,52.986810975901925
9.792,0.9999999999999999,52.83572695574781
9.8,0.9999999999999999,52.68454255951262
9.808,0.9999999999999999,52.533257869972445
9.816,0.9999999999999999,52.38187297085987
9.824,0.9999999999999999,52.23038794686596
9.832,1.0,52.07880288364174
9.84,0.9999999999999999,51.927117867800106
9.847999999999999,1.0,51.77533298691727
9.856,0.9999999999999999,51.623448329534575
9.864,0.9999999999999999,51.47146398516016
9.872,1.0,51.31938004427054
9.879999999999999,1.0,51.16719659831214
9.888,0.9999999999999999,51.014913739702955
9.896,1.0,50.86253156183425
9.904,0.9999999999999999,50.710050159071955
9.911999999999999,1.0,50.55746962675824
9.92,0.9999999999999999,50.404790061213056
9.928,0.9999999999999999,50.25201155973574
9.936,0.9999999999999999,50.09913422060639
9.943999999999999,1.0,49.946158143087345
9.952,0.9999999999999999,49.793083427424655
9.96,1.0,49.63991017484964
9.968,1.0,49.486638487580144
9.975999999999999,1.0,49.333268468822006
9.984,0.9999999999999999,49.17980022277041
9.992,1.0,49.02623385461132
10.0,0.99999992254805,48.872569470522876
10.008,0.999999827166277,48.71880717767648
10.016,0.9999997308268159,48.564947084238305
10.024000000000001,0.9999996335500274,48.4109892993706
