freq,mag,phase
6.0,0.9999964985929417,177.02878520907223
6.008,0.9999964674148685,176.7059661374981
6.016,0.9999964242041997,176.38307325565867
6.024,0.9999963692890561,176.06010040573688
6.032,0.9999963029928871,175.73704141931535
6.04,0.9999962256345218,175.41389011716225
6.048,0.9999961375282214,175.09064030901615
6.056,0.9999960389837307,174.76728579336884
6.064,0.9999959303063288,174.44382035724786
6.072,0.9999958117968817,174.12023777599683
6.08,0.9999956837518889,173.79653181305508
6.088,0.9999955464635361,173.47269621973606
6.096,0.9999954002197425,173.14872473500435
6.104,0.9999952453042101,172.82461108525158
6.112,0.9999950819964701,172.50034898407148
6.12,0.9999949105719337,172.17593213203372
6.128,0.9999947313019371,171.85135421645663
6.136,0.9999945444537863,171.52660891117887
6.144,0.9999943502908066,171.2016898763304
6.152,0.9999941490723883,170.87659075810228
6.16,0.999993941054027,170.55130518851567
6.168,0.9999937264873728,170.22582678518984
6.176,0.9999935056202749,169.90014915110956
6.184,0.9999932786968201,169.5742658743914
6.192,0.9999930459573833,169.24817052804954
6.2,0.9999928076386633,168.92185666976073
6.208,0.9999925639737295,168.5953178416286
6.216,0.9999923151920634,168.26854756994706
6.224,0.9999920615195974,167.94153936496375
6.232,0.9999918031787577,167.61428672064207
6.24,0.9999915403885044,167.28678311442334
6.248,0.9999912733643722,166.95902200698814
6.256,0.9999910023185062,166.6309968420172
6.264,0.9999907274597098,166.30270104595226
6.272,0.9999904489934718,165.9741280277558
6.28,0.9999901671220125,165.6452711786714
6.288,0.9999898820443207,165.316123871983
6.296,0.9999895939561867,164.98667946277448
6.304,0.9999893030502464,164.65693128768862
6.312,0.9999890095160089,164.32687266468648
6.32,0.9999887135398995,163.99649689280605
6.328,0.9999884153052951,163.66579725192142
6.336,0.9999881149925534,163.33476700250145
6.344,0.9999878127790531,163.00339938536914
6.352,0.9999875088392294,162.67168762146045
6.36,0.9999872033446019,162.33962491158377
6.368,0.9999868964638142,162.00720443617936
6.376,0.9999865883626632,161.67441935507935
6.384,0.9999862792041341,161.3412628072677
6.392,0.9999859691484322,161.00772791064085
6.4,0.9999856583530138,160.6738077617688
6.408,0.9999853469726183,160.33949543565666
6.416,0.9999850351593005,160.00478398550686
6.424,0.9999847230624609,159.66966644248188
6.432,0.9999844108288746,159.33413581546793
6.44,0.9999840986027233,158.99818509083914
6.448,0.9999837865256241,158.66180723222294
6.456,0.9999834747366588,158.32499518026617
6.464,0.9999831633724029,157.98774185240222
6.472,0.9999828525669539,157.65004014261928
6.48,0.9999825424519602,157.3118829212299
6.4879999999999995,0.9999822331566475,156.97326303464146
6.496,0.9999819248078491,156.6341733051284
6.504,0.9999816175300278,156.2946065306055
6.5120000000000005,0.9999813114453092,155.95455548440276
6.52,0.9999810066735022,155.6140129150422
6.5280000000000005,0.9999807033321302,155.2729715460156
6.536,0.9999804015364513,154.93142407556496
6.5440000000000005,0.9999801013994885,154.5893631764638
6.552,0.9999798030320516,154.24678149580146
6.5600000000000005,0.9999795065427641,153.9036716547685
6.568,0.9999792120380856,153.56002624844513
6.5760000000000005,0.9999789196223365,153.215837845591
6.584,0.9999786293977225,152.87109898843852
6.592,0.9999783414643565,152.52580219248725
6.6,0.999978055920282,152.17993994630217
6.608,0.9999777728614976,151.83350471131408
6.616,0.9999774923819762,151.48648892162262
6.624,0.9999772145736893,151.13888498380277
6.632,0.9999769395266285,150.79068527671396
6.64,0.9999766673288257,150.44188215131283
6.648,0.9999763980663761,150.09246793046887
6.656,0.999976131823457,149.7424349087838
6.664,0.9999758686823496,149.39177535241453
6.672,0.9999756087234591,149.0404814988998
6.68,0.9999753520253337,148.6885455569907
6.688,0.9999750986646857,148.33595970648528
6.696,0.9999748487164086,147.9827160980673
6.704,0.9999746022535995,147.62880685314934
6.712,0.9999743593475728,147.2742240637204
6.72,0.9999741200678848,146.91895979219805
6.728,0.9999738844823458,146.56300607128577
6.736,0.9999736526570429,146.20635490383455
6.744,0.9999734246563542,145.84899826271055
6.752,0.9999732005429678,145.4909280906674
6.76,0.9999729803778977,145.1321363002243
6.768,0.9999727642205026,144.77261477354983
6.776,0.9999725521284998,144.41235536235163
6.784,0.9999723441579826,144.05134988777206
6.792,0.9999721403634373,143.68959014029028
6.8,0.9999719407977564,143.32706787963076
6.808,0.9999717455122566,142.96377483467856
6.816,0.9999715545566917,142.59970270340125
6.824,0.9999713679792698,142.23484315277832
6.832,0.9999711858266654,141.8691878187377
6.84,0.999971008144036,141.50272830609984
6.848,0.9999708349750349,141.13545618852973
6.856,0.9999706663618255,140.76736300849686
6.864,0.9999705023450951,140.39844027724334
6.872,0.9999703429640682,140.0286794747609
6.88,0.9999701882565191,139.6580720497762
6.888,0.9999700382587857,139.2866094197456
6.896,0.9999698930057809,138.91428297085892
6.904,0.9999697525310071,138.54108405805286
6.912,0.9999696168665665,138.16700400503436
6.92,0.9999694860431739,137.79203410431384
6.928,0.9999693600901677,137.4161656172492
6.936,0.9999692390355224,137.03938977410002
6.944,0.9999691229058598,136.6616977740933
6.952,0.999969011726459,136.2830807855
6.96,0.9999689055212682,135.90352994572345
6.968,0.999968804312915,135.52303636139976
6.976,0.999968708122717,135.14159110851006
6.984,0.9999686169706923,134.75918523250587
6.992,0.9999685308755681,134.3758097484469
7.0,0.9999684498547913,133.99145564115216
7.008,0.9999683739245399,133.60611386536505
7.016,0.9999683030997284,133.2197753459319
7.024,0.9999682373940206,132.83243097799496
7.032,0.9999681768198366,132.4440716272003
7.04,0.9999681213883622,132.05468812992044
7.048,0.999968071109558,131.66427129349245
7.056,0.9999680259921654,131.27281189647204
7.064,0.9999679860437185,130.88030068890373
7.072,0.9999679512705488,130.48672839260763
7.08,0.9999679216777949,130.09208570148314
7.088,0.9999678972694093,129.69636328183032
7.096,0.9999678780481663,129.29955177268883
7.104,0.9999678640156695,128.9016417861953
7.112,0.9999678551723573,128.50262390795947
7.12,0.999967851517512,128.1024886974594
7.128,0.9999678530492645,127.70122668845606
7.136,0.9999678597646044,127.29882838942858
7.144,0.9999678716593812,126.89528428402942
7.152,0.9999678887283143,126.49058483156077
7.16,0.9999679109649994,126.0847204674726
7.168,0.9999679383619111,125.67768160388228
7.176,0.9999679709104136,125.26945863011726
7.184,0.9999680086007607,124.86004191327984
7.192,0.9999680514221068,124.44942179883627
7.2,0.9999680993625082,124.03758861122935
7.208,0.9999681524089311,123.6245326545155
7.216,0.9999682105472543,123.21024421302714
7.224,0.9999682737622765,122.79471355206023
7.232,0.9999683420377194,122.37793091858848
7.24,0.9999684153562343,121.95988654200349
7.248,0.9999684936994042,121.54057063488264
7.256,0.9999685770477507,121.11997339378446
7.264,0.9999686653807368,120.69808500007245
7.272,0.9999687586767729,120.2748956207676
7.28,0.9999688569132187,119.85039540943065
7.288,0.9999689600663895,119.42457450707415
7.296,0.9999690681115583,118.99742304310523
7.304,0.999969181022962,118.56893113629974
7.312,0.9999692987738031,118.13908889580792
7.32,0.9999694213362543,117.70788642219274
7.328,0.9999695486814627,117.2753138085012
7.336,0.9999696807795523,116.84136114136923
7.344,0.9999698175996306,116.406018502161
7.352,0.9999699591097853,115.96927596814275
7.36,0.9999701052770962,115.53112361369256
7.368,0.9999702560676339,115.09155151154597
7.376,0.9999704114464636,114.65054973407845
7.384,0.9999705713776466,114.20810835462522
7.392,0.9999707358242497,113.7642174488389
7.4,0.999970904748342,113.31886709608628
7.4079999999999995,0.9999710781110023,112.87204738088388
7.416,0.9999712558723194,112.42374839437342
7.4239999999999995,0.999971437991398,111.97396023583863
7.432,0.9999716244263612,111.52267301426174
7.4399999999999995,0.999971815134352,111.06987684992359
7.448,0.9999720100715394,110.61556187604438
7.4559999999999995,0.9999722091931199,110.15971824046906
7.464,0.9999724124533215,109.70233610739515
7.4719999999999995,0.9999726198054073,109.24340565914595
7.48,0.9999728312016783,108.78291709798748
7.4879999999999995,0.9999730465934772,108.32086064799243
7.496,0.9999732659311934,107.85722655694867
7.504,0.9999734891642638,107.39200509831602
7.5120000000000005,0.9999737162411788,106.9251865732289
7.52,0.9999739471094858,106.45676131254835
7.5280000000000005,0.999974181715793,105.98671967896117
7.536,0.9999744200057729,105.51505206912944
7.5440000000000005,0.9999746619241673,105.04174891588829
7.552,0.9999749074147903,104.56680069049534
7.5600000000000005,0.999975156420535,104.09019790492918
7.568,0.9999754088833763,103.61193111424076
7.5760000000000005,0.9999756647443758,103.13199091895486
7.584,0.9999759239436876,102.65036796752523
7.5920000000000005,0.9999761864205623,102.16705295884105
7.6,0.9999764521133536,101.68203664478789
7.6080000000000005,0.9999767209595215,101.19530983286056
7.616,0.999976992895642,100.7068633888318
7.6240000000000006,0.9999772678574084,100.21668823947341
7.632,0.9999775457796408,99.72477537533388
7.640000000000001,0.9999778265962912,99.23111585356939
7.648,0.9999781102404492,98.73570080083175
7.656000000000001,0.9999783966443525,98.23852141621039
7.664,0.9999786857393889,97.73956897423197
7.672,0.9999789774561085,97.23883482791439
7.68,0.9999792717242283,96.73631041187848
7.688,0.9999795684726425,96.23198724551555
7.696,0.9999798676294289,95.72585693621157
7.704,0.9999801691218604,95.21791118262823
7.712,0.9999804728764107,94.70814177804063
7.72,0.9999807788187669,94.19654061373183
7.728,0.9999810868738374,93.68309968244404
7.736,0.9999813969657635,93.16781108188657
7.744,0.9999817090179292,92.65066701830024
7.752,0.9999820229529718,92.13165981007826
7.76,0.9999823386927953,91.61078189144322
7.768,0.9999826561585804,91.08802581617996
7.776,0.9999829752707986,90.56338426142413
7.784,0.9999832959492229,90.0368500315058
7.792,0.9999836181129431,89.50841606184801
7.8,0.9999839416803796,88.9780754229195
7.808,0.9999842665692966,88.44582132424136
7.816,0.9999845926968169,87.91164711844654
7.824,0.9999849199794392,87.37554630539209
7.832,0.9999852483330515,86.83751253632308
7.84,0.9999855776729502,86.29753961808723
7.848,0.9999859079138552,85.75562151739999
7.856,0.9999862389699279,85.2117523651583
7.864,0.9999865707547901,84.66592646080265
7.872,0.9999869031815422,84.11813827672621
7.88,0.999987236162783,83.56838246272943
7.888,0.9999875696106304,83.01665385051957
7.896,0.9999879034367398,82.46294745825323
7.904,0.9999882375523288,81.90725849512062
7.912,0.9999885718681958,81.34958236597039
7.92,0.9999889062947452,80.78991467597287
7.928,0.9999892407420097,80.2282512353205
7.936,0.9999895751196741,79.66458806396348
7.944,0.9999899093371003,79.0989213963788
7.952,0.9999902433033534,78.53124768637073
7.96,0.9999905769272257,77.96156361190071
7.968,0.9999909101172658,77.38986607994448
7.976,0.9999912427818052,76.81615223137429
7.984,0.999991574828986,76.24041944586362
7.992,0.9999919061667902,75.66266534681237
8.0,0.9999922367030699,75.08288780628958
8.008,0.9999925663455771,74.50108494999137
8.016,0.9999928950019944,73.91725516221072
8.024000000000001,0.9999932225799678,73.33139709081782
8.032,0.9999935489871393,72.74350965224582
8.04,0.9999938741311786,72.15359203648032
8.048,0.9999941979198192,71.56164371204954
8.056000000000001,0.9999945202608915,70.9676644310118
8.064,0.9999948410623594,70.3716542339359
8.072,0.9999951602323554,69.773613454872
8.08,0.999995477679218,69.17354272630955
8.088000000000001,0.9999957933115302,68.57144298411829
8.096,0.9999961070381554,67.96731547246797
8.104,0.9999964187682789,67.36116174872338
8.112,0.9999967284114453,66.75298368831136
8.120000000000001,0.9999970358776004,66.14278348955511
8.128,0.9999973410771312,65.53056367847108
8.136,0.999997643920907,64.9163271135248
8.144,0.999997944320323,64.3000769903418
8.152000000000001,0.9999982421873412,63.68181684636849
8.16,0.9999985374345353,63.06155056547825
8.168,0.999998829975133,62.43928238251835
8.176,0.9999991197230611,61.81501688779349
8.184000000000001,0.9999994065929907,61.18875903148121
8.192,0.9999996905003812,60.56051412797287
8.2,0.9999999713615276,59.930287860136715
8.208,1.0,59.29808628349788
8.216000000000001,0.9999999999999999,58.66391583033013
8.224,1.0,58.027783313653636
8.232,1.0,57.389695931133915
8.24,0.9999999999999999,56.749661268877574
8.248000000000001,0.9999999999999998,56.1076873051189
8.256,1.0,55.46378241379138
8.264,1.0,54.81795536797955
8.272,1.0,54.17021534324622
8.280000000000001,1.0,53.52057192082923
8.288,0.9999999999999999,52.86903509070178
8.296,0.9999999999999999,52.21561525449147
8.304,1.0,51.56032322825319
8.312,0.9999999999999999,50.90317024509032
8.32,0.9999999999999999,50.244167957616895
8.328,1.0,49.583328440259365
8.336,1.0,48.92066419138787
8.344,1.0000000000000002,48.256188135276766
8.352,1.0,47.58991362388417
8.36,1.0,46.92185443845026
8.368,1.0,46.25202479090465
8.376,0.9999999999999999,45.58043932508223
8.384,1.0,44.90711311773823
8.392,1.0,44.23206167936209
8.4,0.9999999999999999,43.555300954780904
8.408,1.0,42.87684732355257
8.416,1.0,42.1967176001393
8.424,1.0,41.51492903386204
8.432,0.9999999999999999,40.83149930862687
8.44,1.0,40.14644654242393
8.448,1.0,39.459789286590606
8.456,1.0,38.77154652483964
8.464,0.9999999999999999,38.08173767204417
8.472,1.0,37.39038257278103
8.48,0.9999999999999999,36.69750149962451
8.488,1.0,36.00311515119259
8.496,0.9999999999999999,35.30724464993754
8.504,0.9999999999999999,34.60991153968428
8.512,1.0,33.9111377829087
8.52,1.0,33.21094575775886
8.528,0.9999999999999999,32.50935825481316
8.536,0.9999999999999999,31.80639847357802
8.544,0.9999999999999999,31.10209001871973
8.552,0.9999999999999999,30.39645689603424
8.56,0.9999999999999999,29.689523508149225
8.568,1.0,28.981314649963366
8.576,0.9999999999999999,28.27185550381759
8.584,1.0,27.561171634403802
8.592,1.0,26.849288983406527
8.6,1.0,26.136233863883536
8.608,1.0,25.422032954381557
8.616,1.0,24.70671329279379
8.624,1.0,23.990302269955922
8.632,1.0,23.272827622988128
8.64,1.0,22.55431742838029
8.648,0.9999999999999999,21.834800094828513
8.656,0.9999999999999999,21.114304355821137
8.664,1.0,20.392859261982657
8.672,0.9999999999999999,19.670494173174543
8.68,0.9999999999999999,18.947238750362054
8.688,0.9999999999999999,18.22312294724662
8.696,0.9999999999999999,17.49817700167361
8.704,1.0,16.7724314268157
8.712,0.9999999999999998,16.045917002142154
8.72,1.0,15.318664764174995
8.728,1.0000000000000002,14.590705997043077
8.736,0.9999999999999999,13.862072222835321
8.744,1.0,13.132795191765048
8.752,0.9999999999999999,12.40290687214709
8.76,1.0,11.672439440200169
8.768,0.9999999999999999,10.941425269676774
8.776,1.0,10.209896921333566
8.784,1.0,9.477887132245097
8.792,1.0,8.745428804974209
8.8,0.9999999999999998,8.012554996602452
8.808,0.9999999999999999,7.279298907634409
8.815999999999999,1.0000000000000002,6.545693870779633
8.824,0.9999999999999999,5.811773339625492
8.832,1.0,5.077570877208201
8.84,1.0,4.343120144491064
8.847999999999999,1.0,3.6084548887600465
8.856,1.0,2.873608931947009
8.864,1.0,2.1386161588897328
8.872,1.0,1.4035105055379737
8.879999999999999,1.0,0.6683259471161378
8.888,0.9999999999999999,-0.06690351374670933
8.896,1.0,-0.8021438589100865
8.904,0.9999999999999999,-1.5373610666291098
8.911999999999999,0.9999999999999999,-2.2725211234644793
8.92,0.9999999999999999,-3.007590036184664
8.928,1.0,-3.7425338436507345
8.936,1.0,-4.477318628674473
8.943999999999999,0.9999999999999999,-5.211910529838975
8.952,0.9999999999999999,-5.9462757532711015
8.96,1.0,-6.680380584356542
8.968,1.0,-7.414191399388217
8.975999999999999,1.0000000000000002,-8.147674677137715
8.984,1.0,-8.880797010339474
8.992,0.9999999999999999,-9.613525117078849
9.0,0.9999999999999999,-10.34582585207546
9.008,1.0,-11.077666217851927
9.016,0.9999999999999999,-11.809013375778456
9.024000000000001,1.0,-12.539834656984977
9.032,1.0,-13.270097573133217
9.04,1.0,-13.999769827039195
9.048,0.9999999999999999,-14.728819323137875
9.056000000000001,0.9999999999999999,-15.457214177782358
9.064,0.9999999999999999,-16.184922729370797
9.072,1.0,-16.911913548292862
9.08,1.0,-17.638155446688156
9.088000000000001,0.9999999999999999,-18.363617488010235
9.096,1.0,-19.08826899639043
9.104,1.0,-19.812079565794427
9.112,1.0,-20.53501906896519
9.120000000000001,1.0,-21.257057666147105
9.128,1.0,-21.978165813586525
9.136,1.0,-22.69831427180342
9.144,1.0,-23.417474113628273
9.152000000000001,1.0,-24.13561673200095
9.16,1.0,-24.85271384752788
9.168,1.0,-25.5687375157932
9.176,0.9999999999999999,-26.28366013441986
9.184000000000001,0.9999999999999999,-26.997454449878312
9.192,1.0,-27.7100935640406
9.2,1.0,-28.421550940476838
9.208,1.0,-29.13180041049133
9.216000000000001,1.0,-29.840816178897366
9.224,1.0,-30.548572829529643
9.232,1.0,-31.255045330492763
9.24,0.9999999999999999,-31.960209039144328
9.248000000000001,1.0,-32.66403970681283
9.256,1.0,-33.36651348325057
9.264,1.0,-34.067606920821525
9.272,0.9999999999999999,-34.76729697842343
9.280000000000001,1.0,-35.46556102514601
9.288,0.9999999999999999,-36.16237684366633
9.296,1.0,-36.8577226333827
9.304,1.0,-37.551577013286966
9.312000000000001,1.0,-38.243919024579085
9.32,1.0,-38.93472813302498
9.328,1.0,-39.62398423106094
9.336,1.0,-40.31166763964526
9.344,1.0,-40.99775910986111
9.352,0.9999999999999999,-41.68223982427497
9.36,0.9999999311319269,-42.36509139805006
9.368,0.9999998338548537,-43.04629587982288
9.376,0.999999739208198,-43.72583575234175
9.384,0.9999996472433524,-44.403693932875385
9.392,0.9999995580096699,-45.0798537733917
9.4,0.9999994715544558,-45.75429906051441
9.408,0.9999993879229678,-46.427014015257996
9.416,0.9999993071584122,-47.09798329254944
9.424,0.999999229301946,-47.767191980537135
9.432,0.9999991543926786,-48.4346255996956
9.44,0.9999990824676748,-49.10027010172682
9.448,0.9999990135619616,-49.76411186826719
9.456,0.9999989477085334,-50.42613770940053
9.464,0.9999988849383596,-51.086334861986906
9.472,0.9999988252803974,-51.744690987807715
9.48,0.9999987687615993,-52.401194171536666
9.488,0.9999987154069279,-53.05583291853753
9.496,0.9999986652393671,-53.70859615249833
9.504,0.9999986182799397,-54.359473212902714
9.512,0.9999985745477217,-55.008453852348694
9.52,0.9999985340598602,-55.65552823371495
9.528,0.999998496831591,-56.300686927185595
9.536,0.99999846287626,-56.94392090713304
9.544,0.9999984322053405,-57.5852215488701
9.552,0.9999984048284573,-58.22458062527118
9.56,0.999998380753408,-58.86199030327311
9.568,0.999998359986186,-59.49744314025616
9.576,0.999998342531005,-60.13093208031504
9.584,0.9999983283903231,-60.76245045042081
9.592,0.9999983175648701,-61.39199195648338
9.6,0.9999983100536703,-62.01955067931527
9.608,0.9999983058540743,-62.645121070506185
9.616,0.9999983049617817,-63.26869794820943
9.624,0.9999983073708718,-63.890276492848926
9.632,0.999998313073832,-64.5098522427482
9.64,0.999998322061587,-65.12742108968993
9.648,0.9999983343235266,-65.74297927440702
9.656,0.9999983498475382,-66.35652338201383
9.664,0.9999983686200347,-66.96805033737856
9.672,0.9999983906259875,-67.57755740044473
9.68,0.999998415848955,-68.1850421615031
9.688,0.9999984442711154,-68.79050253642161
9.696,0.9999984758732972,-69.39393676183424
9.704,0.9999985106350114,-69.99534339029684
9.712,0.9999985485344828,-70.59472128540979
9.72,0.9999985895486816,-71.19206961691611
9.728,0.9999986336533554,-71.78738785577431
9.736,0.999998680823062,-72.38067576921426
9.744,0.9999987310312001,-72.97193341577555
9.752,0.9999987842500412,-73.56116114033618
9.76,0.9999988404507637,-74.14835956913102
9.768,0.9999988996034812,-74.73352960476723
9.776,0.9999989616772774,-75.31667242123643
9.784,0.9999990266402367,-75.89778945893046
9.792,0.9999990944594747,-76.47688241965992
9.8,0.999999165101171,-77.05395326168262
9.808,0.9999992385305996,-77.6290041947407
