freq,mag,phase
6.0,0.9999921554306039,67.63552220348186
6.008,0.9999924433459766,67.4714455375803
6.016,0.9999927257171338,67.30731868141744
6.024,0.9999930026166758,67.14314161778307
6.032,0.999993274116487,66.97891432973525
6.04,0.999993540287742,66.81463680060095
6.048,0.9999938012009092,66.65030901397664
6.056,0.9999940569257569,66.4859309537287
6.064,0.9999943075313573,66.32150260399405
6.072,0.9999945530860925,66.15702394918064
6.08,0.9999947936576578,65.99249497396801
6.088,0.9999950293130678,65.82791566330776
6.096,0.9999952601186614,65.66328600242413
6.104,0.9999954861401046,65.49860597681452
6.112,0.9999957074423984,65.33387557224998
6.12,0.9999959240898811,65.16909477477576
6.128,0.9999961361462344,65.0042635707118
6.136,0.9999963436744871,64.8393819466533
6.144,0.9999965467370212,64.67444988947116
6.152,0.9999967453955761,64.50946738631255
6.16,0.999996939711252,64.34443442460137
6.168,0.9999971297445168,64.17935099203879
6.176,0.9999973155552094,64.01421707660376
6.184,0.9999974972025452,63.84903266655348
6.192,0.9999976747451196,63.683797750423935
6.2,0.9999978482409138,63.518512317030385
6.208,0.9999980177472989,63.35317635546783
6.216,0.9999981833210406,63.18778985511155
6.224,0.9999983450183041,63.022352805617565
6.232,0.9999985028946577,62.856865196923096
6.24,0.9999986570050791,62.69132701924716
6.248,0.9999988074039582,62.52573826309095
6.256,0.9999989541451026,62.360098919238325
6.264,0.9999990972817422,62.19440897875634
6.272,0.999999236866533,62.02866843299571
6.28,0.9999993729515619,61.862877273591245
6.288,0.9999995055883525,61.697035492462405
6.296,0.9999996348278666,61.53114308181364
6.304,0.9999997607205121,61.36520003413502
6.312,0.9999998833161445,61.19920634220257
6.32,1.0,61.033161999078786
6.328,0.9999999999999999,60.8670669981131
6.336,1.0,60.70092133294234
6.344,1.0,60.534724997491146
6.352,1.0,60.368477985972504
6.36,1.0,60.20218029288814
6.368,0.9999999999999999,60.0358319130289
6.376,1.0,59.86943284147541
6.384,1.0,59.70298307359828
6.392,0.9999999999999999,59.53648260505868
6.4,1.0,59.36993143180879
6.408,1.0,59.20332955009215
6.416,1.0,59.036676956444154
6.424,0.9999999999999999,58.86997364769252
6.432,1.0,58.70321962095756
6.44,0.9999999999999998,58.536414873652845
6.448,0.9999999999999999,58.369559403485425
6.456,1.0,58.202653208456326
6.464,0.9999999999999999,58.03569628686102
6.472,1.0,57.868688637289715
6.48,1.0,57.701630258627944
6.4879999999999995,1.0,57.53452115005681
6.496,1.0,57.36736131105343
6.504,1.0,57.200150741391504
6.5120000000000005,0.9999999999999999,57.032889441141414
6.52,1.0,56.865577410670994
6.5280000000000005,1.0,56.698214650645525
6.536,1.0,56.530801162028546
6.5440000000000005,1.0,56.363336946081866
6.552,1.0,56.19582200436624
6.5600000000000005,1.0,56.02825633874157
6.568,1.0,55.860639951367446
6.5760000000000005,0.9999999999999999,55.69297284470335
6.584,1.0,55.52525502150923
6.592,1.0,55.35748648484569
6.6,0.9999999999999999,55.18966723807449
6.608,1.0,55.02179728485888
6.616,1.0,54.853876629163985
6.624,1.0,54.685905275257106
6.632,1.0,54.51788322770815
6.64,1.0,54.34981049138997
6.648,1.0,54.181687071478706
6.656,0.9999999999999999,54.01351297345416
6.664,1.0,53.84528820310017
6.672,1.0,53.677012766504866
6.68,1.0,53.5086866700611
6.688,1.0,53.340309920466794
6.696,0.9999999999999999,53.171882524725234
6.704,1.0,53.0034044901454
6.712,0.9999999999999999,52.83487582434233
6.72,1.0,52.66629653523746
6.728,1.0,52.497666631058934
6.736,0.9999999999999999,52.328986120341916
6.744,1.0,52.16025501192891
6.752,1.0,51.99147331497012
6.76,1.0,51.822641038923756
6.768,1.0,51.65375819355627
6.776,0.9999999999999999,51.48482478894279
6.784,0.9999999999999999,51.3158408354673
6.792,1.0,51.14680634382304
6.8,1.0,50.977721325012794
6.808,0.9999999999999999,50.808585790349134
6.816,1.0000000000000002,50.639399751454725
6.824,0.9999999999999999,50.47016322026269
6.832,0.9999999999999999,50.30087620901681
6.84,0.9999999999999999,50.13153873027184
6.848,1.0,49.96215079689383
6.856,0.9999999999999999,49.79271242206031
6.864,1.0,49.623223619260685
6.872,1.0,49.453684402296396
6.88,0.9999999999999999,49.28409478528126
6.888,1.0,49.11445478264173
6.896,1.0,48.9447644091171
6.904,1.0,48.77502367975985
6.912,1.0,48.60523260993583
6.92,1.0,48.43539121532455
6.928,1.0,48.265499511919415
6.936,1.0000000000000002,48.09555751602801
6.944,1.0,47.92556524427228
6.952,0.9999999999999999,47.755522713588746
6.96,1.0,47.58542994122894
6.968,1.0,47.415286944759345
6.976,0.9999999999999998,47.24509374206184
6.984,1.0,47.074850351333886
6.992,0.9999999999999998,46.904556791088666
7.0,0.9999999999999998,46.734213080155406
7.008,1.0,46.56381923767952
7.016,1.0,46.393375283122836
7.024,0.9999999999999999,46.22288123626386
7.032,0.9999999999999999,46.052337117197915
7.04,0.9999999999999998,45.8817429463374
7.048,1.0,45.71109874441189
7.056,1.0,45.540404532468486
7.064,1.0,45.36966033187182
7.072,1.0,45.19886616430449
7.08,1.0,45.02802205176698
7.088,1.0,44.85712801657797
7.096,1.0,44.68618408137456
7.104,1.0,44.51519026911239
7.112,1.0,44.34414660306573
7.12,1.0,44.173053106827844
7.128,0.9999999999999998,44.001909804310955
7.136,0.9999999999999999,43.83071671974654
7.144,1.0,43.659473877685414
7.152,1.0,43.48818130299788
7.16,0.9999999999999999,43.316839020873985
7.168,0.9999999999999999,43.14544705682351
7.176,1.0,42.974005436676194
7.184,1.0,42.80251418658191
7.192,1.0000000000000002,42.63097333301074
7.2,0.9999999999999999,42.45938290275309
7.208,0.9999999999999999,42.28774292291993
7.216,0.9999999999999999,42.11605342094271
7.224,1.0,41.944314424573776
7.232,1.0,41.772525961886146
7.24,1.0,41.60068806127395
7.248,1.0,41.42880075145228
7.256,1.0,41.256864061457435
7.264,0.9999999999999998,41.08487802064699
7.272,1.0,40.91284265869993
7.28,0.9999999999999999,40.74075800561662
7.288,1.0,40.56862409171906
7.296,1.0,40.39644094765084
7.304,0.9999999999999999,40.2242086043773
7.312,0.9999999999999999,40.05192709318562
7.32,0.9999999999999999,39.87959644568477
7.328,1.0,39.70721669380574
7.336,0.9999999999999999,39.534787869801505
7.344,1.0,39.36231000624714
7.352,1.0,39.18978313603985
7.36,1.0,39.01720729239902
7.368,0.9999999999999999,38.84458250886629
7.376,1.0,38.67190881930561
7.384,1.0,38.49918625790325
7.392,1.0,38.326414859167855
7.4,1.0,38.15359465793049
7.4079999999999995,0.9999999999999999,37.98072568934467
7.416,0.9999999999999999,37.807807988886324
7.4239999999999995,0.9999999999999999,37.63484159235401
7.432,1.0,37.4618265358686
7.4399999999999995,1.0,37.28876285587373
7.448,1.0,37.115650589135356
7.4559999999999995,1.0,36.94248977274218
7.464,1.0,36.76928044410528
7.4719999999999995,1.0,36.596022640958445
7.48,1.0,36.42271640135787
7.4879999999999995,1.0,36.24936176368243
7.496,0.9999999999999999,36.07595876663337
7.504,0.9999999999999999,35.902507449234626
7.5120000000000005,1.0,35.72900785083245
7.52,0.9999999999999999,35.55546001109568
7.5280000000000005,0.9999999999999999,35.38186397001552
7.536,1.0,35.208219767905646
7.5440000000000005,0.9999999929046064,35.03452744540196
7.552,0.9999999555751661,34.86078704346289
7.5600000000000005,0.9999999183877984,34.68699860336893
7.568,0.9999998813491306,34.513162166722964
7.5760000000000005,0.9999998444657117,34.33927777544992
7.584,0.9999998077440128,34.16534547179699
7.5920000000000005,0.9999997711904285,33.99136529833323
7.6,0.999999734811281,33.81733729794986
7.6080000000000005,0.9999996986128167,33.643261513859855
7.616,0.9999996626012128,33.46913798959819
7.6240000000000006,0.9999996267825743,33.29496676902141
7.632,0.9999995911629384,33.12074789630792
7.640000000000001,0.9999995557482746,32.94648141595756
7.648,0.9999995205444854,32.77216737279178
7.656000000000001,0.9999994855574091,32.59780581195329
7.664,0.99999945079282,32.423396778906294
7.672,0.9999994162564297,32.24894031943599
7.68,0.9999993819538886,32.074436479648725
7.688,0.9999993478907883,31.899885305971857
7.696,0.9999993140726599,31.725286845153526
7.704,0.9999992805049772,31.55064114426263
7.712,0.9999992471931592,31.375948250688666
7.72,0.9999992141425678,31.20120821214157
7.728,0.9999991813585115,31.026421076651648
7.736,0.9999991488462463,30.85158689256934
7.744,0.9999991166109755,30.676705708565187
7.752,0.9999990846578515,30.501777573629585
7.76,0.9999990529919779,30.32680253707269
7.768,0.9999990216184086,30.15178064852422
7.776,0.9999989905421504,29.976711957933347
7.784,0.9999989597681633,29.801596515568466
7.792,0.9999989293013614,29.626434372017076
7.8,0.9999988991466143,29.45122557818558
7.808,0.999998869308748,29.275970185299077
7.816,0.9999988397925453,29.10066824490125
7.824,0.9999988106027476,28.925319808854102
7.832,0.999998781744055,28.74992492933781
7.84,0.9999987532211276,28.57448365885051
7.848,0.9999987250385861,28.3989960502081
7.856,0.9999986972010131,28.223462156544002
7.864,0.9999986697129541,28.047882031308994
7.872,0.9999986425789168,27.872255728270996
7.88,0.999998615803374,27.696583301514778
7.888,0.9999985893907631,27.52086480544182
7.896,0.9999985633454868,27.345100294770052
7.904,0.9999985376719149,27.16928982453358
7.912,0.9999985123743839,26.993433450082513
7.92,0.9999984874571984,26.81753122708266
7.928,0.9999984629246312,26.641583211515332
7.936,0.999998438780925,26.46558945967705
7.944,0.9999984150302922,26.289550028179296
7.952,0.9999983916769152,26.11346497394828
7.96,0.999998368724949,25.93733435422462
7.968,0.9999983461785188,25.761158226563122
7.976,0.9999983240417238,25.584936648832475
7.984,0.9999983023186354,25.40866967921496
7.992,0.9999982810132986,25.23235737620621
8.0,0.9999982601297334,25.055999798614877
8.008,0.9999982396719336,24.87959700556236
8.016,0.9999982196438689,24.703149056482435
8.024000000000001,0.9999982000494845,24.526656011121094
8.032,0.9999981808927019,24.350117929536168
8.04,0.9999981621774198,24.173534872096916
8.048,0.9999981439075136,23.99690689948377
8.056000000000001,0.9999981260868365,23.820234072688137
8.064,0.9999981087192202,23.64351645301196
8.072,0.9999980918084748,23.466754102067284
8.08,0.9999980753583886,23.289947081776088
8.088000000000001,0.9999980593727305,23.113095454369873
8.096,0.9999980438552483,22.936199282389413
8.104,0.9999980288096703,22.75925862868415
8.112,0.9999980142397049,22.582273556412062
8.120000000000001,0.9999980001490415,22.405244129039286
8.128,0.9999979865413505,22.22817041033973
8.136,0.9999979734202838,22.051052464394573
8.144,0.9999979607894748,21.873890355592014
8.152000000000001,0.9999979486525392,21.696684148626954
8.16,0.9999979370130744,21.519433908500506
8.168,0.9999979258746609,21.34213970051957
8.176,0.9999979152408611,21.164801590296513
8.184000000000001,0.9999979051152214,20.98741964374879
8.192,0.9999978955012702,20.80999392709853
8.2,0.9999978864025201,20.632524506872038
8.208,0.9999978778224671,20.4550114498994
8.216000000000001,0.9999978697645899,20.277454823314226
8.224,0.9999978622323523,20.099854694553084
8.232,0.9999978552292015,19.922211131355027
8.24,0.9999978487585687,19.744524201761223
8.248000000000001,0.9999978428238695,19.566793974114603
8.256,0.9999978374285038,19.38902051705934
8.264,0.9999978325758553,19.211203899540315
8.272,0.9999978282692936,19.033344190802744
8.280000000000001,0.9999978245121711,18.855441460391837
8.288,0.9999978213078262,18.67749577815214
8.296,0.9999978186595807,18.499507214227165
8.304,0.9999978165707419,18.32147583905884
8.312,0.9999978150446017,18.143401723387246
8.32,0.9999978140844363,17.965284938249805
8.328,0.9999978136935066,17.787125554981127
8.336,0.9999978138750582,17.608923645212233
8.344,0.9999978146323217,17.43067928087031
8.352,0.9999978159685111,17.252392534177957
8.36,0.9999978178868263,17.074063477652953
8.368,0.9999978203904507,16.89569218410744
8.376,0.9999978234825518,16.717278726647724
8.384,0.9999978271662826,16.538823178673457
8.392,0.9999978314447788,16.360325613877393
8.4,0.9999978363211607,16.18178610624457
8.408,0.9999978417985331,16.003204730052047
8.416,0.9999978478799835,15.824581559868113
8.424,0.9999978545685835,15.645916670552005
8.432,0.999997861867388,15.46721013725305
8.44,0.999997869779436,15.288462035410445
8.448,0.9999978783077484,15.109672440752352
8.456,0.9999978874553296,14.930841429295679
8.464,0.9999978972251669,14.751969077345162
8.472,0.9999979076202293,14.57305546149316
8.48,0.9999979186434692,14.394100658618655
8.488,0.9999979302978202,14.215104745887102
8.496,0.9999979425861986,14.03606780074944
8.504,0.9999979555115011,13.856989900941853
8.512,0.9999979690766068,13.677871124484833
8.52,0.9999979832843754,13.498711549682895
8.528,0.9999979981376469,13.319511255123679
8.536,0.9999980136392427,13.1402703196776
8.544,0.9999980297919642,12.960988822496937
8.552,0.9999980465985921,12.781666843015541
8.56,0.9999980640618876,12.602304460947867
8.568,0.99999808218459,12.422901756288658
8.576,0.9999981009694185,12.24345880931199
8.584,0.9999981204190707,12.063975700570952
8.592,0.9999981405362225,11.884452510896658
8.6,0.9999981613235273,11.704889321397943
8.608,0.9999981827836166,11.525286213460346
8.616,0.9999982049190986,11.345643268745787
8.624,0.999998227732559,11.165960569191594
8.632,0.9999982512265589,10.986238197010096
8.64,0.9999982754036366,10.806476234687684
8.648,0.9999983002663052,10.6266747649844
8.656,0.9999983258170528,10.44683387093295
8.664,0.999998352058344,10.266953635838318
8.672,0.9999983789926153,10.08703414327677
8.68,0.9999984066222795,9.907075477095432
8.688,0.9999984349497213,9.72707772141129
8.696,0.9999984639772997,9.547040960610781
8.704,0.9999984937073456,9.366965279348763
8.712,0.9999985241421618,9.186850762548108
8.72,0.9999985552840246,9.006697495398637
8.728,0.9999985871351792,8.826505563356733
8.736,0.9999986196978435,8.646275052144262
8.744,0.9999986529742044,8.466006047748154
8.752,0.99999868696642,8.285698636419337
8.76,0.9999987216766169,8.10535290467229
8.768,0.9999987571068905,7.924968939283992
8.776,0.9999987932593049,7.744546827293438
8.784,0.9999988301358923,7.564086656000587
8.792,0.9999988677386519,7.383588512965888
8.8,0.9999989060695499,7.20305248600919
8.808,0.9999989451305188,7.0224786632092595
8.815999999999999,0.9999989849234568,6.841867132902742
8.824,0.9999990254502282,6.661217983683463
8.832,0.9999990667126609,6.480531304401724
8.84,0.9999991087125478,6.299807184163411
8.847999999999999,0.9999991514516454,6.119045712329104
8.856,0.9999991949316733,5.938246978513358
8.864,0.9999992391543133,5.7574110725839445
8.872,0.99999928412121,5.576538084660967
8.879999999999999,0.9999993298339691,5.3956281051159385
8.888,0.9999993762941574,5.214681224571036
8.896,0.9999994235033018,5.03369753389834
8.904,0.9999994714628896,4.852677124218914
8.911999999999999,0.999999520174367,4.6716200869018705
8.92,0.9999995696391389,4.490526513563609
8.928,0.9999996198585679,4.309396496067029
8.936,0.9999996708339757,4.128230126520588
8.943999999999999,0.9999997225666388,3.947027497277363
8.952,0.9999997750577921,3.7657887009342437
8.96,0.9999998283086248,3.584513830331154
8.968,0.9999998823202826,3.403202978550069
8.975999999999999,0.9999999370938647,3.2218562389140692
8.984,0.9999999926304256,3.0404737049865096
8.992,0.9999999999999999,2.8590554705702207
9.0,0.9999999999999999,2.6776016297065124
9.008,1.0,2.4961122766741943
9.016,0.9999999999999999,2.3145875059887473
9.024000000000001,0.9999999999999999,2.1330274124014834
9.032,1.0,1.9514320908985463
9.04,1.0,1.7698016366999065
9.048,0.9999999999999999,1.5881361452585077
9.056000000000001,1.0,1.4064357122594153
9.064,0.9999999999999999,1.2247004336187992
9.072,1.0,1.0429304054828987
9.08,0.9999999999999999,0.8611257242271635
9.088000000000001,0.9999999999999999,0.679286486455377
9.096,1.0,0.49741278899860775
9.104,1.0,0.31550472891418435
9.112,1.0,0.13356240348478784
9.120000000000001,0.9999999999999998,-0.048414089782435464
9.128,1.0,-0.23042465315692193
9.136,0.9999999999999999,-0.4124691886857666
9.144,1.0,-0.5945475981946317
9.152000000000001,0.9999999999999999,-0.7766597832886467
9.16,0.9999999999999999,-0.9588056453534912
9.168,1.0,-1.1409850855564816
9.176,0.9999999999999999,-1.3231980048474967
9.184000000000001,1.0,-1.5054443039598995
9.192,0.9999999999999999,-1.6877238834116428
9.2,0.9999999999999998,-1.8700366435063673
9.208,0.9999999999999999,-2.052382484334346
9.216000000000001,1.0,-2.2347613057734335
9.224,1.0,-2.417173007490175
9.232,0.9999999999999999,-2.5996174889409507
9.24,0.9999999999999999,-2.7820946493729006
9.248000000000001,1.0,-2.9646043878249233
9.256,1.0,-3.1471466031287973
9.264,1.0,-3.3297211939103186
9.272,0.9999999999999999,-3.512328058590292
9.280000000000001,0.9999999999999999,-3.6949670953854996
9.288,1.0,-3.8776382023098743
9.296,0.9999999999999999,-4.060341277175644
9.304,1.0,-4.243076217594323
9.312000000000001,0.9999999999999999,-4.425842920977749
9.32,1.0,-4.608641284539208
9.328,0.9999999999999999,-4.791471205294646
9.336,1.0,-4.974332580063673
9.344,0.9999999999999999,-5.157225305470548
9.352,0.9999999999999999,-5.340149277945559
9.36,1.0,-5.5231043937258395
9.368,1.0,-5.706090548856773
9.376,0.9999999999999999,-5.889107639192819
9.384,0.9999999999999999,-6.0721555603989374
9.392,1.0,-6.255234207951435
9.4,1.0,-6.438343477139372
9.408,1.0,-6.621483263065424
9.416,1.0,-6.8046534606473195
9.424,0.9999999999999999,-6.9878539646186715
9.432,1.0,-7.171084669530466
9.44,1.0,-7.354345469751874
9.448,0.9999999999999999,-7.537636259471769
9.456,1.0,-7.72095693269951
9.464,1.0,-7.904307383266509
9.472,0.9999999999999999,-8.087687504827027
9.48,0.9999999999999999,-8.271097190859704
9.488,1.0,-8.454536334668397
9.496,1.0,-8.638004829383718
9.504,1.0,-8.821502567963858
9.512,0.9999999999999999,-9.005029443196191
9.52,1.0,-9.188585347698018
9.528,1.0,-9.372170173918231
9.536,0.9999999999999999,-9.555783814138127
9.544,1.0,-9.73942616047294
9.552,1.0,-9.923097104872756
9.56,0.9999999999999999,-10.106796539124055
9.568,1.0,-10.290524354850614
9.576,0.9999999999999999,-10.47428044351505
9.584,0.9999999999999998,-10.65806469641974
9.592,1.0,-10.841877004708369
9.6,1.0,-11.025717259366887
9.608,1.0,-11.209585351225009
9.616,0.9999999999999999,-11.393481170957227
9.624,1.0,-11.577404609084303
9.632,1.0,-11.761355555974275
9.64,1.0,-11.945333901843993
9.648,1.0,-12.129339536760106
9.656,1.0,-12.31337235064062
9.664,1.0,-12.497432233255854
9.672,1.0,-12.68151907423006
9.68,1.0,-12.865632763042376
9.688,1.0,-13.049773189028425
9.696,0.9999999999999999,-13.233940241381292
9.704,0.9999999999999999,-13.41813380915315
9.712,1.0,-13.602353781256213
9.72,1.0,-13.78660004646438
9.728,0.9999999999999999,-13.970872493414214
9.736,1.0,-14.155171010606578
9.744,1.0,-14.33949548640761
9.752,0.9999999999999999,-14.523845809050398
9.76,0.9999999999999999,-14.708221866635938
9.768,1.0,-14.89262354713481
9.776,1.0,-15.077050738388184
9.784,0.9999999999999999,-15.261503328109466
9.792,0.9999999999999999,-15.445981203885305
9.8,1.0,-15.630484253177292
9.808,0.9999999999999999,-15.815012363322944
9.816,0.9999999999999999,-15.999565421537383
9.824,1.0000000000000002,-16.184143314914397
9.832,1.0,-16.368745930428055
9.84,1.0,-16.553373154933833
9.847999999999999,0.9999999999999999,-16.738024875170165
9.856,0.9999999999999999,-16.922700977759774
9.864,0.9999999999999999,-17.107401349210882
9.872,1.0,-17.29212587591874
9.879999999999999,0.9999999999999999,-17.47687444416702
9.888,0.9999999999999999,-17.661646940129174
9.896,0.9999999999999998,-17.84644324986971
9.904,1.0,-18.031263259345646
9.911999999999999,1.0,-18.216106854408018
9.92,1.0,-18.40097392080317
9.928,1.0,-18.58586434417408
9.936,0.9999999999999999,-18.770778010061854
9.943999999999999,0.9999999999999999,-18.95571480390718
9.952,1.0,-19.140674611051708
9.96,0.9999999999999999,-19.325657316739328
9.968,0.9999999999999998,-19.510662806117725
9.975999999999999,1.0,-19.69569096423982
9.984,1.0,-19.88074167606513
9.992,1.0,-20.065814826461196
10.0,0.9999999999999999,-20.250910300204932
10.008,0.9999999999999998,-20.436027981984292
10.016,0.9999999999999999,-20.62116775639954
10.024000000000001,1.0,-20.80632950796464
