freq,mag,phase
6.0,0.9999871455588905,66.51006148026394
6.008,0.9999874181138148,66.33671020820583
6.016,0.9999876859540611,66.16327502543264
6.024,0.9999879491786909,65.98975584217571
6.032,0.9999882078850991,65.81615256905549
6.04,0.9999884621690261,65.64246511708299
6.048,0.9999887121245732,65.46869339766141
6.056,0.9999889578442174,65.29483732258772
6.064,0.9999891994188255,65.12089680405406
6.072,0.9999894369376686,64.94687175464938
6.08,0.9999896704884369,64.77276208736096
6.088,0.9999899001572531,64.59856771557591
6.096,0.9999901260286882,64.42428855308269
6.104,0.9999903481857749,64.24992451407275
6.112,0.9999905667100222,64.07547551314182
6.12,0.9999907816814299,63.900941465291744
6.128,0.9999909931785026,63.72632228593168
6.136,0.9999912012782644,63.551617890879854
6.144,0.999991406056273,63.37682819636494
6.152,0.9999916075866342,63.20195311902766
6.16,0.9999918059420152,63.02699257592217
6.168,0.9999920011936602,62.85194648451773
6.176,0.9999921934114031,62.67681476270005
6.184,0.9999923826636834,62.50159732877284
6.192,0.9999925690175591,62.32629410145942
6.2,0.9999927525387209,62.150904999904014
6.208,0.9999929332915067,61.975429943673404
6.216,0.9999931113389154,61.79986885275832
6.224,0.999993286742621,61.624221647574984
6.232,0.9999934595629869,61.44848824896655
6.24,0.9999936298590799,61.272668578204645
6.248,0.9999937976886828,61.09676255699075
6.256,0.9999939631083115,60.920770107457784
6.264,0.9999941261732247,60.74469115217145
6.272,0.999994286937441,60.56852561413184
6.28,0.9999944454537522,60.3922734167748
6.288,0.9999946017737354,60.21593448397341
6.296,0.9999947559477697,60.03950874003947
6.304,0.9999949080250463,59.86299610972493
6.312,0.9999950580535863,59.68639651822333
6.32,0.9999952060802512,59.50970989117134
6.328,0.9999953521507573,59.332936154650035
6.336,0.9999954963096913,59.15607523518652
6.344,0.999995638600521,58.979127059755236
6.352,0.9999957790656109,58.80209155577944
6.36,0.999995917746235,58.62496865113269
6.368,0.9999960546825905,58.44775827414017
6.376,0.9999961899138109,58.270460353580205
6.384,0.9999963234779805,58.09307481868562
6.392,0.999996455412146,57.915601599145226
6.4,0.9999965857523316,57.73804062510517
6.408,0.9999967145335514,57.56039182717034
6.416,0.9999968417898234,57.38265513640586
6.424,0.9999969675541818,57.204830484338416
6.432,0.9999970918586905,57.02691780295767
6.44,0.9999972147344577,56.84891702471769
6.448,0.9999973362116469,56.67082808253829
6.456,0.999997456319491,56.492650909806464
6.464,0.9999975750863059,56.31438544037775
6.472,0.9999976925395027,56.13603160857762
6.48,0.9999978087056008,55.95758934920289
6.4879999999999995,0.9999979236102415,55.77905859752302
6.496,0.9999980372782004,55.60043928928147
6.504,0.9999981497333997,55.421731360697294
6.5120000000000005,0.9999982609989222,55.24293474846616
6.52,0.9999983710970236,55.064049389761976
6.5280000000000005,0.999998480049145,54.88507522223807
6.536,0.9999985878759257,54.70601218402877
6.5440000000000005,0.9999986945972161,54.52686021375038
6.552,0.9999988002320902,54.34761925050297
6.5600000000000005,0.9999989047988578,54.16828923387127
6.568,0.9999990083150774,53.98887010392645
6.5760000000000005,0.9999991107975688,53.809361801227
6.584,0.9999992122624253,53.62976426682046
6.592,0.9999993127250262,53.450077442244435
6.6,0.9999994122000487,53.2703012695281
6.608,0.9999995107014811,53.090435691193406
6.616,0.9999996082426335,52.9104806502565
6.624,0.9999997048361524,52.7304360902289
6.632,0.9999998004940299,52.55030195511888
6.64,0.9999998952276185,52.37007818943275
6.648,0.9999999890476411,52.18976473817613
6.656,1.0,52.009361546855274
6.664,1.0,51.82886856147826
6.672,0.9999999999999999,51.6482857285564
6.68,0.9999999999999999,51.4676129951054
6.688,0.9999999999999999,51.2868503086467
6.696,0.9999999999999999,51.10599761720869
6.704,0.9999999999999999,50.92505486932802
6.712,0.9999999999999999,50.7440220140508
6.72,1.0,50.562899000933854
6.728,1.0,50.38168578004602
6.736,0.9999999999999999,50.200382301969356
6.744,1.0,50.018988517800295
6.752,1.0,49.83750437915108
6.76,1.0,49.65592983815074
6.768,1.0,49.47426484744651
6.776,0.9999999999999999,49.29250936020489
6.784,0.9999999999999999,49.110663330113006
6.792,0.9999999999999999,48.928726711379696
6.8,1.0,48.74669945873676
6.808,1.0,48.56458152744014
6.816,0.9999999999999999,48.38237287327112
6.824,1.0,48.20007345253752
6.832,1.0,48.01768322207485
6.84,1.0,47.835202139247464
6.848,1.0,47.652630161949794
6.856,1.0,47.46996724860746
6.864,0.9999999999999999,47.287213358178455
6.872,1.0,47.10436845015425
6.88,0.9999999999999999,46.92143248456101
6.888,1.0,46.73840542196067
6.896,1.0,46.55528722345213
6.904,1.0,46.37207785067232
6.912,0.9999999999999999,46.18877726579739
6.92,0.9999999999999999,46.005385431543736
6.928,1.0,45.82190231116924
6.936,1.0,45.63832786847426
6.944,1.0,45.4546620678028
6.952,1.0,45.27090487404357
6.96,1.0,45.08705625263108
6.968,1.0,44.90311616954675
6.976,1.0,44.719084591319955
6.984,1.0,44.534961485029136
6.992,0.9999999999999999,44.35074681830278
7.0,1.0,44.16644055932058
7.008,0.9999999999999999,43.98204267681446
7.016,1.0,43.79755314006955
7.024,1.0,43.612971918925325
7.032,0.9999999999999999,43.42829898377659
7.04,0.9999999999999999,43.24353430557453
7.048,1.0,43.05867785582767
7.056,1.0,42.87372960660299
7.064,0.9999999999999999,42.68868953052686
7.072,1.0,42.50355760078605
7.08,1.0,42.31833379112877
7.088,0.9999999999999999,42.13301807586562
7.096,1.0,41.94761042987061
7.104,0.9999999999999999,41.76211082858203
7.112,0.9999999999999999,41.5765192480036
7.12,1.0,41.39083566470525
7.128,0.9999999999999999,41.205060055824255
7.136,0.9999999999999999,41.019192399066014
7.144,1.0,40.833232672705094
7.152,1.0,40.64718085558615
7.16,1.0,40.46103692712484
7.168,1.0,40.274800867308784
7.176,1.0,40.08847265669841
7.184,1.0,39.90205227642792
7.192,0.9999999999999999,39.71553970820618
7.2,1.0,39.528934934317654
7.208,0.9999999999999999,39.34223793762316
7.216,1.0,39.155448701560914
7.224,1.0,38.9685672101473
7.232,1.0,38.7815934479778
7.24,0.9999999999999999,38.59452740022775
7.248,1.0,38.40736905265332
7.256,1.0,38.220118391592294
7.264,0.9999999999999999,38.03277540396489
7.272,0.9999999999999998,37.84534007727464
7.28,0.9999999999999999,37.65781239960918
7.288,1.0,37.47019235964103
7.296,1.0,37.28247994662849
7.304,0.9999999999999999,37.09467515041637
7.312,1.0,36.90677796143685
7.32,1.0,36.71878837071013
7.328,0.9999999999999999,36.530706369845355
7.336,0.9999999999999999,36.34253195104131
7.344,1.0,36.15426510708722
7.352,1.0,35.96590583136344
7.36,1.0,35.77745411784228
7.368,1.0,35.588909961088646
7.376,1.0,35.40027335626089
7.384,1.0,35.211544299111445
7.392,0.9999999999999999,35.02272278598756
7.4,0.9999999999999999,34.833808813831986
7.4079999999999995,1.0,34.64480238018378
7.416,0.9999999999999998,34.45570348317879
7.4239999999999995,1.0,34.26651212155058
7.432,1.0,34.07722829463086
7.4399999999999995,1.0,33.88785200235044
7.448,0.9999999999999999,33.698383245239505
7.4559999999999995,0.9999999999999999,33.508822024428696
7.464,1.0,33.31916834164937
7.4719999999999995,0.9999999999999999,33.129422199234526
7.48,0.9999999999999999,32.939583600119114
7.4879999999999995,1.0,32.74965254784109
7.496,1.0,32.559629046541495
7.504,0.9999999999999999,32.36951310096558
7.5120000000000005,0.9999999999999999,32.17930471646289
7.52,1.0,31.989003898988333
7.5280000000000005,1.0,31.79861065510229
7.536,0.9999999999999999,31.608124991971604
7.5440000000000005,1.0,31.417546917369737
7.552,0.9999999999999999,31.22687643967771
7.5600000000000005,0.9999999999999999,31.03611356788423
7.568,1.0,30.845258311586626
7.5760000000000005,1.0,30.654310680990996
7.584,1.0,30.463270686913063
7.5920000000000005,1.0,30.27213834077828
7.6,1.0,30.080913654622798
7.6080000000000005,0.9999999999999999,29.889596641093462
7.616,1.0,29.698187313448724
7.6240000000000006,1.0,29.506685685558708
7.632,1.0,29.315091771906022
7.640000000000001,0.9999999999999999,29.12340558758591
7.648,1.0,28.93162714830695
7.656000000000001,0.9999999999999999,28.73975647039119
7.664,1.0,28.54779357077489
7.672,0.9999999999999999,28.35573846700863
7.68,1.0,28.163591177257924
7.688,1.0,27.97135172030352
7.696,1.0,27.779020115541755
7.704,0.9999999999999998,27.586596382984983
7.712,0.9999999999999998,27.39408054326195
7.72,1.0,27.201472617618037
7.728,1.0,27.008772627915715
7.736,0.9999999999999998,26.815980596634827
7.744,0.9999999999999999,26.623096546872915
7.752,0.9999999999999999,26.430120502345535
7.76,1.0,26.23705248738655
7.768,0.9999999999999999,26.043892526948444
7.776,1.0,25.850640646602567
7.784,1.0,25.657296872539465
7.792,0.9999999999999999,25.463861231569073
7.8,0.9999999999999999,25.270333751121004
7.808,1.0,25.07671445924481
7.816,0.9999999999999999,24.88300338461017
7.824,1.0,24.68920055650715
7.832,1.0,24.495306004846384
7.84,1.0,24.301319760159288
7.848,1.0,24.107241853598268
7.856,0.9999999999999999,23.913072316936855
7.864,0.9999999999999999,23.718811182569933
7.872,0.9999999999999999,23.524458483513843
7.88,1.0,23.330014253406567
7.888,1.0,23.135478526507885
7.896,1.0,22.94085133769942
7.904,1.0,22.74613272248486
7.912,0.9999999999999999,22.551322716989983
7.92,1.0,22.356421357962795
7.928,0.9999999999999999,22.161428682773607
7.936,1.0,21.966344729415116
7.944,1.0,21.77116953650244
7.952,1.0,21.575903143273212
7.96,1.0,21.38054558958759
7.968,1.0,21.18509691592828
7.976,1.0,20.98955716340061
7.984,0.9999999999999999,20.79392637373249
7.992,0.9999999999999999,20.59820458927442
8.0,0.9999999999999999,20.40239185299948
8.008,0.9999999999999998,20.206488208503327
8.016,1.0,20.01049370000405
8.024000000000001,1.0,19.81440837234235
8.032,0.9999999999999999,19.618232270981288
8.04,0.9999999999999999,19.421965442006236
8.048,1.0,19.225607932124813
8.056000000000001,1.0,19.029159788666902
8.064,1.0,18.832621059584444
8.072,0.9999999999999999,18.635991793451282
8.08,1.0,18.439272039463056
8.088000000000001,0.9999999999999999,18.242461847437195
8.096,1.0,18.04556126781268
8.104,1.0,17.84857035164978
8.112,1.0,17.65148915062999
8.120000000000001,1.0,17.45431771705588
8.128,1.0,17.257056103850896
8.136,1.0,17.05970436455898
8.144,1.0,16.862262553344504
8.152000000000001,1.0,16.664730724992072
8.16,0.9999999999999999,16.467108934906246
8.168,0.9999999999999999,16.26939723911115
8.176,0.9999999999999999,16.071595694250316
8.184000000000001,1.0,15.873704357586504
8.192,1.0000000000000002,15.675723287001281
8.2,0.9999999270490723,15.477652540994685
8.208,0.9999998476791093,15.279492178684967
8.216000000000001,0.9999997684696713,15.081242259808329
8.224,0.9999996894517146,14.882902844718558
8.232,0.9999996106564767,14.684473994386519
8.24,0.9999995321154707,14.485955770399924
8.248000000000001,0.9999994538604811,14.28734823496303
8.256,0.99999937592356,14.088651450896156
8.264,0.9999992983370235,13.8898654816352
8.272,0.9999992211334457,13.6909903912313
8.280000000000001,0.9999991443456545,13.492026244350539
8.288,0.9999990680067287,13.292973106273347
8.296,0.9999989921499909,13.093831042894031
8.304,0.999998916809004,12.894600120720355
8.312,0.999998842017567,12.695280406873216
8.32,0.9999987678097085,12.495871969085833
8.328,0.9999986942196832,12.296374875703618
8.336,0.9999986212819659,12.09678919568328
8.344,0.999998549031247,11.897114998592677
8.352,0.9999984775024268,11.697352354609905
8.36,0.9999984067306104,11.49750133452312
8.368,0.9999983367511023,11.297562009729582
8.376,0.9999982675994017,11.09753445223546
8.384,0.9999981993111957,10.89741873465489
8.392,0.9999981319223545,10.697214930209691
8.4,0.9999980654689263,10.49692311272843
8.408,0.9999979999871299,10.296543356646112
8.416,0.9999979355133516,10.096075737003218
8.424,0.9999978720841364,9.895520329445368
8.432,0.999997809736184,9.694877210222312
8.44,0.9999977485063426,9.494146456187607
8.448,0.9999976884316022,9.293328144797545
8.456,0.999997629549089,9.092422354110818
8.464,0.9999975718960591,8.891429162787436
8.472,0.9999975155098926,8.690348650088314
8.48,0.9999974604280868,8.489180895874227
8.488,0.99999740668825,8.28792598060534
8.496,0.9999973543280954,8.086583985340114
8.504,0.999997303385434,7.885154991734853
8.512,0.9999972538981687,7.683639082042541
8.52,0.9999972059042878,7.482036339112405
8.528,0.9999971594418569,7.280346846388689
8.536,0.9999971145490145,7.078570687910194
8.544,0.9999970712639634,6.876707948309047
8.552,0.9999970296249647,6.6747587128101955
8.56,0.9999969896703307,6.472723067230158
8.568,0.9999969514384182,6.270601097976463
8.576,0.9999969149676204,6.068392892046418
8.584,0.9999968802963622,5.866098537026492
8.592,0.9999968474630907,5.66371812109105
8.6,0.9999968165062695,5.461251733001734
8.608,0.9999967874643707,5.258699462106146
8.616,0.9999967603758685,5.056061398337207
8.624,0.9999967352792313,4.8533376322118205
8.632,0.9999967122129141,4.650528254830198
8.64,0.9999966912153523,4.44763335787448
8.648,0.9999966723249534,4.244653033608061
8.656,0.999996655580089,4.041587374874155
8.664,0.9999966410190884,3.8384364750951163
8.672,0.999996628680231,3.6352004282709593
8.68,0.9999966186017376,3.4318793289786385
8.688,0.9999966108217644,3.22847327237058
8.696,0.9999966053783933,3.024982354173905
8.704,0.9999966023096264,2.8214066706889205
8.712,0.9999966016533768,2.6177463187883347
8.72,0.9999966034474604,2.414001395915725
8.728,0.9999966077295901,2.210172000084704
8.736,0.9999966145373662,2.0062582298773624
8.744,0.999996623908269,1.802260184443413
8.752,0.9999966358796516,1.5981779634986029
8.76,0.9999966504887298,1.3940116673238285
8.768,0.999996667772577,1.1897613967635041
8.776,0.9999966877681145,0.9854272532246668
8.784,0.9999967105121034,0.78100933867531
8.792,0.9999967360411374,0.5765077556434491
8.8,0.9999967643916342,0.37192260721543263
8.808,0.9999967955998267,0.16725399703497845
8.815999999999999,0.9999968297017571,-0.03749797069850027
8.824,0.9999968667332658,-0.24233319123111993
8.832,0.9999969067299854,-0.4472515592558183
8.84,0.999996949727332,-0.6522529689138372
8.847999999999999,0.999996995760496,-0.857337313796227
8.856,0.9999970448644361,-1.062504486945179
8.864,0.9999970970738677,-1.2677543808553768
8.872,0.9999971524232585,-1.473086887475544
8.879999999999999,0.9999972109468167,-1.6785018982100028
8.888,0.9999972726784854,-1.883999303920076
8.896,0.9999973376519332,-2.089578994925494
8.904,0.999997405900545,-2.2952408610060044
8.911999999999999,0.9999974774574155,-2.5009847914029995
8.92,0.9999975523553398,-2.7068106748209706
8.928,0.9999976306268055,-2.9127183994289823
8.936,0.9999977123039833,-3.1187078528623475
8.943999999999999,0.9999977974187203,-3.3247789222243083
8.952,0.9999978860025307,-3.530931494087566
8.96,0.9999979780865877,-3.7371654544958037
8.968,0.9999980737017148,-3.943480688965436
8.975999999999999,0.9999981728783774,-4.149877082487351
8.984,0.9999982756466763,-4.356354519528487
8.992,0.9999983820363364,-4.562912884033454
9.0,0.9999984920767003,-4.769552059426312
9.008,0.9999986057967198,-4.97627192861239
9.016,0.9999987232249472,-5.183072373979943
9.024000000000001,0.9999988443895269,-5.389953277401802
9.032,0.9999989693181882,-5.596914520237248
9.04,0.9999990980382352,-5.803955983333884
9.048,0.9999992305765395,-6.011077547029351
9.056000000000001,0.9999993669595327,-6.218279091153061
9.064,0.9999995072131966,-6.4255604950281136
9.072,0.9999996513630567,-6.6329216374732445
9.08,0.9999997994341724,-6.840362396804613
9.088000000000001,0.9999999514511295,-7.047882650837585
9.096,0.9999999999999999,-7.255482276888726
9.104,0.9999999999999999,-7.4631611517778165
9.112,1.0,-7.670919151829701
9.120000000000001,0.9999999999999999,-7.878756152876132
9.128,0.9999999999999998,-8.086672030257855
9.136,0.9999999999999999,-8.294666658826646
9.144,1.0,-8.50273991294727
9.152000000000001,1.0,-8.710891666499368
9.16,0.9999999999999999,-8.919121792879608
9.168,0.9999999999999999,-9.127430165003824
9.176,0.9999999999999999,-9.335816655308982
9.184000000000001,1.0,-9.544281135755197
9.192,1.0,-9.752823477827901
9.2,0.9999999999999999,-9.96144355254008
9.208,0.9999999999999999,-10.170141230434306
9.216000000000001,0.9999999999999999,-10.378916381584798
9.224,1.0,-10.587768875599702
9.232,1.0,-10.796698581623357
9.24,0.9999999999999999,-11.005705368338404
9.248000000000001,0.9999999999999999,-11.214789103967941
9.256,1.0,-11.423949656277841
9.264,0.9999999999999999,-11.633186892579094
9.272,1.0,-11.842500679730016
9.280000000000001,1.0,-12.051890884138427
9.288,1.0,-12.261357371764067
9.296,1.0,-12.470900008121012
9.304,1.0,-12.680518658279937
9.312000000000001,1.0,-12.890213186870369
9.32,0.9999999999999999,-13.099983458083184
9.328,1.0,-13.309829335673093
9.336,1.0,-13.519750682960941
9.344,0.9999999999999999,-13.729747362836063
9.352,1.0,-13.939819237758996
9.36,0.9999999999999999,-14.149966169763605
9.368,0.9999999999999999,-14.360188020459976
9.376,0.9999999999999999,-14.570484651036505
9.384,1.0,-14.78085592226281
9.392,1.0,-14.99130169449194
9.4,0.9999999999999999,-15.20182182766325
9.408,1.0,-15.412416181304625
9.416,0.9999999999999999,-15.623084614535514
9.424,0.9999999999999999,-15.833826986069095
9.432,0.9999999999999999,-16.0446431542153
9.44,0.9999999999999999,-16.25553297688316
9.448,0.9999999999999999,-16.466496311583747
9.456,0.9999999999999999,-16.677533015432605
9.464,1.0,-16.88864294515273
9.472,1.0,-17.09982595707701
9.48,1.0,-17.3110819071513
9.488,1.0,-17.522410650936827
9.496,1.0,-17.73381204361336
9.504,0.9999999999999999,-17.94528593998162
9.512,1.0,-18.15683219446648
9.52,0.9999999999999999,-18.36845066111949
9.528,1.0,-18.580141193622037
9.536,1.0,-18.791903645287857
9.544,1.0,-19.003737869066395
9.552,1.0,-19.215643717545262
9.56,1.0,-19.42762104295359
9.568,1.0,-19.639669697164596
9.576,0.9999999999999999,-19.851789531698977
9.584,1.0,-20.063980397727452
9.592,1.0,-20.276242146074278
9.6,1.0,-20.48857462721979
9.608,0.9999999999999998,-20.700977691303883
9.616,0.9999999999999999,-20.913451188128764
9.624,0.9999999999999999,-21.125994967162345
9.632,1.0,-21.338608877540995
9.64,0.9999999999999999,-21.551292768073136
9.648,1.0,-21.764046487241917
9.656,0.9999999999999999,-21.976869883208842
9.664,1.0000000000000002,-22.189762803816542
9.672,1.0,-22.402725096592423
9.68,1.0,-22.615756608751454
9.688,1.0,-22.82885718719989
9.696,0.9999999999999999,-23.042026678538125
9.704,1.0,-23.255264929064335
9.712,1.0,-23.46857178477751
9.72,0.9999999999999999,-23.6819470913811
9.728,1.0,-23.895390694286036
9.736,0.9999999999999999,-24.108902438614457
9.744,1.0,-24.322482169202786
9.752,1.0,-24.536129730605488
9.76,1.0,-24.749844967098163
9.768,1.0,-24.963627722681387
9.776,1.0,-25.1774778410838
9.784,0.9999999999999998,-25.391395165766024
9.792,1.0,-25.605379539923817
9.8,1.0,-25.819430806491987
9.808,1.0,-26.033548808147565
9.816,1.0,-26.247733387313836
9.824,0.9999999999999999,-26.461984386163543
9.832,1.0,-26.676301646622893
9.84,1.0,-26.890685010374888
9.847999999999999,1.0,-27.10513431886329
9.856,1.0,-27.319649413296187
9.864,1.0,-27.534230134649675
9.872,0.9999999999999999,-27.74887632367162
9.879999999999999,1.0,-27.963587820885614
9.888,1.0,-28.178364466594616
9.896,1.0,-28.393206100884676
9.904,0.9999999999999999,-28.608112563628904
9.911999999999999,1.0,-28.823083694491388
9.92,0.9999999999999999,-29.038119332930986
9.928,1.0000000000000002,-29.25321931820519
9.936,1.0,-29.468383489374073
9.943999999999999,1.0,-29.68361168530439
9.952,1.0,-29.898903744673436
9.96,0.9999999999999999,-30.114259505972957
9.968,0.9999999999999999,-30.329678807513282
9.975999999999999,1.0,-30.545161487427432
9.984,1.0,-30.76070738367511
9.992,0.9999999999999999,-30.976316334046707
10.0,1.0,-31.191988176167495
10.008,0.9999999999999999,-31.407722747501868
10.016,1.0,-31.623519885357414
10.024000000000001,0.9999999999999999,-31.83937942688903
10.032,1.0,-32.05530120910315
10.04,0.9999999999999999,-32.27128506886219
10.048,1.0,-32.487330842888596
10.056000000000001,1.0,-32.703438367769124
10.064,1.0,-32.919607479959204
