freq,mag,phase
6.0,0.9996789500273721,89.91223775627384
6.002285568,0.9999586452487129,89.75756433267219
6.004571648,1.0002419565964105,89.59882297632832
6.006857216,1.0005101537400145,89.43609864616651
6.009142784,1.0007463526888647,89.2697336952027
6.011428352,1.0009358074369017,89.10031651945354
6.013714432,1.0010663474135095,88.92858970493165
6.016,1.0011298654457246,88.75549094140364
6.018285568,1.0011222075266573,88.58200286538482
6.020571648,1.0010438704493214,88.40916208962433
6.022857216,1.0008998111196414,88.23794830069636
6.025142784,1.0006990073765727,88.06925556033032
6.027428352,1.0004541914600849,87.90379783052322
6.029714432,1.0001805967709283,87.74210384460635
6.032,0.9998958535176387,87.58449008950849
6.034285568,0.9996175819145994,87.43100862415544
6.036571648,0.9993636545859328,87.28142452515723
6.038857216,0.9991499865521517,87.13522389196302
6.041142784,0.9989903034583014,86.99179879624592
6.043428352,0.9988944278176003,86.85025739739302
6.045714432,0.9988688112744456,86.70960188488321
6.048,0.998914997647665,86.56884428162783
6.050285568,0.999029944297304,86.42692512904968
6.052571648,0.9992066002294603,86.28290159214006
6.054857216,0.9994337268832969,86.1359781697206
6.057142784,0.9996967687291064,85.98550296722708
6.059428352,0.9999793059459635,85.8310707552625
6.061714432,1.0002635712084262,85.67258736483994
6.064,1.0005313417151878,85.51008694222038
6.066285568,1.0007657798282965,85.34396921993356
6.068571648,1.0009522319074204,85.17479807927151
6.070857216,1.0010786813873167,85.0034051839718
6.073142784,1.001137275415418,84.83067266169688
6.075428352,1.0011242392847641,84.6576875084226
6.077714432,1.0010404578868999,84.4853316442524
6.08,1.0008911155362452,84.31473132307667
6.082285568,1.0006856115518263,84.14670663608845
6.084571648,1.0004368127378527,83.98199979663613
6.086857216,1.0001605882057234,83.82109465646207
6.089142784,0.9998741628497695,83.66433132118884
6.091428352,0.9995957968266589,83.51163504635653
6.093714432,0.999343008642539,83.36284900426526
6.096,0.9991319138204067,83.21745291263379
6.098285568,0.998975719470811,83.07477006393196
6.100571648,0.9988845233265112,82.93390472420715
6.102857216,0.9988640507174539,82.79386881381947
6.105142784,0.9989157692420332,82.65361579287945
6.107428352,0.9990362839054369,82.51215004764607
6.109714432,0.9992179717515047,82.36850615190038
6.112,0.9994494460110707,82.22185381200478
6.114285568,0.9997159781606629,82.07160905513236
6.116571648,1.0000007161522153,81.9173811518584
6.118857216,1.0002856720847115,81.75903995171393
6.121142784,1.0005528931335845,81.59670361588118
6.123428352,1.0007854709329056,81.43074250345548
6.125714432,1.0009686132222826,81.2618038440467
6.128,1.0010909233955658,81.0906697751365
6.130285568,1.0011445181386918,80.91826776973173
6.132571648,1.0011260540513645,80.74563739052752
6.134857216,1.0010366935696489,80.57381042350075
6.137142784,1.0008819899656003,80.40375300736551
6.139428352,1.000671724583002,80.23637082226062
6.141714432,1.00041906956419,80.07233893836118
6.144,1.0001399377234217,79.91215955683062
6.146285568,0.9998520380530496,79.75615253170021
6.148571648,0.999573617365537,79.60423985465589
6.150857216,0.9993221226552075,79.45621803013287
6.153142784,0.999113604190655,79.31155941883462
6.155428352,0.9989612402163169,79.16954573839456
6.157714432,0.9988747956703589,79.02927495586236
6.16,0.9988597254375506,78.88977133529366
6.162285568,0.998917040900265,78.74998995523848
6.164571648,0.9990430269945033,78.60889888285332
6.166857216,0.9992298344567592,78.46553224196491
6.169142784,0.9994656815100902,78.31911489080156
6.171428352,0.9997354687924216,78.16904807992923
6.173714432,1.0000223900748773,78.01493959435233
6.176,1.0003080998425853,77.85669151363963
6.178285568,1.0005746127218973,77.69444557426381
6.180571648,1.0008050705584468,77.52860510642556
6.182857216,1.000984964734805,77.35983245256186
6.185142784,1.001102959234974,77.18888633045461
6.187428352,1.0011514675963287,77.01677703994478
6.189714432,1.0011273859918415,76.84448309561363
6.192,1.0010323613195682,76.67308473224954
6.194285568,1.0008723017762624,76.50349928884185
6.196571648,1.0006572593504162,76.33669737669763
6.198857216,1.00040061668292,76.17329468866113
6.201142784,1.0001188229855806,76.01382107083806
6.203428352,0.9998295070612861,75.85850114539988
6.205714432,0.9995510277264265,75.70730379176452
6.208,0.9993009738702362,75.56000149418058
6.210285568,0.9990951793039768,75.41598835780536
6.212571648,0.9989467938565928,75.2746056700243
6.214857216,0.9988651598276528,75.13489090438034
6.217142784,0.9988554815878035,74.99587002185608
6.219428352,0.9989185151553424,74.8564768062617
6.221714432,0.9990501576685632,74.71569255142569
6.224,0.9992421454915916,74.57255086843931
6.226285568,0.9994823778514837,74.42629644224648
6.228571648,0.9997555262414157,74.27630030417123
6.230857216,1.0000445391528816,74.12224874187727
6.233142784,1.0003308374280966,73.96405117588141
6.235428352,1.000596659620338,73.8018546671381
6.237714432,1.0008248992082227,73.63607557829656
6.24,1.001001364696186,73.46735701829313
6.242285568,1.001114760012095,73.29658587826194
6.244571648,1.0011580581819852,73.12468157267898
6.246857216,1.0011284836182461,72.9526590300416
6.249142784,1.0010277658450262,72.78160415164477
6.251428352,1.0008621930099746,72.61251711878828
6.253714432,1.0006422868288636,72.44619957001647
6.256,1.0003818506701327,72.2833832077088
6.258285568,1.0000973785442056,72.12454162605087
6.260571648,0.9998067075126137,71.96985454136227
6.262857216,0.9995283857356789,71.81933115235282
6.265142784,0.9992798996427409,71.67265642260595
6.267428352,0.9990769815697736,71.52926647516786
6.269714432,0.9989326092437409,71.38843996323229
6.272,0.99885591955027,71.24922904166031
6.274285568,0.9988518347340367,71.11061127484328
6.276571648,0.9989206399687877,70.9715491659893
6.278857216,0.9990579278859207,70.83099729658642
6.281142784,0.9992550878788916,70.68802710292657
6.283428352,0.9994995971096646,70.54185584471978
6.285714432,0.999776132688934,70.39190495982224
6.288,1.0000670998114891,70.23783812962562
6.290285568,1.0003540163670697,70.07959204071973
6.292571648,1.0006188138047765,69.91735949824285
6.294857216,1.0008448314291962,69.75158195747377
6.297142784,1.001017705935374,69.58291019453056
6.299428352,1.0011265593845948,69.4121998890823
6.301714432,1.0011644773882988,69.24043332040165
6.304,1.0011291368424524,69.0686903980718
6.306285568,1.0010225767412613,68.89793687087379
6.308571648,1.0008515503083986,68.72923553441684
6.310857216,1.0006268014773423,68.56339600075165
6.313142784,1.0003624916091278,68.40110856018006
6.315428352,1.000075372367806,68.24281305024466
6.317714432,0.9997835357874492,68.08873240460169
6.32,0.9995053114669479,67.93883658622435
6.322285568,0.999258510568086,67.7927302678324
6.324571648,0.9990586358587119,67.64991216068518
6.326857216,0.9989184021346472,67.50956485451563
6.329142784,0.99884684917706,67.37076320781095
6.331428352,0.9988484499445517,67.23251687691064
6.333714432,0.9989229755254563,67.09370848478348
6.336,0.9990660151273937,66.9533390143288
6.338285568,0.9992684297049081,66.81045677912269
6.340571648,0.9995173553210683,66.66429654274822
6.342857216,0.9997970698327355,66.51431210016743
6.345142784,1.0000898983048634,66.3601600365185
6.347428352,1.0003772537993187,66.20182729080557
6.349714432,1.0006411323042794,66.03947687960952
6.352,1.000864752589952,65.87365190818748
6.354285568,1.0010338992991856,65.70493490407536
6.356571648,1.0011380653372008,65.53424041903499
6.358857216,1.0011705579995054,65.36261328359764
6.361142784,1.0011293774804102,65.19100496655372
6.363428352,1.0010169594349774,65.02055507153788
6.365714432,1.0008403842363531,64.85217132417797
6.368,1.0006109363424043,64.68674683598061
6.370285568,1.000342796836751,64.52492562197585
6.372571648,1.0000531073309709,64.36712906760275
6.374857216,0.9997600076275914,64.21362483021738
6.377142784,0.9994821424025375,64.06423823451607
6.379428352,0.999237121208283,63.9186914143007
6.381714432,0.9990404605259163,63.77634833917676
6.384,0.9989045789327015,63.6364451793587
6.386285568,0.9988381513563036,63.49801922439529
6.388571648,0.9988454509112293,63.36001656526776
6.390857216,0.9989259707221227,63.2214179956434
6.393142784,0.9990747601821025,63.081144769631855
6.395428352,0.9992823785310092,62.93829609901002
6.397714432,0.9995355831734685,62.79207327638412
6.4,0.9998184640148825,62.641983957649835
6.402285568,1.000113120680144,62.4877209576021
6.404571648,1.0004008684670613,62.32922226019182
6.406857216,1.0006636423442217,62.166715378167446
6.409142784,1.0008846489713876,62.00073302571785
6.411428352,1.0010500769144397,61.83193609305138
6.413714432,1.0011493739253852,61.66121871688832
6.416,1.0011763132805178,61.48962026838901
6.418285568,1.001129187440009,61.318148492157846
6.420571648,1.0010108639295738,61.14788507727156
6.422857216,1.0008287198397456,60.97980548802242
6.425142784,1.000594488536985,60.81473244047201
6.427428352,1.0003226094315452,60.65331049302749
6.429714432,1.0000303402065083,60.49601577267124
6.432,0.9997362404447088,60.342976758769545
6.434285568,0.9994588140648338,60.19409797649273
6.436571648,0.9992157082215196,60.048993201166056
6.438857216,0.9990221827971387,59.907086939977724
6.441142784,0.9988907413383784,59.76755703612889
6.443428352,0.9988296004904597,59.629426135400806
6.445714432,0.9988427772830805,59.49165427600632
6.448,0.9989293517232113,59.353168796111916
6.450285568,0.9990839287874473,59.21294479947466
6.452571648,0.9992967553963964,59.07005066272573
6.454857216,0.9995542654588049,58.923744286862224
6.457142784,0.9998402948339188,58.77343759787381
6.459428352,1.00013670151144,58.618980649149854
6.461714432,1.0004246905673821,58.46023220835687
6.464,1.0006862399679548,58.297530086316826
6.466285568,1.000904577391252,58.13133803298488
6.468571648,1.001066086619727,57.962396278266986
6.470857216,1.001160393778739,57.7916128530722
6.473142784,1.001181722079251,57.61998428602771
6.475428352,1.0011285855661158,57.44856167625895
6.477714432,1.0010043247275278,57.278475487330894
6.48,1.000816659889283,57.11060773919168
6.482285568,1.0005775584276435,56.94583292814769
6.484571648,1.000301954101367,56.784785705765486
6.486857216,1.0000073231901854,56.62790566577025
6.489142784,0.9997121607537828,56.47528443810999
6.491428352,0.9994352739003336,56.32685671544673
6.493714432,0.9991941586232067,56.182154700359284
6.496,0.9990040523421102,56.04062052904729
6.498285568,0.9988771152899677,55.901394297549764
6.500571648,0.9988213664414294,55.763503617984064
6.502857216,0.9988404333943572,55.62588367482765
6.505142784,0.9989330845184371,55.48746357756431
6.507428352,0.9990934995635153,55.34720759261169
6.509714432,0.9993114713980631,55.20419142942481
6.512,0.9995732786563413,55.057693337977646
6.514285568,0.9998624389133508,54.90719804305984
6.516571648,1.000160426580451,54.7524330470223
6.518857216,1.0004486795337237,54.59341215282934
6.521142784,1.000708766188228,54.4303977164116
6.523428352,1.0009243815685689,54.263963557066575
6.525714432,1.0010818376748978,54.09480497138421
6.528,1.0011711662256075,53.92387698306238
6.530285568,1.0011867804801946,53.752195981530384
6.532571648,1.001127636610319,53.5807840227645
6.534857216,1.0009972996650256,53.41078270398235
6.537142784,1.0008042124757632,53.24308739422854
6.539428352,1.0005602829138305,53.078578313429965
6.541714432,1.00028094972966,52.91784780312092
6.544,0.999983952221755,52.76129577555725
6.546285568,0.9996879740768323,52.60907330298081
6.548571648,0.9994116986785025,52.46099477527326
6.550857216,0.9991727225149812,52.31666219126272
6.553142784,0.9989860984901611,52.175418275270204
6.555428352,0.9988637731416015,52.036433693776026
6.557714432,0.9988134562978406,51.898717746804984
6.56,0.9988384646458639,51.76119009740535
6.562285568,0.9989371970151686,51.62276719710955
6.564571648,0.9991033715358928,51.48241403144398
6.566857216,0.9993266156408597,51.33923000488879
6.569142784,0.9995927031870103,51.19247130905724
6.571428352,0.9998848100780291,51.04166877276785
6.573714432,1.0001845104987552,50.88655088664004
6.576,1.0004727203564594,50.72719356425184
6.578285568,1.0007314274137182,50.563865125798024
6.580571648,1.0009441624025825,50.39708637358925
6.582857216,1.0010974323252366,50.227645057713225
6.585142784,1.0011816992727438,50.05654191398147
6.587428352,1.0011914890629976,49.88471268487098
6.589714432,1.0011262083451113,49.71326810439363
6.592,1.0009899533460709,49.54330359359841
6.594285568,1.000791239885843,49.37576012351079
6.596571648,1.0005425838499515,49.211427953324176
6.598857216,1.0002597005304845,49.05094859165964
6.601142784,0.9999604311572865,48.89469309597161
6.603428352,0.9996635194705382,48.74277495547543
6.605714432,0.999388044789265,48.59501319628086
6.608,0.9991512823003831,48.45096086097981
6.610285568,0.9989682622581236,48.30999642018893
6.612571648,0.998850662304521,48.17118972422148
6.614857216,0.998805996080411,48.03354432450785
6.617142784,0.9988370131593185,47.896069421320284
6.619428352,0.9989418946026132,47.75756127243014
6.621714432,0.9991139283755365,47.61703495582744
6.624,0.999342394515646,47.4736078098084
6.626285568,0.9996126277325627,47.32654732529892
6.628571648,0.9999077124540128,47.17538263630118
6.630857216,1.0002088294711577,47.01986733934011
6.633142784,1.0004971283885569,46.860094108643885
6.635428352,1.0007541907085586,46.6963258506742
6.637714432,1.000963852111989,46.529204628598215
6.64,1.001112988435928,46.35945712848171
6.642285568,1.0011920060785502,46.18805333891711
6.644571648,1.0011959020397656,46.016049475553906
6.646857216,1.0011245136080975,45.84452245400705
6.649142784,1.0009822056617217,45.67451964179758
6.651428352,1.0007779613336745,45.507034527228114
6.653714432,1.000524543012389,45.34285215172188
6.656,1.0002381337817532,45.182586086997865
6.658285568,0.9999366172473642,45.02656971662104
6.660571648,0.9996390590861324,44.87491934761981
6.662857216,0.9993644253564999,44.72738384573119
6.665142784,0.9991298642110157,44.58358906045617
6.667428352,0.9989506476492948,44.44277702036186
6.669714432,0.9988378224277564,44.304116599912845
6.672,0.9987987258609183,44.166534212805445
6.674285568,0.9988358554288481,44.02898618122865
6.676571648,0.9989469018514215,43.890335241842514
6.678857216,0.9991248456287474,43.74959469003459
6.681142784,0.9993584231736661,43.605856116018714
6.683428352,0.9996328208630019,43.45840362181711
6.685714432,0.9999307720398698,43.30680455663074
6.688,1.00023329963072,43.15083092428398
6.690285568,1.0005214185389544,42.99056433725222
6.692571648,1.0007768871452005,42.82635546456938
6.694857216,1.0009835143203856,42.658783346882686
6.697142784,1.001128287965863,42.48864013614851
6.699428352,1.0012019893868485,42.316930612489145
6.701714432,1.001200051953887,42.144690044567476
6.704,1.0011224954160496,41.97300085895299
6.706285568,1.0009741424420902,41.80293538344924
6.708571648,1.0007643277631126,41.635480002004385
6.710857216,1.0005062571836567,41.471377490577474
6.713142784,1.0002163081842557,41.311250648514374
6.715428352,0.999912662728362,41.155398139607954
6.717714432,0.9996144467507629,41.003946059233904
6.72,0.9993407238653298,40.85664216053418
6.722285568,0.9991086717359559,40.71298929795439
6.724571648,0.9989331920851153,40.5723188198088
6.726857216,0.9988252213683249,40.43368848396198
6.729142784,0.9987918990516825,40.29609371704733
6.731428352,0.9988351458338975,40.158431834452465
6.733714432,0.9989523600869528,40.01958262837544
6.736,0.9991361448819017,39.8785574365356
6.738285568,0.9993748435259507,39.73443850214141
6.740571648,0.9996533300153492,39.586533281291594
6.742857216,0.9999540970279756,39.434428685855465
6.745142784,1.0002579229585564,39.27793668232893
6.747428352,1.0005458946209382,39.11714045204902
6.749714432,1.0007995541896018,38.952392268047255
6.752,1.0010029405894898,38.784316278056295
6.754285568,1.0011433700763372,38.61374017245991
6.756571648,1.0012117404507637,38.44166385240484
6.758857216,1.001203816693881,38.269128649862715
6.761142784,1.0011200282106838,38.09723070825782
6.763428352,1.0009656569217884,37.92705198375313
6.765714432,1.0007503426506212,37.75952777401081
6.768,1.0004877283451976,37.59547703413352
6.770285568,1.000194204536575,37.43543023828327
6.772571648,0.9998884755954384,37.27972199565438
6.774857216,0.999589793925554,37.12839949705014
6.777142784,0.99931712386488,36.98120950583377
6.779428352,0.9990875989266739,36.8376789322383
6.781714432,0.9989159255524944,36.69706332709334
6.784,0.998813021245555,36.55843041646509
6.786285568,0.9987854181699019,36.420735217491625
6.788571648,0.9988347677123435,36.282898594519
6.790857216,0.9989581614542422,36.14378296634127
6.793142784,0.9991478290779348,36.00239748847459
6.795428352,0.9993915497149474,35.857830553555154
6.797714432,0.9996741216693635,35.70944660261477
6.8,0.9999775566265889,35.556768203211945
6.802285568,1.000282710379984,35.39967775039107
6.804571648,1.0005703559979016,35.23827230934614
6.806857216,1.0008221033640148,35.072935827444645
6.809142784,1.0010223299172496,34.90431265715927
6.811428352,1.0011581847081144,34.73324388469894
6.813714432,1.0012211214647804,34.560727560249795
6.816,1.0012071789406816,34.38783556751221
6.818285568,1.0011171842065412,34.215688930715366
6.820571648,1.0009568092934942,34.045340782184226
6.822857216,1.0007359448611497,33.877719877431744
6.825142784,1.000468722883462,33.713626978910575
6.827428352,1.000171843367965,33.553627290446876
6.829714432,0.9998642009722316,33.397982620652506
6.832,0.9995651332436827,33.24674121947519
6.834285568,0.9992934839526383,33.09963117714279
6.836571648,0.9990667134655982,32.95614346624638
6.838857216,0.9988989518076342,32.815510332564266
6.841142784,0.998800996535818,32.67681817729299
6.843428352,0.9987791718760555,32.5389831483479
6.845714432,0.9988347539865128,32.40090430338965
6.848,0.9989643956691818,32.261441561489576
6.850285568,0.999159785133002,32.119631774972156
6.852571648,0.9994084867744519,31.974565715029186
6.854857216,0.9996950947953033,31.825589285561033
6.857142784,1.000001144556642,31.67231013756246
6.859428352,1.0003074834211205,31.514553177633278
6.861714432,1.0005946648734876,31.352479270126192
6.864,1.0008445349492983,31.186497839627293
6.866285568,1.0010413400026847,31.017286187711335
6.868571648,1.0011726464422495,30.845653563659805
6.870857216,1.0012300963678542,30.672647782286674
6.873142784,1.0012101216062863,30.49936649710995
6.875428352,1.001113865535492,30.326908911789587
6.877714432,1.0009474171907398,30.15630196293988
6.88,1.0007212229530447,29.98853338188827
6.882285568,1.0004493828321437,29.82436706657974
6.884571648,1.000149302544182,29.664331918651442
6.886857216,0.9998396693733687,29.508699400623062
6.889142784,0.9995402099301732,29.3574797637559
6.891428352,0.9992698215276856,29.210391547803315
6.893714432,0.9990457341590621,29.066900299208772
6.896,0.9988820142181609,28.926197233318852
6.898285568,0.9987891464315086,28.787367513672734
6.900571648,0.9987731365740473,28.64931333433801
6.902857216,0.9988349844933332,28.510928418647005
6.905142784,0.9989707877139805,28.371063014402058
6.907428352,0.99917202129603,28.228759364982288
6.909714432,0.9994258351879614,28.083132072048667
6.912,0.9997162176017189,27.933520813566297
6.914285568,1.000024946082411,27.77954424536201
6.916571648,1.0003323339685548,27.621075018248572
6.918857216,1.0006190496195662,27.458281495907663
6.921142784,1.0008668803044254,27.29162308487514
6.923428352,1.0010603335083519,27.121701204703616
6.925714432,1.0011869921606793,26.949486751313955
6.928,1.0012389573432487,26.775937909129308
6.930285568,1.0012128999625174,26.602178536197837
6.932571648,1.0011103937090413,26.42933215925601
6.934857216,1.0009379215873144,26.258466134203548
6.937142784,1.000706311264534,26.090489509586956
6.939428352,1.0004299795925864,25.92617939662227
6.941714432,1.0001266459585951,25.766058337586017
6.944,0.999815237242615,25.61037430391027
6.946285568,0.99951542911681,25.45913203966018
