freq,mag,phase
6.0,0.9999989685081966,146.45429621238043
6.008,0.9999990375627473,146.40848813830922
6.016,0.9999991055924823,146.362675741228
6.024,0.9999991726028747,146.31685901540823
6.032,0.9999992385993769,146.27103795511968
6.04,0.99999930358742,146.22521255463042
6.048,0.9999993675724141,146.1793828082068
6.056,0.9999994305597483,146.1335487101135
6.064,0.9999994925547907,146.08771025461354
6.072,0.9999995535628882,146.04186743596821
6.08,0.9999996135893672,145.99602024843705
6.088,0.9999996726395326,145.9501686862781
6.096,0.9999997307186698,145.90431274374743
6.104,0.9999997878320424,145.85845241509963
6.112,0.9999998439848938,145.8125876945875
6.12,0.9999998991824469,145.7667185764622
6.128,0.9999999534299036,145.72084505497313
6.136,1.0,145.674967124368
6.144,1.0,145.62908477889286
6.152,1.0000000000000002,145.58319801279202
6.16,0.9999999999999999,145.53730682030812
6.168,1.0,145.4914111956821
6.176,1.0,145.44551113315322
6.184,1.0,145.39960662695898
6.192,1.0,145.35369767133523
6.2,1.0,145.30778426051606
6.208,1.0,145.26186638873395
6.216,1.0,145.21594405021958
6.224,1.0,145.170017239202
6.232,1.0000000000000002,145.1240859499085
6.24,0.9999999999999999,145.07815017656475
6.248,1.0,145.0322099133946
6.256,1.0,144.98626515462027
6.264,1.0,144.9403158944623
6.272,0.9999999999999999,144.89436212713937
6.28,1.0,144.84840384686868
6.288,0.9999999999999999,144.80244104786556
6.296,0.9999999999999998,144.75647372434364
6.304,1.0,144.71050187051495
6.312,1.0,144.6645254805897
6.32,1.0,144.61854454877638
6.328,0.9999999999999999,144.57255906928194
6.336,0.9999999999999999,144.5265690363114
6.344,1.0,144.48057444406817
6.352,1.0,144.434575286754
6.36,1.0,144.3885715585688
6.368,0.9999999999999999,144.3425632537109
6.376,1.0,144.2965503663768
6.384,1.0,144.25053289076135
6.392,1.0,144.20451082105768
6.4,1.0,144.1584841514572
6.408,1.0,144.11245287614958
6.416,1.0,144.0664169893228
6.424,1.0,144.0203764851631
6.432,1.0,143.97433135785505
6.44,0.9999999999999999,143.9282816015814
6.448,0.9999999999999998,143.8822272105233
6.456,0.9999999999999999,143.8361681788601
6.464,1.0,143.79010450076944
6.472,1.0,143.74403617042728
6.48,0.9999999999999999,143.69796318200778
6.4879999999999995,1.0000000000000002,143.65188552968345
6.496,0.9999999999999998,143.60580320762506
6.504,0.9999999999999999,143.55971621000162
6.5120000000000005,0.9999999999999999,143.51362453098042
6.52,1.0,143.4675281647271
6.5280000000000005,1.0,143.42142710540546
6.536,1.0,143.37532134717767
6.5440000000000005,1.0,143.3292108842041
6.552,1.0,143.28309571064338
6.5600000000000005,0.9999999999999999,143.2369758206525
6.568,0.9999999999999999,143.19085120838668
6.5760000000000005,1.0,143.14472186799935
6.584,1.0,143.09858779364225
6.592,0.9999999999999999,143.05244897946545
6.6,1.0,143.00630541961715
6.608,1.0,142.96015710824398
6.616,1.0,142.91400403949064
6.624,1.0,142.86784620750026
6.632,1.0,142.8216836064142
6.64,1.0,142.775516230372
6.648,1.0,142.72934407351158
6.656,1.0,142.683167129969
6.664,1.0000000000000002,142.63698539387866
6.672,0.9999999999999999,142.59079885937322
6.68,0.9999999999999999,142.54460752058353
6.688,1.0,142.49841137163878
6.696,1.0,142.45221040666635
6.704,1.0,142.40600461979193
6.712,1.0,142.35979400513943
6.72,0.9999999999999999,142.31357855683106
6.728,1.0,142.2673582689872
6.736,0.9999999999999999,142.22113313572657
6.744,1.0,142.17490315116606
6.752,0.9999999999999999,142.1286683094209
6.76,1.0,142.0824286046045
6.768,1.0,142.03618403082857
6.776,1.0,141.989934582203
6.784,1.0,141.943680252836
6.792,1.0,141.89742103683398
6.8,1.0,141.85115692830163
6.808,0.9999999999999999,141.80488792134184
6.816,0.9999999999999999,141.75861401005585
6.824,1.0,141.71233518854297
6.832,1.0,141.66605145090085
6.84,1.0,141.61976279122547
6.848,0.9999999999999999,141.57346920361084
6.856,1.0,141.52717068214943
6.864,1.0,141.48086722093177
6.872,1.0,141.43455881404674
6.88,0.9999999999999999,141.38824545558145
6.888,0.9999999999999999,141.34192713962116
6.896,1.0,141.29560386024943
6.904,0.9999999999999999,141.2492756115481
6.912,1.0,141.2029423875971
6.92,1.0,141.15660418247475
6.928,1.0,141.11026099025753
6.936,0.9999999999999999,141.06391280502012
6.944,0.9999999999999999,141.01755962083547
6.952,1.0,140.97120143177477
6.96,1.0,140.9248382319074
6.968,1.0,140.87847001530096
6.976,1.0,140.83209677602133
6.984,1.0,140.7857185081326
6.992,1.0,140.739335205697
7.0,1.0,140.6929468627751
7.008,1.0,140.6465534734256
7.016,1.0,140.6001550317055
7.024,0.9999999999999999,140.55375153166997
7.032,1.0,140.5073429673724
7.04,0.9999999999999999,140.46092933286442
7.048,1.0,140.41451062219582
7.056,1.0,140.3680868294147
7.064,1.0,140.3216579485672
7.072,1.0,140.27522397369796
7.08,1.0,140.22878489884957
7.088,0.9999999999999999,140.18234071806293
7.096,1.0,140.13589142537714
7.104,0.9999999999999999,140.08943701482954
7.112,1.0,140.0429774804557
7.12,1.0,139.9965128162892
7.128,1.0,139.9500430163621
7.136,1.0,139.9035680747045
7.144,1.0,139.85708798534472
7.152,1.0,139.81060274230933
7.16,0.9999999999999999,139.7641123396231
7.168,1.0,139.71761677130894
7.176,0.9999999999999999,139.67111603138798
7.184,1.0,139.6246101138796
7.192,1.0,139.57809901280135
7.2,1.0,139.53158272216888
7.208,0.9999999999999999,139.4850612359962
7.216,1.0,139.43853454829542
7.224,1.0000000000000002,139.39200265307684
7.232,0.9999999999999999,139.34546554434897
7.24,0.9999999999999999,139.29892321611848
7.248,1.0,139.2523756623903
7.256,1.0,139.20582287716746
7.264,0.9999999999999999,139.15926485445127
7.272,1.0,139.11270158824112
7.28,1.0,139.06613307253465
7.288,1.0,139.01955930132772
7.296,1.0,138.97298026861424
7.304,1.0,138.92639596838643
7.312,0.9999999823655255,138.87980639463464
7.32,0.9999999428304065,138.83321154134742
7.328,0.9999999029250884,138.7866114025114
7.336,0.9999998626523143,138.7400059721115
7.344,0.9999998220148151,138.6933952441308
7.352,0.9999997810153095,138.64677921255057
7.36,0.9999997396565046,138.60015787135012
7.368,0.9999996979410958,138.55353121450705
7.376,0.9999996558717661,138.50689923599708
7.384,0.9999996134511873,138.4602619297942
7.392,0.9999995706820192,138.4136192898704
7.4,0.9999995275669095,138.36697131019596
7.4079999999999995,0.9999994841084953,138.3203179847393
7.416,0.9999994403094011,138.27365930746697
7.4239999999999995,0.9999993961722408,138.22699527234366
7.432,0.999999351699616,138.1803258733323
7.4399999999999995,0.999999306894117,138.13365110439395
7.448,0.9999992617583239,138.0869709594878
7.4559999999999995,0.9999992162948037,138.0402854325712
7.464,0.999999170506114,137.99359451759972
7.4719999999999995,0.9999991243947998,137.94689820852702
7.48,0.9999990779633956,137.90019649930485
7.4879999999999995,0.9999990312144249,137.85348938388327
7.496,0.9999989841503997,137.80677685621035
7.504,0.9999989367738218,137.76005891023243
7.5120000000000005,0.9999988890871814,137.71333553989388
7.52,0.9999988410929582,137.6666067391373
7.5280000000000005,0.9999987927936212,137.61987250190336
7.536,0.9999987441916286,137.57313282213096
7.5440000000000005,0.9999986952894272,137.52638769375704
7.552,0.9999986460894549,137.47963711071682
7.5600000000000005,0.9999985965941366,137.4328810669435
7.568,0.9999985468058888,137.38611955636856
7.5760000000000005,0.9999984967271169,137.33935257292148
7.584,0.9999984463602152,137.29258011052997
7.5920000000000005,0.9999983957075688,137.24580216311986
7.6,0.9999983447715514,137.19901872461512
7.6080000000000005,0.9999982935545271,137.15222978893777
7.616,0.9999982420588499,137.10543535000804
7.6240000000000006,0.9999981902868632,137.05863540174428
7.632,0.9999981382409006,137.01182993806296
7.640000000000001,0.999998085923286,136.96501895287867
7.648,0.9999980333363324,136.91820244010407
7.656000000000001,0.9999979804823441,136.87138039365004
7.664,0.9999979273636145,136.8245528074255
7.672,0.999997873982428,136.77771967533755
7.68,0.9999978203410583,136.73088099129134
7.688,0.9999977664417705,136.68403674919023
7.696,0.9999977122868196,136.63718694293559
7.704,0.9999976578784506,136.59033156642693
7.712,0.9999976032188995,136.54347061356194
7.72,0.9999975483103931,136.49660407823635
7.728,0.999997493155148,136.44973195434403
7.736,0.9999974377553718,136.40285423577689
7.744,0.999997382113263,136.35597091642506
7.752,0.9999973262310107,136.3090819901767
7.76,0.9999972701107942,136.2621874509181
7.768,0.9999972137547851,136.2152872925336
7.776,0.9999971571651447,136.16838150890567
7.784,0.9999971003440257,136.1214700939149
7.792,0.9999970432935715,136.07455304143994
7.8,0.999996986015917,136.02763034535758
7.808,0.9999969285131883,135.98070199954265
7.816,0.9999968707875022,135.9337679978681
7.824,0.9999968128409672,135.88682833420495
7.832,0.9999967546756827,135.83988300242237
7.84,0.99999669629374,135.79293199638747
7.848,0.9999966376972215,135.74597530996562
7.856,0.9999965788882009,135.69901293702014
7.864,0.9999965198687435,135.65204487141253
7.872,0.9999964606409065,135.60507110700223
7.88,0.9999964012067385,135.55809163764698
7.888,0.9999963415682799,135.5111064572024
7.896,0.9999962817275625,135.4641155595222
7.904,0.9999962216866101,135.41711893845832
7.912,0.9999961614474387,135.37011658786054
7.92,0.9999961010120562,135.32310850157694
7.928,0.9999960403824613,135.27609467345346
7.936,0.9999959795606463,135.22907509733426
7.944,0.9999959185485947,135.1820497670615
7.952,0.9999958573482823,135.1350186764754
7.96,0.9999957959616772,135.0879818194142
7.968,0.9999957343907396,135.04093918971435
7.976,0.9999956726374217,134.99389078121018
7.984,0.9999956107036694,134.94683658773414
7.992,0.9999955485914189,134.89977660311678
8.0,0.9999954863026006,134.85271082118666
8.008,0.9999954238391364,134.80563923577037
8.016,0.9999953612029421,134.75856184069255
8.024000000000001,0.999995298395924,134.7114786297759
8.032,0.9999952354199831,134.66438959684126
8.04,0.999995172277012,134.61729473570733
8.048,0.9999951089688964,134.57019404019096
8.056000000000001,0.9999950454975153,134.523087504107
8.064,0.9999949818647399,134.4759751212684
8.072,0.9999949180724347,134.42885688548606
8.08,0.9999948541224569,134.38173279056895
8.088000000000001,0.9999947900166577,134.33460283032406
8.096,0.9999947257568802,134.28746699855648
8.104,0.9999946613449616,134.2403252890692
8.112,0.9999945967827323,134.19317769566334
8.120000000000001,0.9999945320720149,134.146024212138
8.128,0.9999944672146268,134.09886483229027
8.136,0.9999944022123783,134.0516995499153
8.144,0.9999943370670726,134.00452835880628
8.152000000000001,0.9999942717805074,133.95735125275436
8.16,0.9999942063544726,133.91016822554874
8.168,0.9999941407907534,133.86297927097664
8.176,0.9999940750911277,133.8157843828232
8.184000000000001,0.9999940092573673,133.76858355487167
8.192,0.9999939432912378,133.72137678090328
8.2,0.9999938771944985,133.6741640546973
8.208,0.999993810968903,133.6269453700308
8.216000000000001,0.9999937446161985,133.57972072067912
8.224,0.9999936781381269,133.53249010041543
8.232,0.9999936115364231,133.48525350301097
8.24,0.9999935448128169,133.43801092223487
8.248000000000001,0.9999934779690324,133.39076235185442
8.256,0.9999934110067871,133.34350778563473
8.264,0.9999933439277939,133.296247217339
8.272,0.9999932767337592,133.24898064072832
8.280000000000001,0.9999932094263844,133.20170804956186
8.288,0.9999931420073648,133.15442943759675
8.296,0.9999930744783911,133.10714479858802
8.304,0.9999930068411477,133.05985412628877
8.312,0.9999929390973139,133.01255741444996
8.32,0.9999928712485641,132.9652546568207
8.328,0.9999928032965669,132.91794584714785
8.336,0.9999927352429863,132.87063097917644
8.344,0.9999926670894806,132.82331004664928
8.352,0.9999925988377036,132.77598304330726
8.36,0.9999925304893035,132.7286499628892
8.368,0.999992462045924,132.68131079913184
8.376,0.9999923935092032,132.63396554576994
8.384,0.9999923248807756,132.58661419653617
8.392,0.9999922561622703,132.53925674516117
8.4,0.9999921873553107,132.49189318537347
8.408,0.9999921184615169,132.4445235108996
8.416,0.9999920494825043,132.39714771546403
8.424,0.9999919804198828,132.3497657927891
8.432,0.9999919112752587,132.30237773659522
8.44,0.9999918420502333,132.25498354060065
8.448,0.9999917727464036,132.2075831985215
8.456,0.9999917033653629,132.16017670407203
8.464,0.9999916339086992,132.11276405096416
8.472,0.999991564377997,132.06534523290796
8.48,0.9999914947748368,132.0179202436113
8.488,0.9999914251007942,131.97048907677998
8.496,0.9999913553574418,131.92305172611776
8.504,0.9999912855463473,131.87560818532626
8.512,0.9999912156690752,131.8281584481051
8.52,0.9999911457271856,131.7807025081517
8.528,0.9999910757222351,131.7332403591614
8.536,0.9999910056557764,131.6857719948276
8.544,0.9999909355293586,131.63829740884137
8.552,0.9999908653445272,131.59081659489178
8.56,0.9999907951028242,131.54332954666586
8.568,0.9999907248057879,131.49583625784848
8.576,0.9999906544549535,131.44833672212232
8.584,0.9999905840518525,131.40083093316807
8.592,0.999990513598013,131.35331888466422
8.6,0.9999904430949601,131.30580057028723
8.608,0.9999903725442157,131.25827598371131
8.616,0.9999903019472981,131.21074511860866
8.624,0.9999902313057232,131.16320796864932
8.632,0.9999901606210035,131.11566452750117
8.64,0.9999900898946485,131.06811478882997
8.648,0.999990019128165,131.02055874629934
8.656,0.9999899483230564,130.97299639357075
8.664,0.9999898774808241,130.92542772430363
8.672,0.9999898066029662,130.8778527321551
8.68,0.9999897356909786,130.83027141078026
8.688,0.999989664746354,130.78268375383195
8.696,0.9999895937705833,130.73508975496097
8.704,0.9999895227651543,130.6874894078159
8.712,0.9999894517315528,130.63988270604315
8.72,0.9999893806712618,130.59226964328695
8.728,0.9999893095857623,130.5446502131895
8.736,0.9999892384765331,130.4970244093906
8.744,0.9999891673450508,130.44939222552807
8.752,0.9999890961927896,130.40175365523748
8.76,0.9999890250212226,130.3541086921522
8.768,0.9999889538318194,130.30645732990345
8.776,0.9999888826260489,130.2587995621202
8.784,0.9999888114053777,130.21113538242938
8.792,0.9999887401712709,130.16346478445558
8.8,0.999988668925191,130.11578776182117
8.808,0.9999885976686005,130.06810430814647
8.815999999999999,0.9999885264029584,130.0204144170495
8.824,0.9999884551297233,129.97271808214606
8.832,0.9999883838503522,129.92501529704975
8.84,0.9999883125663004,129.87730605537206
8.847999999999999,0.9999882412790222,129.82959035072204
8.856,0.9999881699899703,129.78186817670672
8.864,0.9999880987005964,129.73413952693082
8.872,0.999988027412351,129.68640439499683
8.879999999999999,0.9999879561266832,129.63866277450504
8.888,0.9999878848450421,129.59091465905348
8.896,0.9999878135688746,129.5431600422379
8.904,0.9999877422996275,129.49539891765187
8.911999999999999,0.9999876710387466,129.44763127888666
8.92,0.9999875997876765,129.39985711953136
8.928,0.999987528547862,129.3520764331727
8.936,0.9999874573207468,129.30428921339526
8.943999999999999,0.9999873861077742,129.25649545378124
8.952,0.9999873149103866,129.20869514791067
8.96,0.9999872437300262,129.16088828936122
8.968,0.9999871725681357,129.11307487170842
8.975999999999999,0.9999871014261561,129.06525488852532
8.984,0.9999870303055297,129.0174283333829
8.992,0.999986959207697,128.96959519984964
9.0,0.9999868881341,128.92175548149189
9.008,0.9999868170861796,128.87390917187366
9.016,0.9999867460653776,128.82605626455657
9.024000000000001,0.9999866750731359,128.77819675310008
9.032,0.9999866041108956,128.7303306310612
9.04,0.9999865331800994,128.68245789199472
9.048,0.9999864622821898,128.63457852945302
9.056000000000001,0.9999863914186096,128.58669253698625
9.064,0.9999863205908025,128.53879990814218
9.072,0.9999862498002128,128.49090063646625
9.08,0.9999861790482848,128.44299471550158
9.088000000000001,0.9999861083364642,128.39508213878887
9.096,0.9999860376661979,128.34716289986665
9.104,0.9999859670389324,128.29923699227083
9.112,0.9999858964561164,128.2513044095352
9.120000000000001,0.999985825919199,128.20336514519107
9.128,0.9999857554296309,128.1554191927674
9.136,0.9999856849888636,128.10746654579083
9.144,0.9999856145983499,128.05950719778545
9.152000000000001,0.9999855442595443,128.0115411422732
9.16,0.9999854739739027,127.9635683727735
9.168,0.9999854037428819,127.91558888280335
9.176,0.9999853335679415,127.86760266587741
9.184000000000001,0.9999852634505416,127.81960971550795
9.192,0.9999851933921444,127.77161002520477
9.2,0.9999851233942146,127.72360358847527
9.208,0.9999850534582181,127.67559039882447
9.216000000000001,0.9999849835856232,127.6275704497549
9.224,0.9999849137778999,127.57954373476669
9.232,0.9999848440365212,127.53151024735752
9.24,0.9999847743629614,127.48346998102264
9.248000000000001,0.9999847047586978,127.43542292925486
9.256,0.9999846352252103,127.38736908554448
9.264,0.9999845657639805,127.33930844337938
9.272,0.9999844963764934,127.29124099624498
9.280000000000001,0.9999844270642366,127.24316673762416
9.288,0.9999843578287002,127.19508566099744
9.296,0.9999842886713775,127.14699775984269
9.304,0.9999842195937646,127.0989030276354
9.312000000000001,0.999984150597361,127.05080145784855
9.32,0.999984081683669,127.00269304395258
9.328,0.9999840128541944,126.9545777794154
9.336,0.9999839441104463,126.90645565770245
9.344,0.9999838754539372,126.85832667227663
9.352,0.9999838068861837,126.81019081659826
9.36,0.999983738408705,126.7620480841252
9.368,0.9999836700230249,126.71389846831266
9.376,0.9999836017306711,126.66574196261335
9.384,0.9999835335331747,126.61757856047745
9.392,0.9999834654320716,126.5694082553525
9.4,0.9999833974289011,126.52123104068352
9.408,0.9999833295252073,126.47304690991291
9.416,0.9999832617225384,126.42485585648049
9.424,0.9999831940224475,126.37665787382345
9.432,0.999983126426492,126.3284529553764
9.44,0.999983058936234,126.2802410945714
9.448,0.9999829915532402,126.23202228483773
9.456,0.9999829242790831,126.18379651960214
9.464,0.9999828571153389,126.13556379228875
9.472,0.9999827900635905,126.08732409631895
9.48,0.9999827231254248,126.0390774251116
9.488,0.9999826563024348,125.9908237720828
9.496,0.999982589596219,125.94256313064595
9.504,0.9999825230083809,125.89429549421187
9.512,0.9999824565405306,125.84602085618857
9.52,0.9999823901942839,125.79773920998147
9.528,0.9999823239712619,125.74945054899318
9.536,0.9999822578730928,125.7011548666237
9.544,0.9999821919014104,125.65285215627014
9.552,0.9999821260578551,125.60454241132706
9.56,0.9999820603440741,125.55622562518614
9.568,0.9999819947617208,125.50790179123636
9.576,0.999981929312456,125.45957090286386
9.584,0.9999818639979465,125.41123295345216
9.592,0.9999817988198674,125.36288793638177
9.6,0.9999817337798999,125.31453584503062
9.608,0.999981668879733,125.26617667277367
9.616,0.9999816041210637,125.21781041298316
9.624,0.999981539505596,125.16943705902838
9.632,0.9999814750350419,125.12105660427598
9.64,0.9999814107111211,125.07266904208953
9.648,0.9999813465355621,125.02427436582991
9.656,0.9999812825101011,124.97587256885501
9.664,0.9999812186364829,124.9274636445199
9.672,0.9999811549164611,124.87904758617675
9.68,0.9999810913517974,124.8306243871748
9.688,0.9999810279442634,124.7821940408603
9.696,0.999980964695639,124.73375654057674
9.704,0.9999809016077137,124.68531187966447
9.712,0.9999808386822866,124.63686005146103
9.72,0.9999807759211661,124.58840104930086
9.728,0.9999807133261702,124.53993486651551
9.736,0.9999806508991281,124.49146149643353
9.744,0.9999805886418776,124.44298093238037
9.752,0.9999805265562675,124.39449316767855
9.76,0.9999804646441575,124.3459981956475
9.768,0.999980402907418,124.29749600960358
9.776,0.9999803413479299,124.24898660286011
9.784,0.9999802799675855,124.20046996872738
9.792,0.9999802187682887,124.15194610051248
9.8,0.9999801577519546,124.10341499151943
9.808,0.9999800969205106,124.05487663504913
9.816,0.9999800362758956,124.00633102439934
9.824,0.9999799758200609,123.95777815286465
9.832,0.9999799155549703,123.9092180137365
9.84,0.9999798554826007,123.86065060030309
