freq,mag,phase
6.0,0.9999932268065206,-100.24037096227296
6.003796992,1.000044680916355,-100.44280461395537
6.007593984,1.0000922117642859,-100.64600049108839
6.011390464,1.0001342156312758,-100.84985828045409
6.015187456,1.00016816210207,-101.05426394428844
6.018984448,1.000192012210356,-101.25911534363973
6.02278144,1.0002040625170907,-101.46429395603374
6.02657792,1.0002038752504254,-101.66953577657645
6.030374912,1.000191303908134,-101.87477438261656
6.034171904,1.0001671040563749,-102.07976546453307
6.037968896,1.0001327996456661,-102.28435417541026
6.041765376,1.0000905760183312,-102.48842355968597
6.045562368,1.00004263762597,-102.69192943439829
6.04935936,0.9999922991891413,-102.89473921849044
6.053156352,0.999942355206867,-103.09685379725572
6.056952832,0.9998958675408496,-103.29832164506138
6.060749824,0.9998558313907975,-103.49922845610783
6.064546816,0.9998244745493117,-103.69963072359182
6.068343808,0.9998038793533276,-103.89968833404659
6.072140288,0.9997952793293124,-104.09959518240446
6.07593728,0.9997989893060868,-104.29947897444389
6.079734272,0.9998149228760733,-104.49954854256715
6.083531264,0.9998421624843925,-104.69995452435055
6.087327744,0.9998790949759117,-104.90083647354672
6.091124736,0.9999234192600628,-105.10231278805587
6.094921728,0.9999724799551142,-105.30450087824786
6.09871872,1.0000230728301718,-105.50743912460956
6.1025152,1.0000724817768558,-105.71112714129058
6.106312192,1.0001175087689642,-105.91549480077515
6.110109184,1.0001554718586372,-106.12049428084114
6.113906176,1.0001839767438074,-106.3259807303822
6.117702656,1.0002013906440332,-106.5318334080865
6.121499648,1.0002066145943624,-106.73789830398661
6.12529664,1.000199213854954,-106.94396725261032
6.129093632,1.00017994519814,-107.14985512855156
6.132890112,1.0001496493853606,-107.35543462675463
6.136687104,1.0001102438100604,-107.5605522182094
6.140484096,1.0000642017695145,-107.76509201012108
6.144281088,1.0000143378553408,-107.96897937990792
6.14807808,0.9999634890421731,-108.17221024513698
6.15187456,0.9999150104614445,-108.37472688804763
6.155671552,0.9998716186856996,-108.576630380168
6.159468544,0.9998359573166412,-108.77798180424702
6.163265536,0.9998103317213575,-108.97898071637732
6.167062016,0.9997962644345525,-109.1796877026607
6.170859008,0.999794510245173,-109.38032275003835
6.174656,0.999805426516506,-109.58105280395485
6.178452992,0.9998281133216685,-109.78204949449061
6.182249472,0.9998612858483125,-109.98343772817888
6.186046464,0.9999029125143163,-110.18543987579845
6.189843456,0.9999504938904836,-110.38808155433694
6.193640448,1.0000010223877993,-110.59146718345457
6.197436928,1.0000517364649288,-110.79560206405031
6.20123392,1.0000992054183326,-111.00043175064053
6.205030912,1.0001408139204933,-111.20591374014619
6.208827904,1.0001738240208227,-111.41201944729514
6.212624384,1.0001963548372608,-111.6185046743032
6.216421376,1.0002069847607795,-111.82527491564069
6.220218368,1.0002051029553305,-112.03215491523352
6.22401536,1.000190842173912,-112.23890906241309
6.22781184,1.000164981940632,-112.44540865993224
6.231608832,1.000129056999169,-112.65153507657877
6.235405824,1.0000854091831868,-112.85708883318922
6.239202816,1.0000365109775349,-113.06202361545485
6.242999296,0.9999854415684107,-113.26631293931399
6.246796288,0.9999352046010446,-113.4699015235369
6.25059328,0.9998889531226726,-113.67280393439975
6.254390272,0.9998494241075699,-113.87512123124965
6.258186752,0.9998190481708015,-114.07698505249657
6.261983744,0.9997997438796882,-114.27852229072359
6.265780736,0.999792514679553,-114.47987924008807
6.269577728,0.9997980311311438,-114.68131072748767
6.27337472,0.9998157385736696,-114.8828793472525
6.2771712,0.9998447034718895,-115.08478506881632
6.280968192,0.9998831320918551,-115.28723811045695
6.284765184,0.9999286981966661,-115.49032420565001
6.288562176,0.9999786959104476,-115.694138260026
6.292358656,1.0000299746131673,-115.89865947245896
6.296155648,1.0000795454356428,-116.10392014392204
6.29995264,1.0001242978076454,-116.30991686889297
6.303749632,1.0001616024339814,-116.5165129970726
6.307546112,1.0001889560091908,-116.72358482073071
6.311343104,1.0002050762304477,-116.93100881189767
6.315140096,1.0002087578150374,-117.13859990977583
6.318937088,1.0001996787557577,-117.34616574349685
6.322733568,1.0001785999714,-117.55355739416612
6.32653056,1.0001466682986901,-117.76062020245199
6.330327552,1.0001058411658976,-117.96713010545272
6.334124544,1.0000586825739886,-118.17312763559895
6.337921024,1.0000078209398144,-118.37841268088151
6.341718016,0.9999566031742809,-118.58299223024956
6.345515008,0.9999079662837191,-118.7869126595988
6.349312,0.9998648741040611,-118.99018423708213
6.35310848,0.9998301019120597,-119.19294221184896
6.356905472,0.9998055899756255,-119.39528685661573
6.360702464,0.9997928932326923,-119.59740683840593
6.364499456,0.999792748109394,-119.79945105201328
6.368295936,0.9998053947168756,-120.00164460787538
6.372092928,0.9998297239127303,-120.20410118875026
6.37588992,0.999864491123242,-120.407000287987
6.379686912,0.999907540341267,-120.61048337728842
6.383483392,0.9999561957047445,-120.81466692742788
6.387280384,1.0000075952597105,-121.01958936202698
6.391077376,1.0000586387184667,-121.22524820595243
6.394874368,1.0001060732563798,-121.43164893114609
6.398670848,1.0001471814893943,-121.63866060579522
6.40246784,1.0001793326038553,-121.84629510211396
6.406264832,1.0002006841149753,-122.0542845739865
6.410061824,1.0002098813622575,-122.26252843361242
6.413858816,1.0002063798367962,-122.47085630938942
6.417655296,1.0001902750666125,-122.67907722412727
6.421452288,1.00016274043978,-122.8869868162322
6.42524928,1.0001253431224044,-123.09446900042387
6.429046272,1.0000802817565007,-123.30140184964807
6.432842752,1.0000304675996838,-123.50765788634887
6.436639744,0.9999786481211196,-123.7132435438514
6.440436736,0.9999282331467637,-123.91815804531923
6.444233728,0.9998821307938268,-124.1223553550879
6.448030208,0.9998431465510913,-124.32599739410054
6.4518272,0.9998137179654145,-124.52919770326646
6.455624192,0.9997956365664408,-124.73207801305183
6.459421184,0.9997900063854359,-124.93478317895394
6.463217664,0.9997970779780608,-125.13753899299667
6.467014656,0.999816511336562,-125.34050100799412
6.470811648,0.9998471882246746,-125.54387109263523
6.47460864,0.9998870450527313,-125.7477668324078
6.47840512,0.9999340399330934,-125.95229517212665
6.482202112,0.9999848166437466,-126.15754053597887
6.485999104,1.000036685540097,-126.3635077938004
6.489796096,1.000086429214998,-126.57026060483814
6.493592576,1.0001308502240658,-126.77774582361124
6.497389568,1.000167435577499,-126.98575043713544
6.50118656,1.0001939020367219,-127.19428276010986
6.504983552,1.000208622668886,-127.40312669042945
6.508780032,1.0002107692598363,-127.61210313248735
6.512577024,1.0002000467814107,-127.82105981315631
6.516374016,1.0001772898155004,-128.02981398951653
6.520171008,1.0001437506053863,-128.23818292800237
6.523967488,1.0001014506918653,-128.4460197664417
6.52776448,1.000053071513418,-128.6532750857364
6.531561472,1.0000013882590713,-128.85981767928138
6.535358464,0.9999496359307145,-129.06566257667924
6.539154944,0.9999010451237904,-129.27077834909184
6.542951936,0.999858386972739,-129.47529821302751
6.546748928,0.9998243004027987,-129.6792988485065
6.55054592,0.9998008812710257,-129.8829440310386
6.554342912,0.999789595176131,-130.08630766664993
6.558139392,0.9997911111758981,-130.28967673048334
6.561936384,0.9998053427021197,-130.4931400677468
6.565733376,0.9998313837224649,-130.6969452287799
6.569530368,0.9998677064368438,-130.90121173966563
6.573326848,0.9999122193223939,-131.10606287627726
6.57712384,0.999961958969866,-131.3116009127804
6.580920832,1.0000140777979656,-131.517926030524
6.584717824,1.0000654623679037,-131.72496809655811
6.588514304,1.0001127634614577,-131.93275810018633
6.592311296,1.0001533787181056,-132.1412086990922
6.596108288,1.0001847627565095,-132.35018910764768
6.59990528,1.000205002306103,-132.5595264801572
6.60370176,1.0002127300243207,-132.76911138200037
6.607498752,1.0002075298342041,-132.97875059177284
6.611295744,1.0001899133644705,-133.1882361308812
6.615092736,1.000160716800988,-133.39744714289455
6.618889216,1.0001216753282116,-133.60615464319872
6.622686208,1.0000754099440823,-133.81431279469345
6.6264832,1.0000244795185296,-134.02175752989
6.630280192,0.9999719849573329,-134.22852829987596
6.634076672,0.9999213056123357,-134.43457030717246
6.637873664,0.9998753284787507,-134.63996340228002
6.641670656,0.999837045166331,-134.84478504694914
6.645467648,0.9998085822486903,-135.04912718504622
6.649264128,0.9997916349525322,-135.25319365052144
6.65306112,0.9997874785091759,-135.45713154768808
6.656858112,0.9997962027505382,-135.66108532363174
6.660655104,0.9998172943084671,-135.86533032948196
6.664451584,0.9998495227906193,-136.06992814329098
6.668248576,0.9998909756406282,-136.27509683526202
6.672045568,0.999939056316774,-136.48091214973132
6.67584256,0.999990873572222,-136.68749598613326
6.679639552,1.0000432174855243,-136.89480417514426
6.683436032,1.0000930451106786,-137.102874635296
6.687233024,1.0001373598523517,-137.31161971641518
6.691030016,1.0001731906825588,-137.52096149760737
6.694827008,1.0001986451324725,-137.73082647316414
6.698623488,1.0002119848101472,-137.94091264184144
6.70242048,1.0002126116601202,-138.1511333271306
6.706217472,1.0002003251796272,-138.3613187429504
6.710014464,1.0001758871734823,-138.5712545557086
6.713810944,1.0001407652182932,-138.7808003097924
6.717607936,1.0000970059478311,-138.98979969707656
6.721404928,1.0000474645011153,-139.19816368220347
6.72520192,0.9999950375067433,-139.40581743541293
6.7289984,0.9999428721248352,-139.6127550785278
6.732795392,0.9998941282029832,-139.8189776934246
6.736592384,0.9998518618629053,-140.0245812145569
6.740389376,0.999818551005903,-140.2296791798611
6.744185856,0.9997962749030042,-140.43438056250025
6.747982848,0.999786274826145,-140.63888004727545
6.75177984,0.9997893638858236,-140.843388661712
6.755576832,0.9998052358393993,-141.04800971435878
6.759373312,0.9998329653488767,-141.2529747184098
6.763170304,0.9998708355824689,-141.45842905691265
6.766967296,0.9999165690700336,-141.66449675432244
6.770764288,0.9999673578376178,-141.87127839139998
6.774560768,1.0000203218089159,-142.07881187231905
6.77835776,1.000071952577605,-142.28711786172437
6.782154752,1.0001192985645695,-142.49614522445498
6.785951744,1.000159496955605,-142.70579830114977
6.789748224,1.000189957390467,-142.91600106902098
6.793545216,1.0002089877249403,-143.12655276364399
6.797342208,1.0002153482876384,-143.3373182237009
6.8011392,1.0002085907369158,-143.5481049958279
6.80493568,1.0001892319429029,-143.75873404914137
6.808732672,1.000158442737678,-143.96901711904923
6.812529664,1.0001179354257625,-144.1788230286612
6.816326656,1.0000703923218208,-144.38802670909928
6.820123648,1.000018470752356,-144.59651783129559
6.823920128,0.9999654220267834,-144.8043050351455
6.82771712,0.999914509252928,-145.01136957080868
6.831514112,0.9998686535964618,-145.21775967508043
6.835311104,0.9998308364361489,-145.42358939863936
6.839107584,0.9998033096253732,-145.62896127956841
6.842904576,0.9997877153075179,-145.8340296979027
6.846701568,0.9997849529360949,-146.03900810126947
6.85049856,0.9997952994206959,-146.2440504031148
6.85429504,0.9998181302596623,-146.44934829636546
6.858092032,0.9998519603886897,-146.6550923739747
6.861889024,0.9998947553579459,-146.86135822363497
6.865686016,0.9999440260180412,-147.0683153522122
6.869482496,0.9999967822180952,-147.27602594076723
6.873279488,1.0000497130712396,-147.48448970555728
6.87707648,1.0000997017333708,-147.6937363833928
6.880873472,1.0001435805676673,-147.90364310117548
6.884669952,1.0001788906977842,-148.11411210551415
6.888466944,1.0002033702534234,-148.3250596806259
6.892263936,1.0002154652523383,-148.53630960676713
6.896060928,1.0002144905192618,-148.74762700598922
6.899857408,1.0002006482878245,-148.95884620592238
6.9036544,1.0001745377083073,-149.1698323383899
6.907451392,1.000137879847816,-149.3803781541634
6.911248384,1.0000927382322213,-149.590323862139
6.915044864,1.0000420812954085,-149.79966585363326
6.918841856,0.9999888208192117,-150.00824629953124
6.922638848,0.9999361656308889,-150.21613234424746
6.92643584,0.9998874536299702,-150.42326638557532
6.93023232,0.999845523843102,-150.629811455796
6.934029312,0.9998129455841598,-150.83579896978335
6.937826304,0.9997917767602431,-151.04149547807663
6.941623296,0.9997831540756882,-151.24692824553665
6.945419776,0.9997877990446725,-151.45240400806537
6.949216768,0.9998052477414874,-151.65802489645142
6.95301376,0.9998346399699707,-151.863996654489
6.956810752,0.9998740050856569,-152.070469104046
6.960607744,0.9999210695313089,-152.27757952121362
6.964404224,0.9999729583208534,-152.48541144980052
6.968201216,1.0000266034201613,-152.69400026823413
6.971998208,1.0000786553939245,-152.90337157862547
6.9757952,1.0001258730487177,-153.11347446776318
6.97959168,1.0001655242879313,-153.32420134062517
6.983388672,1.000195182753847,-153.53545461173815
6.987185664,1.0002130674057153,-153.74704548677568
6.990982656,1.000218098704915,-153.95881538702693
6.994779136,1.000209747993047,-154.17057572323716
6.998576128,1.00018884919631,-154.38218285014045
7.00237312,1.0001563472726955,-154.59338684005513
7.006170112,1.0001144797669461,-154.80409238355546
7.009966592,1.0000655447823206,-155.01415929817324
7.013763584,1.0000126114402568,-155.22355700611863
7.017560576,0.9999590132561607,-155.4321523995056
7.021357568,0.9999077755144946,-155.64007607507702
7.025154048,0.9998622074736269,-155.84730717446806
7.02895104,0.9998249665721445,-156.0539476138453
7.032748032,0.9997983045600423,-156.2601533790006
7.036545024,0.9997839920917182,-156.46612147622554
7.040341504,0.9997826757804158,-156.6719533281603
7.044138496,0.9997945584639198,-156.87789988162768
7.047935488,0.9998189667574859,-157.0841112355455
7.05173248,0.9998544079665359,-157.29075817235145
7.05552896,0.999898696664221,-157.49798964137037
7.059325952,0.9999491797928862,-157.70593710098962
7.063122944,1.000002819126811,-157.91459361599408
7.066919936,1.0000562851869401,-158.12406958389835
7.070716416,1.0001063567104498,-158.3342540525429
7.074513408,1.0001499962050984,-158.54515737938812
7.0783104,1.0001846392573952,-158.75662902491146
7.082107392,1.0002080782255869,-158.96850933086324
7.085904384,1.0002189416621674,-159.18065242489283
7.089700864,1.0002164860396374,-159.39288972188436
7.093497856,1.0002010024569485,-159.60501436683123
7.097294848,1.0001732089738453,-159.8168530457542
7.10109184,1.000134913180003,-160.02820275555823
7.10488832,1.0000885304023208,-160.23899586325248
7.108685312,1.000036688181198,-160.44909483042784
7.112482304,0.9999826027374902,-160.65845381100985
7.116279296,0.9999295571202526,-160.86705286378137
7.120075776,0.9998807859001303,-161.07497129384524
7.123872768,0.9998392176825711,-161.28224508405
7.12766976,0.9998073827999089,-161.48902060908532
7.131466752,0.9997872176711446,-161.6954427651263
7.135263232,0.9997800296711306,-161.90168369347592
7.139060224,0.99978620211879,-162.1079306357901
7.142857216,0.9998053078156379,-162.314367360384
7.146654208,0.9998362428407676,-162.52118459358786
7.150450688,0.999877198263509,-162.72849433325166
7.15424768,0.9999255933127899,-162.93647813700994
7.158044672,0.9999785380441848,-163.14518681453893
7.161841664,1.0000328538065657,-163.35467198722645
7.165638144,1.0000852203010513,-163.56493371997357
7.169435136,1.0001324198863968,-163.7759304060125
7.173232128,1.0001716358191104,-163.98752876459827
7.17702912,1.0002004524521317,-164.1996352333848
7.1808256,1.0002171663550448,-164.41208332318269
7.184622592,1.000220709756146,-164.62470815899675
7.188419584,1.0002108815493798,-164.8372839042026
7.192216576,1.0001882691363828,-165.04962792280404
7.196013056,1.0001542594146038,-165.26161396572758
7.199810048,1.0001108079477552,-165.47304941926637
7.20360704,1.0000607095030811,-165.68381637667457
7.207404032,1.0000068738134804,-165.8939013392116
7.211200512,0.9999525789965168,-166.103202089022
7.214997504,0.9999011343102372,-166.3117444460553
7.218794496,0.9998557344615847,-166.51962438886883
7.222591488,0.9998190254683149,-166.72694062224497
7.22638848,0.9997932748021208,-166.93382897783707
7.23018496,0.9997800960318011,-167.1404581895964
7.233981952,0.9997802899093008,-167.34698026096834
7.237778944,0.9997937834149411,-167.55362504899432
7.241575936,0.9998198528004171,-167.76056818364728
7.245372416,0.9998567981867853,-167.96796552996955
7.249169408,0.9999025581514206,-168.17598434079275
7.2529664,0.9999542546705353,-168.38467708125407
7.256763392,1.000008662641354,-168.59416674161798
7.260559872,1.0000627737106815,-168.80442011099078
7.264356864,1.0001129496884977,-169.01541096535215
7.268153856,1.0001564382591193,-169.22710336296245
7.271950848,1.0001903803204948,-169.43938198890498
7.275747328,1.000212791792479,-169.65202118507636
7.27954432,1.0002223833453414,-169.86494354259287
7.283341312,1.0002184780634216,-170.07790498057207
7.287138304,1.0002012964959908,-170.29070436831566
7.290934784,1.0001719358465442,-170.50321506581412
7.294731776,1.0001321750763696,-170.71522793231
7.298528768,1.0000842894834143,-170.92663756895251
7.30232576,1.0000312813449141,-171.13732516358775
7.30612224,0.999976483187802,-171.34728297125173
7.309919232,0.9999229612158289,-171.55648604328033
7.313716224,0.9998741662160642,-171.76494282879844
7.317513216,0.9998330040367149,-171.9728079324282
7.321309696,0.9998018879867421,-172.1801543498115
7.325106688,0.9997828679197713,-172.38713973567167
7.32890368,0.9997769636076325,-172.59396804136864
7.332700672,0.999784604625636,-172.80080672522956
7.336497152,0.9998053829385701,-173.00786959268058
7.340294144,0.9998379682377794,-173.21534990164372
7.344091136,0.9998804758684772,-173.4233546095573
7.347888128,0.9999301985200377,-173.63199795130535
7.351684608,0.9999840826122918,-173.84140524525515
7.3554816,1.000039206700366,-174.05158392931523
7.359278592,1.0000918703700454,-174.26257977316482
7.363075584,1.0001390357336737,-174.47426951394792
7.366872576,1.0001778424599588,-174.68658812689108
7.370669056,1.0002057944667162,-174.89938207962058
7.374466048,1.000221372541855,-175.11249991144422
7.37826304,1.000223435602254,-175.32574981795392
7.382060032,1.0002120493351894,-175.5389393609507
7.385856512,1.0001878251242275,-175.7519226771047
7.389653504,1.000152136032067,-175.96443678473662
7.393450496,1.0001071997070643,-176.17640705025107
7.397247488,1.0000558530362929,-176.3877185589619
7.401043968,1.0000010449101147,-176.59828945695475
7.40484096,0.9999461234235896,-176.80809395633457
7.408637952,0.9998944808777287,-177.01711315888153
7.412434944,0.9998491859817173,-177.22549088074567
7.416231424,0.9998130555504116,-177.4332800020864
7.420028416,0.9997882509307476,-177.6406324538489
7.423825408,0.9997762805902142,-177.84775306602108
7.4276224,0.9997779630296284,-178.05478992068555
7.43141888,0.9997930944950255,-178.26197859135215
7.435215872,0.9998207421187233,-178.46945769098656
7.439012864,0.9998593932886903,-178.67741509186376
7.442809856,0.9999065781725596,-178.88601741403735
7.446606336,0.9999594316053391,-179.09529500384957
7.450403328,1.00001477332643,-179.305402549323
7.45420032,1.0000693800524916,-179.51625554762956
7.457997312,1.0001196405772417,-179.72788419298212
7.461793792,1.0001629077435714,-179.94020326677014
7.465590784,1.0001962102441946,179.84695838344314
7.469387776,1.0002174915954138,179.63371667995006
7.473184768,1.0002259700275513,179.42021836582964
7.476981248,1.0002204344969263,179.20674332036015
7.48077824,1.0002016788615855,178.99340065177955
7.484575232,1.0001707219113278,178.7804169905379
7.488372224,1.0001293412870798,178.56791949699766
7.492169216,1.0000800337522011,178.3560809666002
7.495965696,1.0000260479984786,178.14493192917965
7.499762688,0.9999702694878249,177.934595783677
7.50355968,0.9999164042717043,177.72500160762957
