freq,mag,phase
6.0,0.9999970581027386,57.55271921117767
6.008,0.9999973796410135,57.347737177690746
6.016,0.9999976879133697,57.14262883195479
6.024,0.9999979831982612,56.93739438099059
6.032,0.9999982657710194,56.732034034138856
6.04,0.9999985359038674,56.52654800306336
6.048,0.9999987938659332,56.32093650175413
6.056,0.9999990399232627,56.11519974653055
6.064,0.9999992743388342,55.90933795604427
6.072,0.999999497372571,55.703351351282215
6.08,0.9999997092813568,55.49724015556947
6.088,0.9999999103190472,55.29100459457192
6.096,1.0,55.084644896299096
6.104,1.0,54.87816129110667
6.112,0.9999999999999998,54.67155401169911
6.12,1.0,54.46482329313205
6.128,1.0,54.25796937281471
6.136,1.0,54.05099249051225
6.144,1.0,53.843892888347874
6.152,0.9999999999999999,53.63667081080509
6.16,0.9999999999999999,53.429326504729715
6.168,1.0,53.22186021933186
6.176,1.0,53.01427220618783
6.184,1.0,52.80656271924196
6.192,1.0,52.598732014808256
6.2,1.0,52.39078035157221
6.208,1.0,52.18270799059217
6.216,1.0,51.97451519530094
6.224,0.9999999999999999,51.76620223150714
6.232,1.0,51.55776936739651
6.24,0.9999999999999999,51.349216873533074
6.248,0.9999999999999999,51.14054502286041
6.256,0.9999999999999999,50.93175409070251
6.264,1.0,50.7228443547649
6.272,1.0,50.5138160951354
6.28,1.0,50.30466959428492
6.288,0.9999999999999999,50.0954051370682
6.296,1.0,49.88602301072435
6.304,1.0,49.676523504877366
6.312,1.0000000000000002,49.46690691153658
6.32,1.0,49.25717352509696
6.328,1.0,49.04732364233933
6.336,0.9999999999999999,48.83735756243049
6.344,1.0,48.62727558692342
6.352,1.0,48.41707801975695
6.36,1.0000000000000002,48.2067651672559
6.368,0.9999999999999999,47.99633733813069
6.376,1.0,47.78579484347702
6.384,1.0,47.57513799677554
6.392,0.9999999999999999,47.364367113891184
6.4,1.0000000000000002,47.153482513072724
6.408,1.0,46.94248451495192
6.416,1.0,46.7313734425428
6.424,0.9999999999999999,46.52014962124067
6.432,1.0,46.308813378821235
6.44,1.0,46.097365045439375
6.448,1.0,45.88580495362797
6.456,0.9999999999999999,45.67413343829676
6.464,1.0,45.46235083673066
6.472,1.0,45.25045748858852
6.48,0.9999999999999999,45.03845373590146
6.4879999999999995,1.0,44.82633992307111
6.496,1.0,44.61411639686777
6.504,1.0,44.40178350642883
6.5120000000000005,1.0,44.18934160325624
6.52,1.0,43.976791041215016
6.5280000000000005,0.9999999999999998,43.764132176530524
6.536,1.0,43.55136536778649
6.5440000000000005,1.0,43.33849097592245
6.552,0.9999999999999999,43.12550936423134
6.5600000000000005,0.9999999999999999,42.912420898356764
6.568,0.9999999857945173,42.69922594629047
6.5760000000000005,0.9999998927271717,42.485924878369225
6.584,0.9999997992252947,42.2725180672723
6.592,0.9999997053820028,42.05900588801806
6.6,0.999999611288365,41.84538871796106
6.608,0.9999995170334192,41.63166693678878
6.616,0.9999994227041885,41.41784092651821
6.624,0.9999993283856982,41.203911071492485
6.632,0.9999992341609915,40.98987775837728
6.64,0.9999991401111463,40.775741376157214
6.648,0.9999990463152925,40.56150231613199
6.656,0.9999989528506267,40.34716097191265
6.664,0.9999988597924306,40.132717739417544
6.672,0.9999987672140863,39.9181730168682
6.68,0.999998675187094,39.70352720478523
6.688,0.9999985837810869,39.48878070598396
6.696,0.99999849306385,39.27393392557011
6.704,0.9999984031013349,39.05898727093517
6.712,0.9999983139576771,38.843941151751906
6.72,0.9999982256952127,38.628795979969595
6.728,0.9999981383744947,38.41355216980916
6.736,0.9999980520543101,38.19821013775824
6.744,0.9999979667916964,37.9827703025662
6.752,0.9999978826419575,37.767233085238956
6.76,0.9999977996586817,37.55159890903364
6.768,0.9999977178937575,37.335868199453344
6.776,0.9999976373973898,37.12004138424158
6.784,0.999997558218118,36.904118893376676
6.792,0.9999974804028313,36.6881011590661
6.8,0.999997403996787,36.47198861574073
6.808,0.9999973290436244,36.255781700048786
6.816,0.9999972555853843,36.039480850849955
6.824,0.9999971836625243,35.82308650920922
6.832,0.9999971133139354,35.606599118390555
6.84,0.9999970445769591,35.39001912385069
6.848,0.999996977487404,35.17334697323253
6.856,0.9999969120795626,34.956583116358715
6.864,0.9999968483862267,34.7397280052249
6.872,0.9999967864387059,34.52278209399288
6.88,0.9999967262668428,34.3057458389839
6.888,0.9999966678990306,34.08861969867142
6.896,0.9999966113622287,33.87140413367426
6.904,0.9999965566819801,33.65409960674913
6.912,0.9999965038824277,33.43670658278349
6.92,0.9999964529863308,33.21922552878805
6.928,0.9999964040150814,33.00165691388922
6.936,0.9999963569887217,32.784001209321474
6.944,0.9999963119259594,32.566258888419576
6.952,0.9999962688441849,32.34843042661078
6.96,0.9999962277594876,32.130516301406765
6.968,0.9999961886866723,31.912516992395545
6.976,0.999996151639276,31.694432981233454
6.984,0.9999961166295839,31.476264751636577
6.992,0.9999960836686458,31.258012789372575
7.0,0.9999960527662927,31.039677582252075
7.008,0.9999960239311532,30.82125962012007
7.016,0.9999959971706693,30.602759394847123
7.024,0.9999959724911142,30.38417740032067
7.032,0.9999959498976057,30.165514132435984
7.04,0.9999959293941255,29.946770089087117
7.048,0.9999959109835337,29.727945770157856
7.056,0.9999958946675854,29.5090416775123
7.064,0.999995880446947,29.29005831498567
7.072,0.999995868321212,29.0709961883747
7.08,0.9999958582889176,28.85185580542815
7.088,0.9999958503475593,28.63263767583712
7.096,0.99999584449361,28.413342311225183
7.104,0.999995840722532,28.193970225138624
7.112,0.9999958390287961,27.97452193303633
7.12,0.9999958394058963,27.75499795227977
7.128,0.9999958418463653,27.535398802122796
7.136,0.9999958463417907,27.31572500370129
7.144,0.9999958528828315,27.09597708002279
7.152,0.999995861459233,26.876155555955975
7.16,0.9999958720598419,26.656260958220113
7.168,0.9999958846726238,26.436293815374224
7.176,0.9999958992846771,26.21625465780638
7.184,0.9999959158822493,25.996144017722774
7.192,0.9999959344507533,25.77596242913665
7.2,0.9999959549747806,25.555710427857246
7.208,0.999995977438119,25.335388551478562
7.216,0.9999960018237669,25.11499733936805
7.224,0.9999960281139488,24.89453733265519
7.232,0.999996056290131,24.67400907422
7.24,0.9999960863330359,24.453413108681413
7.248,0.9999961182226581,24.232749982385577
7.256,0.9999961519382786,24.01202024339408
7.264,0.9999961874584804,23.791224441471993
7.272,0.9999962247611643,23.57036312807591
7.28,0.9999962638235622,23.349436856341896
7.288,0.9999963046222525,23.1284461810732
7.296,0.9999963471331759,22.907391658728105
7.304,0.9999963913316491,22.686273847407453
7.312,0.9999964371923796,22.465093306842217
7.32,0.9999964846894812,22.243850598380938
7.328,0.9999965337964872,22.02254628497709
7.336,0.9999965844863663,21.801180931176315
7.344,0.9999966367315359,21.57975510310358
7.352,0.9999966905038774,21.35826936845028
7.36,0.9999967457747496,21.136724296461217
7.368,0.9999968025150039,20.915120457921486
7.376,0.9999968606949973,20.693458425143273
7.384,0.9999969202846078,20.471738771952598
7.392,0.9999969812532478,20.249962073675945
7.4,0.9999970435698778,20.028128907126778
7.4079999999999995,0.9999971072030208,19.80623985059205
7.416,0.9999971721207755,19.58429548381846
7.4239999999999995,0.999997238290831,19.362296387998988
7.432,0.9999973056804792,19.140243145758742
7.4399999999999995,0.9999973742566292,18.918136341141498
7.448,0.9999974439858217,18.695976559595277
7.4559999999999995,0.99999751483424,18.473764387958767
7.464,0.9999975867677252,18.2515004144468
7.4719999999999995,0.9999976597517894,18.029185228636457
7.48,0.9999977337516285,17.806819421452488
7.4879999999999995,0.9999978087321348,17.584403585153304
7.496,0.9999978846579112,17.36193831331611
7.504,0.9999979614932828,17.139424200822845
7.5120000000000005,0.9999980392023113,16.916861843845123
7.52,0.9999981177488064,16.694251839829995
7.5280000000000005,0.9999981970963391,16.47159478748481
7.536,0.9999982772082547,16.248891286762742
7.5440000000000005,0.9999983580476839,16.026141938847577
7.552,0.9999984395775575,15.803347346139038
7.5600000000000005,0.9999985217606165,15.580508112237439
7.568,0.9999986045594254,15.357624841928919
7.5760000000000005,0.9999986879363848,15.134698141169894
7.584,0.9999987718537429,14.91172861707215
7.5920000000000005,0.9999988562736064,14.688716877887185
7.6,0.9999989411579551,14.465663532991185
7.6080000000000005,0.9999990264686512,14.242569192869185
7.616,0.9999991121674521,14.019434469099922
7.6240000000000006,0.9999991982160216,13.796259974339877
7.632,0.9999992845759422,13.573046322308013
7.640000000000001,0.9999993712087256,13.349794127769654
7.648,0.9999994580758246,13.12650400652111
7.656000000000001,0.9999995451386436,12.903176575373454
7.664,0.9999996323585507,12.679812452137007
7.672,0.9999997196968885,12.456412255604995
7.68,0.9999998071149842,12.232976605537829
7.688,0.9999998945741615,12.0095061226469
7.696,0.9999999820357501,11.786001428578452
7.704,0.9999999999999999,11.562463145897413
7.712,0.9999999999999999,11.338891898071138
7.72,0.9999999999999999,11.115288309453126
7.728,1.0,10.891653005266651
7.736,0.9999999999999999,10.667986611588374
7.744,1.0,10.444289755331871
7.752,0.9999999999999999,10.220563064231156
7.76,1.0,9.996807166824091
7.768,1.0,9.773022692435823
7.776,1.0,9.549210271162089
7.784,1.0,9.325370533852576
7.792,0.9999999999999998,9.10150411209412
7.8,0.9999999999999999,8.877611638193962
7.808,1.0,8.653693745162915
7.816,1.0,8.429751066698477
7.824,1.0,8.205784237167926
7.832,0.9999999999999999,7.981793891591376
7.84,1.0,7.757780665624785
7.848,1.0,7.533745195542916
7.856,1.0,7.309688118222274
7.864,1.0,7.085610071124012
7.872,1.0,6.861511692276788
7.88,0.9999999999999999,6.6373936202596004
7.888,1.0,6.413256494184567
7.896,1.0,6.189100953679719
7.904,1.0,5.964927638871714
7.912,1.0,5.740737190368542
7.92,1.0,5.516530249242217
7.928,1.0,5.292307457011406
7.936,0.9999999999999999,5.068069455624065
7.944,1.0,4.843816887440037
7.952,0.9999999999999999,4.619550395213615
7.96,0.9999999999999999,4.395270622076107
7.968,1.0,4.170978211518351
7.976,1.0,3.9466738073732297
7.984,0.9999999999999999,3.722358053798159
7.992,1.0,3.4980315952575545
8.0,1.0,3.2736950765052826
8.008,1.0,3.049349142567124
8.016,1.0,2.82499443872307
8.024000000000001,1.0,2.600631610489947
8.032,1.0,2.3762613036036875
8.04,1.0,2.1518841640016166
8.048,0.9999999999999998,1.9275008378049123
8.056000000000001,1.0,1.7031119713010672
8.064,1.0,1.47871821092615
8.072,0.9999999999999999,1.2543202032470373
8.08,1.0,1.029918594943858
8.088000000000001,1.0,0.8055140327924214
8.096,1.0,0.5811071636464522
8.104,1.0,0.35669863441980393
8.112,1.0,0.13228909206889472
8.120000000000001,1.0,-0.09212081642487654
8.128,1.0,-0.3165304440729129
8.136,1.0,-0.5409391438971805
8.144,0.9999999999999999,-0.7653462689477999
8.152000000000001,0.9999999999999999,-0.9897511723206003
8.16,1.0,-1.2141532071748946
8.168,1.0,-1.438551726751239
8.176,1.0,-1.662946084388971
8.184000000000001,0.9999999999999999,-1.8873356335437745
8.192,1.0,-2.111719727805398
8.2,0.9999999999999998,-2.3360977209153844
8.208,0.9999999999999999,-2.56046896678459
8.216000000000001,1.0,-2.7848328195106693
8.224,1.0,-3.009188633395782
8.232,1.0,-3.2335357629642467
8.24,1.0,-3.457873562980007
8.248000000000001,1.0,-3.682201388464068
8.256,0.9999999999999999,-3.906518594712126
8.264,1.0,-4.130824537312139
8.272,1.0,-4.355118572161749
8.280000000000001,1.0,-4.579400055485626
8.288,1.0,-4.803668343852985
8.296,1.0,-5.027922794195137
8.304,1.0,-5.252162763822753
8.312,0.9999999999999999,-5.476387610443068
8.32,1.0,-5.700596692177613
8.328,0.9999999999999998,-5.924789367579072
8.336,1.0,-6.148964995648994
8.344,1.0,-6.373122935854629
8.352,0.9999999999999999,-6.597262548146555
8.36,1.0,-6.821383192975455
8.368,0.9999999999999998,-7.045484231309687
8.376,1.0,-7.269565024651982
8.384,1.0,-7.493624935056938
8.392,1.0,-7.717663325147679
8.4,1.0,-7.941679558133239
8.408,1.0,-8.165672997825165
8.416,0.9999999999999999,-8.389643008654817
8.424,1.0,-8.613588955689877
8.432,1.0,-8.837510204651615
8.44,1.0,-9.061406121931256
8.448,1.0,-9.285276074607177
8.456,0.9999999999999999,-9.509119430461219
8.464,0.9999999999999998,-9.732935557995752
8.472,1.0,-9.956723826449917
8.48,1.0,-10.180483605816592
8.488,1.0,-10.404214266858528
8.496,0.9999999999999999,-10.627915181125228
8.504,1.0000000000000002,-10.851585720968993
8.512,1.0,-11.075225259561686
8.52,0.9999999999999999,-11.29883317091066
8.528,0.9999999999999999,-11.522408829875435
8.536,0.9999999999999999,-11.745951612183518
8.544,0.9999999999999999,-11.96946089444698
8.552,1.0,-12.19293605417814
8.56,1.0,-12.416376469806032
8.568,1.0,-12.639781520691992
8.576,1.0,-12.863150587145997
8.584,1.0,-13.08648305044214
8.592,0.9999999999999999,-13.309778292834824
8.6,1.0,-13.53303569757414
8.608,0.9999999999999999,-13.75625464892196
8.616,0.9999999999999999,-13.979434532167115
8.624,0.9999999999999998,-14.202574733641416
8.632,0.9999999999999999,-14.425674640734709
8.64,1.0000000000000002,-14.648733641910724
8.648,1.0,-14.871751126722026
8.656,1.0,-15.094726485825737
8.664,0.9999999999999999,-15.317659110998312
8.672,0.9999999999999999,-15.540548395151157
8.68,1.0,-15.763393732345268
8.688,1.0,-15.986194517806664
8.696,0.9999999999999999,-16.20895014794095
8.704,1.0,-16.431660020348534
8.712,1.0,-16.654323533839122
8.72,1.0,-16.876940088446702
8.728,0.9999998797524763,-17.099509085443938
8.736,0.9999997381079201,-17.322029927357047
8.744,0.9999995941648941,-17.544502017979923
8.752,0.9999994479366959,-17.766924762388964
8.76,0.9999992994370829,-17.989297566957006
8.768,0.9999991486802678,-18.211619839367987
8.776,0.9999989956809162,-18.433890988630722
8.784,0.9999988404541428,-18.65611042509342
8.792,0.999998683015508,-18.878277560457285
8.8,0.9999985233810144,-19.100391807790885
8.808,0.9999983615671031,-19.32245258154359
8.815999999999999,0.9999981975906499,-19.54445929755969
8.824,0.9999980314689624,-19.766411373091938
8.832,0.9999978632197742,-19.9883082268151
8.84,0.9999976928612435,-20.210149278839513
8.847999999999999,0.9999975204119473,-20.431933950724673
8.856,0.9999973458908783,-20.653661665492415
8.864,0.9999971693174405,-20.875331847640183
8.872,0.9999969907114448,-21.096943923154225
8.879999999999999,0.9999968100931057,-21.318497319522784
8.888,0.9999966274830361,-21.53999146574904
8.896,0.9999964429022434,-21.761425792363884
8.904,0.9999962563721253,-21.982799731438863
8.911999999999999,0.9999960679144652,-22.204112716598967
8.92,0.9999958775514272,-22.42536418303524
8.928,0.9999956853055529,-22.646553567517145
8.936,0.9999954911997552,-22.867680308405195
8.943999999999999,0.9999952952573149,-23.08874384566334
8.952,0.9999950975018754,-23.309743620871217
8.96,0.9999948979574386,-23.530679077236158
8.968,0.9999946966483586,-23.751549659605413
8.975999999999999,0.9999944935993389,-23.97235481447823
8.984,0.999994288835426,-24.193093990017605
8.992,0.9999940823820053,-24.413766636062075
9.0,0.9999938742647957,-24.634372204137414
9.008,0.9999936645098445,-24.854910147468406
9.016,0.9999934531435227,-25.075379920990212
9.024000000000001,0.9999932401925199,-25.29578098135973
9.032,0.999993025683839,-25.516112786966932
9.04,0.9999928096447905,-25.73637479794625
9.048,0.9999925921029889,-25.95656647618758
9.056000000000001,0.9999923730863449,-26.176687285347143
9.064,0.9999921526230625,-26.39673669085858
9.072,0.9999919307416328,-26.616714159943818
9.08,0.9999917074708279,-26.836619161623712
9.088000000000001,0.9999914828396965,-27.056451166728547
9.096,0.9999912568775583,-27.27620964790865
9.104,0.9999910296139981,-27.495894079644962
9.112,0.9999908010788602,-27.715503938259182
9.120000000000001,0.9999905713022442,-27.935038701923894
9.128,0.9999903403144975,-28.154497850672808
9.136,0.9999901081462113,-28.373880866410857
9.144,0.9999898748282142,-28.59318723292399
9.152000000000001,0.9999896403915665,-28.812416435888892
9.16,0.999989404867555,-29.03156796288277
9.168,0.9999891682876875,-29.250641303393056
9.176,0.9999889306836857,-29.469635948826795
9.184000000000001,0.9999886920874818,-29.688551392519944
9.192,0.9999884525312103,-29.907387129746766
9.2,0.9999882120472037,-30.12614265772908
9.208,0.9999879706679868,-30.34481747564527
9.216000000000001,0.9999877284262702,-30.563411084639124
9.224,0.9999874853549446,-30.781922987828846
9.232,0.999987241487075,-31.000352690315868
9.24,0.9999869968558952,-31.21869969919344
9.248000000000001,0.9999867514948022,-31.436963523555086
9.256,0.9999865054373489,-31.655143674503115
9.264,0.9999862587172398,-31.873239665157097
9.272,0.9999860113683242,-32.091251010662
9.280000000000001,0.9999857634245906,-32.30917722819616
9.288,0.9999855149201606,-32.5270178369795
9.296,0.9999852658892833,-32.74477235828144
9.304,0.9999850163663291,-32.96244031542872
9.312000000000001,0.9999847663857838,-33.180021233812916
9.32,0.9999845159822428,-33.39751464089818
9.328,0.9999842651904047,-33.614920066228805
9.336,0.9999840140450663,-33.83223704143652
9.344,0.9999837625811149,-34.049465100247694
9.352,0.9999835108335252,-34.26660377849071
9.36,0.99998325883735,-34.483652614102766
9.368,0.999983006627717,-34.70061114713716
9.376,0.9999827542398212,-34.91747891976975
9.384,0.9999825017089196,-35.13425547630616
9.392,0.9999822490703252,-35.35094036318792
9.4,0.9999819963594009,-35.567533128999514
9.408,0.9999817436115539,-35.78403332447431
9.416,0.9999814908622289,-36.00044050250133
9.424,0.9999812381469042,-36.216754218131044
9.432,0.9999809855010826,-36.432974028581924
9.44,0.9999807329602884,-36.64909949324599
9.448,0.9999804805600608,-36.86513017369509
9.456,0.9999802283359465,-37.0810656336864
9.464,0.9999799763234957,-37.296905439168405
9.472,0.9999797245582549,-37.51264915828606
9.48,0.9999794730757627,-37.728296361386775
9.488,0.9999792219115421,-37.94384662102531
9.496,0.9999789711010952,-38.159299511969394
9.504,0.9999787206798985,-38.374654611204576
9.512,0.9999784706833958,-38.589911497939624
9.52,0.9999782211469934,-38.805069753611036
9.528,0.9999779721060534,-39.020128961888375
9.536,0.9999777235958885,-39.23508870867854
9.544,0.9999774756517567,-39.449948582130766
9.552,0.9999772283088545,-39.66470817264084
9.56,0.9999769816023127,-39.87936707285587
9.568,0.9999767355671892,-40.09392487767816
9.576,0.9999764902384641,-40.30838118426996
9.584,0.999976245651035,-40.52273559205701
9.592,0.9999760018397096,-40.7369877027331
9.6,0.9999757588392014,-40.95113712026346
9.608,0.9999755166841241,-41.16518345088903
9.616,0.9999752754089857,-41.379126303129745
9.624,0.9999750350481827,-41.59296528778849
9.632,0.9999747956359959,-41.806700017954235
9.64,0.9999745572065841,-42.02033010900587
9.648,0.9999743197939785,-42.23385517861502
9.656,0.9999740834320779,-42.44727484674964
9.664,0.999973848154643,-42.66058873567677
9.672,0.9999736139952915,-42.87379646996583
9.68,0.9999733809874928,-43.08689767649124
9.688,0.9999731491645621,-43.29989198443545
9.696,0.9999729185596558,-43.512779025291344
9.704,0.9999726892057667,-43.72555843286517
9.712,0.999972461135718,-43.93822984327869
9.72,0.9999722343821584,-44.15079289497187
9.728,0.9999720089775583,-44.36324722870489
9.736,0.9999717849542024,-44.57559248756065
9.744,0.9999715623441873,-44.7878283169465
9.752,0.9999713411794142,-44.999954364596654
9.76,0.9999711214915862,-45.21197028057363
9.768,0.9999709033122018,-45.423875717270555
9.776,0.9999706866725505,-45.63567032941238
9.784,0.9999704716037091,-45.84735377405795
9.792,0.9999702581365347,-46.05892571060106
9.8,0.9999700463016624,-46.27038580077239
9.808,0.9999698361294992,-46.48173370864029
9.816,0.9999696276502199,-46.692969100612544
9.824,0.9999694208937618,-46.90409164543701
9.832,0.9999692158898217,-47.11510101420311
9.84,0.9999690126678499,-47.32599688034239
9.847999999999999,0.9999688112570464,-47.53677891962972
9.856,0.9999686116863565,-47.74744681018388
9.864,0.9999684139844666,-47.958000232468216
9.872,0.9999682181797992,-48.16843886929122
9.879999999999999,0.9999680243005099,-48.37876240580721
9.888,0.9999678323744816,-48.588970529516594
