freq,mag,phase
6.0,1.0001259668559237,124.84113710573428
6.002286592,1.0003463050125188,124.67319586184975
6.004572672,1.000544141169004,124.50228786857218
6.006859264,1.0007076646896098,124.32875812704728
6.009145344,1.0008270356369136,124.15320567274132
6.011431936,1.0008943638199985,123.97631853799159
6.013718016,1.000905383228475,123.79888020072042
6.016004608,1.0008595400539104,123.62171546821203
6.018290688,1.000759620183145,123.44565066502656
6.02057728,1.0006117022972179,123.27137602778093
6.022863872,1.0004255142676548,123.09952669978115
6.025149952,1.0002124474914216,122.9306342769769
6.027436544,0.9999861069102711,122.7649343447874
6.029722624,0.9997606826960579,122.6025316929277
6.032009216,0.9995504696200378,122.44332185711633
6.034295296,0.9993686564888248,122.28700392807863
6.036581888,0.9992268836349154,122.13302810802331
6.03886848,0.9991341725048877,121.98081983500867
6.04115456,0.9990961129149394,121.82955334272474
6.043441152,0.9991155697483811,121.67846358595014
6.045727232,0.9991909686871644,121.52671183845864
6.048013824,0.9993177303865228,121.37350934766093
6.050299904,0.9994879293380883,121.21818281158153
6.052586496,0.9996905866227018,121.06014897297318
6.054872576,0.9999131620337927,120.89908320127033
6.057159168,1.00014133062276,120.73476831414405
6.05944576,1.0003608768678587,120.56719813316307
6.06173184,1.0005578450576333,120.39663726572766
6.064018432,1.0007198490265254,120.22351922764906
6.066304512,1.0008366454046895,120.04837950707885
6.068591104,1.0009008228952365,119.87196348030658
6.070877184,1.0009085497451051,119.69506911607735
6.073163776,1.0008589339217648,119.51846684064674
6.075450368,1.0007553977950574,119.34302107296365
6.077736448,1.0006041803080097,119.16941726381752
6.08002304,1.000415080480105,118.99830655809636
6.08230912,1.0001997914878522,118.83015538297157
6.084595712,0.9999719201893559,118.66523616141197
6.086881792,0.999745951628461,118.5036136915892
6.089168384,0.9995361130725222,118.34521305440909
6.091454464,0.9993557224186957,118.18964409526595
6.093741056,0.9992160809981632,118.03645103182835
6.096027648,0.9991260949541473,117.88496591600551
6.098313728,0.9990915741383531,117.73437947419592
6.10060032,0.9991145585086724,117.58392011494722
6.1028864,0.9991936781274319,117.43273647510031
6.105172992,0.9993240298458357,117.28003599185979
6.107459072,0.9994973846249092,117.12518935035713
6.109745664,0.9997025880034531,116.96758107698278
6.112032256,0.9999269281370115,116.8068909275893
6.114318336,1.0001560237220106,116.64295001475679
6.116604928,1.0003756397535182,116.47576037536291
6.118891008,1.0005717565414525,116.30558450682614
6.1211776,1.0007320313280423,116.13285243436137
6.12346368,1.0008463249348316,115.9581524427986
6.125750272,1.0009073672957165,115.78220750840052
6.128036352,1.0009114100340033,115.6057871083066
6.130322944,1.0008581338878442,115.42974118427888
6.132609536,1.0007508690603084,115.25489716631127
6.134895616,1.0005962413943374,115.08197916337241
6.137182208,1.0004042315870072,114.9115821498155
6.139468288,1.000186690200344,114.74418125127072
6.14175488,0.9999575514405664,114.58001577648903
6.14404096,0.9997310557620721,114.41921330264036
6.146327552,0.9995216287614039,114.26158714728606
6.148614144,0.9993425853602913,114.10681133443128
6.150900224,0.999205156899568,113.95434010648734
6.153186816,0.9991181088977061,113.80355325807602
6.155472896,0.9990869302489315,113.6536462464867
6.157759488,0.9991136808576003,113.50379115299864
6.160045568,0.9991967194318475,113.35315810281314
6.16233216,0.9993306072649769,113.2009692009543
6.16461824,0.9995071130287452,113.04657145700946
6.166904832,0.999714995751856,112.889391093659
6.169191424,0.999941177333703,112.72905805313731
6.171477504,1.0001712639788207,112.56546444438467
6.173764096,1.0003907785348054,112.39864719955294
6.176050176,1.0005857998952192,112.22880101639603
6.178336768,1.000744282288973,112.05643442680282
6.180622848,1.0008557085712244,111.88215075582706
6.18290944,1.0009136170506114,111.70663889116788
6.18519552,1.000914074942062,111.53073842010956
6.187482112,1.0008569767604112,111.35526388273288
6.189768704,1.000745926861176,111.18101873113156
6.192054784,1.000587887356607,111.00876486583688
6.194341376,1.0003928969560203,110.83906613543374
6.196627456,1.0001732383346558,110.67239771742187
6.198914048,0.9999426553195544,110.50901383957033
6.201200128,0.9997157090258144,110.34898705557187
6.20348672,0.999506893986846,110.19214232761362
6.205773312,0.9993292782889739,110.03812231947806
6.208059392,0.9991941114512197,109.8864074863346
6.210345984,0.9991101631855371,109.73629423027268
6.212632064,0.9990825364249075,109.58705227569952
6.214918656,0.9991130349777329,109.4377861302464
6.217204736,0.9991998936182658,109.28770353672188
6.219491328,0.9993375298003099,109.13598200983475
6.221777408,0.9995172750733319,108.98202305314982
6.224064,0.9997276944902053,108.82521514823473
6.226350592,0.9999556736587182,108.66527470566741
6.228636672,1.0001865824473464,108.50200540056076
6.230923264,1.0004060584382914,108.33548871531168
6.233209344,1.0006000350311988,108.16602402274233
6.235495936,1.0007564617761355,107.99400004526382
6.237782016,1.0008653111697396,107.82011427878102
6.240068608,1.000919762710732,107.64502922046093
6.2423552,1.0009165027400644,107.4696223182844
6.24464128,1.0008553710771633,107.29469452387988
6.246927872,1.0007404816241827,107.12107380260089
6.249213952,1.0005790520989173,106.94942382585526
6.251500544,1.0003811249221104,106.7804450377149
6.253786624,1.0001592273789657,106.61451415235831
6.256073216,0.9999273024345232,106.45188339756794
6.258359296,0.9997000115334986,106.29264718587658
6.260645888,0.999491897864929,106.136568097468
6.26293248,0.9993159370120804,105.98327883661776
6.26521856,0.999183188111508,105.8323044638705
6.267505152,0.9991022743025255,105.68287415443577
6.269791232,0.9990782836093018,105.53425363776994
6.272077824,0.9991126968950113,105.3855754138846
6.274363904,0.9992036361022253,105.23599956158783
6.276650496,0.9993448757279209,105.08477815593358
6.278937088,0.9995278519835457,104.93121062414603
6.281223168,0.9997409624084591,104.77477263108086
6.28350976,0.9999705639227888,104.61516500168742
6.28579584,1.0002023459128007,104.45223141215789
6.288082432,1.0004216281326759,104.28604572627839
6.290368512,1.0006145156595219,104.11689345887021
6.292655104,1.0007688008128572,103.94520983989166
6.294941184,1.0008749112613482,103.7716978705372
6.297227776,1.0009259332773877,103.59704918388164
6.299514368,1.0009187556423196,103.42210377516817
6.301800448,1.0008537201433312,103.2477194588563
6.30408704,1.0007349299434756,103.07465654707813
6.30637312,1.0005699848377003,102.90370707161115
6.308659712,1.0003691165219788,102.73537154775978
6.310945792,1.000144829651219,102.5701561366417
6.313232384,0.9999117876419169,102.40827338200964
6.315518464,0.9996842547675614,102.24980104943778
6.317805056,0.9994766559983291,102.09447905506778
6.320091648,0.9993023042470206,101.94195312494169
6.322377728,0.9991722051677208,101.79165712304828
6.32466432,0.9990944671878456,101.64293894346679
6.3269504,0.9990742924198185,101.49491392607544
6.329236992,0.9991126834414544,101.34679133414521
6.331523072,0.9992075193752001,101.19773199884179
6.333809664,0.9993526196385316,101.0469423427673
6.336096256,0.9995389026336553,100.89376572856874
6.338382336,0.9997545421401114,100.73768082993735
6.340668928,0.9999859435135915,100.57838401849394
6.342955008,1.0002185431166586,100.4157497842056
6.3452416,1.0004375806478778,100.24985725114507
6.34752768,1.0006292137199122,100.08099474088031
6.349814272,1.000781446342293,99.90964575375234
6.352100352,1.0008845484003381,99.73648725943627
6.354386944,1.0009319924553641,99.56225661529407
6.356673536,1.0009208295543455,99.38778720815799
6.358959616,1.0008518480852893,99.2139074806449
6.361246208,1.0007291630768074,99.04144848575372
6.363532288,1.0005605203987071,98.8710925635065
6.36581888,1.000356666071812,98.70344041085094
6.36810496,1.0001303815092197,98.53895739225383
6.370391552,0.9998959009626296,98.37782654580214
6.372678144,0.9996680361407337,98.2200742943664
6.374964224,0.9994613151144529,98.06552235228999
6.377250816,0.9992886613825613,97.91371838297444
6.379536896,0.9991611647451205,97.76414087329152
6.381823488,0.9990867973464664,97.61605405366662
6.384109568,0.999070387332432,97.46863197623671
6.38639616,0.9991129268120508,97.32104185438625
6.38868224,0.9992117043794131,97.17244672624301
6.390968832,0.9993606355175833,97.02209979018104
6.393255424,0.9995503051496948,96.86928490209753
6.395541504,0.9997685180945841,96.71355415203367
6.397828096,1.0000016794438547,96.55454562527463
6.400114176,1.0002348684194224,96.39215131635683
6.402400768,1.0004536475954926,96.22655294123366
6.404686848,1.0006439565806988,96.05797804250416
6.40697344,1.0007938583746052,95.88694590547173
6.409260032,1.0008940199408014,95.7141101328038
6.411546112,1.0009377957763137,95.54029877501156
6.413832704,1.0009226807190372,95.3662655596458
6.416118784,1.000849421987106,95.19287771442414
6.418405376,1.000722724912831,95.02097477777322
6.420691456,1.0005505982389862,94.85124684824923
6.422978048,1.0003438073418398,94.68428489535368
6.425264128,1.000115308227843,94.52049711432288
6.42755072,0.9998796268615896,94.36009958693688
6.429837312,0.9996515578673626,94.20308753100754
6.432123392,0.9994457408562736,94.04923415750686
6.434409984,0.9992749342767412,93.89815204460929
6.436696064,0.9991501895641435,93.74925603812338
6.438982656,0.9990792719348595,93.60180825531877
6.441268736,0.9990667538741548,93.4549747924229
6.443555328,0.9991134625806768,93.30790776274907
6.44584192,0.9992163922194204,93.15977278023843
6.448128,0.9993692867071434,93.00979759200136
6.450414592,0.9995620877785688,92.85733365360858
6.452700672,0.9997829626306607,92.70188119877065
6.454987264,1.0000177284638163,92.54315473024208
6.457273344,1.0002516955620184,92.38105680990563
6.459559936,1.0004700399230544,92.2156777159808
6.461846016,1.0006589195102111,92.04734495843122
6.464132608,1.0008064314065974,91.87663650381728
6.4664192,1.0009034352684376,91.70415100020364
6.46870528,1.0009435519286272,91.5306575235338
6.470991872,1.0009242413261041,91.35708402048438
6.473277952,1.000846884795389,91.1842109865262
6.475564544,1.0007161571534207,91.01283156950912
6.477850624,1.0005402555972807,90.843719738562
6.480137216,1.0003305059141068,90.67741021734275
6.482423296,1.000099898329726,90.51432293377293
6.484709888,0.9998629904866237,90.35465432019397
6.48699648,0.9996348924592563,90.19836543209031
6.48928256,0.9994299543789636,90.0452166696869
6.491569152,0.9992611550642833,89.89483716023352
6.493855232,0.9991391272600804,89.74659012385375
6.496141824,0.9990717759267056,89.59974801052152
6.498427904,0.9990632870839719,89.45346083990695
6.500714496,0.9991141854182135,89.3068837382427
6.503001088,0.999221439990802,89.15922274279315
6.505287168,0.9993780739063897,89.00961121729989
6.50757376,0.9995743044848293,88.85748720877658
6.50985984,0.9997977056167583,88.70231494815727
6.512146432,1.0000342307648689,88.54382577817341
6.514432512,1.0002688561772706,88.38191767301794
6.516719104,1.0004866659130007,88.2167779494772
6.519005184,1.0006740737126236,88.04870866886588
6.521291776,1.0008190714179968,87.87824535444031
6.523578368,1.0009127270919078,87.70605487161686
6.525864448,1.0009490532723189,87.53298132306486
6.52815104,1.0009255868123688,87.35978460256419
6.53043712,1.0008438509567006,87.18739394830496
6.532723712,1.0007090386865833,87.0165560017129
6.535009792,1.000529576508354,86.84803420901098
6.537296384,1.000316838874288,86.68236382911839
6.539582976,1.0000840492678689,86.51993674733382
6.541869056,0.9998460650703677,86.36096423783934
6.544155648,0.9996179112332181,86.20539250097288
6.546441728,0.9994138998464914,86.05294278836142
6.54872832,0.9992472224801692,85.90323870989343
6.5510144,0.9991281980046762,85.75565049065014
6.553300992,0.9990645103080429,85.60937868955388
6.555587072,0.9990600217903175,85.46364356996284
6.557873664,0.9991152896455342,85.31756806991201
6.560160256,0.999226848722384,85.17027130619712
6.562446336,0.9993873154810237,85.02103591128606
6.564732928,0.9995869672800951,84.86919262893016
6.567019008,0.9998128876375739,84.71427313022109
6.5693056,1.0000510007841277,84.55601803902464
6.57159168,1.000286115087017,84.39432227466239
6.573878272,1.0005034096212486,84.22938851019875
6.576164864,1.0006893827148529,84.06152388322117
6.578450944,1.0008317713314892,83.89132779135194
6.580737536,1.0009220251462803,83.71942421007869
6.583023616,1.0009543976123616,83.54664588620341
6.585310208,1.00092664551424,83.37387037684984
6.587596288,1.0008405750365612,83.20192779765313
6.58988288,1.000701635789736,83.03163244057592
6.59216896,1.0005184128786822,82.86369234993457
6.594455552,1.0003026622839293,82.69865710687702
6.596742144,1.000067865527268,82.53688888586568
6.599028224,0.9998287857288745,82.37859536120126
6.601314816,0.9996005889594031,82.22371128797816
6.603600896,0.9993977871956146,82.07196407932805
6.605887488,0.9992331865039411,81.92292755861475
6.608173568,0.9991172401678954,81.77590755638084
6.61046016,0.9990571758986129,81.63023185231752
6.612746752,0.9990569352979465,81.4850142225281
6.615032832,0.9991165861805383,81.33936815475384
6.617319424,0.9992324732109522,81.19248277682843
6.619605504,0.9993969465157702,81.04356022543166
6.621892096,0.9995999297116304,80.89198649003625
6.624178176,0.9998284319050345,80.7372966674647
6.626464768,1.0000681074458744,80.57922812174498
6.628750848,1.000303641348436,80.41771600136896
6.63103744,1.0005203627981893,80.25294267581982
6.633324032,1.0007045572716968,80.0852936185744
6.635610112,1.0008443953711932,79.91529404488642
6.637896704,1.0009312122781602,79.74369070590464
6.640182784,1.0009594607447643,79.57124233210179
6.642469376,1.0009274231711196,79.39881806019888
6.644755456,1.0008368990954843,79.227340026124
6.647042048,1.0006937466698564,79.0575689413991
6.649328128,1.0005068603841456,78.89018896469352
6.65161472,1.0002880868218178,78.72573695112122
6.653901312,1.0000511413267672,78.56463087766441
6.656187392,0.9998111548699081,78.40700134979245
6.658473984,0.999583074945944,78.25278368689003
6.660760064,0.9993815902039945,78.10171731319225
6.663046656,0.999219140946699,77.9533182693683
6.665332736,0.9991063153065335,77.80689799432581
6.667619328,0.9990501255712252,77.66176885469557
6.66990592,0.9990542023771748,77.51701664852158
6.672192,0.9991183775557733,77.37182094641824
6.674478592,0.9992385022740607,77.22527718751293
6.676764672,0.999407100417389,77.07664883777232
6.679051264,0.9996134141299094,76.92531523746949
6.681337344,0.9998443888110289,76.77082205477353
6.683623936,1.0000854894758933,76.6129249198703
6.685910016,1.0003216004022513,76.4515664110724
6.688196608,1.0005375657666593,76.28695329372677
6.6904832,1.000719808478818,76.11946355808041
6.69276928,1.0008569508527045,75.94967703400683
6.695055872,1.0009402381017236,75.778310068417
6.697341952,1.0009643660430587,75.6061751606951
6.699628544,1.0009277975615958,75.43414891938848
6.701914624,1.0008328070369257,75.2630683182874
6.704201216,1.0006854115258017,75.09377832077605
6.706487808,1.000494858616703,74.92694289787714
6.708773888,1.000273084934082,74.76310757321411
6.71106048,1.0000342241301678,74.60263117478152
6.71334656,0.9997932624625769,74.44565599168527
6.715633152,0.9995653314674436,74.29208656742547
6.717919232,0.9993650548378876,74.14166983245468
6.720205824,0.9992050878166474,73.99387171571016
6.722491904,0.9990954867042505,73.84806121406095
6.724778496,0.9990432104049468,73.70343919735718
6.727065088,0.9990517675090576,73.55915986520111
6.729351168,0.9991204119154253,73.41434150578014
6.73163776,0.9992449814053691,73.2681192356895
6.73392384,0.9994175500104828,73.11976721974995
6.736210432,0.9996272366777104,72.96864457511319
6.738496512,0.9998608533187012,72.81432456901845
6.740783104,1.0001034028183085,72.65658418935098
6.743069696,1.0003398420322134,72.49533447692734
6.745355776,1.000554959129794,72.33083844554191
6.747642368,1.0007353576729656,72.16350808134838
6.749928448,1.0008696394367669,71.9938988281343
6.75221504,1.0009491761604214,71.82275511588946
6.75450112,1.0009691364397066,71.65091293781522
6.756787712,1.0009279700032723,71.47922580605774
6.759073792,1.0008284293518666,71.30856462471573
6.761360384,1.000676757811695,71.1397358025889
6.763646976,1.0004824555427079,70.97343265583687
6.765933056,1.000257773132226,70.81017144411288
6.768219648,1.0000168825246056,70.65030285166948
6.770505728,0.999775024440135,70.4939640042098
6.77279232,0.9995474243933736,70.3410480165642
6.7750784,0.9993484310332714,70.1912386754322
6.777364992,0.9991909215576406,70.04405032057534
6.779651584,0.9990847035971147,69.89879389194273
6.781937664,0.9990364386780765,69.75465222538905
6.784224256,0.9990495175798091,69.61081884438781
6.786510336,0.9991227930751193,69.46637760499691
6.788796928,0.9992517808448228,69.320469669593
6.791083008,0.9994284591627504,69.17235859105408
6.7933696,0.9996415109434791,69.02142633101106
6.79565568,0.9998775068019786,68.86721930035739
6.797942272,1.0001215342768845,68.7095838515255
6.800228864,1.0003581676040734,68.54844742236088
6.802514944,1.000572468852641,68.38405909156116
6.804801536,1.0007508452271812,68.21683607185635
6.807087616,1.0008821845735998,68.04739716917217
6.809374208,1.000957952906633,67.87645227004977
6.811660288,1.0009735190060103,67.70485859940244
6.81394688,1.0009277946797486,67.53349881977697
6.81623296,1.000823727007054,67.363233747596
6.818519552,1.0006676546956068,67.19486292423989
6.820806144,1.0004696884561899,67.02907916891668
6.823092224,1.0002420084083283,66.86638295337163
6.825378816,0.9999991521447503,66.70710447493113
6.827664896,0.9997564518002018,66.5513687427617
6.829951488,0.9995291886136282,66.39907671817078
6.832237568,0.9993318147698756,66.24986858835892
6.83452416,0.9991768459229545,66.10324798391244
6.836810752,0.9990740488813061,65.95852876348728
6.839096832,0.9990299140841739,65.81488017129473
6.841383424,0.9990475134935966,65.67144594467698
6.843669504,0.9991255182794775,65.52734281678089
6.845956096,0.9992590861748435,65.38170351554238
6.848242176,0.9994397946486426,65.23379703277303
6.850528768,0.9996561940148639,65.0830113617353
6.852814848,0.9998946100708488,64.92893538550594
6.85510144,1.000140040144615,64.771370656941
6.857388032,1.0003769011939816,64.61032104433744
6.859674112,1.0005901713636258,64.4460070599319
6.861960704,1.0007665068793747,64.27886764875501
6.864246784,1.0008946468758957,64.10955313225209
6.866533376,1.0009666542774216,63.93880558929297
6.868819456,1.0009777395922401,63.76745583961924
6.871106048,1.0009273797428613,63.59640961563708
6.87339264,1.000818551564021,63.426508364257685
6.87567872,1.000658253683975,63.258589334855564
6.877965312,1.0004564275111045,63.09327988500617
6.880251392,1.0002258232301695,62.93112656505442
6.882537984,0.9999811495967804,62.772448491378384
6.884824064,0.9997376525360826,62.6172943172101
6.887110656,0.9995109004603969,62.465583692406966
6.889396736,0.999315076757431,62.31696577982219
6.891683328,0.9991627023085676,62.170898129793365
6.89396992,0.9990634949849876,62.026692353373235
6.896256,0.9990237008003943,61.88349260393783
6.898542592,0.9990458043423138,61.740408895377236
6.900828672,0.9991285559918549,61.596620422043046
6.903115264,0.9992667266108741,61.451226031931085
6.905401344,0.9994515735966293,61.30350116901795
6.907687936,0.999671242550657,61.152842808825504
6.909974528,0.9999121323908743,60.99885592112623
6.912260608,1.0001588567846025,60.84134394279522
6.9145472,1.0003958191421758,60.68031568796902
6.91683328,1.000608032847467,60.51605568551793
6.919119872,1.0007821552923806,60.34901268263035
6.921405952,1.0009070990860107,60.179810361391105
6.923692544,1.0009750708120018,60.00921614462425
6.925978624,1.0009817452972354,59.8380685387792
6.928265216,1.000926511102935,59.6673152199936
6.930551808,1.0008130033505112,59.49776054785516
6.932837888,1.0006483211848631,59.33025604722835
