freq,mag,phase
6.0,0.9999173396471359,12.166161024275516
6.011869184,0.999749622006634,11.82617600495176
6.02373888,0.9995929786589813,11.48814978853036
6.035608064,0.9994557727354455,11.151939122261656
6.04747776,0.9993447363376049,10.817286340802704
6.059346944,0.9992653342493832,10.483760222208055
6.07121664,0.999221427181162,10.150966441574914
6.083085824,0.9992151685295052,9.818436433007374
6.09495552,0.9992469062103487,9.485722885927526
6.106824704,0.9993152062096408,9.15230124267349
6.1186944,0.9994167944149522,8.8177310440514
6.130563584,0.9995467195928199,8.481615605787887
6.14243328,0.9996988061488742,8.14362021327765
6.154302464,0.9998656248932161,7.803596530855092
6.16617216,1.0000392088342502,7.4613044868820735
6.178041344,1.0002108964078376,7.116813980816257
6.18991104,1.0003726236261412,6.77010560249377
6.201780224,1.000516333894936,6.421389955604246
6.21364992,1.0006351187680536,6.070982479137508
6.225519104,1.0007232063593652,5.719128035404521
6.2373888,1.00077628551836,5.366362642929262
6.249257984,1.0007918440971464,5.013060580723922
6.26112768,1.0007688504452177,4.659701304065512
6.272996864,1.000708466726528,4.306868179805053
6.28486656,1.0006136007144657,3.9549280218053475
6.296735744,1.0004887183262077,3.6043001990795815
6.30860544,1.0003399989803266,3.255341274641372
6.320474624,1.000174345579538,2.908266936951268
6.33234432,0.9999999957910676,2.563300568128898
6.344213504,0.9998253306891166,2.2205016865722023
6.3560832,0.999658754579791,1.8798161448712616
6.367952384,0.9995083400174646,1.5410765667074642
6.37982208,0.9993815938032827,1.2040106460562072
6.391691264,0.9992846336532349,0.8682981493260749
6.40356096,0.9992222192876336,0.5336013328556953
6.415430144,0.9991973320438802,0.19934861908207466
6.42729984,0.9992113396038302,-0.13491336874329168
6.439169024,0.9992637109585172,-0.4696120208733752
6.45103872,0.9993516176968383,-0.8052777750441797
6.462907904,0.9994712803994498,-1.142321925194884
6.4747776,0.9996166259090639,-1.4811030987107623
6.486646784,0.9997808229057941,-1.8219516969572909
6.49851648,0.9999557866033225,-2.1649851025916584
6.510385664,1.000133071759653,-2.5103320599826913
6.52225536,1.000304025752036,-2.8579621753216524
6.534124544,1.0004605322614037,-3.20774245434016
6.54599424,1.0005948246891267,-3.55942874933567
6.557863424,1.0007004999336482,-3.9127173195150973
6.56973312,1.0007721835973487,-4.267197292219397
6.581602304,1.000806509046894,-4.6224509108655045
6.593472,1.000801815948129,-4.977935147495712
6.605341184,1.0007582013669476,-5.333199620827151
6.61721088,1.000677569203116,-5.687745465907603
6.629080064,1.0005640615409734,-6.041171731037209
6.64094976,1.0004228978965162,-6.39300977073728
6.652818944,1.0002609046507875,-6.743051622790435
6.66468864,1.0000859607082078,-7.091026143106588
6.676557824,0.999906550530877,-7.4367832570219745
6.68842752,0.9997312860743666,-7.780366730478971
6.700296704,0.9995687949756644,-8.121927142828374
6.7121664,0.9994267779593815,-8.461568726851302
6.724035584,0.9993123104207261,-8.79964953833957
6.73590528,0.9992312014577042,-9.136550160710634
6.747774464,0.9991871000582673,-9.472717543859092
6.75964416,0.9991823192126579,-9.80864958735066
6.771513344,0.9992171910965288,-10.144837429224486
6.78338304,0.9992900537400635,-10.48176540124867
6.795252224,0.9993975245767119,-10.819906140912178
6.807121408,0.9995342850342092,-11.159662358833879
6.818991104,0.9996938562617871,-11.50139306715471
6.830860288,0.9998684650635834,-11.845285359793971
6.842729984,1.000049743619248,-12.191501851718632
6.854599168,1.000228701930028,-12.540099943302007
6.866468864,1.0003969079986472,-12.890975899413233
6.878338048,1.0005459715364236,-13.243924351557348
6.890207744,1.0006688481907349,-13.598714359655649
6.902076928,1.0007594685552548,-13.95486440792501
6.913946624,1.0008133898597835,-14.31203941596823
6.925815808,1.0008279209757251,-14.669761952533772
6.937685504,1.000802166531329,-15.027474967510225
6.949554688,1.0007375920514772,-15.38470377646045
6.961424384,1.0006370484548015,-15.740932274211636
6.973293568,1.0005055514024843,-16.09582045705933
6.985163264,1.0003491516622829,-16.448938149354323
6.997032448,1.0001754106797232,-16.800062486511475
7.008902144,0.9999928557356934,-17.14898326610336
7.020771328,0.9998103614197714,-17.495659543392776
7.032641024,0.9996367899325235,-17.840172011385928
7.044510208,0.9994804046584647,-18.18264209557903
7.056379904,0.9993488596484763,-18.523356407654074
7.068249088,0.9992487378960274,-18.862675861986457
7.080118784,0.9991847902130805,-19.200999354227733
7.091987968,0.999160265661278,-19.53884768176996
7.103857664,0.999176405339274,-19.8766852713282
7.115726848,0.9992325727727618,-20.215076840731868
7.127596544,0.9993260904944924,-20.55447251341757
7.139465728,0.9994522579387766,-20.895337720248047
7.151335424,0.9996052744401811,-21.238055692743952
7.163204608,0.9997776453378333,-21.58290532744132
7.175074304,0.9999610136021035,-21.930080782753063
7.186943488,1.0001465554113305,-22.279682955780036
7.198813184,1.0003252332942623,-22.631656061858756
7.210682368,1.0004884222423107,-22.985893458036262
7.222552064,1.0006282373237405,-23.342129761602088
7.234421248,1.0007376902514946,-23.700022988995755
7.246290944,1.0008115750290225,-24.05917209829531
7.258160128,1.0008462655861883,-24.419101085090674
7.270029824,1.000839916472234,-24.779294493109393
7.281899008,1.0007928922607765,-25.139192959008856
7.293768704,1.0007073013450718,-25.498397461708898
7.305637888,1.0005872023194344,-25.85636672543708
7.317507584,1.000438417636014,-26.212701853386417
7.329376768,1.0002681214558145,-26.567117028592758
7.341246464,1.0000844200604055,-26.919389905563147
7.353115648,0.9998961189737522,-27.26933729949376
7.364985344,0.9997126130615922,-27.617057174704627
7.376854528,0.9995426979017588,-27.96256457063207
7.388724224,0.9993945924616338,-28.306138238895393
7.400593408,0.9992755962305953,-28.648085916156923
7.412463104,0.9991913718530469,-28.988818238720672
7.424332288,0.9991462646324395,-29.32880195603885
7.436201984,0.9991425048874428,-29.668534174208645
7.448071168,0.9991801762577788,-30.008588986233406
7.459940864,0.9992577718465593,-30.349407727315768
7.471810048,0.9993715235992826,-30.691544805673097
7.483679744,0.9995158181579374,-31.03533425146348
7.495548928,0.9996839913832056,-31.3812475672768
7.507418624,0.9998676115253072,-31.729445670567245
7.519287808,1.0000579711894695,-32.08011401493942
7.531157504,1.000245685213178,-32.43324777656827
7.543026688,1.0004220417667051,-32.78877037901307
7.554896384,1.000578155893652,-33.146493342605226
7.566765568,1.0007063929919178,-33.50609724832943
7.578635264,1.0008006433712828,-33.86721474481756
7.590504448,1.0008562824940914,-34.22937850589572
7.602373632,1.0008704496610263,-34.592046443710004
7.614243328,1.0008425533824905,-34.95473851557643
7.626112512,1.0007735678859069,-35.31694911562832
7.637982208,1.000667131262114,-35.6780686951118
7.649851392,1.0005280711921671,-36.037754192287174
7.661721088,1.0003631366473007,-36.39560946608844
7.673590272,1.0001800846583824,-36.751347509328966
7.685459968,0.9999882233961243,-37.10481927996928
7.697329152,0.9997962638372085,-37.455889455500525
7.709198848,0.9996137794664239,-37.804706223584795
7.721068032,0.9994496868604993,-38.151384459141724
7.732937728,0.9993119697626407,-38.49620238519308
7.744806912,0.9992073569550188,-38.83959605331737
7.756676608,0.9991408423004723,-39.18195432530315
7.768545792,0.9991158806204787,-39.52381980428667
7.780415488,0.9991337325542018,-39.86571295323314
7.792284672,0.9991936323388075,-40.2081585191153
7.804154368,0.9992927262732136,-40.551705650714695
7.816023552,0.9994262437059642,-40.89680614367033
7.827893248,0.9995878402159054,-41.243843583732875
7.839762432,0.9997697502719656,-41.593158696410626
7.851632128,0.9999629613006964,-41.944931767061625
7.863501312,1.0001584746460483,-42.29923969881752
7.875371008,1.0003465056987675,-42.65609089502609
7.887240192,1.0005182944473066,-43.01529544295207
7.899109888,1.000665022740689,-43.37663352743279
7.910979072,1.0007798653136497,-43.73972792924771
7.922848768,1.0008570342934775,-44.10411212202393
7.934717952,1.000892974727632,-44.46931575178334
7.946587648,1.0008855602802533,-44.83479979295183
7.958456832,1.0008353622443358,-45.20000878686139
7.970326528,1.0007445165907836,-45.564455379937314
7.982195712,1.0006173946657198,-45.927566823725364
7.994065408,1.0004600937060435,-46.28899979442937
8.005934592,1.000280063082111,-46.648389191785
8.017804288,1.0000861914032897,-47.00550002844364
8.029673472,0.9998876086475261,-47.36021345527343
8.041543168,0.9996939663636359,-47.712528382463816
8.053412352,0.9995147826989869,-48.062555802761594
8.065282048,0.9993587832885341,-48.41055569587388
8.077151232,0.9992334632341277,-48.75681715882599
8.089020928,0.9991449997428894,-49.101813821800164
8.100890112,0.9990978496065668,-49.44602425771801
8.112759808,0.999094203496071,-49.7899934196294
8.124628992,0.9991345640769727,-50.13430460230124
8.136498688,0.9992168704911163,-50.47945126919288
8.148367872,0.9993374007142778,-50.825969563758676
8.160237568,0.999490170065078,-51.17428952002952
8.172106752,0.9996680250152205,-51.52480461877236
8.183976448,0.9998621512231342,-51.87777028724946
8.195845632,1.0000632914896475,-52.23333436776828
8.207715328,1.0002618948302746,-52.591500207876045
8.219584512,1.000448088434165,-52.95223689841308
8.231454208,1.000612928161833,-53.315228036123
8.243323392,1.000748435204206,-53.68028127421961
8.255193088,1.0008478380932702,-54.046899724526405
8.267062272,1.0009063617541343,-54.414642446535424
8.278931968,1.0009212277126025,-54.78292730201848
8.290801152,1.0008913504620973,-55.15123018803272
8.302670848,1.000818248338483,-55.51899600714154
8.314540032,1.00070535883602,-55.88567762261211
8.326409728,1.000558059631204,-56.250835088992986
8.338278912,1.0003833741208628,-56.61402020712987
8.350148608,1.0001896366630285,-56.97499704925271
8.362017792,0.999986352395427,-57.333535316734
8.373887488,0.9997830947702021,-57.68959844541989
8.385756672,0.9995898479855283,-58.04325144161785
8.397626368,0.99941608914604,-58.394634059273805
8.409495552,0.9992702785268838,-58.74408667544127
8.421364736,0.9991592399523698,-59.09199591724323
8.433234432,0.9990889353618243,-59.43881907576311
8.445103616,0.9990624913500162,-59.78514114060527
8.456973312,0.9990813843305489,-60.131472098792294
8.468842496,0.9991448443811769,-60.47842416179945
8.480712192,0.9992497874751569,-60.82651787218273
8.492581376,0.999391440716334,-61.17623665668149
8.504451072,0.9995627351937112,-61.528056263967834
8.516320256,0.9997555991106171,-61.88230273095865
8.528189952,0.99996063046045,-62.23913747571202
8.540059136,1.0001680024979849,-62.59868012119043
8.551928832,1.0003675432435388,-62.96093028451596
8.563798016,1.0005497766051434,-63.3256344594238
8.575667712,1.0007056437211974,-63.69263173542094
8.587536896,1.000827509022004,-64.06150600925993
8.599406592,1.0009098870544986,-64.43174751809204
8.611275776,1.0009481813195067,-64.8028708988454
8.62314496,1.0009406561981766,-65.17429221424418
8.635015168,1.0008875090542215,-65.54546553854418
8.646884352,1.0007912643520709,-65.9157557447107
8.658753536,1.000656438214431,-66.28473401380838
8.67062272,1.0004894812584266,-66.65191294672726
8.682492928,1.0002983229575069,-67.01691405393873
8.694362112,1.0000922703412345,-67.37951461279157
8.706231296,0.9998812811479869,-67.73956151633698
8.71810048,0.999675461789689,-68.0970755520388
8.729970688,0.9994847044044166,-68.45214184411319
8.741839872,0.9993185086082624,-68.8050560112428
8.753709056,0.9991850355375848,-69.15613931475762
8.76557824,0.9990904450470109,-69.50584529472418
8.777448448,0.999039772258899,-69.85475669551143
8.789317632,0.9990355732209935,-70.20336008240618
8.801186816,0.9990779205636122,-70.55233023271074
8.813056,0.9991650619261678,-70.90220177931666
8.824926208,0.9992929287668986,-71.25350688673801
8.836795392,0.9994550613491924,-71.60678150261755
8.848664576,0.9996441298603712,-71.96233571989745
8.86053376,0.999850782809624,-72.32053093738098
8.872403968,1.0000649055748843,-72.68146584986115
8.884273152,1.0002764677780025,-73.04523678810027
8.896142336,1.0004750813466419,-73.4116633108611
8.90801152,1.0006510612207193,-73.7805870405208
8.919881728,1.0007957699545313,-74.15167736635138
8.931750912,1.000902415534001,-74.52443517053355
8.943620096,1.0009655383573708,-74.89840742747668
8.95548928,1.0009820016629822,-75.27297320384659
8.967359488,1.0009510770602854,-75.64758643169908
8.979228672,1.0008738353299926,-76.02162360145405
8.991097856,1.0007541125476345,-76.39453255268005
9.00296704,1.0005976548188917,-76.76582177019306
9.014837248,1.0004117944581827,-77.13502462792637
9.026706432,1.0002053448839756,-77.50187039274428
9.038575616,0.9999886029873165,-77.86614919443278
9.0504448,0.9997716135894343,-78.22777899374361
9.062315008,0.9995651449107086,-78.58682720418652
9.074184192,0.9993790509238696,-78.94348089353221
9.086053376,0.9992226657516673,-79.29804188452906
9.09792256,0.9991033721409368,-79.65094099439119
9.109792768,0.9990272608575229,-80.00270773805633
9.121661952,0.998997961207037,-80.35389576586502
9.133531136,0.999017101400487,-80.70510004944722
9.14540032,0.9990838897434527,-81.05692348060812
9.157270528,0.999195150348302,-81.40999256562797
9.169139712,0.9993455577081882,-81.76480285844565
9.181008896,0.9995280800213526,-82.12183481545051
9.19287808,0.9997337823690742,-82.48143066695674
9.204747264,0.9999526711540838,-82.84381736164327
9.216617472,1.0001744633918512,-83.2090832820197
9.228486656,1.0003881886125146,-83.57724983719014
9.24035584,1.0005834765592445,-83.94810576056369
9.252225024,1.0007511940325313,-84.32134727732532
9.264095232,1.0008828445365052,-84.69661424399628
9.275964416,1.000971954238915,-85.07341680667152
9.2878336,1.0010141936562182,-85.45115764698126
9.299702784,1.001007503302743,-85.82925752257532
9.311572992,1.000951959664115,-86.2070657216274
9.323442176,1.0008502613520638,-86.5840356603723
9.33531136,1.0007070027723994,-86.95953825028852
9.347180544,1.0005290952399164,-87.3331663896593
9.359050752,1.0003250755388153,-87.70445670001159
9.370919936,1.000104710613599,-88.07321082647272
9.38278912,0.9998785601657206,-88.43923492287809
9.394658304,0.9996576170696423,-88.80253003286694
9.406528512,0.9994526051206916,-89.16321654623943
9.418397696,0.9992734437468908,-89.52159562087442
9.43026688,0.9991288782613686,-89.87799638902574
9.442136064,0.9990260895371706,-90.23291890131324
9.454006272,0.9989702313131296,-90.58692657561632
9.465875456,0.9989638635736253,-90.94063080046611
9.47774464,0.9990076863121127,-91.29467392307693
9.489613824,0.9990996284729511,-91.64966381662124
9.501484032,0.999235217781736,-92.00622582134386
9.513353216,0.9994082838897455,-92.3648077128016
9.5252224,0.9996102534689087,-92.72588298179357
9.537091584,0.9998314617003748,-93.08974695683159
9.548961792,1.000061426093675,-93.45658937332634
9.560830976,1.0002888450735903,-93.82644463007979
9.57270016,1.0005028222430592,-94.19919394429355
9.584569344,1.0006929886611926,-94.57463304828907
9.596439552,1.0008500215783986,-94.95237641374521
9.608308736,1.0009662861285868,-95.33198706534537
9.62017792,1.0010359960569648,-95.71288086304963
9.632047104,1.001055830922334,-96.09447794990328
9.643917312,1.0010245264976199,-96.47614355117304
9.655786496,1.000943500851039,-96.85724080180161
9.66765568,1.0008165711175936,-97.23713352910418
9.679524864,1.0006497225993545,-97.61531290119255
9.691395072,1.0004509761610854,-97.9912826228676
9.703264256,1.0002296072519221,-98.36473840584935
9.71513344,0.9999965443095172,-98.73544616390215
9.727002624,0.9997627810854887,-99.10328092799823
9.738872832,0.9995397310571689,-99.46834640431666
9.750742016,0.9993383677235891,-99.83082675356003
9.7626112,0.9991682950006515,-100.19104301248174
9.774480384,0.9990377444178483,-100.54944983673293
9.786350592,0.9989534583081368,-100.90659942133252
9.798219776,0.9989195842131252,-101.26309042091223
9.81008896,0.9989377894887699,-101.6195802657437
9.821958144,0.9990073327499178,-101.97673399888637
9.833828352,0.9991251474651817,-102.33516891689769
9.845697536,0.9992854371020535,-102.69547066589683
9.85756672,0.9994806807342619,-103.05813293383962
9.869435904,0.9997015009956434,-103.42354091630986
9.881306112,0.9999372648679976,-103.79194299011218
9.893175296,1.000176557277886,-104.16349493283211
9.90504448,1.0004079949702174,-104.53812736785537
9.916913664,1.0006200929404672,-104.91569213029526
9.928783872,1.0008027491410187,-105.29589636355462
9.940653056,1.0009470566189769,-105.67828052751574
9.95252224,1.001045780744655,-106.06235663486824
9.964391424,1.001094274739961,-106.44748579264233
9.976261632,1.0010898717863956,-106.83303501082925
9.988130816,1.0010326934010987,-107.21832630232298
10.0,1.00092534494874,-107.60271622938939
10.011869184,1.0007728282359993,-107.98562660620546
10.023738368,1.0005824239895524,-108.36647950058432
10.035608576,1.0003631962769284,-108.74487348586652
10.04747776,1.0001256055619525,-109.12050872912778
10.059346944,0.9998812303485586,-109.49320050201888
10.071216128,0.9996415533248793,-109.86295486744766
10.083086336,0.9994183646430504,-110.22989583463838
10.09495552,0.9992226952365478,-110.59428609763788
10.106824704,0.9990638868403927,-110.95654007332391
10.118693888,0.9989497359590265,-111.31713243390607
10.130564096,0.9988860135930905,-111.67673973980848
10.14243328,0.9988758806333509,-112.03595416484873
10.154302464,0.9989200543446464,-112.3954791477182
10.166171648,0.9990165122744711,-112.75600511004444
10.178041856,0.9991607151061864,-113.11817530062133
10.18991104,0.9993459659598956,-113.48253800482465
10.201780224,0.9995631356233773,-113.84956384430163
10.213649408,0.9998020315896451,-114.2195805031243
10.225519616,1.0000510453898455,-114.5928068078068
10.2373888,1.0002982693678104,-114.96931508031632
10.249257984,1.0005316588013726,-115.34900673178011
10.261127168,1.0007398107392222,-115.73160017370189
10.272997376,1.0009128862806862,-116.11675110663158
10.28486656,1.0010421141831387,-116.50394435824094
10.296735744,1.0011214109065385,-116.89258891767065
10.308604928,1.0011465638480312,-117.28205413952591
10.320475136,1.0011163686269522,-117.67164598389131
10.33234432,1.0010320022227983,-118.06063191737871
10.344213504,1.0008974149382093,-118.44840118963464
10.356082688,1.0007189440945794,-118.83433312852145
10.367952896,1.0005049664189936,-119.21792437217424
10.37982208,1.0002658696975784,-119.59878808689409
10.391691264,1.000012938471683,-119.97666185153021
10.403560448,0.9997584524799129,-120.35146888177718
10.415430656,0.9995147183775698,-120.72321234339418
10.42729984,0.9992934991527683,-121.09215487972251
10.439169024,0.9991055956181759,-121.45860974726438
10.451038208,0.9989602885448674,-121.82301823079501
10.462908416,0.9988646769817799,-122.18603983277202
10.4747776,0.9988235240105751,-122.5483028375682
10.486646784,0.9988390520006547,-122.91050513680517
10.498515968,0.998910759544088,-123.27334941765609
10.510386176,0.9990351780002092,-123.63754514250442
10.52225536,0.9992066314536244,-124.00374349733679
10.534124544,0.9994167617649818,-124.37246790432722
10.545993728,0.9996556585145521,-124.74414646909925
10.557863936,0.9999118442542929,-125.1190887271988
10.56973312,1.0001728586159477,-125.49744158722483
10.581602304,1.0004263542852407,-125.87919312570331
10.593471488,1.0006598492420078,-126.26414979765576
10.605341696,1.0008620279310407,-126.65200042853422
10.61721088,1.0010231146871775,-127.04228626225837
10.629080064,1.0011352285980915,-127.43445994025615
10.640949248,1.0011926618589175,-127.82786218159035
10.652819456,1.0011926434577287,-128.22178352472426
10.66468864,1.0011348657934003,-128.61548664785744
10.676557824,1.0010220595655857,-129.00826982502625
10.688427008,1.0008592904286844,-129.39946342806266
10.700297216,1.0006544243291935,-129.78849247483998
10.7121664,1.0004170137759372,-130.17486510214462
10.724035584,1.0001585476948323,-130.5582450712117
