freq,mag,phase
6.0,0.9999993462636664,44.98289762260083
6.008,0.9999992187177169,44.75140339642293
6.016,0.9999990979512033,44.519754871194735
6.024,0.9999989838380314,44.28795239575355
6.032,0.9999988762527181,44.05599632196498
6.04,0.9999987750703989,43.82388700472571
6.048,0.9999986801668317,43.59162480196601
6.056,0.9999985914184046,43.35921007465218
6.064,0.9999985087021387,43.126643186788854
6.072,0.9999984318956971,42.8939245054212
6.08,0.9999983608773875,42.66105440063696
6.088,0.9999982955261697,42.42803324556834
6.096,0.9999982357216607,42.19486141639398
6.104,0.9999981813441399,41.96153929234037
6.112,0.9999981322745563,41.728067255683605
6.12,0.9999980883945309,41.49444569175073
6.128,0.999998049586367,41.260674988921025
6.136,0.9999980157330511,41.026755538627135
6.144,0.9999979867182623,40.79268773535619
6.152,0.9999979624263752,40.55847197665056
6.16,0.9999979427424671,40.324108663108724
6.168,0.999997927552323,40.0895981983858
6.176,0.9999979167424413,39.85494098919414
6.184,0.9999979102000399,39.620137445303584
6.192,0.9999979078130603,39.38518797954168
6.2,0.9999979094701753,39.150093007793856
6.208,0.9999979150607923,38.91485294900323
6.216,0.9999979244750618,38.67946822517048
6.224,0.999997937603879,38.443939261353485
6.232,0.9999979543388933,38.20826648566686
6.24,0.9999979745725108,37.972450329281294
6.248,0.9999979981979024,37.73649122642285
6.256,0.9999980251090067,37.50038961437189
6.264,0.9999980552005379,37.264145933462316
6.272,0.9999980883679899,37.02776062708006
6.28,0.9999981245076421,36.791234141661974
6.288,0.9999981635165641,36.55456692669417
6.296,0.999998205292624,36.31775943471052
6.304,0.9999982497344896,36.0808121212908
6.312,0.9999982967416378,35.84372544505878
6.32,0.9999983462143569,35.60649986768018
6.328,0.9999983980537546,35.36913585386038
6.336,0.9999984521617614,35.131633871342075
6.344,0.9999985084411376,34.89399439090278
6.352,0.9999985667954766,34.65621788635214
6.36,0.999998627129213,34.418304834529074
6.368,0.9999986893476254,34.18025571529878
6.376,0.999998753356843,33.94207101154974
6.384,0.9999988190638512,33.70375120919024
6.392,0.9999988863764958,33.4652967971451
6.4,0.9999989552034892,33.226708267351995
6.408,0.9999990254544152,32.987986114757696
6.416,0.9999990970397339,32.749130837314304
6.424,0.9999991698707881,32.51014293597497
6.432,0.999999243859807,32.271022914689915
6.44,0.9999993189199128,32.03177128040195
6.448,0.9999993949651248,31.79238854304189
6.456,0.9999994719103649,31.55287521552405
6.464,0.9999995496714627,31.313231813741254
6.472,0.9999996281651605,31.07345885655986
6.48,0.9999997073091187,30.833556865814735
6.4879999999999995,0.9999997870219208,30.593526366303806
6.496,0.9999998672230775,30.35336788578249
6.504,0.9999999478330333,30.11308195495849
6.5120000000000005,1.0,29.872669107485393
6.52,0.9999999999999999,29.63212987995732
6.5280000000000005,0.9999999999999998,29.391464811902342
6.536,1.0,29.150674445776545
6.5440000000000005,0.9999999999999999,28.90975932695731
6.552,1.0,28.668720003737064
6.5600000000000005,1.0,28.42755702731609
6.568,1.0,28.186270951796086
6.5760000000000005,1.0,27.944862334172633
6.584,0.9999999999999999,27.70333173432838
6.592,1.0,27.461679715025227
6.6,0.9999999999999999,27.219906841897117
6.608,1.0,26.97801368344209
6.616,1.0,26.736000811014485
6.624,1.0,26.493868798816823
6.632,1.0000000000000002,26.251618223891676
6.64,1.0,26.009249666113213
6.648,0.9999999999999999,25.766763708178694
6.656,1.0,25.524160935599756
6.664,0.9999999999999999,25.281441936693547
6.672,0.9999999999999999,25.03860730257369
6.68,1.0,24.7956576271411
6.688,1.0,24.5525935070746
6.696,0.9999999999999999,24.309415541821423
6.704,0.9999999999999999,24.066124333587524
6.712,0.9999999999999999,23.822720487327725
6.72,1.0,23.57920461073573
6.728,0.9999999999999999,23.335577314233888
6.736,0.9999999999999999,23.091839210962927
6.744,1.0,22.847990916771426
6.752,1.0,22.60403305020515
6.76,0.9999999999999999,22.359966232496227
6.768,0.9999999999999999,22.115791087552154
6.776,0.9999999999999999,21.871508241944678
6.784,1.0,21.62711832489846
6.792,1.0,21.382621968279604
6.8,1.0,21.138019806584033
6.808,1.0,20.893312476925686
6.816,1.0,20.648500619024585
6.824,1.0,20.403584875194674
6.832,0.9999999999999999,20.15856589033159
6.84,1.0,19.91344431190023
6.848,1.0,19.668220789922078
6.856,0.9999999999999999,19.42289597696257
6.864,0.9999999999999999,19.17747052811807
6.872,1.0,18.93194510100288
6.88,1.0,18.68632035573597
6.888,0.9999999999999999,18.440596954927578
6.896,1.0,18.194775563665733
6.904,0.9999999999999999,17.948856849502466
6.912,1.0,17.70284148244002
6.92,0.9999999999999999,17.45673013491684
6.928,1.0,17.210523481793317
6.936,1.0,16.9642222003376
6.944,1.0000000000000002,16.71782697021102
6.952,1.0,16.471338473453528
6.96,0.9999999999999999,16.22475739446884
6.968,1.0,15.978084420009578
6.976,0.9999999999999999,15.731320239162148
6.984,1.0,15.484465543331533
6.992,0.9999999999999999,15.23752102622585
7.0,1.0,14.990487383840891
7.008,1.0000000000000002,14.743365314444409
7.016,1.0,14.496155518560238
7.024,0.9999999999999999,14.248858698952425
7.032,1.0,14.001475560608998
7.04,1.0,13.754006810725754
7.048,1.0,13.506453158689851
7.056,1.0,13.25881531606321
7.064,1.0,13.011093996565847
7.072,1.0,12.763289916059039
7.08,1.0,12.515403792528291
7.088,0.9999999999999999,12.267436346066255
7.096,1.0,12.019388298855446
7.104,0.9999999999999999,11.77126037515087
7.112,0.9999999999999999,11.523053301262435
7.12,0.9999999999999999,11.274767805537289
7.128,1.0,11.02640461834207
7.136,1.0,10.77796447204482
7.144,1.0,10.529448100997083
7.152,1.0,10.280856241515506
7.16,1.0,10.032189631863659
7.168,1.0,9.783449012233437
7.176,1.0,9.534635124726528
7.184,0.9999999999999999,9.285748713335622
7.192,1.0,9.036790523925616
7.2,1.0,8.78776130421455
7.208,0.9999999999999999,8.53866180375458
7.216,1.0,8.289492773912647
7.224,0.9999999999999999,8.04025496785119
7.232,0.9999999999999999,7.790949140508652
7.24,0.9999999999999999,7.541576048579846
7.248,0.9999999999999999,7.292136450496263
7.256,1.0,7.042631106406215
7.264,1.0,6.793060778154894
7.272,0.9999999999999999,6.54342622926432
7.28,1.0,6.293728224913113
7.288,0.9999999999999999,6.043967531916185
7.296,1.0,5.794144918704395
7.304,0.9999999999999999,5.544261155303998
7.312,0.9999999999999999,5.2943170133159745
7.32,1.0,5.044313265895344
7.328,1.0,4.794250687730299
7.336,1.0,4.544130055021268
7.344,0.9999999999999999,4.293952145459827
7.352,1.0,4.043717738207596
7.36,1.0,3.7934276138749463
7.368,1.0,3.5430825544996507
7.376,0.9999999385681582,3.2926833435254323
7.384,0.9999998176433259,3.04223076578038
7.392,0.9999996949838985,2.791725607455377
7.4,0.9999995706346182,2.5411686560822564
7.4079999999999995,0.9999994446413156,2.290560700512075
7.416,0.9999993170509069,2.0399025308930128
7.4239999999999995,0.9999991879113814,1.7891949386486503
7.432,0.9999990572717982,1.5384387164554614
7.4399999999999995,0.9999989251822774,1.2876346582210814
7.448,0.9999987916939915,1.0367835590615357
7.4559999999999995,0.9999986568591587,0.785886215279345
7.464,0.9999985207310333,0.5349434243406674
7.4719999999999995,0.9999983833638973,0.28395598485313484
7.48,0.9999982448130517,0.03292469654287942
7.4879999999999995,0.9999981051348052,-0.21814963976775684
7.496,0.9999979643864677,-0.4692662221834463
7.504,0.9999978226263365,-0.7204242477582177
7.5120000000000005,0.999997679913688,-0.9716229125188517
7.52,0.9999975363087659,-1.2228614114874445
7.5280000000000005,0.9999973918727706,-1.474138938704885
7.536,0.9999972466678464,-1.7254546872535426
7.5440000000000005,0.9999971007570706,-1.9768078492809313
7.552,0.9999969542044399,-2.228197616022525
7.5600000000000005,0.9999968070748582,-2.4796231778255353
7.568,0.9999966594341243,-2.731083724171869
7.5760000000000005,0.9999965113489151,-2.982578443702035
7.584,0.9999963628867748,-3.234106524238241
7.5920000000000005,0.9999962141160977,-3.4856671528084036
7.6,0.9999960651061154,-3.7372595156693293
7.6080000000000005,0.9999959159268795,-3.9888827983309363
7.616,0.9999957666492457,-4.240536185579501
7.6240000000000006,0.9999956173448585,-4.492218861501951
7.632,0.9999954680861337,-4.743930009509273
7.640000000000001,0.9999953189462405,-4.995668812360907
7.648,0.9999951699990833,-5.247434452188245
7.656000000000001,0.9999950213192844,-5.499226110519143
7.664,0.9999948729821647,-5.751042968301496
7.672,0.9999947250637232,-6.00288420592781
7.68,0.9999945776406175,-6.254749003259075
7.688,0.9999944307901438,-6.506636539649106
7.696,0.9999942845902154,-6.758545993968749
7.704,0.9999941391193405,-7.010476544630231
7.712,0.9999939944566001,-7.262427369611465
7.72,0.9999938506816252,-7.514397646480464
7.728,0.9999937078745743,-7.7663865524197195
7.736,0.9999935661161071,-8.018393264250735
7.744,0.9999934254873634,-8.270416958458458
7.752,0.9999932860699332,-8.522456811215852
7.76,0.9999931479458353,-8.774511998408478
7.768,0.9999930111974881,-9.026581695659074
7.776,0.9999928759076826,-9.278665078352217
7.784,0.9999927421595566,-9.530761321659
7.792,0.9999926100365643,-9.782869600561716
7.8,0.9999924796224473,-10.03498908987863
7.808,0.9999923510012071,-10.287118964288704
7.816,0.9999922242570715,-10.539258398356434
7.824,0.9999920994744658,-10.791406566556661
7.832,0.9999919767379812,-11.043562643299415
7.84,0.9999918561323402,-11.29572580295481
7.848,0.9999917377423666,-11.54789521987794
7.856,0.999991621652949,-11.800070068433827
7.864,0.9999915079490082,-12.052249523022374
7.872,0.9999913967154607,-12.304432758103342
7.88,0.9999912880371842,-12.556618948221349
7.888,0.9999911819989804,-12.808807268030938
7.896,0.9999910786855375,-13.060996892321585
7.904,0.9999909781813922,-13.313186996042827
7.912,0.9999908805708925,-13.565376754329293
7.92,0.9999907859381564,-13.817565342525896
7.928,0.9999906943670331,-14.06975193621293
7.936,0.9999906059410627,-14.321935711231248
7.944,0.9999905207434328,-14.574115843707451
7.952,0.9999904388569392,-14.82629151007906
7.96,0.9999903603639401,-15.078461887119806
7.968,0.999990285346316,-15.330626151964811
7.976,0.9999902138854223,-15.582783482135879
7.984,0.9999901460620471,-15.83493305556679
7.992,0.9999900819563642,-16.087074050628576
8.0,0.9999900216478874,-16.339205646154877
8.008,0.9999899652154245,-16.591327021467233
8.016,0.999989912737029,-16.84343735640059
8.024000000000001,0.9999898642899525,-17.09553583132844
8.032,0.9999898199505961,-17.347621627188353
8.04,0.999989779794462,-17.599693925507502
8.048,0.9999897438961017,-17.851751908428025
8.056000000000001,0.999989712329069,-18.103794758732292
8.064,0.9999896851658661,-18.35582165986862
8.072,0.9999896624778936,-18.607831795976743
8.08,0.9999896443353993,-18.85982435191334
8.088000000000001,0.9999896308074249,-19.111798513277364
8.096,0.9999896219617538,-19.363753466435778
8.104,0.9999896178648576,-19.6156883985492
8.112,0.9999896185818432,-19.867602497597428
8.120000000000001,0.9999896241763981,-20.119494952404892
8.128,0.9999896347107371,-20.371364952666454
8.136,0.9999896502455466,-20.623211688973136
8.144,0.9999896708399307,-20.875034352837723
8.152000000000001,0.9999896965513563,-21.126832136720303
8.16,0.9999897274355966,-21.378604234054148
8.168,0.9999897635466771,-21.63034983927153
8.176,0.9999898049368195,-21.882068147829365
8.184000000000001,0.9999898516563859,-22.133758356234896
8.192,0.9999899037538236,-22.385419662071595
8.2,0.9999899612756081,-22.637051264025104
8.208,0.99999002426619,-22.88865236190893
8.216000000000001,0.9999900927679372,-23.14022215669027
8.224,0.9999901668210807,-23.39175985051589
8.232,0.9999902464636586,-23.643264646738213
8.24,0.999990331731463,-23.894735749941095
8.248000000000001,0.9999904226579827,-24.146172365965665
8.256,0.9999905192743513,-24.39757370193637
8.264,0.9999906216092924,-24.648938966287055
8.272,0.9999907296890662,-24.90026736878683
8.280000000000001,0.9999908435374172,-25.151558120566012
8.288,0.9999909631755213,-25.402810434142197
8.296,0.9999910886219351,-25.6540235234464
8.304,0.9999912198925449,-25.90519660384901
8.312,0.9999913570005159,-26.156328892185705
8.32,0.9999914999562446,-26.40741960678382
8.328,0.9999916487673092,-26.65846796748807
8.336,0.9999918034384232,-26.90947319568702
8.344,0.9999919639713898,-27.16043451433873
8.352,0.9999921303650559,-27.411351147997312
8.36,0.9999923026152684,-27.662222322838577
8.368,0.9999924807148335,-27.91304726668655
8.376,0.9999926646534735,-28.163825209039135
8.384,0.9999928544177891,-28.414555381094647
8.392,0.9999930499912196,-28.66523701577744
8.4,0.9999932513540093,-28.91586934776439
8.408,0.9999934584831688,-29.16645161351058
8.416,0.9999936713524455,-29.416983051275732
8.424,0.9999938899322918,-29.66746290114978
8.432,0.9999941141898342,-29.917890405079344
8.44,0.9999943440888481,-30.168264806893223
8.448,0.9999945795897319,-30.418585352328826
8.456,0.9999948206494841,-30.66885128905762
8.464,0.9999950672216825,-30.91906186671144
8.472,0.9999953192564668,-31.169216336907844
8.48,0.9999955767005206,-31.419313953276426
8.488,0.9999958394970605,-31.669353971484018
8.496,0.9999961075858225,-31.91933564926086
8.504,0.9999963809030561,-32.169258246425755
8.512,0.9999966593815165,-32.41912102491206
8.52,0.9999969429504626,-32.66892324879272
8.528,0.9999972315356571,-32.918664184306124
8.536,0.9999975250593683,-33.16834309988093
8.544,0.9999978234403771,-33.417959266161816
8.552,0.9999981265939848,-33.66751195603409
8.56,0.9999984344320241,-33.91700044464918
8.568,0.9999987468628755,-34.166424009449116
8.576,0.9999990637914841,-34.41578193019179
8.584,0.9999993851193815,-34.66507348897517
8.592,0.9999997107447096,-34.91429797026229
8.6,0.9999999999999999,-35.16345466090523
8.608,1.0,-35.412542850169835
8.616,1.0,-35.66156182975937
8.624,1.0,-35.91051089383893
8.632,1.0,-36.15938933905877
8.64,0.9999999999999999,-36.408196464578374
8.648,0.9999999999999999,-36.65693157208947
8.656,1.0,-36.90559396583965
8.664,1.0,-37.154182952654985
8.672,0.9999999999999999,-37.40269784196335
8.68,1.0,-37.65113794581654
8.688,1.0,-37.89950257891307
8.696,0.9999999999999999,-38.147791058620015
8.704,0.9999999999999999,-38.396002704995205
8.712,1.0,-38.644136840808585
8.72,1.0,-38.89219279156398
8.728,1.0,-39.14016988551982
8.736,1.0,-39.38806745371045
8.744,0.9999999999999999,-39.63588482996625
8.752,0.9999999999999998,-39.88362135093445
8.76,1.0,-40.13127635609847
8.768,1.0,-40.378849187798316
8.776,1.0,-40.626339191249315
8.784,0.9999999999999999,-40.873745714561664
8.792,1.0,-41.121068108758706
8.8,0.9999999999999999,-41.368305727795736
8.808,0.9999999999999999,-41.6154579285776
8.815999999999999,1.0,-41.86252407097671
8.824,1.0,-42.109503517850335
8.832,1.0,-42.35639563505728
8.84,1.0,-42.60319979147469
8.847999999999999,1.0,-42.849915359014325
8.856,1.0,-43.096541712638256
8.864,1.0,-43.34307823037425
8.872,1.0000000000000002,-43.5895242933309
8.879999999999999,0.9999999999999998,-43.8358792857123
8.888,1.0,-44.082142594832334
8.896,1.0,-44.328313611128266
8.904,1.0000000000000002,-44.57439172817431
8.911999999999999,1.0,-44.82037634269479
8.92,1.0,-45.06626685457663
8.928,1.0,-45.31206266688136
8.936,1.0,-45.557763185857034
8.943999999999999,1.0,-45.80336782094972
8.952,0.9999999999999999,-46.04887598481418
8.96,1.0,-46.294287093324414
8.968,1.0,-46.539600565583676
8.975999999999999,0.9999999999999999,-46.78481582393436
8.984,0.9999999999999999,-47.02993229396706
8.992,1.0,-47.27494940452924
9.0,0.9999999999999999,-47.51986658773377
9.008,0.9999999999999999,-47.764683278966956
9.016,0.9999999999999999,-48.00939891689602
9.024000000000001,1.0,-48.25401294347608
9.032,0.9999999999999999,-48.49852480395704
9.04,1.0,-48.74293394688997
9.048,1.0,-48.9872398241329
9.056000000000001,1.0,-49.23144189085629
9.064,1.0,-49.47553960554823
9.072,1.0,-49.719532430019306
9.08,1.0,-49.96341982940683
9.088000000000001,1.0,-50.2072012721787
9.096,1.0,-50.450876230137176
9.104,1.0,-50.69444417842223
9.112,1.0,-50.9379045955143
9.120000000000001,0.9999999999999999,-51.18125696323676
9.128,1.0,-51.42450076675824
9.136,1.0,-51.66763549459462
9.144,1.0,-51.910660638610445
9.152000000000001,1.0,-52.15357569402012
9.16,1.0,-52.39638015938892
9.168,0.9999999999999999,-52.63907353663374
9.176,1.0,-52.88165533102332
9.184000000000001,1.0,-53.1241250511783
9.192,1.0,-53.36648220907099
9.2,0.9999999999999999,-53.608726320025205
9.208,1.0,-53.85085690271527
9.216000000000001,1.0,-54.092873479165085
9.224,0.9999999999999999,-54.33477557474709
9.232,0.9999999999999999,-54.57656271818086
9.24,1.0,-54.81823444153151
9.248000000000001,1.0,-55.05979028020772
9.256,1.0,-55.301229772959886
9.264,1.0,-55.54255246187807
9.272,0.9999999999999999,-55.7837578923895
9.280000000000001,1.0,-56.02484561325607
9.288,0.9999999999999999,-56.26581517657159
9.296,1.0,-56.506666137759375
9.304,1.0,-56.747398055569
9.312000000000001,1.0,-56.98801049207328
9.32,1.0000000000000002,-57.228503012665094
9.328,0.9999999999999999,-57.468875186054376
9.336,1.0,-57.70912658426455
9.344,1.0,-57.94925678262898
9.352,0.9999999999999999,-58.18926535978777
9.36,0.9999999999999999,-58.4291518976838
9.368,1.0,-58.668915981559515
9.376,1.0,-58.908557199952675
9.384,1.0,-59.148075144693195
9.392,1.0,-59.38746941089881
9.4,1.0,-59.62673959697172
9.408,0.9999999999999999,-59.86588530459427
9.416,1.0,-60.104906138725575
9.424,1.0,-60.34380170759717
9.432,0.9999999999999999,-60.58257162270954
9.44,1.0000000000000002,-60.821215498827755
9.448,1.0,-61.05973295397813
9.456,1.0,-61.29812360944378
9.464,1.0,-61.53638708976122
9.472,0.9999999999999999,-61.77452302271612
9.48,0.9999999999999999,-62.01253103933981
9.488,0.9999999999999999,-62.25041077390514
9.496,1.0,-62.48816186392301
9.504,1.0,-62.72578395013823
9.512,1.0,-62.963276676526235
9.52,0.9999999999999999,-63.20063969028897
9.528,1.0,-63.43787264185163
9.536,1.0000000000000002,-63.674975184858596
9.544,1.0,-63.91194697617031
9.552,1.0,-64.14878767585938
9.56,1.0,-64.38549694720736
9.568,0.9999999999999999,-64.622074456701
9.576,0.9999999999999999,-64.85851987402917
9.584,0.9999999999999999,-65.09483287207915
9.592,1.0,-65.33101312693368
9.6,1.0,-65.56706031786726
9.608,1.0,-65.80297412734333
9.616,1.0,-66.03875424101071
9.624,0.9999999999999999,-66.27440034770073
9.632,1.0,-66.50991213942389
9.64,1.0,-66.74528931136703
9.648,1.0,-66.98053156188993
9.656,1.0,-67.2156385925228
9.664,1.0,-67.45061010796272
9.672,1.0,-67.68544581607131
9.68,0.9999999999999999,-67.92014542787126
9.688,0.9999999999999999,-68.15470865754399
9.696,1.0,-68.38913522242626
9.704,1.0,-68.62342484300784
9.712,0.9999999999999999,-68.8575772429282
9.72,1.0,-69.09159214897424
9.728,0.9999999999999998,-69.32546929107703
9.736,1.0,-69.55920840230948
9.744,0.9999999999999999,-69.79280921888314
9.752,1.0,-70.02627148014588
9.76,1.0,-70.25959492857882
9.768,0.9999999999999999,-70.49277930979387
9.776,1.0,-70.72582437253068
9.784,0.9999999999999999,-70.9587298686542
9.792,1.0,-71.19149555315164
9.8,1.0,-71.42412118413006
9.808,1.0,-71.6566065228131
9.816,1.0,-71.88895133353878
9.824,0.9999999999999999,-72.12115538375615
9.832,0.9999999999999999,-72.35321844402289
9.84,1.0,-72.58514028800202
9.847999999999999,1.0,-72.81692069245948
9.856,1.0,-73.04855943726092
9.864,1.0,-73.28005630536876
9.872,1.0,-73.51141108283926
9.879999999999999,0.9999999999999999,-73.7426235588196
9.888,1.0,-73.97369352554475
9.896,1.0,-74.20462077833422
9.904,1.0,-74.43540511558903
9.911999999999999,1.0,-74.66604633878863
9.92,1.0,-74.8965442524875
9.928,1.0,-75.1268986643118
9.936,1.0,-75.35710938495605
9.943999999999999,0.9999999999999999,-75.58717622817991
9.952,1.0,-75.81709901080448
9.96,0.9999999999999999,-76.04687755270878
9.968,0.9999999999999999,-76.27651167682613
9.975999999999999,0.9999999999999999,-76.5060012091407
9.984,0.9999999999999999,-76.73534597868364
9.992,0.9999999999999999,-76.96454581752909
10.0,1.0,-77.1936005607905
10.008,1.0,-77.42251004661681
10.016,0.9999999999999999,-77.65127411618823
10.024000000000001,1.0,-77.87989261371213
10.032,1.0,-78.10836538641895
