freq,mag,phase
6.0,0.999996374885263,-54.053581886435296
6.008,0.9999947579989202,-54.39682318625591
6.016,0.9999932032825255,-54.739877133981025
6.024,0.9999917097587855,-55.08274267518387
6.032,0.9999902764548961,-55.42541876616121
6.04,0.9999889024026299,-55.76790437394797
6.048,0.9999875866384222,-56.110198476330794
6.056,0.9999863282034555,-56.45230006186076
6.064,0.9999851261437424,-56.79420812986521
6.072,0.9999839795102083,-57.1359216904587
6.08,0.9999828873587715,-57.47743976455297
6.088,0.9999818487504204,-57.81876138386611
6.096,0.999980862751293,-58.159885590930976
6.104,0.9999799284327511,-58.50081143910249
6.112,0.9999790448714551,-58.84153799256421
6.12,0.999978211149438,-59.18206432633405
6.128,0.999977426354175,-59.52238952626912
6.136,0.9999766895786545,-59.862512689069796
6.144,0.9999759999214463,-60.20243292228275
6.152,0.9999753564867689,-60.54214934430334
6.16,0.999974758384555,-60.881661084377136
6.168,0.9999742047305142,-61.22096728260054
6.176,0.9999736946461982,-61.56006708992068
6.184,0.9999732272590592,-61.89895966813444
6.192,0.999972801702512,-62.23764418988668
6.2,0.9999724171159894,-62.576119838667715
6.208,0.9999720726450021,-62.91438580880993
6.216,0.9999717674411917,-63.25244130548369
6.224,0.9999715006623852,-63.59028554469238
6.232,0.9999712714726477,-63.92791775326675
6.24,0.9999710790423333,-64.26533716885847
6.248,0.999970922548134,-64.60254303993288
6.256,0.9999708011731278,-64.9395346257611
6.264,0.9999707141068269,-65.27631119641124
6.272,0.999970660545221,-65.61287203273902
6.28,0.9999706396908219,-65.94921642637766
6.288,0.9999706507527065,-66.28534367972678
6.296,0.9999706929465564,-66.62125310594101
6.304,0.9999707654946989,-66.95694402891752
6.312,0.999970867626144,-67.2924157832831
6.32,0.9999709985766227,-67.62766771438042
6.328,0.9999711575886209,-67.9626991782535
6.336,0.9999713439114143,-68.29750954163282
6.344,0.9999715568011008,-68.63209818191946
6.352,0.9999717955206324,-68.96646448716868
6.36,0.9999720593398447,-69.30060785607286
6.368,0.9999723475354853,-69.63452769794372
6.376,0.9999726593912419,-69.96822343269409
6.384,0.9999729941977681,-70.30169449081873
6.392,0.999973351252707,-70.63494031337478
6.4,0.9999737298607168,-70.96796035196158
6.408,0.9999741293334905,-71.30075406869962
6.416,0.9999745489897783,-71.63332093620927
6.424,0.9999749881554064,-71.96566043758855
6.432,0.9999754461632963,-72.29777206639062
6.44,0.9999759223534794,-72.62965532660041
6.448,0.9999764160731163,-72.96130973261099
6.456,0.9999769266765072,-73.29273480919892
6.464,0.9999774535251091,-73.62393009149964
6.472,0.9999779959875454,-73.95489512498173
6.48,0.9999785534396174,-74.28562946542105
6.4879999999999995,0.999979125264314,-74.61613267887404
6.496,0.9999797108518202,-74.9464043416509
6.504,0.9999803095995246,-75.27644404028753
6.5120000000000005,0.9999809209120251,-75.60625137151801
6.52,0.9999815442011339,-75.93582594224532
6.5280000000000005,0.999982178885882,-76.26516736951292
6.536,0.9999828243925207,-76.59427528047446
6.5440000000000005,0.9999834801545251,-76.92314931236442
6.552,0.9999841456125916,-77.2517891124668
6.5600000000000005,0.9999848202146406,-77.58019433808482
6.568,0.9999855034158129,-77.90836465650887
6.5760000000000005,0.9999861946784664,-78.23629974498502
6.584,0.9999868934721743,-78.56399929068232
6.592,0.9999875992737184,-78.89146299066032
6.6,0.9999883115670836,-79.2186905518356
6.608,0.9999890298434515,-79.54568169094829
6.616,0.9999897536011926,-79.87243613452789
6.624,0.9999904823458555,-80.19895361885895
6.632,0.9999912155901592,-80.5252338899462
6.64,0.9999919528539815,-80.85127670347921
6.648,0.9999926936643454,-81.17708182479696
6.656,0.9999934375554098,-81.5026490288517
6.664,0.9999941840684512,-81.8279781001727
6.672,0.9999949327518537,-82.15306883282952
6.68,0.9999956831610893,-82.47792103039492
6.688,0.9999964348587043,-82.80253450590756
6.696,0.9999971874142999,-83.1269090818342
6.704,0.9999979404045155,-83.45104459003161
6.712,0.9999986934130078,-83.77494087170835
6.72,0.9999994460304327,-84.09859777738588
6.728,1.0,-84.42201516685975
6.736,0.9999999999999998,-84.74519290916021
6.744,1.0,-85.06813088251263
6.752,0.9999999999999998,-85.39082897429772
6.76,0.9999999999999999,-85.71328708101127
6.768,1.0,-86.03550510822387
6.776,1.0,-86.35748297054013
6.784,0.9999999999999998,-86.67922059155784
6.792,1.0,-87.00071790382671
6.8,1.0,-87.32197484880709
6.808,1.0,-87.64299137682816
6.816,0.9999999999999999,-87.96376744704621
6.824,0.9999999999999998,-88.28430302740239
6.832,1.0,-88.60459809458055
6.84,0.9999999999999999,-88.92465263396461
6.848,0.9999999999999999,-89.24446663959593
6.856,1.0,-89.56404011413032
6.864,1.0,-89.88337306879501
6.872,1.0,-90.20246552334534
6.88,0.9999999999999999,-90.52131750602126
6.888,1.0,-90.83992905350384
6.896,1.0,-91.15830021087132
6.904,0.9999999999999998,-91.47643103155536
6.912,1.0,-91.79432157729674
6.92,1.0,-92.11197191810136
6.928,1.0,-92.42938213219566
6.936,1.0,-92.74655230598226
6.944,0.9999999999999999,-93.06348253399533
6.952,0.9999999999999999,-93.38017291885578
6.96,1.0,-93.69662357122645
6.968,1.0,-94.0128346097672
6.976,1.0,-94.32880616108973
6.984,1.0,-94.64453835971256
6.992,0.9999999999999999,-94.9600313480157
7.0,0.9999999999999999,-95.27528527619532
7.008,1.0,-95.5903003022184
7.016,1.0,-95.90507659177717
7.024,1.0000000000000002,-96.21961431824371
7.032,0.9999999999999999,-96.53391366262414
7.04,1.0,-96.84797481351312
7.048,1.0,-97.16179796704802
7.056,1.0,-97.47538332686324
7.064,1.0,-97.7887311040444
7.072,0.9999999999999999,-98.10184151708243
7.08,1.0,-98.41471479182779
7.088,0.9999999999999999,-98.72735116144449
7.096,1.0,-99.03975086636426
7.104,0.9999999999999998,-99.35191415424052
7.112,1.0,-99.66384127990256
7.12,1.0,-99.97553250530949
7.128,1.0,-100.2869880995043
7.136,1.0,-100.59820833856796
7.144,0.9999999999999999,-100.90919350557347
7.152,0.9999999999999998,-101.2199438905399
7.16,1.0,-101.53045979038644
7.168,1.0,-101.84074150888667
7.176,1.0,-102.15078935662251
7.184,0.9999999999999999,-102.46060365093851
7.192,1.0,-102.77018471589597
7.2,1.0,-103.07953288222721
7.208,1.0,-103.3886484872899
7.216,1.0,-103.69753187502126
7.224,0.9999999999999999,-104.00618339589255
7.232,1.0,-104.31460340686344
7.24,1.0,-104.62279227133654
7.248,0.9999999999999999,-104.93075035911188
7.256,0.9999999999999999,-105.2384780463416
7.264,1.0,-105.54597571548459
7.272,1.0,-105.85324375526123
7.28,1.0,-106.1602825606083
7.288,0.9999999999999999,-106.46709253263376
7.296,1.0,-106.7736740785719
7.304,1.0,-107.08002761173836
7.312,1.0,-107.38615355148517
7.32,1.0,-107.69205232315629
7.328,1.0,-107.99772435804269
7.336,0.9999999999999999,-108.30317009333804
7.344,1.0,-108.60838997209413
7.352,0.9999999999999999,-108.91338444317654
7.36,0.9999999999999998,-109.21815396122058
7.368,1.0,-109.52269898658699
7.376,1.0,-109.82701998531802
7.384,1.0,-110.13111742909363
7.392,1.0,-110.4349917951876
7.4,1.0,-110.73864356642402
7.4079999999999995,0.9999999999999999,-111.04207323113364
7.416,0.9999999999999999,-111.34528128311081
7.4239999999999995,1.0,-111.64826822156964
7.432,1.0,-111.95103455110167
7.4399999999999995,0.9999999999999999,-112.25358078163211
7.448,1.0,-112.55590742837768
7.4559999999999995,1.0000000000000002,-112.85801501180335
7.464,1.0000000000000002,-113.15990405758029
7.4719999999999995,1.0000000000000002,-113.46157509654294
7.48,1.0,-113.76302866464735
7.4879999999999995,1.0,-114.06426530292845
7.496,0.9999999999999999,-114.3652855574586
7.504,1.0,-114.66608997930541
7.5120000000000005,1.0,-114.96667912449047
7.52,1.0,-115.26705355394735
7.5280000000000005,1.0,-115.56721383348093
7.536,1.0,-115.86716053372551
7.5440000000000005,0.9999999999999999,-116.16689423010449
7.552,0.9999999999999999,-116.46641550278893
7.5600000000000005,1.0,-116.76572493665745
7.568,1.0,-117.06482312125512
7.5760000000000005,1.0,-117.36371065075375
7.584,1.0,-117.66238812391114
7.5920000000000005,1.0,-117.96085614403167
7.6,0.9999999999999999,-118.25911531892594
7.6080000000000005,0.9999999999999999,-118.55716626087161
7.616,0.9999999999999999,-118.85500958657354
7.6240000000000006,1.0,-119.15264591712491
7.632,1.0,-119.4500758779677
7.640000000000001,0.9999999999999999,-119.74730009885428
7.648,0.9999999999999999,-120.04431921380805
7.656000000000001,1.0,-120.34113386108558
7.664,0.9999999999999999,-120.63774468313767
7.672,1.0,-120.93415232657158
7.68,0.9999999999999999,-121.23035744211285
7.688,1.0,-121.52636068456748
7.696,1.0,-121.82216271278448
7.704,1.0,-122.11776418961831
7.712,1.0,-122.41316578189178
7.72,1.0,-122.70836816035887
7.728,1.0,-123.00337199966806
7.736,1.0,-123.29817797832557
7.744,0.9999999999999999,-123.59278677865896
7.752,0.9999999999999999,-123.88719908678095
7.76,1.0,-124.18141559255317
7.768,0.9999999999999999,-124.47543698955054
7.776,0.9999999999999999,-124.76926397502547
7.784,1.0,-125.0628972498724
7.792,1.0,-125.35633751859265
7.8,0.9999999999999999,-125.64958548925927
7.808,1.0,-125.94264187348219
7.816,1.0000000000000002,-126.23550738637351
7.824,1.0,-126.52818274651328
7.832,1.0,-126.82066867591493
7.84,0.9999999999999999,-127.11296589999145
7.848,0.9999999999999999,-127.4050751475214
7.856,1.0,-127.69699715061535
7.864,0.9999999999999999,-127.98873264468239
7.872,1.0,-128.28028236839688
7.88,1.0,-128.57164706366555
7.888,1.0,-128.8628274755944
7.896,0.9999999999999998,-129.15382435245633
7.904,1.0,-129.44463844565863
7.912,1.0,-129.7352705097106
7.92,1.0,-130.02572130219178
7.928,1.0,-130.31599158372006
7.936,1.0,-130.60608211791995
7.944,1.0,-130.89599367139132
7.952,0.9999999835467225,-131.18572701367816
7.96,0.9999992302193654,-131.47528291723745
7.968,0.99999847315972,-131.76466215740868
7.976,0.9999977125445911,-132.05386551238297
7.984,0.9999969485510134,-132.34289376317278
7.992,0.9999961813562159,-132.63174769358176
8.0,0.9999954111375864,-132.9204280901747
8.008,0.9999946380726378,-133.2089357422479
8.016,0.9999938623389732,-133.49727144179954
8.024000000000001,0.9999930841142524,-133.78543598350018
8.032,0.9999923035761569,-134.07343016466362
8.04,0.999991520902358,-134.36125478521825
8.048,0.9999907362704824,-134.64891064767804
8.056000000000001,0.9999899498580793,-134.93639855711382
8.064,0.9999891618425893,-135.2237193211251
8.072,0.9999883724013102,-135.5108737498122
8.08,0.9999875817113667,-135.79786265574782
8.088000000000001,0.999986789949677,-136.08468685394953
8.096,0.9999859972929227,-136.37134716185204
8.104,0.9999852039175172,-136.65784439928018
8.112,0.9999844099995753,-136.94417938842156
8.120000000000001,0.9999836157148823,-137.2303529537994
8.128,0.9999828212388634,-137.51636592224605
8.136,0.9999820267465555,-137.80221912287635
8.144,0.9999812324125753,-138.08791338706138
8.152000000000001,0.9999804384110919,-138.37344954840202
8.16,0.9999796449157967,-138.65882844270308
8.168,0.9999788520998749,-138.94405090794777
8.176,0.9999780601359785,-139.22911778427186
8.184000000000001,0.9999772691961957,-139.51402991393826
8.192,0.9999764794520251,-139.79878814131192
8.2,0.9999756910743475,-140.08339331283491
8.208,0.9999749042333987,-140.36784627700155
8.216000000000001,0.999974119098743,-140.6521478843336
8.224,0.999973335839246,-140.93629898735614
8.232,0.9999725546230488,-141.22030044057314
8.24,0.999971775617542,-141.50415310044352
8.248000000000001,0.9999709989893403,-141.7878578253571
8.256,0.9999702249042555,-142.07141547561108
8.264,0.9999694535272743,-142.35482691338663
8.272,0.9999686850225307,-142.63809300272544
8.280000000000001,0.9999679195532837,-142.92121460950665
8.288,0.9999671572818907,-143.20419260142373
8.296,0.9999663983697861,-143.48702784796228
8.304,0.9999656429774575,-143.76972122037694
8.312,0.9999648912644195,-144.05227359166904
8.32,0.9999641433891945,-144.3346858365648
8.328,0.9999633995092875,-144.61695883149278
8.336,0.9999626597811647,-144.89909345456263
8.344,0.9999619243602312,-145.18109058554276
8.352,0.9999611934008099,-145.46295110583955
8.36,0.9999604670561175,-145.74467589847535
8.368,0.999959745478247,-146.02626584806805
8.376,0.9999590288181438,-146.30772184080942
8.384,0.9999583172255859,-146.58904476444502
8.392,0.9999576108491648,-146.87023550825293
8.4,0.9999569098362635,-147.15129496302396
8.408,0.9999562143330376,-147.4322240210407
8.416,0.9999555244843968,-147.71302357605816
8.424,0.9999548404339837,-147.99369452328312
8.432,0.9999541623241568,-148.2742377593551
8.44,0.9999534902959702,-148.55465418232595
8.448,0.9999528244891572,-148.83494469164125
8.456,0.9999521650421105,-149.11511018812044
8.464,0.9999515120918654,-149.3951515739381
8.472,0.9999508657740824,-149.67506975260477
8.48,0.9999502262230291,-149.9548656289484
8.488,0.9999495935715645,-150.23454010909543
8.496,0.9999489679511215,-150.51409410045284
8.504,0.9999483494916913,-150.79352851168926
8.512,0.9999477383218065,-151.0728442527174
8.52,0.999947134568526,-151.3520422346756
8.528,0.999946538357419,-151.6311233699105
8.536,0.9999459498125504,-151.91008857195885
8.544,0.9999453690564655,-152.18893875553047
8.552,0.999944796210175,-152.46767483649054
8.56,0.9999442313931411,-152.74629773184265
8.568,0.9999436747232641,-153.0248083597116
8.576,0.9999431263168664,-153.30320763932664
8.584,0.999942586288681,-153.5814964910044
8.592,0.9999420547518377,-153.8596758361328
8.6,0.9999415318178488,-154.137746597154
8.608,0.9999410175965988,-154.4157096975486
8.616,0.9999405121963294,-154.69356606181904
8.624,0.999940015723629,-154.97131661547402
8.632,0.9999395282834198,-155.24896228501206
8.64,0.999939049978947,-155.52650399790633
8.648,0.999938580911766,-155.80394268258857
8.656,0.9999381211817333,-156.08127926843397
8.664,0.9999376708869933,-156.35851468574552
8.672,0.9999372301239697,-156.6356498657392
8.68,0.9999367989873537,-156.9126857405284
8.688,0.9999363775700943,-157.18962324310957
8.696,0.9999359659633896,-157.46646330734697
8.704,0.9999355642566752,-157.74320686795824
8.712,0.9999351725376163,-158.01985486049972
8.72,0.9999347908920982,-158.29640822135235
8.728,0.9999344194042179,-158.57286788770685
8.736,0.999934058156275,-158.8492347975502
8.744,0.9999337072287633,-159.12550988965103
8.752,0.999933366700363,-159.40169410354622
8.76,0.9999330366479339,-159.67778837952673
8.768,0.9999327171465057,-159.95379365862428
8.776,0.9999324082692728,-160.2297108825974
8.784,0.9999321100875861,-160.5055409939186
8.792,0.9999318226709463,-160.78128493576034
8.8,0.9999315460869979,-161.05694365198264
8.808,0.9999312804015223,-161.33251808711927
8.815999999999999,0.9999310256784323,-161.6080091863654
8.824,0.9999307819797659,-161.88341789556452
8.832,0.9999305493656806,-162.15874516119553
8.84,0.9999303278944486,-162.43399193036043
8.847999999999999,0.999930117622451,-162.70915915077174
8.856,0.9999299186041741,-162.98424777074013
8.864,0.9999297308922036,-163.25925873916188
8.872,0.9999295545372212,-163.5341930055071
8.879999999999999,0.9999293895879992,-163.80905151980735
8.888,0.9999292360913984,-164.08383523264393
8.896,0.9999290940923627,-164.35854509513572
8.904,0.9999289636339171,-164.63318205892764
8.911999999999999,0.9999288447571638,-164.90774707617894
8.92,0.9999287375012793,-165.18224109955162
8.928,0.9999286419035114,-165.456665082199
8.936,0.9999285579991773,-165.73101997775416
8.943999999999999,0.9999284858216616,-166.005306740319
8.952,0.9999284254024136,-166.27952632445292
8.96,0.9999283767709447,-166.55367968516154
8.968,0.9999283399548297,-166.82776777788595
8.975999999999999,0.9999283149797022,-167.1017915584918
8.984,0.9999283018692554,-167.37575198325848
8.992,0.9999283006452407,-167.6496500088682
9.0,0.9999283113274673,-167.92348659239553
9.008,0.9999283339338012,-168.1972626912969
9.016,0.9999283684801652,-168.47097926340018
9.024000000000001,0.9999284149805397,-168.74463726689396
9.032,0.9999284734469617,-169.0182376603175
9.04,0.9999285438895261,-169.29178140255075
9.048,0.9999286263163859,-169.56526945280373
9.056000000000001,0.9999287207337535,-169.8387027706069
9.064,0.9999288271459011,-170.11208231580068
9.072,0.9999289455551627,-170.38540904852624
9.08,0.9999290759619363,-170.65868392921521
9.088000000000001,0.9999292183646833,-170.93190791857987
9.096,0.999929372759933,-171.2050819776037
9.104,0.9999295391422833,-171.47820706753174
9.112,0.999929717504404,-171.75128414986114
9.120000000000001,0.9999299078370375,-172.0243141863313
9.128,0.9999301101290048,-172.2972981389149
9.136,0.9999303243672061,-172.57023696980846
9.144,0.9999305505366239,-172.84313164142304
9.152000000000001,0.9999307886203281,-173.11598311637493
9.16,0.9999310385994791,-173.38879235747666
9.168,0.9999313004533298,-173.66156032772793
9.176,0.9999315741592321,-173.93428799030661
9.184000000000001,0.9999318596926405,-174.2069763085597
9.192,0.9999321570271162,-174.47962624599433
9.2,0.9999324661343307,-174.75223876626927
9.208,0.9999327869840731,-175.02481483318599
9.216000000000001,0.9999331195442538,-175.29735541067973
9.224,0.999933463780909,-175.56986146281105
9.232,0.9999338196582078,-175.84233395375722
9.24,0.9999341871384568,-176.11477384780372
9.248000000000001,0.9999345661821057,-176.3871821093354
9.256,0.9999349567477555,-176.6595597028283
9.264,0.9999353587921613,-176.9319075928412
9.272,0.999935772270242,-177.20422674400731
9.280000000000001,0.999936197135085,-177.47651812102572
9.288,0.9999366333379538,-177.7487826886532
9.296,0.9999370808282949,-178.02102141169615
9.304,0.999937539553745,-178.2932352550024
9.312000000000001,0.9999380094601381,-178.56542518345267
9.32,0.9999384904915141,-178.8375921619528
9.328,0.9999389825901254,-179.1097371554258
9.336,0.9999394856964458,-179.3818611288035
9.344,0.9999399997491781,-179.65396504701857
9.352,0.9999405246852634,-179.92604987499692
9.36,0.9999410604398881,179.8018834223508
9.368,0.9999416069464941,179.52983388013647
9.376,0.9999421641367866,179.25780053350286
9.384,0.9999427319407447,178.9857824176311
9.392,0.9999433102866286,178.71377856774893
9.4,0.9999438991009916,178.44178801913787
9.408,0.9999444983086874,178.16980980714158
9.416,0.9999451078328818,177.897842967173
9.424,0.9999457275950613,177.62588653472272
9.432,0.9999463575150447,177.35393954536585
9.44,0.9999469975109917,177.08200103477046
9.448,0.9999476474994157,176.81007003870457
9.456,0.9999483073951924,176.53814559304425
9.464,0.9999489771115727,176.26622673378074
9.472,0.999949656560192,175.99431249702855
9.48,0.9999503456510829,175.72240191903245
9.488,0.9999510442926859,175.45049403617557
9.496,0.9999517523918607,175.1785878849864
9.504,0.9999524698538999,174.90668250214677
9.512,0.9999531965825382,174.6347769244988
9.52,0.9999539324799673,174.36287018905315
9.528,0.9999546774468453,174.09096133299568
9.536,0.9999554313823126,173.8190493936955
9.544,0.9999561941840016,173.54713340871206
9.552,0.9999569657480517,173.27521241580305
9.56,0.99995774596912,173.00328545293127
9.568,0.9999585347403979,172.73135155827256
9.576,0.99995933195362,172.45940977022292
9.584,0.9999601374990819,172.18745912740627
9.592,0.9999609512656515,171.91549866868144
9.6,0.9999617731407835,171.64352743315018
9.608,0.9999626030105323,171.37154446016405
9.616,0.9999634407595683,171.09954878933226
9.624,0.9999642862711912,170.82753946052878
9.632,0.9999651394273439,170.55551551390025
9.64,0.9999660001086278,170.28347598987284
9.648,0.9999668681943172,170.0114199291603
9.656,0.9999677435623756,169.739346372771
9.664,0.9999686260894687,169.4672543620157
9.672,0.9999695156509822,169.1951429385148
9.68,0.9999704121210349,168.92301114420613
9.688,0.999971315372496,168.6508580213521
9.696,0.9999722252769997,168.3786826125476
9.704,0.9999731417049628,168.1064839607273
9.712,0.9999740645255987,167.8342611091734
9.72,0.9999749936069352,167.56201310152287
9.728,0.9999759288158303,167.28973898177557
9.736,0.9999768700179887,167.0174377943013
9.744,0.9999778170779791,166.74510858384795
9.752,0.9999787698592508,166.4727503955487
9.76,0.9999797282241494,166.20036227493023
9.768,0.9999806920339365,165.92794326791972
9.776,0.9999816611488046,165.65549242085336
