freq,mag,phase
6.0,1.0001344638922722,-175.67937554605655
6.002285568,1.0001315172332528,-175.8346455941232
6.004571648,1.000119759873143,-175.98978763429147
6.006857216,1.0001003846390757,-176.14464088179298
6.009142784,1.0000746875049313,-176.29918971645034
6.011428352,1.0000441479137705,-176.4533554839174
6.013714432,1.000010909969048,-176.60697878791467
6.016,0.9999769227288849,-176.76012644773292
6.018285568,0.9999443863015707,-176.91280089017837
6.020571648,0.9999153462278685,-177.06497643418692
6.022857216,0.9998916634861672,-177.21676797399795
6.025142784,0.9998748353988419,-177.36824872541004
6.027428352,0.9998658628152262,-177.51953460160678
6.029714432,0.999865440722346,-177.6706980576449
6.032,0.9998735991577424,-177.82193483152025
6.034285568,0.9998896235563055,-177.97335317733635
6.036571648,0.9999126780011208,-178.12499657666385
6.038857216,0.9999413398266922,-178.27702031474573
6.041142784,0.9999736749672624,-178.42946404456714
6.043428352,1.0000076829019777,-178.58240233413596
6.045714432,1.0000412395515899,-178.73580437830648
6.048,1.000072150050248,-178.8896574917083
6.050285568,1.0000985377053175,-179.04387372346613
6.052571648,1.0001187223492074,-179.19847032826831
6.054857216,1.0001314221556674,-179.35327513004594
6.057142784,1.0001356762215197,-179.50814353035824
6.059428352,1.0001316178047548,-179.66303583151134
6.061714432,1.0001190196378293,-179.81782177078367
6.064,1.0000989415351964,-179.97228132480296
6.066285568,1.0000725307114096,179.87354694264357
6.068571648,1.0000415220859926,179.71980419453115
6.070857216,1.000007930800294,179.56656569062656
6.073142784,0.9999737681561537,179.41385041454262
6.075428352,0.9999413495721204,179.26163619222575
6.077714432,0.9999124605528291,179.1098936350241
6.08,0.9998892857609398,178.95848154165876
6.082285568,0.999873022613188,178.80742413833394
6.084571648,0.9998647680126204,178.65654472720948
6.086857216,0.9998650663091341,178.5057742386317
6.089142784,0.9998738777902296,178.35492645466107
6.091428352,0.9998907450494744,178.20387872713027
6.093714432,0.9999144781100658,178.0525752348711
6.096,0.9999437562006266,177.90090083497287
6.098285568,0.9999764575677372,177.74880834556126
6.100571648,1.0000107277792487,177.59622257147265
6.102857216,1.0000442362763369,177.4431605759821
6.105142784,1.000075139279779,177.28969528074325
6.107428352,1.0001012034003176,177.13578239764072
6.109714432,1.000120815352888,176.98155461670513
6.112,1.0001329451343421,176.82713184082016
6.114285568,1.0001364626398073,176.67259178951386
6.116571648,1.000131520120079,176.5180831246115
6.118857216,1.0001181439398437,176.36373478151145
6.121142784,1.0000972811126196,176.20963311169913
6.123428352,1.0000703677688765,176.05594130646253
6.125714432,1.0000389153835945,175.9025951684983
6.128,1.0000050117382937,175.74983349664797
6.130285568,0.9999706508211275,175.59753269079874
6.132571648,0.9999383123622787,175.44575364755045
6.134857216,0.9999097119234347,175.29441687707214
6.137142784,0.999887012906167,175.14351502576127
6.139428352,0.9998712773575262,174.99286336802624
6.141714432,0.9998637433617006,174.84241572694768
6.144,0.9998648231805941,174.6920137451572
6.146285568,0.9998744563885759,174.54158492133234
6.148571648,0.9998920773033335,174.39094012228188
6.150857216,0.9999164849555535,174.23999844284828
6.153142784,0.9999462351932555,174.08872179626502
6.155428352,0.9999793161251208,173.93699345733506
6.157714432,1.0000138808190968,173.78477797171377
6.16,1.00004745365141,173.63208794879034
6.162285568,1.000078062826973,173.47892145002305
6.164571648,1.0001038070446515,173.3253879375421
6.166857216,1.0001229378199463,173.17157019851714
6.169142784,1.0001343339741289,173.01750195877793
6.171428352,1.000137185082982,172.86337336150044
6.173714432,1.0001314542944342,172.70928056093092
6.176,1.0001173093886728,172.55535364196524
6.178285568,1.000095755938895,172.40171389574138
6.180571648,1.0000682287358862,172.24839416504634
6.182857216,1.000036251768189,172.09556256025485
6.185142784,1.000001949898128,171.94320531943984
6.187428352,0.999967651268275,171.7913737732315
6.189714432,0.9999352326728709,171.64008159105492
6.192,0.9999070194762051,171.48921709688386
6.194285568,0.9998845979812148,171.33872903124248
6.196571648,0.9998695353607281,171.18853313649217
6.198857216,0.9998626838901169,171.0385265269256
6.201142784,0.9998645739026252,170.8885561302496
6.203428352,0.9998750438167812,170.73851005333822
6.205714432,0.9998933703150874,170.5883105966903
6.208,0.9999185978324192,170.437778544138
6.210285568,0.9999488654938476,170.28686612111562
6.212571648,0.9999823752182964,170.13552670202316
6.214857216,1.000017059177481,169.9836655372944
6.217142784,1.0000506790804138,169.83140152622275
6.219428352,1.0000811120120274,169.6785993467394
6.221714432,1.0001063571577844,169.52546805311897
6.224,1.0001250287751902,169.3720157292358
6.226285568,1.0001357423473525,169.21837648688128
6.228571648,1.0001378504601093,169.06465547807005
6.230857216,1.000131261429558,168.9110021812495
6.233142784,1.0001162658654343,168.7575001940594
6.235428352,1.0000939839601555,168.60430403066715
6.237714432,1.0000657985947279,168.45145296230135
6.24,1.00003336556726,168.29906108472142
6.242285568,0.9999988131862804,168.147208479739
6.244571648,0.9999643744475863,167.99589509134853
6.246857216,0.9999322071607998,167.84502872906376
6.249142784,0.9999041305778493,167.6946600141357
6.251428352,0.9998823313289217,167.5446163327197
6.253714432,0.9998678727223204,167.39491282173893
6.256,0.9998618011548869,167.24535232237233
6.258285568,0.9998644065220187,167.09582951424179
6.260571648,0.9998756843228781,166.94624122060995
6.262857216,0.9998948192437013,166.79643276978524
6.265142784,0.9999206430483129,166.64632632306913
6.267428352,0.9999515245269849,166.49584029249633
6.269714432,0.9999854493969144,166.34488481578546
6.272,1.0000203546837168,166.19341273509286
6.274285568,1.00005386822402,166.0415197733251
6.276571648,1.0000841135571672,165.88914119621342
6.278857216,1.0001090935043635,165.7364073619643
6.281142784,1.0001271316476672,165.58337047153236
6.283428352,1.0001370456812988,165.4301606161767
6.285714432,1.0001384429516715,165.27685054424353
6.288,1.0001309915217014,165.12361634366346
6.290285568,1.0001153067625037,164.97058268847357
6.292571648,1.0000922700278407,164.81785261242794
6.294857216,1.0000633662048815,164.6654899317819
6.297142784,1.0000304770975412,164.5136155045248
6.299428352,0.9999956397853018,164.36223896768166
6.301714432,0.9999610709193786,164.21139722912952
6.304,0.9999290130536959,164.06104740106596
6.306285568,0.9999014954092937,163.91115496217103
6.308571648,0.9998799870269368,163.76161490109843
6.310857216,0.9998661882948662,163.61239073914737
6.313142784,0.9998608744964026,163.46330288867915
6.315428352,0.9998643802533316,163.3142389717374
6.317714432,0.9998765009202897,163.16509851683276
6.32,0.9998963694618196,163.01573330980708
6.322285568,0.9999228652044216,162.86604685790786
6.324571648,0.9999542441887261,162.71596813492334
6.326857216,0.9999885572865368,162.56541935427177
6.329142784,1.000023590256325,162.41440604130207
6.331428352,1.00005718252602,162.26287779133847
6.333714432,1.0000870782585494,162.11094599845097
6.336,1.000111610278346,161.95861349660504
6.338285568,1.000129061364642,161.8059781906481
6.340571648,1.0001383481496298,161.6532086481009
6.342857216,1.0001388571938554,161.50036533660844
6.345142784,1.0001306368095206,161.34758623030325
6.347428352,1.000114142587048,161.19501057330677
6.349714432,1.0000903726964907,161.04275660469128
6.352,1.0000609899623703,160.89090262703473
6.354285568,1.0000275397646425,160.73952412342805
6.356571648,0.9999924689681592,160.5886617210466
6.358857216,0.9999578648591405,160.43831233088136
6.361142784,0.9999258631090544,160.28849688836002
6.363428352,0.9998986419307602,160.13910966596663
6.365714432,0.9998776757860244,159.9900602262453
6.368,0.999864548577589,159.84133372982635
6.370285568,0.9998600389973116,159.69274617944828
6.372571648,0.9998643563498211,159.54412849502305
6.374857216,0.9998771807828125,159.39544562142947
6.377142784,0.9998979198180632,159.24655033212127
6.379428352,0.9999251327776287,159.09729236519212
6.381714432,0.9999570809035874,158.94764517785396
6.384,0.9999918232242243,158.79753628307247
6.386285568,1.0000269486411317,158.64691603053262
6.388571648,1.0000605083063965,158.49584446581588
6.390857216,1.0000902415035735,158.34433132446546
6.393142784,1.0001141956678041,158.19242330826316
6.395428352,1.0001311478392576,158.04023449463745
6.397714432,1.000139628493301,157.88791900673144
6.4,1.0001394838201725,157.73551399294973
6.402285568,1.0001302689110816,157.58321231581317
6.404571648,1.000112902308128,157.43113820384264
6.406857216,1.0000885093348613,157.2793849667214
6.409142784,1.0000583684817077,157.12803222256917
6.411428352,1.0000245894923572,156.9771772902899
6.413714432,0.9999891890944029,156.8268333785742
6.416,0.9999545024787401,156.67701542676392
6.418285568,0.9999226741182173,156.5276960202859
6.420571648,0.9998957836215759,156.3788155961143
6.422857216,0.9998754677312146,156.23031557389407
6.425142784,0.9998629315698762,156.08208599849718
6.427428352,0.999859142038451,155.93395864473766
6.429714432,0.9998643307851857,155.7858884379114
6.432,0.9998781365209991,155.637649865493
6.434285568,0.9998997295757295,155.48920473658868
6.436571648,0.9999275807567175,155.34042249926304
6.438857216,0.999959868206674,155.1912028286302
6.441142784,0.9999950459547586,155.04153405679995
6.443428352,1.0000303510458197,154.89135952805165
6.445714432,1.0000638671468016,154.74071148319348
6.448,1.000093246881602,154.5896245253771
6.450285568,1.000116874204828,154.43814633936526
6.452571648,1.0001331390276398,154.28643201616
6.454857216,1.0001408395760256,154.13456049205496
6.457142784,1.0001397925033721,153.98265214475146
6.459428352,1.0001297260627466,153.83083489021485
6.461714432,1.0001115703705836,153.6792331300607
6.464,1.0000864194342332,153.52799626649812
6.466285568,1.0000556742311781,153.37718278696553
6.468571648,1.00002148563701,153.2268338915492
6.470857216,0.9999858839117642,153.07705010578002
6.473142784,0.9999511127818389,152.92772712728666
6.475428352,0.9999194771650896,152.7789514418478
6.477714432,0.9998929664140406,152.6306212655166
6.48,0.9998731523662306,152.48266918862262
6.482285568,0.9998614034931452,152.3349566881417
6.484571648,0.999858477951458,152.18733455940614
6.486857216,0.9998645117689882,152.03973870659397
6.489142784,0.9998791737099014,151.89198977716126
6.491428352,0.9999014479156646,151.74400635429066
6.493714432,0.99992996655969,151.59569505935443
6.496,0.9999629313480204,151.44693026101487
6.498285568,0.9999982977837222,151.2976916830045
6.500571648,1.0000338762988195,151.14798040732416
6.502857216,1.0000672074307089,150.99774661575938
6.505142784,1.000096368386721,150.84711616025146
6.507428352,1.0001194004034173,150.69611733479945
6.509714432,1.000135003147656,150.54484182769747
6.512,1.0001420028358956,150.39345587399413
6.514285568,1.0001400674894547,150.24202375886938
6.516571648,1.0001292846946612,150.09069666568314
6.518857216,1.000110312385404,149.93962793090617
6.521142784,1.0000842056405232,149.78888870349164
6.523428352,1.0000530020432163,149.63860203268678
6.525714432,1.0000182519936796,149.48882303970294
6.528,0.9999824285160035,149.33952435940793
6.530285568,0.9999477296806417,149.19081371327158
6.532571648,0.9999163031188472,149.04258402672778
6.534857216,0.9998901612056558,148.89476404031382
6.537142784,0.9998709256283317,148.74734155998007
6.539428352,0.9998600296296062,148.6001266015016
6.541714432,0.999857837764536,148.45303950888078
6.544,0.9998648438878516,148.30594468736973
6.546285568,0.9998802968676854,148.15871392880595
6.548571648,0.9999033298474274,148.01120556580508
6.550857216,0.9999325498424125,147.8633342051329
6.553142784,0.9999660968172808,147.71504464121256
6.555428352,1.000001782571059,147.56626015299156
6.557714432,1.0000373576462498,147.41697290529794
6.56,1.0000706889628261,147.26722663857038
6.562285568,1.0000993939926133,147.11702230366976
6.564571648,1.0001219593120545,146.96648952305844
6.566857216,1.0001369244567555,146.81571904097146
6.569142784,1.0001431553414586,146.66476457921604
6.571428352,1.0001403443686143,146.5138418748936
6.573714432,1.0001286211127711,146.3630329088062
6.576,1.0001088416330581,146.2124851690023
6.578285568,1.00008212064945,146.06227950992732
6.580571648,1.000050051415504,145.91251662701714
6.582857216,1.0000149894940635,145.76327495675946
6.585142784,0.9999790276856519,145.6145584269375
6.587428352,0.9999442058764615,145.46638261374133
6.589714432,0.9999131264877447,145.31869951394512
6.592,0.9998874838622762,145.1714843648623
6.594285568,0.9998688152531618,145.02457769918163
6.596571648,0.9998585912974974,144.87788809156953
6.598857216,0.9998571788563692,144.7313506909688
6.601142784,0.999865082893536,144.58475512823262
6.603428352,0.9998814666644316,144.43799017549927
6.605714432,0.9999052625687742,144.29097584683953
6.608,0.9999352756121187,144.14359615993237
6.610285568,0.999969245481391,143.99577364156022
6.612571648,1.0000052668430133,143.847460667376
6.614857216,1.0000409845825622,143.69864425805372
6.617142784,1.0000740985528558,143.54934619239916
6.619428352,1.000102602867983,143.3995867663886
6.621714432,1.0001246489810438,143.24954960935148
6.624,1.0001388571594036,143.09922530586607
6.626285568,1.0001442562192988,142.94878805078093
6.628571648,1.0001406012491918,142.7983372396878
6.630857216,1.0001278530780406,142.64806783558492
6.633142784,1.0001072493223233,142.49804312097805
6.635428352,1.000079720290403,142.34836584548356
6.637714432,1.0000472912888134,142.19916292781627
6.64,1.0000117574384408,142.050466676609
6.642285568,0.9999755545293441,141.9023352084235
6.644571648,0.9999408330916549,141.75471568395616
6.646857216,0.9999098776384762,141.607597053031
6.649142784,0.9998845916254677,141.46092592684644
6.651428352,0.9998667121803867,141.31455881560626
6.653714432,0.9998571789224875,141.16843364788204
6.656,0.9998569137961272,141.02240407439643
6.658285568,0.9998654772250996,140.8763300455478
6.660571648,0.9998827987913721,140.73007414214808
6.662857216,0.999907418056235,140.58353839158997
6.665142784,0.9999379843523606,140.436628331008
6.667428352,0.9999724935883081,140.28927895385678
6.669714432,1.000008800928013,140.14143456478706
6.672,1.0000446096804476,139.99307052159992
6.674285568,1.000077588062987,139.84424823641524
6.676571648,1.0001056879903314,139.6949972388568
6.678857216,1.0001271028720573,139.54537132214818
6.681142784,1.0001406626095843,139.3955583472821
6.683428352,1.0001451170512807,139.24561246645084
6.685714432,1.00014057536489,139.09566859139966
6.688,1.000127073817204,138.9459272282384
6.690285568,1.0001055657688054,138.79642800005288
6.692571648,1.0000772957681532,138.64728987654058
6.694857216,1.000044180120916,138.49864952928883
6.697142784,1.0000083236613682,138.35052315124244
6.699428352,0.9999718424052313,138.20294268204086
6.701714432,0.9999372849533438,138.05591339638028
6.704,0.9999064971615947,137.90936433133945
6.706285568,0.9998818029145609,137.76322674248442
6.708571648,0.9998644763957028,137.61742393753931
6.710857216,0.9998559889866742,137.4718432495667
6.713142784,0.9998564204032424,137.32634473023617
6.715428352,0.9998659906099759,137.1807713119279
6.717714432,0.9998839847397056,137.03504536091182
6.72,0.9999095002065526,136.8890312255911
6.722285568,0.9999409057474484,136.742603725448
6.724571648,0.9999759176974844,136.59572237636772
6.726857216,1.0000125043191626,136.4483256753978
6.729142784,1.00004834071417,136.30043343781185
6.731428352,1.000081097010601,136.1520592517838
6.733714432,1.0001088373005744,136.00327044045883
6.736,1.0001297481066898,135.8541644130717
6.738285568,1.0001424591371897,135.70482505990034
6.740571648,1.0001460968713454,135.55537377144665
6.742857216,1.0001406118369782,135.40596002624125
6.745142784,1.0001261367217416,135.25672114251884
6.747428352,1.0001037478179406,135.10778235483966
6.749714432,1.0000748362211926,134.9592116301776
6.752,1.000041157407158,134.81111891761338
6.754285568,1.0000047899724558,134.66355740689346
6.756571648,0.999968269735215,134.51656004191116
6.758857216,0.9999337210279364,134.37007891612896
6.761142784,0.9999032655099188,134.22411567731382
6.763428352,0.999879017230886,134.07855002769304
6.765714432,0.9998624601409708,133.93332259097502
6.768,0.9998545813169175,133.78826552699758
6.770285568,0.999856014808883,133.64332217714605
6.772571648,0.9998665443300319,133.4982899988723
6.774857216,0.9998855754146396,133.35303572542793
6.777142784,0.9999118674040376,133.20749463126955
6.779428352,0.999943781665138,133.0615811541473
6.781714432,0.9999792793742076,132.91513301055383
6.784,1.000016170543182,132.7682521713389
6.786285568,1.000052067848348,132.6208213510116
6.788571648,1.0000847860731046,132.47292534014392
6.790857216,1.0001120477817207,132.3245869590006
6.793142784,1.0001322487672597,132.17597218637525
6.795428352,1.0001442006464922,132.02712644110633
6.797714432,1.000146991194329,131.87819443924357
6.8,1.0001404233562194,131.7292961590587
6.802285568,1.0001251883928761,131.58056908882983
6.804571648,1.0001019864272227,131.4321585224075
6.806857216,1.0000722349207742,131.284150055287
6.809142784,1.0000379073214405,131.13664689282476
6.811428352,1.0000012326919365,130.98966740257632
6.813714432,0.9999644429132999,130.84322647767837
6.816,0.9999300194817046,130.69734143131956
6.818285568,0.9998999704162684,130.55194174001406
6.820571648,0.999876259476936,130.40693840551444
6.822857216,0.9998603906961002,130.26228008195724
6.825142784,0.9998534351266657,130.11775899067
6.827428352,0.9998556853138557,129.97334085138291
6.829714432,0.9998671717690161,129.82881313396896
6.832,0.999887163380229,129.68411674259315
6.834285568,0.9999143391774643,129.53907000054684
6.836571648,0.9999469284311324,129.3936236687405
6.838857216,0.999982805414289,129.24766956018777
6.841142784,1.0000199771392961,129.10124701498592
6.843428352,1.0000558670690405,128.95429355696572
6.845714432,1.000088212894078,128.80685393466896
6.848,1.0001152005563783,128.65902058958451
6.850285568,1.0001347490915637,128.51086134654864
6.852571648,1.0001459041885206,128.36250869309058
6.854857216,1.0001477809763075,128.21409029371694
6.857142784,1.0001402751165986,128.06571455010865
6.859428352,1.0001240052215512,127.91753888567234
6.861714432,1.00009993925036,127.76966544192086
6.864,1.0000694955185894,127.62221505119133
6.866285568,1.0000345796928884,127.47529135582793
6.868571648,0.9999976420790518,127.32885000106175
6.870857216,0.9999606790297737,127.18300533839599
6.873142784,0.999926467705111,127.03768425807195
6.875428352,0.9998967380415872,126.89289931765167
6.877714432,0.9998736077189531,126.74844280653689
6.88,0.9998584490698298,126.6043457474429
6.882285568,0.9998522902425567,126.46039525063158
6.884571648,0.9998555681281007,126.316503003691
6.886857216,0.9998679743832448,126.17251551784207
6.889142784,0.9998888291412166,126.02829998345256
6.891428352,0.9999167302563373,125.88374570953886
6.893714432,0.9999499237878573,125.73878178350373
6.896,0.999986474341851,125.59331485919454
6.898285568,1.0000238232147363,125.44735204543913
6.900571648,1.0000596966276432,125.30087479360756
6.902857216,1.0000918751675016,125.15390292057907
6.905142784,1.000118273183246,125.00654945759207
6.907428352,1.0001372205388173,124.85889628718355
6.909714432,1.0001474882490142,124.71100201880257
6.912,1.000148526993603,124.56309628477581
6.914285568,1.0001401219114128,124.41524046100153
6.916571648,1.0001227915106239,124.26759481502872
6.918857216,1.0000977986628348,124.12029403514748
6.921142784,1.0000665730768754,123.97339208104142
6.923428352,1.0000312982523483,123.82702134918972
6.925714432,0.9999938532970513,123.6811867415091
6.928,0.9999568588434741,123.53592755382991
6.930285568,0.9999227216492296,123.39119836954352
6.932571648,0.9998932463442902,123.24694543206543
6.934857216,0.9998707987174034,123.1030831956054
