freq,mag,phase
6.0,0.9998166535847287,32.05086880079402
6.0060928,0.9997262859393837,31.90114913919696
6.0121856,0.9996516364237551,31.752538429144643
6.018278912,0.9995971135479429,31.60484191626893
6.024371712,0.9995659210727297,31.45777069282493
6.030464512,0.9995598378393056,31.310885225873324
6.036557312,0.9995793027312216,31.163935955134708
6.042650624,0.9996232451708313,31.016591661548496
6.048743424,0.9996889919749115,30.868414396798993
6.054836224,0.9997728372714033,30.719225243732296
6.060929024,0.9998699296318522,30.56870860377339
6.067022336,0.9999746031856118,30.416825062569526
6.073115136,1.0000808111761557,30.26349345965104
6.079207936,1.0001824541270075,30.10866284113543
6.085300736,1.0002735782131835,29.952524213340656
6.091393536,1.0003489107161034,29.79517823967871
6.097486848,1.0004040997577175,29.636940869884384
6.103579648,1.0004358901287451,29.478075830305443
6.109672448,1.0004425227640055,29.318939686674707
6.115765248,1.0004234539133732,29.159893617361977
6.12185856,1.0003799152839206,29.001306184355318
6.12795136,1.0003143782397659,28.843400220201406
6.13404416,1.000230514981526,28.686530569256004
6.14013696,1.000133331817024,28.530902131804297
6.14622976,1.0000283550449853,28.3766961640605
6.152323072,0.9999216041468849,28.223951500660192
6.158415872,0.9998193979303392,28.072649182147764
6.164508672,0.999727571521236,27.92265557921237
6.170601472,0.9996514727864977,27.77385794140882
6.176694784,0.9995955414533774,27.62594894891021
6.182787584,0.9995630419852998,27.47865088910403
6.188880384,0.9995558096631274,27.33162789563702
6.194973184,0.9995743415802706,27.184546012055566
6.201066496,0.9996176248865417,27.036992897221207
6.207159296,0.9996830568126066,26.8886998871959
6.213252096,0.9997668805337112,26.739313107759628
6.219344896,0.9998642607034033,26.58868135627901
6.225437696,0.9999695933740876,26.436619991562345
6.231531008,1.0000767504479082,26.283107376130868
6.237623808,1.000179571888648,26.128105859244673
6.243716608,1.0002719741193005,25.971792297268696
6.249809408,1.0003487452060444,25.81423486645417
6.25590272,1.0004053008842084,25.655787429814993
6.26199552,1.0004384145857481,25.49663884007605
6.26808832,1.0004462254505173,25.337217178557978
6.27418112,1.0004281179317138,25.177926637535816
6.280274432,1.0003852601205951,25.018979947025677
6.286367232,1.0003200404609933,24.860803601629282
6.292460032,1.0002361965343032,24.703628347649282
6.298552832,1.0001387038512188,24.54768397495813
6.304645632,1.0000329881627288,24.3931832890492
6.310738944,0.9999253812095903,24.240138502474988
6.316831744,0.9998218925913521,24.088549721586144
6.322924544,0.9997287948540085,23.938294496937164
6.329017344,0.999651299562036,23.789290854456286
6.335110656,0.9995939478028947,23.6411227954882
6.341203456,0.999560063912413,23.49366055832868
6.347296256,0.999551714226747,23.346450748405122
6.353389056,0.9995692904077934,23.199153079506058
6.359481856,0.9996118400081304,23.051456258879263
6.365575168,0.9996768909500172,22.90300141129163
6.371667968,0.9997606952060888,22.75345692158217
6.377760768,0.9998585228055148,22.602700881071293
6.383853568,0.9999644727781248,22.450496525440197
6.38994688,1.0000725894747904,22.29681453539603
6.39603968,1.0001765845972144,22.141646446368085
6.40213248,1.0002703690155492,21.985107845159817
6.40822528,1.0003485195999187,21.827316649665665
6.414318592,1.0004065570997547,21.668600271925655
6.420411392,1.000441028137396,21.50923643903096
6.426504192,1.0004499775971893,21.349559197092276
6.432596992,1.000432908689001,21.18991864775065
6.438689792,1.0003907594695693,21.030669846687033
6.444783104,1.0003258142587308,20.872170493882205
6.450875904,1.0002420595054708,20.714710516750753
6.456968704,1.0001441371885165,20.558457900498965
6.463061504,1.0000378488223127,20.403620303309804
6.469154816,0.9999291879049078,20.25029694111869
6.475247616,0.9998246236652728,20.098409569487803
6.481340416,0.9997300404392149,19.947909116780586
6.487433216,0.9996511013114323,19.798622293013498
6.493526528,0.9995923581415302,19.650266478429888
6.499619328,0.9995570862862573,19.502561428514056
6.505712128,0.9995474836076026,19.355168184948116
6.511804928,0.9995640544599191,19.207699073666525
6.517897728,0.9996059485413105,19.059854619870976
6.52399104,0.999670689128316,18.91124337131114
6.53008384,0.9997544576905163,18.761563245147855
6.53617664,0.9998525940057813,18.610624712505953
6.54226944,0.9999592783583604,18.4582890644166
6.548362752,1.0000683796237484,18.304420573375243
6.554455552,1.0001735456311358,18.149033575853437
6.560548352,1.0002687513614106,17.992295611564675
6.566641152,1.0003483525784902,17.834287359734887
6.572733952,1.0004078841781967,17.675345210721446
6.578827264,1.0004438038341075,17.515675432890358
6.584920064,1.0004539991491537,17.355682632534613
6.591012864,1.0004378376739234,17.19575837558647
6.597105664,1.0003963728816465,17.036203957471514
6.603198976,1.0003318744189755,16.877374181855153
6.609291776,1.0002480464055588,16.71957999547979
6.615384576,1.0001497794991594,16.56301572243187
6.621477376,1.0000427648869077,16.40783637562658
6.627570688,0.9999332053793164,16.254197019040813
6.633663488,0.9998273548008288,16.10201364771824
6.639756288,0.9997314435865116,15.951272478986203
6.645849088,0.9996509812156033,15.80170363504086
6.651941888,0.9995906262359431,15.653147147649717
6.6580352,0.9995540035090588,15.505200257488621
6.664128,0.9995431485869269,15.357605348928715
6.6702208,0.9995587270497176,15.209963410136808
6.6763136,0.9995999529424963,15.06197189509766
6.682406912,0.9996642692036276,14.913173698329745
6.688499712,0.9997481123015728,14.763342355124394
6.694592512,0.9998466027470009,14.612248555250677
6.700685312,0.9999539817895334,14.459728519926196
6.706778624,1.0000641312494698,14.305678944790202
6.712871424,1.000170587009734,14.150118703961866
6.718964224,1.0002671141620487,13.993129644364885
6.725057024,1.000348292339866,13.834896509647127
6.731149824,1.000409294558132,13.675675952330941
6.737243136,1.0004466102645877,13.51576921374919
6.743335936,1.00045811728892,13.355484354616431
6.749428736,1.000443047288223,13.19523429880735
6.755521536,1.0004022358987201,13.03537932420955
6.761614848,1.0003381257324209,12.876195328426656
6.767707648,1.0002543378922997,12.718040244595278
6.773800448,1.0001556705200507,12.561139702189937
6.779893248,1.000047989932947,12.405662258558255
6.785986048,0.9999373571387083,12.251711124172404
6.79207936,0.9998302168791489,12.099239997095788
6.79817216,0.9997328426493607,11.948173829911559
6.80426496,0.999650841088023,11.798370984486985
6.81035776,0.9995889968608912,11.649558368315297
6.816451072,0.9995509092180477,11.501408554717385
6.822543872,0.999538700812174,11.353608606274346
6.828636672,0.9995532994866828,11.205800927453462
6.834729472,0.999593726325075,11.057584444181822
6.840822784,0.9996577720642624,10.908657256286258
6.846915584,0.9997416135479027,10.758706670349046
6.853008384,0.9998403459555228,10.607421447501444
6.859101184,0.9999485015822016,10.454689519684747
6.865193984,1.000059660416484,10.300469936583289
6.871287296,1.0001673627993217,10.144701824682468
6.877380096,1.000265468357337,9.98749829277931
6.883472896,1.0003481941642778,9.829033095417529
6.889565696,1.000410721635551,9.669546879244127
6.895659008,1.000449507154264,9.509336117753962
6.901751808,1.0004622994795047,9.348744343133381
6.907844608,1.0004483211784276,9.188189133127766
6.913937408,1.000408242508707,9.02794313669139
6.92003072,1.000344421321437,8.868453975924178
6.92612352,1.000260718244448,8.70995410212339
6.93221632,1.0001616700663607,8.552700908785924
6.93830912,1.000053293469585,8.39691694546953
6.94440192,0.9999414961551855,8.242635200946294
6.950495232,0.9998331768842038,8.089808427921827
6.956588032,0.9997342378327196,7.938499118164534
6.962680832,0.9996507008523081,7.788424086820501
6.968773632,0.9995872910649838,7.6393433168920035
6.974866944,0.9995476875805314,7.490963097488612
6.980959744,0.9995342223774467,7.342983199838508
6.987052544,0.9995477633469667,7.195014981980053
6.993145344,0.999587354833623,7.0465994188937975
6.999238144,0.9996510307392928,6.897469596712128
7.005331456,0.9997348252416506,6.747324174253023
7.011424256,0.9998340843609591,6.59590667817008
7.017517056,0.9999429274926704,6.4430105079934625
7.023609856,1.000055119496122,6.288625216375491
7.029703168,1.0001641953856109,6.132643498233753
7.035795968,1.0002637982699074,5.975164598303883
7.041888768,1.0003480939226126,5.816485896646147
7.047981568,1.0004122922651089,5.656705882495273
7.05407488,1.0004525709849612,5.496186115021654
7.06016768,1.0004667754303374,5.335323739374122
7.06626048,1.0004537333111674,5.174390627104632
7.07235328,1.000414416692364,5.013843427015815
7.07844608,1.0003510671952802,4.853967580199657
7.084539392,1.0002672742888252,4.695112038060152
7.090632192,1.0001679575312021,4.537515323800046
7.096724992,1.000058668230453,4.381389375678088
7.102817792,0.9999459085930837,4.226744455498843
7.108911104,0.9998361503917597,4.073667000973718
7.115003904,0.9997358210355752,3.9220224966208272
7.121096704,0.9996506593669481,3.7716294871702667
7.127189504,0.9995855125705254,3.622335912300293
7.133282304,0.9995444723769743,3.4737588306671046
7.139375616,0.9995296625377108,3.325508997632439
7.145468416,0.9995420434206639,3.1773411016910584
7.151561216,0.9995809423906832,3.028744141729728
7.157654016,0.9996441601730369,2.8794687070433356
7.163747328,0.9997279986377372,2.7291277906731777
7.169840128,0.9998276305558614,2.577549400101347
7.175932928,0.9999372044321317,2.4244991606580477
7.182025728,1.0000505231125574,2.2698625500341314
7.18811904,1.000160907167016,2.1136607108599184
7.19421184,1.00026209200904,1.9560085692657514
7.20030464,1.0003479790985257,1.7970300356167044
7.20639744,1.0004137713358114,1.636988859272831
7.21249024,1.0004557655047777,1.4761718336591991
7.218583552,1.0004711283836816,1.3149432389532532
7.224676352,1.0004593590244277,1.1537223584157137
7.230769152,1.0004207848699698,0.9927901188554499
7.236861952,1.0003578573853011,0.832563496541086
7.242955264,1.000273991514329,0.673329609724975
7.249048064,1.000174219544189,0.51540695627766
7.255140864,1.0000642004785587,0.3588656473872718
7.261233664,0.9999504826202839,0.2039036400546297
7.267326976,0.999839276614498,0.050474409036023085
7.273419776,0.9997373398912862,-0.10145378273889684
7.279512576,0.9996503810798403,-0.2521180831110817
7.285605376,0.999583667721876,-0.40167251622581435
7.291698176,0.9995410507235147,-0.5505288125061004
7.297791488,0.9995248730065466,-0.6989357150159873
7.303884288,0.999536087651685,-0.8473510989081253
7.309977088,0.999574319812305,-0.9960982569430534
7.316069888,0.9996370761848233,-1.1455798873474103
7.3221632,0.9997209297820295,-1.2960618507944996
7.328256,0.9998209043326862,-1.447834598890568
7.3343488,0.9999313841693251,-1.6011105141032451
7.3404416,1.0000458174333373,-1.755948230944205
7.3465344,1.0001575246414016,-1.9123723642620867
7.352627712,1.0002602664759246,-2.0702470978232315
7.358720512,1.0003479349104936,-2.2294937804611634
7.364813312,1.0004154534264016,-2.3898349478697987
7.370906112,1.0004589162346578,-2.5509597974066853
7.376999424,1.0004758655391022,-2.712509190171406
7.383092224,1.0004649852962575,-2.8740801549071833
7.389185024,1.0004273232577845,-3.0353965005764425
7.395277824,1.0003648036651893,-3.1959740217035053
7.401371136,1.0002810196709837,-3.355592814467427
7.407463936,1.0001808632062663,-3.5138897555669355
7.413556736,1.0000701288756333,-3.670780036988083
7.419649536,0.999955149250786,-3.8260860384918973
7.425742336,0.9998425157541249,-3.9798655883389693
7.431835648,0.9997388685426627,-4.132106122970793
7.437928448,0.9996503710631831,-4.283066710640673
7.444021248,0.9995819315941846,-4.432922096377465
7.450114048,0.9995375412164835,-4.581976676769402
7.45620736,0.9995200099759618,-4.730628032261866
7.46230016,0.9995301663981107,-4.879258193720387
7.46839296,0.999567415016502,-5.028210777399229
7.47448576,0.9996297660339786,-5.177853958410818
7.480579072,0.9997136816472068,-5.328483231961675
7.486671872,0.9998141245179019,-5.480504094116826
7.492764672,0.9999253315635531,-5.633927847239255
7.498857472,1.0000409157409644,-5.788955707742994
7.504950272,1.00015413269168,-5.945606745772556
7.511043584,1.0002585007115135,-6.103784717242658
7.517136384,1.0003479143438128,-6.263289578831414
7.523229184,1.0004171542663816,-6.423907024600619
7.529321984,1.0004623017527772,-6.585347900211787
7.535415296,1.0004806047058006,-6.7472208510631235
7.541508096,1.00047114167882,-6.909187260088949
7.547600896,1.0004341171245126,-7.07085036526853
7.553693696,1.0003720577651085,-7.231812516659761
7.559786496,1.000288234596633,-7.391798949260718
7.565879808,1.0001877118794726,-7.550525425304959
7.571972608,1.00007611246414,-7.707760188237436
7.578065408,0.9999598613732036,-7.863468707924342
7.584158208,0.9998458511962746,-8.017535194161285
7.59025152,0.9997406506951605,-8.170126699897107
7.59634432,0.999650266390889,-8.321385420310355
7.60243712,0.9995800112000848,-8.47152007192474
7.60852992,0.9995340970825873,-8.62082916202852
7.614623232,0.999515020709103,-8.769712630865506
7.620716032,0.9995239080886181,-8.918548280848226
7.626808832,0.9995605048867966,-9.067669412618015
7.632901632,0.999622366256786,-9.217552345192647
7.638994432,0.9997062589516997,-9.368412025959488
7.645087744,0.9998071603666473,-9.520562439281768
7.651180544,0.9999191827675907,-9.674212515077453
7.657273344,1.0000358840937191,-9.829457529438319
7.663366144,1.0001506563823663,-9.986316254473198
7.669459456,1.0002566591444912,-10.144735207516762
7.675552256,1.0003479049202046,-10.304497683741468
7.681645056,1.0004189707997686,-10.465447147614679
7.687737856,1.0004657087652273,-10.627199710465856
7.693831168,1.0004855680706357,-10.789457808001284
7.699923968,1.000477216370558,-10.951782886723647
7.706016768,1.000441167810048,-11.11378773150092
7.712109568,1.0003795644172722,-11.275173149914036
7.718202368,1.0002957235426388,-11.435540491137138
7.72429568,1.0001946283807235,-11.594686914924452
7.73038848,1.0000822449794522,-11.752335547181593
7.73648128,0.9999648596855177,-11.9083894408573
7.74257408,0.9998493146657249,-12.062835710941307
7.748667392,0.9997423750143055,-12.215749861570877
7.754760192,0.9996502073261615,-12.367281826681763
7.760852992,0.999578154199396,-12.517720002218956
7.766945792,0.9995304818300252,-12.667279368513269
7.773038592,0.9995097676524106,-12.816429801349054
7.779131904,0.9995176677384774,-12.965449669011367
7.785224704,0.9995532131867486,-13.114816108848776
7.791317504,0.99961471982767,-13.264841200065538
7.797410304,0.9996985584907104,-13.415901264013513
7.803503616,0.9997998081261389,-13.568225649226484
7.809596416,0.9999127398162492,-13.72211997235068
7.815689216,1.0000307323765651,-13.8775584026167
7.821782016,1.0001470793999976,-14.034655056481592
7.827875328,1.000254749593991,-14.193323793228657
7.833968128,1.0003478002254187,-14.35341320464126
7.840060928,1.0004206669111013,-14.514661475223722
7.846153728,1.000469279461991,-14.67674426266674
7.852246528,1.0004906471213952,-14.839360722701093
7.85833984,1.00048351635084,-15.002068801617305
7.86443264,1.0004483415143022,-15.164480775710297
7.87052544,1.000387071540089,-15.326291828002987
7.87661824,1.0003033584796,-15.487049033725233
7.882711552,1.0002018927329206,-15.646590758991094
7.888804352,1.0000886166575178,-15.804610654867401
7.894897152,0.9999699807426045,-15.961060770346563
7.900989952,0.9998528618727899,-16.1158888815753
7.907083264,0.9997442438087947,-16.269121888480466
7.913176064,0.9996501763618817,-16.42101022144782
7.919268864,0.9995761822369085,-16.57170185915697
7.925361664,0.9995267556037132,-16.721543513449905
7.931454464,0.9995045370143353,-16.870928766503997
7.937547776,0.999510913943162,-17.020176497352825
7.943640576,0.9995457972379059,-17.16972494039781
7.949733376,0.9996068432822961,-17.31995024690369
7.955826176,0.9996905374520144,-17.47121996363506
7.961919488,0.9997923657089192,-17.623767091497534
7.968012288,0.9999062041114513,-17.777810981852003
7.974105088,1.0000254646276538,-17.93350684027355
7.980197888,1.000143268712169,-18.090858287704062
7.986290688,1.000252812236862,-18.24978751550573
7.992384,1.0003476934851059,-18.410173715806206
7.9984768,1.000422575137703,-18.57173186880327
8.0045696,1.00047292092304,-18.734165868975627
8.0106624,1.0004957682631506,-18.897129163332124
8.016755712,1.0004900936290904,-19.060233955003092
8.022848512,1.000455705420755,-19.22307681269594
8.028941312,1.000395021584753,-19.385270703785448
8.035034112,1.000311240503972,-19.546483660302634
8.041127424,1.0002093413895694,-19.70640334212986
8.047220224,1.0000952101766487,-19.864857276931907
8.053313024,0.9999752556665576,-20.021686491497743
8.059405824,0.9998566608929808,-20.17687279865943
8.065498624,0.9997461626754004,-20.330472121763044
8.071591936,0.9996501626106897,-20.482658578089666
8.077684736,0.9995743546565259,-20.633634937088345
8.083777536,0.9995229930772657,-20.78380095206191
8.089870336,0.9994991750731281,-20.93339807185429
8.095963648,0.9995044309504667,-21.08290118286446
8.102056448,0.9995382821187867,-21.232682498470467
8.108149248,0.999598804665436,-21.38309888982333
8.114242048,0.9996826656281592,-21.53455445469487
8.12033536,0.999784775516636,-21.687329580295096
8.12642816,0.9998994669046668,-21.841571210357547
8.13252096,1.0000200006979518,-21.99751040421555
8.13861376,1.0001394220356365,-22.15510085348777
8.14470656,1.0002508705414217,-22.314305739795163
8.150799872,1.0003478308550275,-22.474962556182323
8.156892672,1.000424440524022,-22.636856238444455
8.162985472,1.0004766932969382,-22.799681979938985
8.169078272,1.0005013815616683,-22.96300023137449
8.175171584,1.0004968339008617,-23.126530721610703
8.181264384,1.000463545398406,-23.289746281261323
8.187357184,1.0004031892099652,-23.452383259528027
8.193449984,1.0003194504110686,-23.61404679588171
8.199542784,1.0002171011916012,-23.77438084483373
8.205636096,1.0001019316664297,-23.93325049923045
8.211728896,0.9999807405802558,-24.090490438932164
8.217821696,0.9998604468004987,-24.246058078673684
8.223914496,0.9997481194639926,-24.40003364384366
8.230007808,0.9996501092401522,-24.552540456500928
8.236100608,0.9995722598616094,-24.703860632960783
8.242193408,0.9995190492320072,-24.85425977767976
8.248286208,0.9994936566561248,-25.00411806605533
8.25437952,0.9994974757789726,-25.153852515267005
8.26047232,0.9995303510139175,-25.30381001671599
8.26656512,0.9995903586801487,-25.454474509334442
8.27265792,0.999674145550488,-25.60614912765979
8.27875072,0.999776843199487,-25.759085617644406
8.284844032,0.9998925441680936,-25.91358208526941
8.290936832,1.000014403040527,-26.069745607864256
8.297029632,1.0001355151596056,-26.227585127777736
8.303122432,1.0002487156920488,-26.387083415138918
8.309215744,1.0003477730773844,-26.548037121997602
8.315308544,1.0004265400273726,-26.7102990684411
8.321401344,1.0004805863292712,-26.87343268920662
8.327494144,1.0005068874172842,-27.0371870952806
8.333587456,1.0005037788531739,-27.20109741508573
8.339680256,1.0004713627163058,-27.36478701497519
8.345773056,1.0004117441152138,-27.527834389220107
8.351865856,1.0003280016197302,-27.68990996050685
8.357958656,1.0002251089268162,-27.850719080435766
8.364051968,1.0001091100515245,-28.010012374874616
8.370144768,0.9999865340519134,-28.16764394539411
8.376237568,0.9998645690446722,-28.32362280833886
8.382330368,0.9997503688333869,-28.477956534717887
8.38842368,0.9996502025158662,-28.630804506290158
8.39451648,0.9995703206546311,-28.782444807431354
8.40060928,0.9995151574375141,-28.93314867611299
8.40670208,0.9994880674316211,-29.08325803284354
8.41279488,0.9994903509233463,-29.233231746399632
8.418888192,0.9995222935008907,-29.383443820764963
8.424980992,0.9995817931365168,-29.534310504035677
8.431073792,0.9996656667801203,-29.686153300140855
8.437166592,0.9997688637134161,-29.839315525714802
8.443259904,0.9998852535857831,-29.994043219276275
8.449352704,1.0000085354595736,-30.15042154006878
