freq,mag,phase
6.0,0.9999976985473569,-150.22973525423947
6.008,0.9999965526540118,-150.6200538924518
6.016,0.9999954373032216,-151.01016418545754
6.024,0.9999943520090929,-151.40006850583524
6.032,0.9999932962907128,-151.78976923288914
6.04,0.9999922696721253,-152.1792687525307
6.048,0.9999912716823092,-152.56856945716072
6.056,0.9999903018551509,-152.95767374555325
6.064,0.9999893597294237,-153.34658402274047
6.072,0.9999884448487601,-153.73530269989877
6.08,0.9999875567616298,-154.1238321942362
6.088,0.9999866950213122,-154.51217492888097
6.096,0.9999858591858728,-154.90033333277117
6.104,0.9999850488181365,-155.28830984054565
6.112,0.9999842634856614,-155.6761068924363
6.12,0.9999835027607171,-156.0637269341609
6.128,0.9999827662202503,-156.45117241681797
6.136,0.9999820534458664,-156.83844579678183
6.144,0.9999813640237981,-157.2255495355994
6.152,0.9999806975448818,-157.612486099888
6.16,0.9999800536045284,-157.9992579612341
6.168,0.999979431802696,-158.38586759609316
6.176,0.9999788317438638,-158.7723174856907
6.184,0.9999782530370057,-159.1586101159243
6.192,0.999977695295559,-159.5447479772667
6.2,0.999977158137401,-159.93073356466974
6.208,0.9999766411848199,-160.31656937746982
6.216,0.9999761440644843,-160.70225791929388
6.224,0.9999756664074185,-161.08780169796637
6.232,0.9999752078489712,-161.47320322541768
6.24,0.9999747680287943,-161.858465017593
6.248,0.9999743465908035,-162.24358959436267
6.256,0.9999739431831572,-162.62857947943283
6.264,0.9999735574582311,-163.01343720025753
6.272,0.9999731890725777,-163.39816528795177
6.28,0.9999728376869134,-163.78276627720476
6.288,0.9999725029660745,-164.1672427061953
6.296,0.9999721845790012,-164.55159711650663
6.304,0.9999718821986996,-164.9358320530435
6.312,0.9999715955022176,-165.31995006394862
6.32,0.9999713241706187,-165.70395370052162
6.328,0.9999710678889424,-166.08784551713754
6.336,0.9999708263461891,-166.4716280711666
6.344,0.9999705992352839,-166.85530392289485
6.352,0.9999703862530438,-167.2388756354455
6.36,0.9999701871001578,-167.6223457747011
6.368,0.9999700014811522,-168.00571690922624
6.376,0.9999698291043642,-168.3889916101914
6.384,0.999969669681912,-168.7721724512972
6.392,0.9999695229296639,-169.15526200869962
6.4,0.9999693885672137,-169.53826286093548
6.408,0.9999692663178487,-169.9211775888495
6.416,0.999969155908523,-170.30400877552086
6.424,0.999969057069826,-170.68675900619147
6.432,0.9999689695359573,-171.06943086819425
6.44,0.9999688930446943,-171.45202695088238
6.448,0.9999688273373643,-171.83454984555917
6.456,0.9999687721588219,-172.217002145408
6.464,0.9999687272574092,-172.5993864454239
6.472,0.9999686923849375,-172.98170534234467
6.48,0.999968667296654,-173.36396143458316
6.4879999999999995,0.9999686517512131,-173.74615732216006
6.496,0.9999686455106516,-174.128295606637
6.504,0.9999686483403566,-174.5103788910503
6.5120000000000005,0.9999686600090371,-174.89240977984556
6.52,0.9999686802887024,-175.27439087881183
6.5280000000000005,0.999968708954624,-175.65632479501775
6.536,0.9999687457853188,-176.03821413674632
6.5440000000000005,0.9999687905625086,-176.4200615134323
6.552,0.9999688430711062,-176.80186953559743
6.5600000000000005,0.9999689030991743,-177.18364081478904
6.568,0.9999689704379096,-177.56537796351634
6.5760000000000005,0.9999690448816045,-177.94708359518927
6.584,0.9999691262276307,-178.328760324056
6.592,0.9999692142764024,-178.71041076514237
6.6,0.9999693088313542,-179.09203753419058
6.608,0.9999694096989126,-179.47364324759863
6.616,0.9999695166884689,-179.85523052236016
6.624,0.9999696296123537,179.76319802399559
6.632,0.9999697482858072,179.38163977346306
6.64,0.9999698725269546,179.0000921076201
6.648,0.9999700021567793,178.61855240768668
6.656,0.9999701369990972,178.23701805458379
6.664,0.9999702768805265,177.85548642899178
6.672,0.9999704216304659,177.47395491140887
6.68,0.9999705710810685,177.09242088220884
6.688,0.9999707250672109,176.71088172169914
6.696,0.9999708834264726,176.3293348101783
6.704,0.9999710459991076,175.94777752799337
6.712,0.9999712126280186,175.56620725559716
6.72,0.9999713831587328,175.18462137360538
6.728,0.9999715574393749,174.80301726285347
6.736,0.9999717353206442,174.42139230445352
6.744,0.9999719166557858,174.03974387985076
6.752,0.9999721013005698,173.6580693708803
6.76,0.9999722891132622,173.27636615982337
6.768,0.999972479954604,172.89463162946407
6.776,0.9999726736877839,172.51286316314528
6.784,0.9999728701784135,172.13105814482523
6.792,0.9999730692945064,171.7492139591335
6.8,0.9999732709064494,171.3673279914275
6.808,0.9999734748869812,170.98539762784827
6.816,0.9999736811111682,170.60342025537702
6.824,0.9999738894563791,170.22139326189108
6.832,0.9999740998022634,169.83931403622032
6.84,0.9999743120307252,169.45717996820315
6.848,0.9999745260259025,169.0749884487431
6.856,0.9999747416741418,168.69273686986506
6.864,0.9999749588639754,168.3104226247717
6.872,0.9999751774860989,167.92804310790015
6.88,0.9999753974333481,167.54559571497848
6.888,0.9999756186006756,167.16307784308265
6.896,0.999975840885129,166.78048689069325
6.904,0.999976064185828,166.3978202577527
6.912,0.999976288403941,166.01507534572227
6.92,0.9999765134426658,165.6322495576396
6.928,0.9999767392072036,165.24934029817618
6.936,0.9999769656047399,164.86634497369516
6.944,0.9999771925444219,164.48326099230923
6.952,0.9999774199373366,164.1000857639389
6.96,0.9999776476964886,163.7168167003708
6.968,0.9999778757367802,163.33345121531642
6.976,0.9999781039749893,162.94998672447102
6.984,0.9999783323297476,162.56642064557278
6.992,0.9999785607215206,162.1827503984624
7.0,0.9999787890725862,161.7989734051427
7.008,0.9999790173070147,161.4150870898388
7.016,0.9999792453506471,161.0310888790587
7.024,0.9999794731310745,160.64697620165364
7.032,0.9999797005776198,160.26274648887957
7.04,0.9999799276213147,159.8783971744584
7.048,0.9999801541948825,159.49392569463984
7.056,0.9999803802327151,159.1093294882638
7.064,0.9999806056708556,158.72460599682267
7.072,0.9999808304469775,158.33975266452475
7.08,0.9999810545003665,157.9547669383573
7.088,0.9999812777718983,157.56964626815073
7.096,0.9999815002040223,157.1843881066427
7.104,0.9999817217407408,156.79898990954305
7.112,0.999981942327591,156.41344913559905
7.12,0.9999821619116245,156.02776324666104
7.128,0.9999823804413905,155.64192970774877
7.136,0.9999825978669152,155.25594598711805
7.144,0.9999828141396863,154.86980955632808
7.152,0.9999830292126303,154.48351789030926
7.16,0.9999832430400983,154.0970684674314
7.168,0.9999834555778458,153.7104587695727
7.176,0.9999836667830148,153.3236862821893
7.184,0.9999838766141169,152.936748494385
7.192,0.9999840850310142,152.54964289898226
7.2,0.999984291994903,152.16236699259306
7.208,0.9999844974682959,151.7749182756911
7.216,0.9999847014150031,151.38729425268383
7.224,0.9999849038001182,150.99949243198589
7.232,0.9999851045899979,150.6115103260927
7.24,0.9999853037522455,150.22334545165484
7.248,0.9999855012556974,149.83499532955304
7.256,0.9999856970704015,149.4464574849741
7.264,0.9999858911676036,149.05772944748713
7.272,0.99998608351973,148.66880875112074
7.28,0.9999862741003717,148.27969293444087
7.288,0.9999864628842666,147.8903795406294
7.296,0.9999866498472849,147.50086611756325
7.304,0.9999868349664127,147.11115021789468
7.312,0.9999870182197357,146.72122939913177
7.32,0.9999871995864228,146.3311012237202
7.328,0.9999873790467118,145.94076325912553
7.336,0.9999875565818924,145.55021307791608
7.344,0.9999877321742927,145.15944825784712
7.352,0.999987905807261,144.76846638194533
7.36,0.9999880774651533,144.3772650385945
7.368,0.9999882471333155,143.98584182162165
7.376,0.9999884147980709,143.59419433038437
7.384,0.9999885804467028,143.20232016985872
7.392,0.9999887440674426,142.81021695072815
7.4,0.9999889056494519,142.41788228947317
7.4079999999999995,0.9999890651828102,142.02531380846193
7.416,0.9999892226584988,141.63250913604153
7.4239999999999995,0.9999893780683885,141.23946590663087
7.432,0.9999895314052225,140.84618176081315
7.4399999999999995,0.9999896826626039,140.4526543454308
7.448,0.9999898318349825,140.05888131367982
7.4559999999999995,0.9999899789176379,139.66486032520638
7.464,0.9999901239066681,139.27058904620304
7.4719999999999995,0.9999902667989754,138.87606514950755
7.48,0.9999904075922503,138.48128631470058
7.4879999999999995,0.999990546284963,138.08625022820638
7.496,0.9999906828763432,137.6909545833927
7.504,0.9999908173663724,137.2953970806732
7.5120000000000005,0.9999909497557674,136.89957542760956
7.52,0.9999910800459685,136.50348733901535
7.5280000000000005,0.9999912082391256,136.1071305370605
7.536,0.9999913343380853,135.7105027513773
7.5440000000000005,0.9999914583463783,135.31360171916634
7.552,0.9999915802682062,134.91642518530494
7.5600000000000005,0.9999917001084296,134.518970902455
7.568,0.9999918178725542,134.12123663117353
7.5760000000000005,0.9999919335667182,133.7232201400224
7.584,0.9999920471976814,133.3249192056809
7.5920000000000005,0.9999921587728109,132.9263316130579
7.6,0.9999922683000708,132.52745515540616
7.6080000000000005,0.9999923757880081,132.1282876344367
7.616,0.9999924812457412,131.72882686043522
7.6240000000000006,0.9999925846829486,131.32907065237845
7.632,0.9999926861098558,130.92901683805292
7.640000000000001,0.9999927855372244,130.52866325417332
7.648,0.9999928829763393,130.12800774650339
7.656000000000001,0.9999929784389981,129.7270481699765
7.664,0.9999930719374993,129.32578238881857
7.672,0.9999931634846293,128.92420827667092
7.68,0.999993253093653,128.52232371671516
7.688,0.999993340778301,128.12012660179872
7.696,0.9999934265527591,127.71761483456129
7.704,0.9999935104316571,127.31478632756281
7.712,0.9999935924300564,126.91163900341229
7.72,0.9999936725634406,126.50817079489762
7.728,0.9999937508477038,126.10437964511677
7.736,0.9999938272991397,125.7002635076099
7.744,0.9999939019344302,125.2958203464925
7.752,0.9999939747706367,124.8910481365899
7.76,0.9999940458251866,124.48594486357258
7.768,0.9999941151158648,124.08050852409283
7.776,0.9999941826608026,123.67473712592222
7.784,0.9999942484784671,123.2686286880906
7.792,0.9999943125876506,122.86218124102561
7.8,0.9999943750074611,122.45539282669397
7.808,0.9999944357573115,122.04826149874322
7.816,0.9999944948569089,121.64078532264503
7.824,0.9999945523262475,121.2329623758393
7.832,0.9999946081855934,120.8247907478796
7.84,0.9999946624554794,120.41626854057932
7.848,0.9999947151566931,120.00739386815944
7.856,0.9999947663102674,119.59816485739681
7.864,0.9999948159374704,119.188579647774
7.872,0.9999948640597971,118.77863639162977
7.88,0.9999949106989579,118.36833325431104
7.888,0.9999949558768707,117.95766841432547
7.896,0.9999949996156509,117.54664006349556
7.904,0.9999950419376021,117.13524640711341
7.912,0.9999950828652068,116.7234856640968
7.92,0.9999951224211165,116.31135606714597
7.928,0.9999951606281445,115.89885586290188
7.936,0.9999951975092549,115.48598331210515
7.944,0.9999952330875541,115.07273668975603
7.952,0.9999952673862823,114.65911428527558
7.96,0.9999953004288042,114.24511440266764
7.968,0.9999953322386009,113.83073536068187
7.976,0.9999953628392599,113.41597549297778
7.984,0.9999953922544679,113.00083314828966
7.992,0.999995420508001,112.58530669059252
8.0,0.9999954476237173,112.16939449926898
8.008,0.9999954736255469,111.75309496927706
8.016,0.9999954985374853,111.33640651131869
8.024000000000001,0.9999955223835837,110.91932755200976
8.032,0.9999955451879416,110.50185653405038
8.04,0.9999955669746984,110.08399191639609
8.048,0.9999955877680244,109.66573217443027
8.056000000000001,0.9999956075921144,109.24707580013752
8.064,0.9999956264711786,108.8280213022773
8.072,0.9999956444294343,108.4085672065586
8.08,0.9999956614910996,107.9887120558156
8.088000000000001,0.9999956776803844,107.5684544101843
8.096,0.9999956930214828,107.14779284727939
8.104,0.9999957075385651,106.726725962372
8.112,0.9999957212557724,106.30525236856835
8.120000000000001,0.9999957341972056,105.88337069698946
8.128,0.999995746386921,105.46107959695075
8.136,0.9999957578489215,105.03837773614278
8.144,0.999995768607149,104.61526380081256
8.152000000000001,0.9999957786854787,104.19173649594588
8.16,0.9999957881077102,103.76779454544962
8.168,0.999995796897561,103.34343669233478
8.176,0.9999958050786605,102.91866169890038
8.184000000000001,0.9999958126745411,102.49346834691802
8.192,0.9999958197086333,102.06785543781636
8.2,0.9999958262042573,101.64182179286638
8.208,0.9999958321846173,101.21536625336729
8.216000000000001,0.999995837672794,100.7884876808329
8.224,0.9999958426917391,100.36118495717814
8.232,0.9999958472642674,99.93345698490583
8.24,0.9999958514130515,99.50530268729433
8.248000000000001,0.9999958551606145,99.07672100858542
8.256,0.9999958585293247,98.64771091417218
8.264,0.9999958615413883,98.21827139078704
8.272,0.9999958642188437,97.78840144669066
8.280000000000001,0.9999958665835555,97.3581001118608
8.288,0.9999958686572087,96.9273664381811
8.296,0.9999958704613018,96.4961994996301
8.304,0.9999958720171417,96.06459839247059
8.312,0.999995873345838,95.63256223543925
8.32,0.9999958744682969,95.20009016993545
8.328,0.9999958754052158,94.76718136021131
8.336,0.9999958761770773,94.3338349935604
8.344,0.9999958768041439,93.90005028050788
8.352,0.9999958773064529,93.46582645499895
8.36,0.9999958777038105,93.0311627745888
8.368,0.9999958780157879,92.5960585206308
8.376,0.9999958782617133,92.16051299846619
8.384,0.9999958784606698,91.72452553761161
8.392,0.9999958786314894,91.28809549194845
8.4,0.999995878792747,90.85122223990986
8.408,0.9999958789627568,90.41390518466919
8.416,0.9999958791595659,89.97614375432653
8.424,0.9999958794009534,89.53793740209612
8.432,0.9999958797044202,89.099285606492
8.44,0.9999958800871891,88.66018787151454
8.448,0.9999958805661984,88.22064372683492
8.456,0.9999958811580976,87.7806527279805
8.464,0.9999958818792432,87.34021445651804
8.472,0.9999958827456952,86.89932852023767
8.48,0.9999958837732119,86.45799455333477
8.488,0.9999958849772469,86.01621221659241
8.496,0.9999958863729443,85.57398119756144
8.504,0.999995887975135,85.1313012107414
8.512,0.9999958897983342,84.68817199775876
8.52,0.9999958918567362,84.24459332754581
8.528,0.999995894164211,83.80056499651701
8.536,0.9999958967343021,83.35608682874575
8.544,0.9999958995802213,82.91115867613841
8.552,0.9999959027148474,82.46578041860897
8.56,0.9999959061507208,82.01995196425058
8.568,0.9999959099000423,81.5736732495076
8.576,0.9999959139746696,81.12694423934465
8.584,0.9999959183861132,80.67976492741589
8.592,0.9999959231455356,80.23213533623134
8.6,0.9999959282637468,79.7840555173231
8.608,0.9999959337512024,79.33552555140865
8.616,0.9999959396180018,78.88654554855407
8.624,0.9999959458738844,78.43711564833393
8.632,0.999995952528228,77.98723601999124
8.64,0.9999959595900462,77.53690686259387
8.648,0.9999959670679877,77.08612840519082
8.656,0.9999959749703319,76.63490090696506
8.664,0.9999959833049898,76.18322465738599
8.672,0.9999959920794989,75.7310999763583
8.68,0.9999960013010244,75.2785272143704
8.688,0.9999960109763564,74.8255067526392
8.696,0.9999960211119079,74.37203900325423
8.704,0.9999960317137143,73.91812440931805
8.712,0.9999960427874318,73.46376344508592
8.72,0.9999960543383364,73.00895661610146
8.728,0.999996066371322,72.55370445933178
8.736,0.9999960788909007,72.09800754329824
8.744,0.9999960919012012,71.64186646820653
8.752,0.9999961054059675,71.1852818660724
8.76,0.9999961194085596,70.72825440084662
8.768,0.9999961339119523,70.27078476853534
8.776,0.9999961489187346,69.81287369731956
8.784,0.9999961644311097,69.35452194767001
8.792,0.9999961804508939,68.89573031246087
8.8,0.9999961969795186,68.43649961707904
8.808,0.999996214018028,67.97683071953173
8.815999999999999,0.9999962315670805,67.51672451054989
8.824,0.9999962496269493,67.05618191368919
8.832,0.9999962681975216,66.59520388542806
8.84,0.9999962872782997,66.13379141526177
8.847999999999999,0.9999963068684015,65.67194552579352
8.856,0.9999963269665619,65.2096672728224
8.864,0.9999963475711321,64.74695774542808
8.872,0.9999963686800821,64.28381806605151
8.879999999999999,0.9999963902910007,63.820249390572236
8.888,0.9999964124010976,63.35625290838244
8.896,0.9999964350072035,62.89182984245736
8.904,0.9999964581057726,62.42698144942173
8.911999999999999,0.9999964816928831,61.961709019612286
8.92,0.9999965057642402,61.49601387713704
8.928,0.9999965303151765,61.02989737993053
8.936,0.9999965553406546,60.56336091980496
8.943999999999999,0.9999965808352688,60.096405922497084
8.952,0.9999966067932471,59.629033847711774
8.96,0.9999966332084538,59.161246189161254
8.968,0.9999966600743917,58.69304447459985
8.975999999999999,0.9999966873842042,58.22443026585473
8.984,0.9999967151306779,57.755405158852504
8.992,0.999996743306246,57.28597078364174
9.0,0.9999967719029904,56.81612880441065
9.008,0.9999968009126442,56.345880919500374
9.016,0.999996830326596,55.875228861414186
9.024000000000001,0.9999968601358916,55.40417439682231
9.032,0.9999968903312387,54.93271932656165
9.04,0.9999969209030085,54.46086548563093
9.048,0.9999969518412407,53.988614743181714
9.056000000000001,0.999996983135646,53.51596900250453
9.064,0.9999970147756113,53.04293020101009
9.072,0.9999970467502013,52.56950031020547
9.08,0.9999970790481638,52.09568133566605
9.088000000000001,0.9999971116579341,51.621475317002506
9.096,0.999997144567638,51.14688432782248
9.104,0.9999971777650963,50.671910475687284
9.112,0.9999972112378296,50.19655590206402
9.120000000000001,0.9999972449730627,49.72082278227274
9.128,0.9999972789577288,49.24471332542797
9.136,0.9999973131784736,48.76822977437523
9.144,0.9999973476216618,48.2913744056228
9.152000000000001,0.9999973822733796,47.8141495292683
9.16,0.9999974171194422,47.336557488919574
9.168,0.9999974521453973,46.85860066161049
9.176,0.9999974873365289,46.38028145771166
9.184000000000001,0.9999975226778667,45.90160232083606
9.192,0.999997558154187,45.42256572773875
9.2,0.9999975937500207,44.943174188211266
9.208,0.9999976294496582,44.46343024497113
9.216000000000001,0.9999976652371548,43.98333647354581
9.224,0.9999977010963369,43.50289548215094
9.232,0.9999977370108065,43.02210991156297
9.24,0.9999977729639496,42.54098243498692
9.248000000000001,0.9999978089389394,42.05951575791848
9.256,0.999997844918744,41.57771261800029
9.264,0.9999978808861325,41.09557578487263
9.272,0.9999979168236801,40.61310806001899
9.280000000000001,0.9999979527137753,40.130312276606205
9.288,0.9999979885386268,39.64719129931845
9.296,0.9999980242802686,39.163748024185736
9.304,0.9999980599205676,38.679985378407316
9.312000000000001,0.9999980954412286,38.1959063201694
9.32,0.9999981308238044,37.71151383845688
9.328,0.9999981660496979,37.22681095285964
9.336,0.9999982011001728,36.74180071337341
9.344,0.9999982359563584,36.256486200195376
9.352,0.9999982705992567,35.77087052351313
9.36,0.9999983050097505,35.28495682328948
9.368,0.9999983391686089,34.79874826904014
9.376,0.9999983730564954,34.31224805960756
9.384,0.9999984066539748,33.82545942292743
9.392,0.9999984399415208,33.33838561579136
9.4,0.9999984728995219,32.851029923602475
9.408,0.99999850550829,32.363395660126976
9.416,0.9999985377480675,31.87548616723874
9.424,0.9999985695990351,31.387304814659988
9.432,0.9999986010413167,30.898854999695004
9.44,0.9999986320549907,30.410140146959797
9.448,0.9999986626200942,29.921163708105187
9.456,0.9999986927166323,29.43192916153565
9.464,0.999998722324585,28.94244001212157
9.472,0.9999987514239156,28.45269979090767
9.48,0.9999987799945764,27.962712054814546
9.488,0.9999988080165177,27.472480386336706
9.496,0.9999988354696963,26.98200839323353
9.504,0.9999988623340802,26.49129970821707
9.512,0.9999988885896596,26.00035798863271
9.52,0.9999989142164522,25.509186916136755
9.528,0.9999989391945118,25.017790196367045
9.536,0.9999989635039356,24.52617155861049
9.544,0.9999989871248725,24.034334755463785
9.552,0.9999990100375299,23.542283562491182
9.56,0.9999990322221822,23.050021777875436
9.568,0.9999990536591774,22.55755322206594
