freq,mag,phase
6.0,0.9998254752633725,-116.35063094795612
6.002792448,0.9998648130660458,-116.50984486985013
6.005584896,0.9999122914175512,-116.66969414199173
6.008376832,0.9999650921324187,-116.83026229499899
6.01116928,1.0000202093135702,-116.99159655988721
6.013961728,1.0000738352564287,-117.1537527024094
6.016754176,1.0001229694950104,-117.31665398962654
6.019546112,1.0001642055434392,-117.48025661783704
6.02233856,1.0001951379898024,-117.6443866522409
6.025131008,1.0002138700000183,-117.80882838815135
6.027923456,1.000219028364636,-117.97350869006341
6.030715392,1.0002103389445474,-118.13814892336399
6.03350784,1.0001883248564838,-118.30259748751627
6.036300288,1.000154499520954,-118.46662407700362
6.039092736,1.0001107728792755,-118.63012936084765
6.041884672,1.0000599908344865,-118.79292803015042
6.04467712,1.000005147869405,-118.95501429184313
6.047469568,0.9999499248351431,-119.11630368437088
6.050262016,0.9998975798190015,-119.2768633299828
6.053053952,0.9998515106672897,-119.43667375965218
6.0558464,0.9998146456980234,-119.59588758772782
6.058638848,0.9997890858604358,-119.7546659680637
6.061431296,0.9997767345411951,-119.91316644496817
6.064223232,0.9997782257190269,-120.07162798630954
6.06701568,0.9997934492633147,-120.23019102478298
6.069808128,0.9998215862910288,-120.389086131288
6.072600576,0.9998607826940882,-120.54847976066337
6.075392512,0.9999086487469612,-120.70849132987178
6.07818496,0.9999622766247821,-120.86925634290345
6.080977408,1.0000181402612403,-121.03083077808988
6.083769856,1.0000728139127897,-121.19322192745945
6.086561792,1.000122986168813,-121.35635145756982
6.08935424,1.0001652831086736,-121.52016496141597
6.092146688,1.0001973409092435,-121.68451002669647
6.094939136,1.0002168648704954,-121.8492644906088
6.097731072,1.0002226660705422,-122.01419882417812
6.10052352,1.0002145490205903,-122.1791597938328
6.103315968,1.0001927349841904,-122.34386892655232
6.106108416,1.0001588305729503,-122.50822167216711
6.108900352,1.000114724012944,-122.67198765136548
6.1116928,1.0000634013533942,-122.83511232275218
6.114485248,1.0000077934157758,-122.9974349000866
6.117277696,0.9999516482884605,-123.15896072320217
6.120069632,0.999898363961437,-123.3197304252574
6.12286208,0.9998511150659208,-123.47978711935642
6.125654528,0.9998131504426278,-123.63922682862118
6.128446976,0.9997866648389674,-123.79818057857877
6.131238912,0.9997734904700891,-123.95687949131275
6.13403136,0.9997744509485439,-124.11545829566023
6.136823808,0.9997893012270049,-124.27421384653192
6.139616256,0.9998172970382173,-124.43324552170502
6.142408192,0.9998566734697485,-124.59277725375063
6.14520064,0.9999049883984409,-124.75295049135428
6.147993088,0.9999592232733947,-124.91388241968399
6.150785536,1.0000160003912197,-125.07560740184697
6.153577472,1.0000717692395416,-125.23816511829362
6.15636992,1.0001229711066388,-125.40150191885425
6.159162368,1.00016639690916,-125.56550143968883
6.161954816,1.0001993731875418,-125.73012322950824
6.164746752,1.000219788715361,-125.89509428723927
6.1675392,1.0002264425794145,-126.06028865659242
6.170331648,1.0002187145190566,-126.22546688026588
6.173124096,1.0001972512351405,-126.39044040702038
6.175916032,1.000163193251321,-126.55506137623328
6.17870848,1.0001188581131497,-126.7191082325224
6.181500928,1.0000669719340487,-126.88244932699072
6.184293376,1.0000106079058821,-127.04502484319566
6.187085312,0.9999534594944296,-127.20677541392224
6.18987776,0.9998989288547623,-127.36775890697999
6.192670208,0.9998507615091006,-127.52796039346826
6.195462656,0.9998116111220574,-127.6875834153367
6.198254592,0.9997842037026787,-127.84673757010398
6.20104704,0.9997701788812332,-128.0055326773029
6.203839488,0.9997703883805901,-128.1642617137471
6.206631936,0.9997849227126656,-128.32311920627046
6.209423872,0.9998127859973374,-128.48226792793034
6.21221632,0.9998523813682345,-128.64191338117234
6.215008768,0.9999011087812253,-128.80223124626494
6.217801216,0.9999560116379426,-128.9632895970606
6.220593152,1.0000136617571185,-129.12514582272877
6.2233856,1.00007036637142,-129.2878239748759
6.226178048,1.0001227091206026,-129.45131565801142
6.228970496,1.0001672708226454,-129.6155129031922
6.231762432,1.0002013741675115,-129.7803092218069
6.23455488,1.0002227505773564,-129.94548581765326
6.237347328,1.0002300758631284,-130.1108715149459
6.240139776,1.0002228939848383,-130.2763148728964
6.242931712,1.0002016949396622,-130.44150938131165
6.24572416,1.000167688781184,-130.60632112900987
6.248516608,1.0001230916252346,-130.77060036227778
6.251309056,1.0000705453587142,-130.93416860460968
6.254100992,1.0000135065572102,-131.09691181168722
6.25689344,0.9999553739819081,-131.25889255904048
6.259685888,0.9998998904154309,-131.42002234298144
6.262478336,0.999850471326508,-131.58042689200155
6.265270272,0.9998102768830345,-131.74012964414524
6.26806272,0.9997818099581304,-131.89940636908125
6.270855168,0.9997668875364203,-132.05832109104315
6.273647616,0.9997664573135789,-132.2171808952682
6.276439552,0.9997805465169833,-132.3760938316041
6.279232,0.9998082606653375,-132.5353565791975
6.282024448,0.9998480029050962,-132.69508812445036
6.284816896,0.9998971237213938,-132.85544237896926
6.287608832,0.9999527284579794,-133.01661302305328
6.29040128,1.0000111686545703,-133.17855250612683
6.293193728,1.0000689742612576,-133.34134642923604
6.295986176,1.0001224453467583,-133.50497843564486
6.298778112,1.0001681380012595,-133.66931665612842
6.30157056,1.0002032925772153,-133.83424931370828
6.304363008,1.0002256488165,-133.9996139399233
6.307155456,1.0002337722118286,-134.16518758184924
6.309947392,1.0002272357785302,-134.33075141135274
6.31273984,1.0002062688888282,-134.49618624206914
6.315532288,1.000172358409595,-134.66119931267994
6.318324736,1.0001273876756616,-134.8256393512184
6.321117184,1.0000743891813442,-134.9894020707392
6.32390912,1.0000164563911405,-135.15233280603954
6.326701568,0.9999573864263682,-135.31446050407231
6.329494016,0.9999008472047698,-135.47575128834436
6.332286464,0.9998503042451258,-135.6362438768666
6.3350784,0.9998088830152855,-135.79610305340466
6.337870848,0.9997794249315912,-135.95541703820732
6.340663296,0.9997635541772077,-136.11448381403036
6.343455744,0.9997623801885535,-136.2733184025481
6.34624768,0.9997760995113318,-136.43234718421425
6.349040128,0.9998035910297339,-136.59162891480614
6.351832576,0.9998434146210781,-136.75139277043988
6.354625024,0.9998930522064277,-136.91182260838087
6.35741696,0.9999493099593704,-137.07297724831275
6.360209408,1.0000086172319904,-137.23502717364076
6.363001856,1.0000675213896915,-137.39791294113368
6.365794304,1.0001220397366681,-137.5616149957383
6.36858624,1.0001689481056844,-137.7260684462118
6.371378688,1.0002052486306932,-137.89109871284674
6.374171136,1.0002285913304434,-138.056586814666
6.376963584,1.0002375615225503,-138.22231800387826
6.37975552,1.0002315569708655,-138.3880901374103
6.382547968,1.00021092539895,-138.55364232787718
6.385340416,1.0001770405093469,-138.71880861175782
6.388132864,1.0001318869042821,-138.88343165250575
6.3909248,1.0000783003629399,-139.04731525687825
6.393717248,1.0000196115504834,-139.21041398081837
6.396509696,0.9999595883278017,-139.37266606750367
6.399302144,0.9999018851975646,-139.53405616369935
6.40209408,0.9998501172145976,-139.69465877835702
6.404886528,0.9998076357360814,-139.85458623463316
6.407678976,0.9997770117808426,-140.01397700897107
6.410471424,0.9997602407164545,-140.1730147440863
6.41326336,0.99975834137325,-140.33193576476273
6.416055808,0.9997715673223603,-140.49094624630806
6.418848256,0.9997989756360067,-140.6502470594454
6.421640704,0.9998388485996346,-140.81001039697242
6.42443264,0.9998888271824979,-140.97045725930144
6.427225088,0.9999456946620752,-141.13164562652085
6.430017536,1.0000059660401086,-141.29373205903687
6.432809984,1.0000658264872608,-141.45664926628578
6.43560192,1.0001215555795782,-141.62038526500044
6.438394368,1.0001696354089742,-141.7849267421239
6.441186816,1.0002070643706726,-141.9500475508619
6.443979264,1.0002314642034331,-142.1156356435741
6.4467712,1.0002413177131952,-142.28148166854115
6.449563648,1.0002359405147712,-142.4473513073838
6.452356096,1.0002156920348808,-142.6130413288652
6.455148544,1.0001817496668413,-142.7783342032641
6.45794048,1.0001363888302137,-142.94304387199523
6.460732928,1.000082311156391,-143.1071008527126
6.463525376,1.0000228784389575,-143.27031350768533
6.466317824,0.9999617868041402,-143.4326483053247
6.46910976,0.9999029911251066,-143.5940889370286
6.471902208,0.999850075453425,-143.75474926243518
6.474694656,0.9998063528446112,-143.9147581504133
6.477487104,0.9997746465025209,-144.0741492449888
6.48027904,0.9997569035994672,-144.23320000443422
6.483071488,0.9997542475166582,-144.39210440804464
6.485863936,0.9997669402071685,-144.55109868787787
6.488656384,0.9997941081609087,-144.71036676410506
6.49144832,0.9998341127029793,-144.87011087416295
6.494240768,0.9998844470598741,-145.0305311900358
6.497033216,0.9999420227479958,-145.19171315134193
6.499825664,1.0000031886039094,-145.35375023985665
6.5026176,1.0000640885901584,-145.5167087510317
6.505410048,1.0001210326278738,-145.6804691312274
6.508202496,1.0001703551946868,-145.84504409856143
6.510994944,1.000208926528942,-146.0102264682068
6.51378688,1.0002343159583087,-146.1758889872718
6.516579328,1.0002450905514577,-146.34178106779837
6.519371776,1.0002403678043628,-146.50776191880797
6.522164224,1.00022043942924,-146.67351194060083
6.52495616,1.0001867091475796,-146.8389389275802
6.527748608,1.0001410546431582,-147.00378076979246
6.530541056,1.000086382793502,-147.1678668671832
6.533333504,1.0000261563525745,-147.3311679942004
6.53612544,0.9999641579695628,-147.49354703988425
6.538917888,0.9999042107911914,-147.65506892622292
6.541710336,0.9998500708281819,-147.81576492718997
6.544502784,0.999805121385478,-147.97573086551913
6.54729472,0.9997723766281476,-148.1351350551122
6.550087168,0.9997535476568954,-148.29417690217628
6.552879616,0.9997501505024039,-148.45305050581484
6.555672064,0.9997623267996539,-148.61196363691846
6.558464,0.9997892424988877,-148.77118051213037
6.561256448,0.9998293719263468,-148.93088432697445
6.564048896,0.999880039229188,-149.09120654616785
6.566841344,0.9999383429518593,-149.25233131809992
6.56963328,1.0000003553527224,-149.41435305474005
6.572425728,1.000062363275558,-149.5772485326853
6.575218176,1.0001204482151955,-149.74101001705938
6.578010624,1.0001709328773947,-149.90558123551955
6.58080256,1.0002107152293127,-150.07074061132178
6.583595008,1.0002372907926398,-150.2364588925076
6.586387456,1.0002489421772425,-150.4024280972714
6.589179904,1.000244851434157,-150.56843136397126
6.59197184,1.0002253644403694,-150.7342755342474
6.594764288,1.0001917020279643,-150.89975729425456
6.597556736,1.0001458121313638,-151.06464219247934
6.600349184,1.0000906787953165,-151.22880835183975
6.60314112,1.0000296942891507,-151.39214342209166
6.605933568,0.9999666488881412,-151.55456715275125
6.608726016,0.9999055579003973,-151.7160720446512
6.611518464,0.9998501565981445,-151.876786581039
6.6143104,0.9998040088281084,-152.03670516084813
6.617102848,0.9997699637088088,-152.1960879425239
6.619895296,0.9997502590295881,-152.3550596566854
6.622687744,0.9997459512627388,-152.51386169169118
6.62547968,0.9997575551663462,-152.67268848550475
6.628272128,0.9997842047643662,-152.8318402147935
6.631064576,0.9998243482937188,-152.99140794143133
6.633857024,0.9998755286717104,-153.15168657824978
6.63664896,0.99993437082628,-153.3127112240008
6.639441408,0.9999972557315367,-153.47463216622873
6.642233856,1.0000604400643502,-153.6374661168664
6.645026304,1.0001196605864238,-153.80119274283766
6.647818752,1.0001714891858111,-153.96570402321166
6.650610688,1.0002124895464723,-154.1308927548838
6.653403136,1.0002401187049792,-154.29658459738002
6.656195584,1.0002526733833084,-154.46254958985642
6.658988032,1.0002493470724445,-154.62858839090805
6.661779968,1.0002302788074422,-154.79447033384065
6.664572416,1.0001966799987878,-154.95996446202946
6.667364864,1.0001506042201178,-155.12488328252542
6.670157312,1.0000949829652002,-155.28905449305083
6.672949248,1.0000332077094518,-155.45241431743472
6.675741696,0.9999691515769188,-155.61481764922658
6.678534144,0.9999069014892039,-155.77634398057108
6.681326592,0.9998502307588828,-155.93697005101714
6.684118528,0.9998028159055999,-156.09688449104286
6.686910976,0.9997676146085732,-156.25618550171401
6.689703424,0.9997468342544645,-156.4150619725472
6.692495872,0.9997417624329037,-156.57373349054842
6.695287808,0.9997527932324679,-156.732483131826
6.698080256,0.9997791635534929,-156.89146934121317
6.700872704,0.9998193495561881,-157.05093194547135
6.703665152,0.9998707637646723,-157.21105158712734
6.706457088,0.999930325473574,-157.37195900853297
6.709249536,0.9999941279396304,-157.53378886206644
6.712041984,1.0000583598343105,-157.69652486994158
6.714834432,1.000118953066855,-157.86015287134904
6.717626368,1.0001719849348256,-158.02459487692687
6.720418816,1.0002141707425796,-158.1897372168167
6.723211264,1.0002430617950038,-158.3553723067745
6.726003712,1.0002565691229508,-158.5213290297912
6.728795648,1.0002538970441255,-158.68736479669897
6.731588096,1.000235318894314,-158.85324223679063
6.734380544,1.0002018489576523,-159.01873930304825
6.737172992,1.000155618103076,-159.18366948640863
6.739964928,1.0000994482486074,-159.34784045521027
6.742757376,1.000036895584708,-159.51116377830226
6.745549824,0.9999718754922154,-159.67354931917288
6.748342272,0.9999083876422273,-159.83499741675953
6.751134208,0.9998504622978189,-159.99560091465366
6.753926656,0.9998017636996784,-160.15538036956812
6.756719104,0.9997652749466325,-160.31459570384698
6.759511552,0.9997434526644904,-160.47334282376485
6.762303488,0.9997376064734484,-160.631906234364
6.765095936,0.9997478862750033,-160.7904476785066
6.767888384,0.9997739676507751,-160.94926513375842
6.770680832,0.99981419851905,-161.10859344691448
6.773472768,0.9998659851246823,-161.26854826658658
6.776265216,0.9999261325807279,-161.4293104925481
6.779057664,0.9999909165296431,-161.5909982378477
6.781850112,1.0000562607026098,-161.75357926545948
6.784642048,1.0001179874901347,-161.91709587498482
6.787434496,1.0001724226633624,-162.08143901541422
6.790226944,1.0002158571209432,-162.24648218618537
6.793019392,1.0002458611710559,-162.4120803616723
6.795811328,1.0002603760962658,-162.57798291621185
6.798603776,1.000258648154078,-162.74398982720982
6.801396224,1.0002404166722272,-162.90982528870325
6.804188672,1.000207077581226,-163.07528990961876
6.806980608,1.0001606627117252,-163.24016111660342
6.809773056,1.0001039836042773,-163.4043073744416
6.812565504,1.0000406273913172,-163.56759629380008
6.815357952,0.999974628073241,-163.7299098446442
6.818149888,0.9999099549471877,-163.89130789795075
6.820942336,0.9998507616481732,-164.05178837930487
6.823734784,0.9998006675488967,-164.21146742703482
6.826527232,0.9997629517231178,-164.37050803250088
6.829319168,0.9997400534168781,-164.5290980569606
6.832111616,0.9997331749203344,-164.68748353864703
6.834904064,0.9997429014760284,-164.84586758584837
6.837696512,0.9997687627180384,-165.00451567221924
6.840488448,0.9998089483528598,-165.16362115440955
6.843280896,0.9998610370705652,-165.32337226954772
6.846073344,0.9999219133374448,-165.48397081174386
6.848865792,0.9999874520009125,-165.64545617068282
6.851657728,1.0000540130376898,-165.80788786555237
6.854450176,1.0001170583676906,-165.97126899962456
6.857242624,1.0001726406176505,-166.13546895315733
6.860035072,1.0002174514163287,-166.30039105225876
6.862827008,1.0002487179108348,-166.46588183380837
6.865619456,1.000264294709352,-166.63170486608914
6.868411904,1.0002631651857739,-166.79759194454377
6.871204352,1.0002454725944827,-166.96338368291651
6.873996288,1.0002122864846308,-167.12877203946033
6.876788736,1.0001657678768185,-167.29362061866104
6.879581184,1.0001086353191777,-167.45767216893853
6.882373632,1.0000444844126462,-167.6209029631346
6.885165568,0.9999774060520751,-167.78310609927047
6.887958016,0.9999115395864946,-167.94437508794948
6.890750464,0.9998510035952386,-168.10472870470804
6.893542912,0.9997996809118799,-168.2642996932771
6.896334848,0.9997607127335837,-168.42317793847755
6.899127296,0.9997366430681762,-168.58159146944274
6.901919744,0.999728847371309,-168.73973112003688
6.904712192,0.9997379543733357,-168.89790946055493
6.907504128,0.9997634518574224,-169.05632703587452
6.910296576,0.9998036569932481,-169.21518363738497
6.913089024,0.9998560339003569,-169.3747304191606
6.915881472,0.9999175223306329,-169.5350785410755
6.918673408,0.9999840746092106,-169.6963539898603
6.921465856,1.000051678317474,-169.85860477064568
6.924258304,1.0001160138291054,-170.0217682242837
6.927050752,1.0001729905926962,-170.18582508663087
6.929842688,1.0002191719826736,-170.35061893300283
6.932635136,1.000251523958124,-170.51597131728565
6.935427584,1.0002681894861059,-170.68166195418226
6.938220032,1.000267906690202,-170.84748037397446
6.941011968,1.000250732398084,-171.01318265700718
6.943804416,1.0002177865349937,-171.1784924067975
6.946596864,1.0001709986470657,-171.34323754611802
6.949389312,1.0001134215068543,-171.50719326043262
6.952181248,1.0000485457678694,-171.6702971472147
6.954973696,0.9999804365530683,-171.83239437727337
6.957766144,0.9999133377787699,-171.99356100898507
6.960558592,0.9998514882158608,-172.1537288059322
6.96335104,0.9997987557177739,-172.313106639509
6.966142976,0.9997585644288949,-172.47177237003982
6.968935424,0.9997332036161272,-172.62996540102867
6.971727872,0.9997244742588887,-172.7878940143235
6.97452032,0.999732884985955,-172.94582647533056
6.977312256,0.9997580049832384,-173.10398856878544
6.980104704,0.9997981369586351,-173.26257250007228
6.982897152,0.9998510142296367,-173.42186461148617
6.9856896,0.9999131247991069,-173.5819908308747
6.988481536,0.9999805393414889,-173.742997483509
6.991273984,1.0000492185262542,-173.90499793392115
6.994066432,1.0001148601321594,-174.06796870113504
6.99685888,1.0001732623449449,-174.23183014545987
6.999650816,1.00022069134788,-174.39643314826915
7.002443264,1.0002544390053443,-174.5616446409505
7.005235712,1.0002720315727518,-174.72720840004737
7.00802816,1.0002725914718826,-174.8928873688017
7.010820096,1.000255993303263,-175.0584298032761
7.013612544,1.0002232421790327,-175.223634658473
7.016404992,1.0001763153496044,-175.38825989154742
7.01919744,1.0001181671592052,-175.55209873884255
7.021989376,1.000052533315293,-175.7150443623137
7.024781824,0.9999833875524498,-175.87701883827984
7.027574272,0.9999151138310399,-176.03798520371964
7.03036672,0.9998518445759591,-176.19801179248532
7.033158656,0.9997978099605043,-176.35714276682532
7.035951104,0.9997561658773826,-176.5155965585909
7.038743552,0.9997296438021606,-176.67352071675714
7.041536,0.9997199695935232,-176.83120535453904
7.044327936,0.9997277060917062,-176.98883748805926
7.047120384,0.9997523942011395,-177.1467230181568
7.049912832,0.9997925941091379,-177.30505435391876
7.05270528,0.9998456316030558,-177.4640499485711
7.055497216,0.9999084070244824,-177.62383582806052
7.058289664,0.9999767975580816,-177.7845914532437
7.061082112,1.000046644622884,-177.94632830623783
7.06387456,1.000113558608973,-178.1090535222215
7.066666496,1.0001733649754412,-178.27271303633873
7.069458944,1.0002221930532433,-178.4370972752292
7.072251392,1.0002571619446894,-178.60209726789623
7.07504384,1.000276011434018,-178.7674820874259
7.077835776,1.000277393246897,-178.93300655865264
7.080628224,1.0002612855144344,-179.0984061321616
7.083420672,1.0002287924796618,-179.263468938857
7.08621312,1.0001817010870913,-179.42791967527802
7.089005056,1.0001231514723645,-179.5916548261261
7.091797504,1.0000566305816392,-179.7544318889167
7.094589952,0.9999864660846423,-179.91621337920583
7.0973824,0.9999169196928631,179.9230138937459
7.100174336,0.999852434102953,179.7632090830085
7.102966784,0.9997968083128194,179.6043076549325
7.105759232,0.9997539388770177,179.44610208384137
