freq,mag,phase
6.0,0.9999973155467387,100.32707461397291
6.008,0.999997178870938,100.20403929375757
6.016,0.9999970425134292,100.08093707536825
6.024,0.9999969065445236,99.95776786206993
6.032,0.9999967710329876,99.83453155734644
6.04,0.9999966360460565,99.71122806490149
6.048,0.9999965016494474,99.58785728865972
6.056,0.9999963679073717,99.46441913276774
6.064,0.9999962348825474,99.34091350159508
6.072,0.9999961026362131,99.21734029973526
6.08,0.9999959712281393,99.09369943200684
6.088,0.9999958407166428,98.9699908034544
6.096,0.9999957111585976,98.84621431934957
6.104,0.9999955826094492,98.72236988519208
6.112,0.9999954551232267,98.59845740671071
6.12,0.9999953287525554,98.47447678986443
6.128,0.9999952035486699,98.35042794084326
6.136,0.9999950795614263,98.22631076606943
6.144,0.9999949568393159,98.10212517219831
6.152,0.9999948354294763,97.97787106611948
6.16,0.9999947153777059,97.85354835495764
6.168,0.9999945967284753,97.7291569460738
6.176,0.9999944795249404,97.60469674706611
6.184,0.9999943638089549,97.48016766577102
6.192,0.9999942496210837,97.35556961026417
6.2,0.9999941370006141,97.23090248886146
6.208,0.9999940259855699,97.10616621012007
6.216,0.9999939166127225,96.98136068283945
6.224,0.9999938089176057,96.85648581606232
6.232,0.9999937029345258,96.73154151907568
6.24,0.9999935986965759,96.60652770141179
6.248,0.9999934962356474,96.48144427284926
6.256,0.9999933955824435,96.35629114341396
6.264,0.999993296766491,96.23106822338005
6.272,0.9999931998161535,96.10577542327101
6.28,0.9999931047586427,95.9804126538606
6.288,0.9999930116200321,95.85497982617389
6.296,0.9999929204252692,95.72947685148823
6.304,0.9999928311981873,95.60390364133427
6.312,0.9999927439615187,95.47826010749698
6.32,0.9999926587369072,95.35254616201655
6.328,0.9999925755449193,95.22676171718953
6.336,0.9999924944050578,95.10090668556968
6.344,0.9999924153357739,94.97498097996908
6.352,0.9999923383544795,94.84898451345902
6.36,0.9999922634775589,94.72291719937103
6.368,0.9999921907203821,94.59677895129795
6.376,0.9999921200973166,94.47056968309481
6.384,0.9999920516217394,94.34428930887984
6.392,0.99999198530605,94.21793774303548
6.4,0.9999919211616815,94.09151490020938
6.408,0.9999918591991139,93.96502069531532
6.416,0.9999917994278857,93.83845504353431
6.424,0.9999917418566062,93.71181786031546
6.432,0.9999916864929675,93.58510906137698
6.44,0.9999916333437568,93.45832856270722
6.448,0.9999915824148685,93.33147628056561
6.456,0.9999915337113158,93.20455213148365
6.464,0.9999914872372432,93.07755603226586
6.472,0.9999914429959389,92.95048789999078
6.48,0.9999914009898454,92.82334765201198
6.4879999999999995,0.9999913612205725,92.69613520595898
6.496,0.9999913236889099,92.56885047973822
6.504,0.9999912883948372,92.44149339153414
6.5120000000000005,0.9999912553375371,92.31406385980993
6.52,0.9999912245154075,92.18656180330885
6.5280000000000005,0.9999911959260718,92.05898714105476
6.536,0.9999911695663929,91.93133979235353
6.5440000000000005,0.9999911454324822,91.80361967679366
6.552,0.9999911235197144,91.67582671424745
6.5600000000000005,0.9999911038227366,91.54796082487188
6.568,0.9999910863354813,91.42002192910965
6.5760000000000005,0.9999910710511777,91.29200994769002
6.584,0.9999910579623635,91.16392480162993
6.592,0.999991047060896,91.0357664122348
6.6,0.999991038337965,90.90753470109966
6.608,0.9999910317841012,90.77922959010995
6.616,0.999991027389192,90.65085100144256
6.624,0.999991025142489,90.52239885756684
6.632,0.9999910250326222,90.39387308124546
6.64,0.9999910270476094,90.26527359553539
6.648,0.9999910311748693,90.1366003237889
6.656,0.9999910374012311,90.00785318965445
6.664,0.9999910457129463,89.87903211707774
6.672,0.9999910560957015,89.75013703030254
6.68,0.9999910685346273,89.62116785387175
6.688,0.9999910830143097,89.49212451262827
6.696,0.9999910995188038,89.36300693171599
6.704,0.9999911180316415,89.23381503658078
6.712,0.9999911385358448,89.1045487529713
6.72,0.9999911610139353,88.97520800694011
6.728,0.9999911854479467,88.84579272484451
6.736,0.9999912118194345,88.71630283334757
6.744,0.9999912401094873,88.58673825941891
6.752,0.9999912702987377,88.45709893033585
6.76,0.9999913023673725,88.32738477368424
6.768,0.9999913362951449,88.19759571735938
6.776,0.999991372061384,88.06773168956703
6.784,0.9999914096450049,87.93779261882429
6.792,0.9999914490245213,87.80777843396056
6.8,0.9999914901780539,87.67768906411852
6.808,0.9999915330833429,87.54752443875498
6.816,0.9999915777177569,87.41728448764185
6.824,0.9999916240583046,87.28696914086714
6.832,0.9999916720816433,87.15657832883576
6.84,0.9999917217640925,87.0261119822706
6.848,0.9999917730816403,86.89557003221334
6.856,0.9999918260099573,86.76495241002547
6.864,0.9999918805244039,86.6342590473891
6.872,0.9999919366000419,86.50348987630804
6.88,0.9999919942116452,86.37264482910862
6.888,0.9999920533337074,86.24172383844066
6.896,0.9999921139404554,86.11072683727836
6.904,0.999992176005856,85.97965375892129
6.912,0.9999922395036278,85.8485045369952
6.92,0.9999923044072505,85.71727910545304
6.928,0.9999923706899745,85.5859773985759
6.936,0.9999924383248308,85.45459935097384
6.944,0.9999925072846411,85.32314489758683
6.952,0.9999925775420272,85.19161397368572
6.96,0.9999926490694195,85.06000651487314
6.968,0.9999927218390692,84.92832245708436
6.976,0.9999927958230547,84.79656173658829
6.984,0.9999928709932929,84.66472428998833
6.992,0.9999929473215488,84.5328100542233
7.0,0.9999930247794435,84.40081896656838
7.008,0.9999931033384641,84.26875096463598
7.016,0.9999931829699737,84.13660598637668
7.024,0.999993263645219,84.00438397008014
7.032,0.9999933453353405,83.87208485437596
7.04,0.999993428011382,83.7397085782347
7.048,0.9999935116442973,83.60725508096861
7.056,0.999993596204962,83.47472430223276
7.064,0.9999936816641806,83.3421161820257
7.072,0.9999937679926956,83.2094306606906
7.08,0.9999938551611963,83.07666767891595
7.088,0.9999939431403286,82.94382717773662
7.096,0.9999940319007004,82.81090909853467
7.104,0.9999941214128949,82.67791338304025
7.112,0.9999942116474745,82.54483997333257
7.12,0.9999943025749926,82.41168881184073
7.128,0.9999943941659993,82.27845984134467
7.136,0.9999944863910528,82.14515300497597
7.144,0.9999945792207242,82.01176824621886
7.152,0.9999946726256086,81.87830550891111
7.16,0.9999947665763311,81.74476473724481
7.168,0.9999948610435566,81.61114587576733
7.176,0.999994955997996,81.47744886938233
7.184,0.9999950514104156,81.3436736633504
7.192,0.9999951472516444,81.2098202032902
7.2,0.9999952434925818,81.07588843517917
7.208,0.9999953401042054,80.94187830535455
7.216,0.9999954370575783,80.80778976051414
7.224,0.9999955343238577,80.67362274771732
7.232,0.9999956318743005,80.53937721438582
7.24,0.9999957296802738,80.40505310830471
7.248,0.9999958277132592,80.2706503776232
7.256,0.9999959259448612,80.13616897085552
7.264,0.9999960243468157,80.00160883688193
7.272,0.999996122890995,79.86696992494946
7.28,0.9999962215494163,79.73225218467283
7.288,0.9999963202942483,79.59745556603535
7.296,0.9999964190978183,79.46258001938982
7.304,0.9999965179326195,79.32762549545937
7.312,0.999996616771316,79.19259194533835
7.32,0.9999967155867521,79.05747932049321
7.328,0.9999968143519571,78.92228757276338
7.336,0.9999969130401521,78.78701665436212
7.344,0.9999970116247577,78.65166651787746
7.352,0.9999971100793991,78.51623711627298
7.36,0.9999972083779128,78.38072840288879
7.368,0.9999973064943538,78.24514033144231
7.376,0.999997404403,78.10947285602919
7.384,0.9999975020783596,77.97372593112418
7.392,0.9999975994951781,77.83789951158198
7.4,0.9999976966284414,77.70199355263816
7.4079999999999995,0.9999977934533848,77.56600800990996
7.416,0.9999978899454963,77.42994283939714
7.4239999999999995,0.9999979860805243,77.29379799748304
7.432,0.999998081834482,77.15757344093517
7.4399999999999995,0.9999981771836534,77.02126912690629
7.448,0.9999982721045988,76.88488501293516
7.4559999999999995,0.9999983665741607,76.74842105694749
7.464,0.9999984605694676,76.61187721725668
7.4719999999999995,0.999998554067942,76.47525345256487
7.48,0.9999986470473027,76.3385497219636
7.4879999999999995,0.9999987394855712,76.20176598493482
7.496,0.9999988313610773,76.06490220135169
7.504,0.9999989226524624,75.92795833147947
7.5120000000000005,0.9999990133386865,75.79093433597632
7.52,0.9999991033990312,75.65383017589423
7.5280000000000005,0.9999991928131048,75.51664581267985
7.536,0.9999992815608479,75.37938120817537
7.5440000000000005,0.999999369622537,75.24203632461932
7.552,0.999999456978788,75.10461112464752
7.5600000000000005,0.9999995436105632,74.9671055712938
7.568,0.999999629499173,74.82951962799103
7.5760000000000005,0.9999997146262819,74.69185325857185
7.584,0.9999997989739112,74.55410642726957
7.5920000000000005,0.999999882524444,74.41627909871897
7.6,0.9999999652606291,74.27837123795733
7.6080000000000005,1.0,74.14038281042495
7.616,1.0000000000000002,74.00231378196644
7.6240000000000006,1.0,73.86416411883114
7.632,0.9999999999999999,73.72593378767434
7.640000000000001,1.0,73.5876227555578
7.648,0.9999999999999999,73.44923098995092
7.656000000000001,1.0,73.31075845873136
7.664,1.0,73.17220513018596
7.672,0.9999999999999999,73.03357097301165
7.68,0.9999999999999999,72.89485595631616
7.688,1.0,72.75606004961905
7.696,1.0,72.61718322285243
7.704,0.9999999999999998,72.47822544636182
7.712,0.9999999999999999,72.339186690907
7.72,1.0,72.20006692766297
7.728,1.0,72.06086612822064
7.736,1.0,71.92158426458771
7.744,0.9999999999999999,71.78222130918961
7.752,0.9999999999999999,71.64277723487024
7.76,0.9999999999999999,71.50325201489285
7.768,1.0,71.36364562294096
7.776,1.0,71.22395803311905
7.784,1.0,71.08418921995356
7.792,0.9999999999999998,70.94433915839357
7.8,0.9999999999999999,70.80440782381186
7.808,0.9999999999999999,70.66439519200554
7.816,1.0,70.524301239197
7.824,1.0,70.38412594203477
7.832,0.9999999999999998,70.24386927759429
7.84,1.0,70.10353122337878
7.848,0.9999999999999999,69.96311175732015
7.856,1.0,69.82261085777974
7.864,1.0,69.68202850354918
7.872,0.9999999999999999,69.54136467385128
7.88,1.0,69.40061934834088
7.888,0.9999999999999999,69.25979250710557
7.896,0.9999999999999999,69.1188841306667
7.904,1.0,68.9778941999801
7.912,1.0,68.83682269643693
7.92,1.0,68.69566960186454
7.928,1.0,68.55443489852738
7.936,0.9999999999999999,68.4131185691277
7.944,1.0,68.27172059680649
7.952,1.0,68.13024096514427
7.96,1.0,67.98867965816197
7.968,1.0,67.84703666032173
7.976,1.0,67.70531195652775
7.984,0.9999999999999999,67.56350553212712
7.992,1.0,67.42161737291072
8.0,0.9999999999999999,67.27964746511391
8.008,1.0,67.13759579541757
8.016,1.0,66.99546235094874
8.024000000000001,1.0,66.85324711928156
8.032,0.9999999999999998,66.71095008843822
8.04,0.9999999999999999,66.56857124688949
8.048,1.0,66.42611058355581
8.056000000000001,1.0,66.28356808780809
8.064,1.0,66.14094374946849
8.072,1.0,65.99823755881127
8.08,0.9999999999999999,65.85544950656357
8.088000000000001,1.0,65.71257958390643
8.096,0.9999999999999999,65.5696277824755
8.104,1.0,65.42659409436175
8.112,0.9999999999999999,65.28347851211252
8.120000000000001,0.9999999999999999,65.14028102873232
8.128,0.9999999999999999,64.99700163768358
8.136,1.0,64.85364033288754
8.144,0.9999999999999999,64.710197108725
8.152000000000001,1.0,64.56667196003734
8.16,1.0,64.4230648821272
8.168,1.0,64.27937587075938
8.176,0.9999999999999999,64.13560492216158
8.184000000000001,0.9999999999999999,63.991752033025385
8.192,1.0,63.84781720050707
8.2,0.9999999999999999,63.703800422228326
8.208,1.0,63.55970169627712
8.216000000000001,0.9999999999999999,63.41552102120871
8.224,1.0,63.27125839604628
8.232,1.0,63.12691382028184
8.24,1.0,62.98248729387703
8.248000000000001,1.0,62.83797881726407
8.256,1.0,62.693388391346524
8.264,1.0,62.548716017500034
8.272,0.9999999999999999,62.4039616975733
8.280000000000001,0.9999999999999999,62.259125433888926
8.288,1.0,62.11420722924415
8.296,0.9999999999999999,61.96920708691173
8.304,1.0,61.82412501064077
8.312,1.0,61.6789610046576
8.32,1.0,61.533715073666556
8.328,1.0,61.388387222850874
8.336,1.0,61.24297745787344
8.344,1.0,61.09748578487774
8.352,0.9999999999999999,60.95191221048854
8.36,0.9999999999999999,60.80625674181297
8.368,1.0,60.66051938644104
8.376,1.0,60.514700152446785
8.384,1.0,60.36879904838888
8.392,0.9999999999999999,60.22281608331163
8.4,1.0,60.076751266745624
8.408,1.0,59.930604608708826
8.416,1.0,59.78437611970713
8.424,0.9999999999999999,59.6380658107355
8.432,1.0,59.49167369327848
8.44,0.9999999999999998,59.34519977931131
8.448,0.9999999999999999,59.19864408130058
8.456,0.9999999999999999,59.05200661220521
8.464,0.9999999999999999,58.90528738547711
8.472,0.9999999999999999,58.75848641506225
8.48,1.0,58.61160371540123
8.488,0.9999999999999999,58.464639301430374
8.496,0.9999999999999999,58.31759318858237
8.504,0.9999999999999999,58.17046539278726
8.512,1.0,58.02325593047308
8.52,1.0,57.87596481856696
8.528,1.0,57.7285920744957
8.536,0.9999999999999999,57.58113771618683
8.544,0.9999999999999999,57.43360176206924
8.552,1.0,57.285984231074245
8.56,0.9999999999999999,57.138285142636164
8.568,0.9999999999999999,56.99050451669339
8.576,1.0,56.84264237368909
8.584,1.0,56.69469873457209
8.592,1.0,56.54667362079763
8.6,0.9999999999999999,56.39856705432842
8.608,1.0,56.25037905763516
8.616,1.0,56.102109653697674
8.624,0.9999999999999999,55.95375886600551
8.632,1.0,55.80532671855897
8.64,1.0,55.65681323586978
8.648,0.9999999999999999,55.50821844296205
8.656,1.0,55.35954236537304
8.664,1.0,55.21078502915402
8.672,1.0,55.06194646087108
8.68,0.9999999999999998,54.913026687606035
8.688,0.9999999999999999,54.7640257369571
8.696,1.0,54.61494363704
8.704,0.9999999999999999,54.465780416488435
8.712,1.0,54.31653610445529
8.72,0.9999999999999999,54.16721073061315
8.728,1.0,54.01780432515539
8.736,1.0,53.86831691879677
8.744,0.9999999999999999,53.718748542774534
8.752,1.0,53.569099228848906
8.76,0.9999999999999998,53.41936900930431
8.768,1.0,53.26955791694981
8.776,1.0,53.119665985120285
8.784,0.9999999999999999,52.969693247676965
8.792,0.9999999999999999,52.81963973900851
8.8,0.9999999999999999,52.66950549403163
8.808,1.0,52.519290548192096
8.815999999999999,1.0,52.368994937465416
8.824,1.0,52.21861869835768
8.832,1.0,52.06816186790651
8.84,0.9999999999999999,51.9176244836818
8.847999999999999,1.0,51.76700658378648
8.856,0.9999999999999999,51.61630820685743
8.864,1.0,51.46552939206628
8.872,1.0,51.31467017912025
8.879999999999999,1.0,51.16373060826289
8.888,1.0,51.01271072027496
8.896,1.0,50.86161055647528
8.904,0.9999999999999999,50.71043015872152
8.911999999999999,1.0,50.559169569410976
8.92,0.9999999999999999,50.407828831481396
8.928,1.0,50.25640798841186
8.936,1.0,50.104907084223576
8.943999999999999,0.9999999999999999,49.95332616348061
8.952,1.0,49.80166527129075
8.96,1.0,49.64992445330639
8.968,1.0,49.49810375572523
8.975999999999999,1.0,49.34620322529113
8.984,1.0000000000000002,49.19422290929485
8.992,1.0,49.042162855574986
9.0,0.9999999999999999,48.89002311251877
9.008,0.9999999999999999,48.73780372906264
9.016,1.0,48.5855047546933
9.024000000000001,1.0,48.433126239448384
9.032,0.9999999999999999,48.28066823391743
9.04,1.0,48.128130789242334
9.048,1.0,47.97551395711846
9.056000000000001,0.9999999999999999,47.82281778979531
9.064,1.0,47.670042340077345
9.072,0.9999999999999999,47.51718766132473
9.08,1.0,47.364253807454105
9.088000000000001,1.0,47.21124083293949
9.096,1.0,47.058148792812986
9.104,1.0,46.90497774266546
9.112,1.0,46.75172773864749
9.120000000000001,1.0,46.59839883747008
9.128,1.0,46.44499109640541
9.136,0.9999999999999999,46.29150457328764
9.144,0.9999999999999999,46.13793932651359
9.152000000000001,0.9999999999999999,45.98429541504368
9.16,1.0,45.830572898402586
9.168,0.9999999999999999,45.676771836679926
9.176,1.0,45.52289229053113
9.184000000000001,0.9999999999999999,45.36893432117825
9.192,1.0,45.21489799041057
9.2,0.9999999999999999,45.060783360585454
9.208,1.0,44.906590494628965
9.216000000000001,0.9999999999999999,44.75231945603685
9.224,0.9999999999999999,44.597970308875084
9.232,0.9999999999999999,44.44354311778064
9.24,1.0,44.289037947962235
9.248000000000001,1.0,44.134454865201135
9.256,1.0,43.979793935851866
9.264,1.0,43.82505522684278
9.272,1.0,43.67023880567696
9.280000000000001,1.0,43.5153447404329
9.288,0.9999999999999999,43.36037309976526
9.296,0.9999999999999999,43.205323952905374
9.304,1.0,43.05019736966216
9.312000000000001,1.0,42.89499342042285
9.32,1.0,42.73971217615356
9.328,1.0,42.584353708399995
9.336,1.0000000000000002,42.428918089288196
9.344,0.9999999999999999,42.27340539152529
9.352,1.0,42.1178156884
9.36,1.0,41.96214905378351
9.368,0.9999999999999998,41.80640556213
9.376,1.0,41.65058528847742
9.384,1.0,41.494688308448026
9.392,1.0000000000000002,41.33871469824926
9.4,1.0,41.18266453467411
9.408,0.9999999999999999,41.026537895102116
9.416,0.9999999999999999,40.87033485749965
9.424,0.9999999999999999,40.714055500420834
9.432,1.0,40.557699903008015
9.44,1.0,40.401268144992564
9.448,1.0,40.24476030669527
9.456,0.9999999999999999,40.08817646902717
9.464,1.0,39.93151671349005
9.472,1.0,39.774781122177146
9.48,0.9999999999999999,39.617969777773574
9.488,0.9999999999999998,39.46108276355719
9.496,1.0,39.304120163398885
9.504,1.0,39.14708206176348
9.512,0.9999999999999999,38.98996854370998
9.52,1.0,38.83277969489249
9.528,1.0,38.675515601560456
9.536,1.0,38.51817635055948
9.544,1.0,38.36076202933172
9.552,1.0,38.203272725916534
9.56,1.0,38.045708528950904
9.568,1.0,37.88806952767015
9.576,1.0,37.73035581190819
9.584,1.0,37.572567472098406
9.592,1.0,37.4147045992738
9.6,1.0,37.256767285067795
9.608,0.9999999999999999,37.098755621714496
9.616,1.0000000000000002,36.94066970204937
9.624,1.0,36.78250961950957
9.632,0.9999999999999998,36.624275468134556
9.64,1.0,36.46596734256641
9.648,1.0000000000000002,36.30758533805044
9.656,1.0,36.14912955043546
9.664,1.0,35.99060007617448
9.672,1.0000000000000002,35.83199701232482
9.68,0.9999999999999999,35.67332045654881
9.688,1.0,35.51457050711399
9.696,1.0,35.35574726289377
9.704,1.0,35.196850823367505
9.712,1.0,35.03788128862117
9.72,1.0,34.878838759347545
9.728,1.0,34.71972333684671
9.736,1.0,34.56053512302628
9.744,1.0,34.4012742204019
9.752,1.0,34.2419407320974
9.76,1.0000000000000002,34.08253476184536
9.768,1.0,33.923056413987155
9.776,1.0,33.76350579347355
9.784,1.0,33.603883005864624
9.792,0.9999999999999999,33.44418815733058
9.8,1.0,33.28442135465145
9.808,1.0,33.12458270521777
9.816,1.0,32.964672317030654
9.824,0.9999999999999999,32.80469029870211
9.832,1.0,32.64463675945514
9.84,1.0,32.48451180912419
9.847999999999999,1.0,32.32431555815511
9.856,1.0,32.16404811760542
9.864,1.0,32.00370959914466
9.872,0.9999999999999999,31.8433001150544
9.879999999999999,0.9999999999999999,31.682819778228364
9.888,0.9999999999999999,31.522268702172614
9.896,1.0,31.3616470010058
9.904,1.0,31.200954789459193
9.911999999999999,1.0,31.040192182876694
9.92,1.0000000000000002,30.879359297215053
9.928,1.0,30.718456249043914
9.936,1.0,30.55748315554596
9.943999999999999,1.0,30.39644013451677
9.952,1.0,30.235327304364983
9.96,1.0,30.07414478411238
9.968,0.9999999999999999,29.91289269339382
9.975999999999999,0.9999999999999999,29.75157115245722
9.984,1.0,29.590180282163466
9.992,0.9999999999999999,29.428720203986614
10.0,0.9999999999999999,29.267191040013678
10.008,1.0,29.105592912944502
10.016,0.9999999999999999,28.943925946091788
10.024000000000001,1.0,28.78219026338102
10.032,1.0,28.620385989350318
10.04,1.0,28.458513249150243
10.048,1.0,28.296572168543698
10.056000000000001,1.0,28.13456287390587
10.064,1.0,27.972485492223957
10.072,0.9999999999999999,27.81034015109693
10.08,1.0,27.648126978735363
10.088000000000001,0.9999999999999999,27.48584610396131
10.096,0.9999999999999999,27.323497656207984
10.104,1.0,27.16108176551941
10.112,1.0,26.998598562550214
10.120000000000001,1.0,26.836048178565438
10.128,1.0,26.673430745440122
10.136,0.9999999999999999,26.510746395658867
10.144,0.9999999999999999,26.34799526231567
