freq,mag,phase
6.0,0.9999941676044729,-3.3667222698043395
6.008,0.9999951438408621,-3.6395915412816064
6.016,0.9999960847576941,-3.9125319854714284
6.024,0.9999969910052049,-4.185543416404453
6.032,0.9999978632267342,-4.458625647309163
6.04,0.9999987020587584,-4.7317784906127915
6.048,0.9999995081309211,-5.005001757942233
6.056,1.0,-5.278295260125035
6.064,0.9999999999999999,-5.551658807190399
6.072,1.0,-5.825092208370235
6.08,1.0,-6.0985952721002725
6.088,0.9999999999999999,-6.372167806021196
6.096,1.0,-6.6458096169798155
6.104,1.0,-6.919520511030309
6.112,1.0,-7.193300293435475
6.12,1.0,-7.4671487686680456
6.128,0.9999999999999999,-7.741065740412038
6.136,0.9999999999999999,-8.01505101156413
6.144,0.9999999999999999,-8.289104384235134
6.152,0.9999999999999999,-8.563225659751401
6.16,1.0,-8.837414638656433
6.168,0.9999999999999999,-9.111671120712352
6.176,1.0,-9.385994904901548
6.184,1.0,-9.660385789428313
6.192,1.0,-9.93484357172053
6.2,0.9999999999999999,-10.209368048431392
6.208,1.0,-10.483959015441128
6.216,1.0,-10.75861626785895
6.224,0.9999999999999998,-11.033339600024698
6.232,1.0,-11.308128805510927
6.24,1.0,-11.582983677124696
6.248,1.0,-11.857904006909644
6.256,0.9999999999999999,-12.132889586147959
6.264,0.9999999999999999,-12.407940205362427
6.272,1.0,-12.68305565431856
6.28,1.0,-12.958235722026728
6.288,1.0,-13.233480196744328
6.296,1.0,-13.508788865978026
6.304,0.9999999999999998,-13.784161516486023
6.312,0.9999999999999999,-14.059597934280335
6.32,1.0,-14.335097904629146
6.328,1.0,-14.610661212059231
6.336,0.9999999999999999,-14.886287640358356
6.344,0.9999999999999999,-15.161976972577714
6.352,0.9999999999999999,-15.437728991034534
6.36,1.0,-15.713543477314513
6.368,0.9999999999999999,-15.98942021227448
6.376,1.0,-16.265358976045018
6.384,1.0,-16.541359548033103
6.392,1.0,-16.817421706924893
6.4,1.0,-17.09354523068838
6.408,1.0,-17.369729896576235
6.416,1.0,-17.64597548112868
6.424,0.9999999999999999,-17.922281760176254
6.432,1.0,-18.198648508842865
6.44,0.9999999999999999,-18.475075501548602
6.448,1.0,-18.75156251201283
6.456,1.0,-19.028109313257143
6.464,0.9999999999999999,-19.30471567760854
6.472,1.0,-19.581381376702407
6.48,1.0,-19.858106181485763
6.4879999999999995,1.0,-20.13488986222038
6.496,1.0,-20.41173218848615
6.504,1.0,-20.688632929184056
6.5120000000000005,0.9999999999999999,-20.965591852539898
6.52,1.0,-21.24260872610715
6.5280000000000005,1.0,-21.51968331677087
6.536,0.9999999999999999,-21.796815390750588
6.5440000000000005,1.0,-22.074004713604264
6.552,0.9999999999999999,-22.35125105023127
6.5600000000000005,0.9999999999999999,-22.62855416487651
6.568,1.0,-22.905913821133378
6.5760000000000005,0.9999999999999999,-23.183329781947943
6.584,1.0,-23.460801809622065
6.592,1.0,-23.73832966581754
6.6,1.0,-24.015913111559506
6.608,1.0,-24.29355190724034
6.616,1.0000000000000002,-24.571245812623435
6.624,1.0,-24.84899458684701
6.632,0.9999999999999999,-25.126797988427995
6.64,1.0,-25.404655775265926
6.648,1.0,-25.682567704646903
6.656,1.0,-25.960533533247528
6.664,0.9999999999999999,-26.238553017138987
6.672,1.0,-26.516625911791014
6.68,0.9999999999999999,-26.794751972076025
6.688,0.9999999999999999,-27.07293095227326
6.696,1.0,-27.35116260607287
6.704,0.9999999999999999,-27.62944668658013
6.712,1.0,-27.907782946319717
6.72,0.9999999999999999,-28.186171137239896
6.728,0.9999999999999999,-28.46461101071685
6.736,0.9999999999999999,-28.743102317558996
6.744,0.9999998452161624,-29.021644808011363
6.752,0.9999995222688477,-29.300238231759938
6.76,0.9999991994127413,-29.578882337936154
6.768,0.9999988768055584,-29.857576875121328
6.776,0.9999985546014252,-30.13632159135116
6.784,0.9999982329509166,-30.4151162341202
6.792,0.99999791200109,-30.69396055038653
6.8,0.9999975918955235,-30.972854286576254
6.808,0.9999972727743507,-31.251797188588164
6.816,0.9999969547742963,-31.53078900179839
6.824,0.9999966380287132,-31.809829471065093
6.832,0.9999963226676168,-32.08891834073318
6.84,0.9999960088177214,-32.368055354639054
6.848,0.999995696602476,-32.647240256115445
6.856,0.9999953861420988,-32.926472787996104
6.864,0.9999950775536135,-33.205752692620806
6.872,0.9999947709508852,-33.485079711840065
6.88,0.9999944664446533,-33.76445358702021
6.888,0.9999941641425693,-34.04387405904818
6.896,0.9999938641492309,-34.32334086833652
6.904,0.9999935665662161,-34.602853754828445
6.912,0.9999932714921194,-34.88241245800282
6.92,0.999992979022586,-35.162016716879165
6.928,0.9999926892503461,-35.44166627002281
6.936,0.9999924022652505,-35.72136085554999
6.944,0.9999921181543048,-36.001100211132965
6.952,0.9999918370017027,-36.280884074005186
6.96,0.9999915588888615,-36.56071218096654
6.968,0.999991283894456,-36.84058426838847
6.976,0.9999910120944531,-37.12050007221934
6.984,0.9999907435621438,-37.400459327989665
6.992,0.9999904783681793,-37.68046177081739
7.0,0.999990216580604,-37.96050713541324
7.008,0.9999899582648888,-38.2405951560861
7.016,0.9999897034839643,-38.520725566748375
7.024,0.9999894522982556,-38.80089810092138
7.032,0.9999892047657137,-39.08111249174082
7.04,0.9999889609418502,-39.3613684719622
7.048,0.9999887208797693,-39.641665773966395
7.056,0.9999884846302015,-39.92200412976501
7.064,0.9999882522415356,-40.20238327100605
7.072,0.9999880237598519,-40.48280292897945
7.08,0.9999877992289543,-40.7632628346226
7.088,0.9999875786904028,-41.043762718526
7.096,0.9999873621835458,-41.324302310938855
7.104,0.9999871497455525,-41.60488134177477
7.112,0.9999869414114441,-41.88549954061735
7.12,0.9999867372141257,-42.16615663672604
7.128,0.9999865371844188,-42.44685235904164
7.136,0.9999863413510925,-42.72758643619218
7.144,0.9999861497408946,-43.00835859649871
7.152,0.9999859623785821,-43.28916856798093
7.16,0.999985779286954,-43.57001607836319
7.168,0.9999856004868809,-43.85090085508011
7.176,0.9999854259973365,-44.131822625282595
7.184,0.9999852558354275,-44.41278111584361
7.192,0.9999850900164255,-44.69377605336407
7.2,0.999984928553795,-44.9748071641788
7.208,0.9999847714592257,-45.25587417436236
7.216,0.9999846187426616,-45.53697680973509
7.224,0.9999844704123315,-45.81811479586895
7.232,0.9999843264747766,-46.099287858093675
7.24,0.9999841869348833,-46.38049572150258
7.248,0.9999840517959101,-46.66173811095868
7.256,0.9999839210595165,-46.94301475110072
7.264,0.999983794725795,-47.22432536634917
7.272,0.9999836727932958,-47.505669680912355
7.28,0.9999835552590595,-47.78704741879246
7.288,0.9999834421186428,-48.068458303791694
7.296,0.9999833333661478,-48.34990205951839
7.304,0.9999832289942502,-48.631378409393065
7.312,0.9999831289942277,-48.9128870766547
7.32,0.9999830333559866,-49.19442778436672
7.328,0.9999829420680911,-49.47600025542332
7.336,0.9999828551177887,-49.757604212555584
7.344,0.9999827724910396,-50.039239378337655
7.352,0.9999826941725422,-50.32090547519304
7.36,0.9999826201457613,-50.602602225400695
7.368,0.9999825503929535,-50.88432935110145
7.376,0.9999824848951949,-51.166086574304074
7.384,0.9999824236324063,-51.44787361689168
7.392,0.9999823665833808,-51.72969020062789
7.4,0.999982313725809,-52.01153604716325
7.4079999999999995,0.9999822650363042,-52.29341087804133
7.416,0.999982220490429,-52.575314414705346
7.4239999999999995,0.9999821800627204,-52.857246378504065
7.432,0.9999821437267156,-53.139206490698555
7.4399999999999995,0.999982111454975,-53.421194472468166
7.448,0.9999820832191102,-53.703210044917185
7.4559999999999995,0.9999820589898057,-53.98525292908089
7.464,0.9999820387368452,-54.26732284593227
7.4719999999999995,0.9999820224291348,-54.54941951638798
7.48,0.9999820100347282,-54.83154266131519
7.4879999999999995,0.9999820015208493,-55.11369200153746
7.496,0.9999819968539171,-55.39586725784175
7.504,0.9999819959995677,-55.67806815098414
7.5120000000000005,0.9999819989226791,-55.9602944016969
7.52,0.9999820055873935,-56.242545730694324
7.5280000000000005,0.9999820159571402,-56.52482185867973
7.536,0.9999820299946579,-56.80712250635126
7.5440000000000005,0.9999820476620186,-57.089447394409
7.552,0.999982068920648,-57.37179624356075
7.5600000000000005,0.999982093731349,-57.654168774529076
7.568,0.9999821220543227,-57.93656470805722
7.5760000000000005,0.9999821538491904,-58.218983764916054
7.584,0.9999821890750149,-58.501425665910084
7.5920000000000005,0.999982227690323,-58.78389013188433
7.6,0.9999822696531232,-59.06637688373037
7.6080000000000005,0.9999823149209309,-59.34888564239325
7.616,0.9999823634507855,-59.63141612887753
7.6240000000000006,0.9999824151992731,-59.913968064254156
7.632,0.9999824701225447,-60.196541169666546
7.640000000000001,0.9999825281763385,-60.47913516633743
7.648,0.999982589315998,-60.76174977557497
7.656000000000001,0.9999826534964918,-61.04438471877965
7.664,0.999982720672434,-61.32703971745029
7.672,0.9999827907981015,-61.60971449319094
7.68,0.9999828638274552,-61.89240876771715
7.688,0.9999829397141571,-62.17512226286239
7.696,0.9999830184115895,-62.4578547005847
7.704,0.9999830998728734,-62.740605802973064
7.712,0.9999831840508858,-63.02337529225392
7.72,0.9999832708982787,-63.30616289079752
7.728,0.9999833603674969,-63.58896832112465
7.736,0.9999834524107933,-63.87179130591284
7.744,0.9999835469802496,-64.15463156800291
7.752,0.9999836440277899,-64.43748883040556
7.76,0.9999837435052006,-64.7203628163076
7.768,0.9999838453641448,-65.00325324907863
7.776,0.9999839495561796,-65.28615985227731
7.784,0.999984056032773,-65.56908234965793
7.792,0.9999841647453177,-65.85202046517675
7.8,0.9999842756451497,-66.13497392299857
7.808,0.9999843886835622,-66.41794244750297
7.816,0.999984503811821,-66.70092576329094
7.824,0.9999846209811801,-66.98392359519111
7.832,0.9999847401428966,-67.26693566826633
7.84,0.9999848612482455,-67.54996170781993
7.848,0.9999849842485333,-67.83300143940222
7.856,0.999985109095114,-68.11605458881685
7.864,0.9999852357394018,-68.39912088212714
7.872,0.9999853641328854,-68.68220004566251
7.88,0.9999854942271416,-68.96529180602487
7.888,0.9999856259738497,-69.2483958900949
7.896,0.999985759324803,-69.53151202503845
7.904,0.9999858942319236,-69.81463993831291
7.912,0.999986030647274,-70.09777935767342
7.92,0.9999861685230697,-70.38093001117927
7.928,0.9999863078116933,-70.66409162720029
7.936,0.9999864484657045,-70.94726393442298
7.944,0.9999865904378539,-71.23044666185689
7.952,0.9999867336810931,-71.5136395388409
7.96,0.9999868781485884,-71.79684229504947
7.968,0.9999870237937297,-72.08005466049889
7.976,0.9999871705701443,-72.36327636555349
7.984,0.999987318431705,-72.64650714093192
7.992,0.9999874673325443,-72.92974671771337
8.0,0.9999876172270613,-73.21299482734366
8.008,0.9999877680699348,-73.49625120164158
8.016,0.9999879198161328,-73.77951557280511
8.024000000000001,0.9999880724209211,-74.06278767341722
8.032,0.9999882258398751,-74.34606723645234
8.04,0.9999883800288875,-74.62935399528256
8.048,0.9999885349441792,-74.91264768368356
8.056000000000001,0.9999886905423074,-75.19594803584063
8.064,0.9999888467801752,-75.47925478635491
8.072,0.9999890036150395,-75.76256767024958
8.08,0.9999891610045201,-76.0458864229757
8.088000000000001,0.9999893189066091,-76.32921078041824
8.096,0.9999894772796766,-76.61254047890215
8.104,0.9999896360824808,-76.89587525519856
8.112,0.9999897952741751,-77.17921484653058
8.120000000000001,0.9999899548143147,-77.46255899057917
8.128,0.9999901146628662,-77.7459074254892
8.136,0.9999902747802126,-78.02925988987555
8.144,0.9999904351271609,-78.31261612282887
8.152000000000001,0.9999905956649499,-78.59597586392137
8.16,0.9999907563552551,-78.87933885321277
8.168,0.999990917160197,-79.16270483125638
8.176,0.9999910780423453,-79.44607353910476
8.184000000000001,0.9999912389647274,-79.7294447183154
8.192,0.9999913998908316,-80.0128181109567
8.2,0.9999915607846145,-80.2961934596138
8.208,0.9999917216105058,-80.57957050739431
8.216000000000001,0.9999918823334139,-80.86294899793384
8.224,0.9999920429187317,-81.14632867540189
8.232,0.9999922033323394,-81.4297092845077
8.24,0.9999923635406114,-81.7130905705057
8.248000000000001,0.9999925235104203,-81.99647227920116
8.256,0.9999926832091401,-82.27985415695589
8.264,0.9999928426046526,-82.56323595069395
8.272,0.9999930016653489,-82.84661740790716
8.280000000000001,0.9999931603601355,-83.12999827666053
8.288,0.9999933186584372,-83.41337830559796
8.296,0.9999934765301998,-83.69675724394777
8.304,0.9999936339458946,-83.98013484152823
8.312,0.9999937908765206,-84.26351084875269
8.32,0.9999939472936085,-84.54688501663563
8.328,0.9999941031692231,-84.83025709679744
8.336,0.9999942584759653,-85.11362684147038
8.344,0.9999944131869755,-85.3969940035035
8.352,0.9999945672759359,-85.6803583363684
8.36,0.9999947207170717,-85.96371959416415
8.368,0.9999948734851547,-86.24707753162302
8.376,0.9999950255555035,-86.53043190411529
8.384,0.9999951769039862,-86.81378246765499
8.392,0.9999953275070215,-87.09712897890466
8.4,0.9999954773415803,-87.380471195181
8.408,0.9999956263851874,-87.66380887445953
8.416,0.9999957746159204,-87.9471417753803
8.424,0.9999959220124143,-88.23046965725253
8.432,0.9999960685538581,-88.51379228006003
8.44,0.9999962142199992,-88.79710940446598
8.448,0.9999963589911406,-89.08042079181837
8.456,0.9999965028481435,-89.36372620415447
8.464,0.9999966457724268,-89.64702540420643
8.472,0.9999967877459662,-89.93031815540559
8.48,0.9999969287512952,-90.213604221888
8.488,0.9999970687715045,-90.49688336849887
8.496,0.9999972077902417,-90.7801553607978
8.504,0.9999973457917097,-91.06341996506323
8.512,0.999997482760668,-91.34667694829773
8.52,0.9999976186824299,-91.62992607823223
8.528,0.9999977535428622,-91.91316712333139
8.536,0.9999978873283849,-92.19639985279771
8.544,0.9999980200259693,-92.4796240365768
8.552,0.9999981516231358,-92.76283944536152
8.56,0.9999982821079543,-93.04604585059711
8.568,0.9999984114690404,-93.32924302448532
8.576,0.9999985396955555,-93.6124307399895
8.584,0.9999986667772037,-93.89560877083858
8.592,0.999998792704231,-94.1787768915322
8.6,0.9999989174674213,-94.46193487734452
8.608,0.9999990410580967,-94.74508250432945
8.616,0.9999991634681118,-95.02821954932425
8.624,0.9999992846898555,-95.3113457899547
8.632,0.9999994047162442,-95.5944610046388
8.64,0.9999995235407213,-95.87756497259167
8.648,0.9999996411572546,-96.16065747382932
8.656,0.9999997575603321,-96.44373828917344
8.664,0.9999998727449599,-96.72680720025515
8.672,0.9999999867066589,-97.00986398951964
8.68,0.9999999999999999,-97.29290844022995
8.688,1.0,-97.5759403364715
8.696,1.0,-97.85895946315578
8.704,1.0,-98.14196560602491
8.712,1.0,-98.42495855165515
8.72,1.0,-98.70793808746143
8.728,0.9999999999999999,-98.99090400170087
8.736,1.0,-99.27385608347718
8.744,1.0,-99.5567941227441
8.752,0.9999999999999999,-99.83971791030972
8.76,0.9999999999999999,-100.12262723783995
8.768,1.0,-100.40552189786273
8.776,0.9999999999999999,-100.68840168377133
8.784,0.9999999999999999,-100.97126638982867
8.792,0.9999999999999999,-101.25411581117042
8.8,0.9999999999999999,-101.53694974380927
8.808,1.0,-101.81976798463806
8.815999999999999,1.0,-102.10257033143381
8.824,1.0,-102.38535658286112
8.832,1.0,-102.66812653847562
8.84,0.9999999999999999,-102.95087999872757
8.847999999999999,0.9999999999999998,-103.23361676496549
8.856,1.0,-103.51633663943946
8.864,1.0000000000000002,-103.7990394253044
8.872,0.9999999999999999,-104.08172492662365
8.879999999999999,1.0,-104.36439294837233
8.888,1.0,-104.64704329644054
8.896,0.9999999999999998,-104.92967577763659
8.904,0.9999999999999998,-105.21229019969029
8.911999999999999,1.0,-105.49488637125631
8.92,1.0,-105.7774641019172
8.928,1.0,-106.06002320218644
8.936,0.9999999999999999,-106.34256348351164
8.943999999999999,1.0,-106.62508475827768
8.952,1.0,-106.90758683980975
8.96,1.0,-107.19006954237611
8.968,1.0,-107.47253268119115
8.975999999999999,1.0,-107.75497607241864
8.984,1.0,-108.03739953317424
8.992,1.0,-108.31980288152836
9.0,1.0,-108.60218593650913
9.008,0.9999999999999999,-108.8845485181053
9.016,1.0,-109.16689044726883
9.024000000000001,1.0,-109.44921154591744
9.032,1.0,-109.73151163693755
9.04,0.9999999999999999,-110.01379054418697
9.048,0.9999999999999999,-110.29604809249737
9.056000000000001,0.9999999999999999,-110.57828410767677
9.064,0.9999999999999999,-110.8604984165122
9.072,1.0,-111.14269084677231
9.08,0.9999999999999999,-111.42486122720977
9.088000000000001,1.0,-111.70700938756349
9.096,0.9999999999999999,-111.98913515856125
9.104,1.0,-112.27123837192214
9.112,1.0,-112.55331886035874
9.120000000000001,0.9999999999999999,-112.83537645757934
9.128,1.0,-113.1174109982903
9.136,1.0,-113.39942231819843
9.144,0.9999999999999999,-113.68141025401299
9.152000000000001,0.9999999999999999,-113.96337464344779
9.16,1.0,-114.24531532522344
9.168,1.0,-114.52723213906948
9.176,0.9999999999999999,-114.8091249257264
9.184000000000001,0.9999999999999998,-115.09099352694746
9.192,1.0,-115.37283778550082
9.2,0.9999999999999999,-115.65465754517164
9.208,1.0,-115.93645265076385
9.216000000000001,1.0,-116.21822294810187
9.224,1.0,-116.49996828403258
9.232,1.0,-116.78168850642733
9.24,1.0,-117.06338346418347
9.248000000000001,1.0,-117.34505300722607
9.256,1.0,-117.62669698650964
9.264,0.9999999999999999,-117.90831525402007
9.272,1.0,-118.18990766277594
9.280000000000001,0.9999999999999999,-118.47147406683018
9.288,0.9999999999999999,-118.75301432127168
9.296,1.0,-119.03452828222692
9.304,1.0,-119.31601580686139
9.312000000000001,1.0,-119.59747675338087
9.32,0.9999999999999999,-119.8789109810331
9.328,1.0,-120.16031835010912
9.336,1.0,-120.44169872194465
9.344,0.9999999999999999,-120.72305195892118
9.352,1.0,-121.00437792446766
9.36,1.0,-121.28567648306131
9.368,1.0,-121.56694750022938
9.376,0.9999999999999999,-121.8481908425497
9.384,1.0,-122.12940637765244
9.392,1.0,-122.41059397422075
9.4,0.9999999999999998,-122.69175350199228
9.408,1.0,-122.97288483175974
9.416,1.0,-123.25398783537254
9.424,1.0,-123.53506238573705
9.432,1.0,-123.8161083568183
9.44,1.0,-124.09712562364025
9.448,1.0,-124.37811406228724
9.456,1.0,-124.65907354990425
9.464,0.9999999999999999,-124.94000396469839
9.472,1.0,-125.22090518593903
9.48,1.0,-125.50177709395919
9.488,1.0,-125.78261957015566
9.496,1.0,-126.06343249699022
9.504,0.9999999999999999,-126.34421575798982
9.512,1.0,-126.62496923774772
9.52,1.0,-126.90569282192358
9.528,1.0,-127.18638639724442
9.536,0.9999999999999999,-127.46704985150487
9.544,0.9999999999999999,-127.7476830735679
9.552,1.0,-128.02828595336499
9.56,1.0,-128.30885838189707
9.568,1.0,-128.58940025123422
9.576,1.0,-128.86991145451677
9.584,0.9999999999999999,-129.15039188595506
9.592,0.9999999999999999,-129.43084144083016
9.6,1.0,-129.71126001549376
9.608,1.0,-129.99164750736892
9.616,1.0,-130.27200381494978
9.624,1.0,-130.55232883780215
9.632,1.0,-130.8326224765632
9.64,1.0,-131.11288463294224
9.648,1.0,-131.39311520972015
9.656,1.0,-131.67331411074994
9.664,1.0,-131.95348124095645
9.672,1.0,-132.23361650633657
9.68,1.0,-132.51371981395906
9.688,0.9999999999999999,-132.7937910719647
9.696,1.0,-133.0738301895659
9.704,1.0,-133.353837077047
9.712,1.0,-133.63381164576353
9.72,1.0,-133.91375380814284
9.728,1.0,-134.193663477683
9.736,0.9999999999999999,-134.47354056895347
9.744,0.9999999999999999,-134.75338499759397
9.752,1.0000000000000002,-135.03319668031492
9.76,1.0,-135.31297553489665
9.768,1.0,-135.59272148018934
9.776,1.0,-135.8724344361124
9.784,1.0,-136.15211432365436
9.792,1.0,-136.4317610648721
9.8,0.9999999999999999,-136.71137458289073
9.808,1.0,-136.99095480190275
9.816,1.0,-137.27050164716806
9.824,1.0,-137.55001504501266
9.832,1.0,-137.82949492282896
9.84,0.9999999999999999,-138.10894120907435
9.847999999999999,0.9999999999999999,-138.38835383327122
9.856,0.9999999999999999,-138.66773272600605
9.864,1.0,-138.94707781892868
9.872,1.0,-139.22638904475156
9.879999999999999,1.0,-139.50566633724938
9.888,1.0,-139.784909631258
9.896,1.0,-140.0641188626737
9.904,1.0,-140.34329396845231
9.911999999999999,1.0,-140.62243488660877
9.92,1.0,-140.90154155621582
9.928,0.9999999999999999,-141.18061391740326
9.936,0.9999999999999999,-141.45965191135716
