freq,mag,phase
6.0,1.000039150658858,-29.585356009332866
6.013400576,1.000038598457527,-30.059135812589098
6.02680064,1.00003516371898,-30.532952608721
6.040201216,1.000030043106273,-31.006682947124354
6.05360128,1.000023285609879,-31.480414889189763
6.067001856,1.0000153231720499,-31.954067328490865
6.08040192,1.0000064562156445,-32.42767857284691
6.093802496,0.9999971699467765,-32.901206889731
6.10720256,0.9999878172888276,-33.37465031538456
6.120603136,0.9999788761669746,-33.84798059205099
6.1340032,0.9999706051348807,-34.32125485458496
6.147403776,0.9999634621020551,-34.79444803534687
6.16080384,0.9999580046604942,-35.26760885466021
6.174204416,0.9999542571599219,-35.74074058945197
6.18760448,0.9999523380532218,-36.21384242491445
6.201005056,0.9999525496916901,-36.686956380876815
6.21440512,0.9999547641912901,-37.160152026691996
6.227805696,0.9999586694408314,-37.63337091584209
6.241206272,0.9999647600021152,-38.106738658935555
6.254606336,0.9999720126329302,-38.58015098340802
6.268006912,0.999980789236193,-39.053710946984665
6.281406976,0.9999901068794282,-39.52747200038074
6.294807552,0.9999998324655375,-40.001338496221194
6.308207616,1.0000094135810595,-40.475322519173886
6.321608192,1.0000187148426316,-40.949443771161256
6.335008256,1.0000269634382681,-41.42373205252536
6.348408832,1.0000338792658776,-41.898157302489025
6.361808896,1.000039215422026,-42.372673297631664
6.375209472,1.000042586689543,-42.84726795454218
6.388609536,1.0000441420184973,-43.32193329974962
6.402010112,1.000043353104296,-43.79664099191573
6.415410176,1.000040558637577,-44.27134747469633
6.428810752,1.0000358547294266,-44.74602059702553
6.442210816,1.000029149953088,-45.22070534230859
6.455611392,1.0000213043577204,-45.695265083619496
6.469011968,1.0000119960754008,-46.1697947377677
6.482412032,1.0000021682931604,-46.64420658896698
6.495812608,0.9999919654159326,-47.118567361631094
6.509212672,0.9999820041447232,-47.59280452697462
6.522613248,0.9999726875092803,-48.06693678577231
6.536013312,0.9999644060565367,-48.54100386712198
6.549413888,0.9999577015622109,-49.01501513122426
6.562813952,0.999952606062264,-49.48897633978654
6.576214528,0.9999494921986731,-49.96292298806964
6.589614592,0.9999486051657908,-50.43690518326315
6.603015168,0.9999500328972464,-50.910871669219596
6.616415232,0.9999535616747937,-51.384894269709264
6.629815808,0.9999589787484097,-51.85904788597759
6.643215872,0.9999663004675884,-52.33326521842858
6.656616448,0.9999750350663655,-52.807604535504325
6.670016512,0.9999849450089452,-53.2820792614844
6.683417088,0.9999953831707155,-53.75672407426881
6.696817664,1.0000058442274846,-54.23155908367554
6.710217728,1.000016135684682,-54.70652159080605
6.723618304,1.0000255498689856,-55.18163029366309
6.737018368,1.0000337838816609,-55.65689607904398
6.750418944,1.0000403740359316,-56.13227077619992
6.763819008,1.0000450577175146,-56.607736467673796
6.777219584,1.0000476655870232,-57.08324728932882
6.790619648,1.0000479927754797,-57.55887901590172
6.804020224,1.0000459711582217,-58.03448592742677
6.817420288,1.000041749863072,-58.51010950303837
6.830820864,1.0000355492379631,-58.98567321229159
6.844220928,1.0000274128684397,-59.46122668698369
6.857621504,1.000018134830229,-59.93663838538779
6.871021568,1.0000077128835616,-60.41198569182261
6.884422144,0.999996854654163,-60.88725591305194
6.897822208,0.999985822498232,-61.36240199715986
6.911222784,0.9999753038606387,-61.837450439563675
6.92462336,0.9999659153599401,-62.3123911523477
6.938023424,0.9999578815833996,-62.78725536148888
6.951424,0.9999514811223328,-63.262069247086664
6.964824064,0.9999472943369476,-63.7368323759345
6.97822464,0.9999452417123796,-64.21158952982407
6.991624704,0.9999456568550252,-64.68636221305464
7.00502528,0.9999482569301402,-65.1611998784439
7.018425344,0.9999532266561274,-65.63609651829272
7.03182592,0.9999601454685396,-66.11109786362499
7.045225984,0.9999689426739206,-66.58621578076736
7.05862656,0.9999790342458806,-67.06151469228104
7.072026624,0.9999899866728311,-67.53691881865238
7.0854272,1.000001364328755,-68.0125200929275
7.098827264,1.00001263645461,-68.48828324858577
7.11222784,1.000023335150919,-68.96421813319095
7.125627904,1.0000329517754865,-69.44025441875564
7.13902848,1.0000408253797748,-69.91647877089855
7.152429056,1.0000469249634611,-70.39279351335702
7.16582912,1.000050799512988,-70.86923317777924
7.179229696,1.000052247907079,-71.3456971790866
7.19262976,1.0000511393680127,-71.82223708026454
7.206030336,1.0000477738739795,-72.29874186712753
7.2194304,1.000041968539847,-72.77523390136355
7.232830976,1.0000342736463679,-73.25168063706647
7.24623104,1.0000247390346022,-73.7280565358849
7.259631616,1.0000140152288919,-74.2043105276423
7.27303168,1.0000023891590704,-74.68047188032803
7.286432256,0.999990614761275,-75.15651081826714
7.29983232,0.9999790144454567,-75.6324738234652
7.313232896,0.9999682778690444,-76.10828407223138
7.32663296,0.9999587025679956,-76.58401935278671
7.340033536,0.999951093892444,-77.05964032114557
7.3534336,0.9999453504377057,-77.53525495854697
7.366834176,0.9999420268492749,-78.01081018944585
7.380234752,0.99994131660856,-78.48637791400724
7.393634816,0.9999429202682795,-78.96200717209722
7.407035392,0.9999472683389423,-79.43766130655574
7.420435456,0.9999537149471118,-79.91340749994308
7.433836032,0.9999624080444485,-80.38928255647413
7.447236096,0.9999725717530733,-80.86529274229025
7.460636672,0.9999841064371772,-81.34148630264548
7.474036736,0.9999961535646167,-81.81783972048672
7.487437312,1.0000084107245693,-82.29436838687556
7.500837376,1.0000203443145033,-82.77105908667495
7.514237952,1.0000312625658407,-83.24794126943353
7.527638016,1.0000405904811434,-83.72496011327148
7.541038592,1.0000481188383157,-84.20213898979108
7.554438656,1.0000534018174172,-84.67939453299074
7.567839232,1.000056250599907,-85.15675763524338
7.581239296,1.0000563389369728,-85.63414762208254
7.594639872,1.0000537875654216,-86.11156688610788
7.608040448,1.0000488346357441,-86.58895772794406
7.621440512,1.0000414229471046,-87.06628114183346
7.634841088,1.0000318925854577,-87.54356699576707
7.648241152,1.0000208889730189,-88.02075280232201
7.661641728,1.000008823235215,-88.49780390525227
7.675041792,0.9999961780705049,-88.97475537559151
7.688442368,0.9999835256531999,-89.45155271009152
7.701842432,0.9999715176972717,-89.92827262772643
7.715243008,0.9999605247979726,-90.4048059996106
7.728643072,0.9999512842152346,-90.88132950509159
7.742043648,0.9999440794470206,-91.35769314455693
7.755443712,0.9999393528763516,-91.83408710717279
7.768844288,0.9999371548259199,-92.31041636872112
7.782244352,0.9999378748704,-92.78677353940029
7.795644928,0.999941170700483,-93.26318469492668
7.809044992,0.9999470769984811,-93.73968269242668
7.822445568,0.9999554112580309,-94.21625894693297
7.835846144,0.9999657140133446,-94.6930101818891
7.849246208,0.9999774925891769,-95.16990393852531
7.862646784,0.9999903071652494,-95.6469872831417
7.876046848,1.0000034915203868,-96.12423887067422
7.889447424,1.0000164363481536,-96.60170483635092
7.902847488,1.0000287341830802,-97.07934910982435
7.916248064,1.00003964721334,-97.55716077824536
7.929648128,1.0000487762774188,-98.03512586803639
7.943048704,1.0000555571637277,-98.51319629320709
7.956448768,1.0000598227702657,-98.99137178724196
7.969849344,1.000061226086042,-99.46963421078065
7.983249408,1.0000598152343219,-99.94788313237446
7.996649984,1.0000556588938585,-100.42615781244707
8.010050048,1.000048777228162,-100.90438767887704
8.023450624,1.0000395593376514,-101.38255133918646
8.036850688,1.000028526306362,-101.86061785409275
8.050251264,1.0000159551229282,-102.33856152150678
8.06365184,1.0000025533566221,-102.81637733634496
8.077051904,0.9999888392101532,-103.2940595870865
8.09045248,0.9999754698786818,-103.7715642869679
8.103852544,0.9999631498236482,-104.24898859923879
8.11725312,0.9999522955152298,-104.72627358939815
8.130653184,0.9999435012291078,-105.20347026990413
8.14405376,0.9999371731599116,-105.68058489065534
8.157453824,0.999933512071851,-106.15768052244697
8.1708544,0.9999328212285996,-106.63476159003662
8.184254464,0.999935078595548,-107.11188768136054
8.19765504,0.9999402565279488,-107.58907787870972
8.211055104,0.9999480688478499,-108.06637067812586
8.22445568,0.9999581443233609,-108.54379813635654
8.237855744,0.9999701695085633,-109.02136873316384
8.25125632,0.9999835025309184,-109.49915082407206
8.264656384,0.9999975325466158,-109.9771033142032
8.27805696,1.000011733408655,-110.45526233250393
8.291457536,1.0000252795163154,-110.93364641735441
8.3048576,1.000037737757129,-111.41219190096012
8.318258176,1.0000484795751423,-111.89089663219451
8.33165824,1.0000569316558425,-112.36973243545032
8.345058816,1.0000628863601362,-112.84870742426592
8.35845888,1.0000658625518382,-113.32776810454952
8.371859456,1.0000657221668614,-113.80688596205336
8.38525952,1.000062560467711,-114.28599058327197
8.398660096,1.0000564460375294,-114.76507103797573
8.41206016,1.0000477040538258,-115.24407690283978
8.425460736,1.0000366511448797,-115.72300755710029
8.4388608,1.0000237902160556,-116.20180683374149
8.452261376,1.0000097476802168,-116.68048170511092
8.46566144,0.9999951128026515,-117.15898903640124
8.479062016,0.9999804277312406,-117.63735633251594
8.49246208,0.9999666443966593,-118.11555131284732
8.505862656,0.9999541910507196,-118.59361572472429
8.519263232,0.9999436836768724,-119.07160070480266
8.532663296,0.9999355783255717,-119.54944047145479
8.546063872,0.9999302891394707,-120.02724584820581
8.559463936,0.9999281025599926,-120.50504792812615
8.572864512,0.9999290583857269,-120.9828125239472
8.586264576,0.9999331564446722,-121.46070014808039
8.59966464,0.9999403268568554,-121.93864355310315
8.613065728,0.999950080249069,-122.41669459021062
8.626465792,0.9999621335068165,-122.89491567935926
8.639865856,0.9999758439242983,-123.37332328053479
8.65326592,0.9999905589496979,-123.85195220690471
8.666667008,1.000005889615349,-124.33075034555267
8.680067072,1.0000208394384422,-124.80978075895185
8.693467136,1.0000348746562782,-125.28900735920492
8.7068672,1.0000473351441008,-125.7684456334723
8.720268288,1.0000575488677084,-126.24800722784597
8.733668352,1.0000652342916034,-126.72773092237435
8.747068416,1.0000698542590434,-127.20755646803178
8.760469504,1.0000712892501722,-127.68744758140542
8.773869568,1.0000693387439064,-128.1673533048123
8.787269632,1.0000642875057806,-128.6472167132081
8.800669696,1.0000561587769405,-129.1270567238279
8.814070784,1.0000453069236093,-129.60679694030455
8.827470848,1.000032354232527,-130.08642972034767
8.840870912,1.000017796430749,-130.56590692142578
8.854270976,1.0000022386405216,-131.0452356528575
8.867672064,0.9999864541262812,-131.52438126193974
8.881072128,0.9999711420382228,-132.00336061199442
8.894472192,0.9999570576617114,-132.48217719454894
8.907872256,0.9999446738248088,-132.9608759142665
8.921273344,0.9999347221762925,-133.43944550629067
8.934673408,0.9999277374715064,-133.91792619929222
8.948073472,0.9999237230066633,-134.39637371750777
8.961473536,0.999923218168253,-134.87480516148977
8.974874624,0.9999261398013503,-135.35326820473867
8.988274688,0.9999323094634484,-135.83183733644958
9.001674752,0.9999414678502369,-136.31049575602424
9.01507584,0.9999533924164923,-136.7893189326829
9.028475904,0.999967345677218,-137.26831154396513
9.041875968,0.9999827698245056,-137.74749376117848
9.055276032,0.9999990592346373,-138.22691609980296
9.06867712,1.00001532256843,-138.7065419306203
9.082077184,1.0000309298329875,-139.18639577553736
9.095477248,1.0000452057506255,-139.6664649461275
9.108877312,1.0000573101985637,-140.1467219726397
9.1222784,1.0000669062769052,-140.62712601108902
9.135678464,1.0000733564881783,-141.10765076386446
9.149078528,1.000076567224189,-141.58823589530135
9.162478592,1.0000761510115734,-142.06890097117335
9.17587968,1.0000722420609003,-142.5495771589348
9.189279744,1.000064940068086,-143.03018312471033
9.202679808,1.0000545965937575,-143.51070554452485
9.216080896,1.0000416801763596,-143.99108519837017
9.22948096,1.0000267086821188,-144.47133696793608
9.242881024,1.0000104378184582,-144.95142573385814
9.256281088,0.9999935411799947,-145.43133756247087
9.269682176,0.9999767933385841,-145.9110657322267
9.28308224,0.999960910019936,-146.39060007333393
9.296482304,0.9999467216459105,-146.8699866830466
9.309882368,0.999934832421396,-147.34921624131394
9.323283456,0.9999257196559452,-147.82834661652606
9.33668352,0.9999199574942395,-148.3074089691162
9.350083584,0.9999176339831104,-148.78642792130776
9.363483648,0.999919065444478,-149.26546709318717
9.376884736,0.999924117015681,-149.7445693158399
9.3902848,0.9999325351432534,-150.22377111249526
9.403684864,0.9999440569903378,-150.7031262603662
9.417084928,0.9999580809594746,-151.18262099309734
9.430486016,0.9999740776801133,-151.66233459950436
9.44388608,0.9999911429373523,-152.14229036611422
9.457286144,1.0000088581397748,-152.62247560806418
9.470687232,1.0000259790209236,-153.10288744793752
9.484087296,1.0000419620907377,-153.58353608917773
9.49748736,1.000056187914113,-154.06437947564544
9.510887424,1.0000678175905378,-154.54540761971217
9.524288512,1.0000763731344378,-155.02658262188126
9.537688576,1.0000814644040663,-155.50786124413145
9.55108864,1.000082736532855,-155.9891840917497
9.564488704,1.0000802897155927,-156.47053841432228
9.577889792,1.0000740443305087,-156.9518812786664
9.591289856,1.0000643858273577,-157.43312813608043
9.60468992,1.0000517587315088,-157.91426824805
9.618089984,1.0000367028695185,-158.39524652326443
9.631491072,1.0000196986507663,-158.87606673893134
9.644891136,1.0000017261975218,-159.3566841600111
9.6582912,0.9999835418504136,-159.837111739226
9.671692288,0.9999660427851264,-160.31731839499085
9.685092352,0.9999497743331167,-160.79734606193696
9.698492416,0.9999357742789864,-161.2772194701882
9.71189248,0.9999246082021107,-161.75693599592577
9.725293568,0.9999167016811,-162.23657188841622
9.738693632,0.9999125426219319,-162.7161295679361
9.752093696,0.9999121514722099,-163.1956987666273
9.76549376,0.9999158533821957,-163.67528267433826
9.778894848,0.999923237756354,-164.15496955550282
9.792294912,0.9999341433832881,-164.634780781001
9.805694976,0.9999480729750363,-165.11475931810975
9.81909504,0.9999643646042056,-165.5949358128397
9.832496128,0.9999822806433271,-166.07534888585505
9.845896192,1.000000996069931,-166.5559906741801
9.859296256,1.0000197904631924,-167.03690293382522
9.87269632,1.0000376517985554,-167.51803575838298
9.886097408,1.0000538760154865,-167.99939698143282
9.899497472,1.0000677417132848,-168.4809834999819
9.912897536,1.000078427359389,-168.96273178544652
9.926298624,1.0000856719252813,-169.44459947979632
9.939698688,1.0000889590053839,-169.9265780813955
9.953098752,1.0000882102639626,-170.40856925843838
9.966498816,1.0000833694822733,-170.8905733940503
9.979899904,1.0000746153683377,-171.3724998340467
9.993299968,1.0000625363127107,-171.85431060906174
10.006700032,1.0000473764339866,-172.33597277311657
10.020100096,1.000029954279101,-172.81748043229655
10.033501184,1.0000111009819304,-173.29875657560237
10.046901248,0.9999915244716882,-173.77982342585406
10.060301312,0.9999722398562665,-174.26066743202438
10.073701376,0.9999540305646503,-174.74129714765712
10.087102464,0.9999378699165529,-175.2217534244853
10.100502528,0.9999243082845299,-175.70200218092936
10.113902592,0.9999141240608151,-176.18215080256857
10.12730368,0.9999077687095319,-176.66221484536416
10.140703744,0.9999054421538834,-177.14223002357159
10.154103808,0.999907401163282,-177.62225971256473
10.167503872,0.9999135876295471,-178.1023509418219
10.18090496,0.9999235496333212,-178.5825528224843
10.194305024,0.9999371538160629,-179.06293345333748
10.207705088,0.9999534780779321,-179.5434952084179
10.221105152,0.9999720757100357,179.97570556362152
10.23450624,0.9999919831648315,179.49467471411918
10.247906304,1.0000122423582474,179.01337397633225
10.261306368,1.0000320214148135,178.53178839584905
10.274706432,1.0000504413250668,178.04998763231663
10.28810752,1.0000665436258163,177.56792385566334
10.301507584,1.0000798144151684,177.08567706814688
10.314907648,1.0000893381948075,176.60325932001285
10.328307712,1.0000948243497307,176.12074745649184
10.3417088,1.0000960353032624,175.63818387738885
10.355108864,1.0000928046543702,175.15558141021202
10.368508928,1.0000854394849505,174.67305738147027
10.381910016,1.000073966999699,174.19060835047003
10.39531008,1.000059083932019,173.70831681394014
10.408710144,1.0000414017420982,173.22619421407262
10.422110208,1.0000217182793192,172.74429858675538
10.435511296,1.0000009625558457,172.26261724031866
10.44891136,0.9999798612309694,171.78119634240542
10.462311424,0.99995965090056,171.2999932914007
10.475711488,0.999941145655149,170.81903912761214
10.489112576,0.9999251917841745,170.33826661081926
10.50251264,0.9999124728756982,169.8576541797739
10.515912704,0.9999036134579328,169.37716529620928
10.529312768,0.9998991072363874,168.89677258999242
10.542713856,0.9998990889940141,168.41634944904993
10.55611392,0.9999036470543996,167.93589910849795
10.569513984,0.9999126386875533,167.45538883481876
10.582915072,0.9999254333206102,166.97469830349422
10.596315136,0.9999417271373158,166.49383423344528
10.6097152,0.9999608248297781,166.012721524289
10.623115264,0.9999816082720098,165.53137293696224
10.636516352,1.000003340271257,165.04974133945956
10.649916416,1.00002507725167,164.56782581764486
10.66331648,1.0000456346147861,164.0856462695746
10.676716544,1.0000642865366063,163.60318813972057
10.690117632,1.0000799536956857,163.12053799163863
10.703517696,1.0000921352190018,162.6376752529712
10.71691776,1.0001001944858747,162.15468150776
10.730317824,1.0001036275547015,161.67159378062337
10.743718912,1.000102368849338,161.18848602158428
10.757118976,1.000096386690358,160.70539750924394
10.77051904,1.000086007431869,160.2223863255217
10.783919104,1.0000716322789267,159.73952273753463
10.797320192,1.0000538780023127,159.25683789302352
10.810720256,1.00003354930057,158.77437992228536
10.82412032,1.0000115695528753,158.2921487857002
10.837521408,0.9999889721358151,157.81019329611536
10.850921472,0.9999666194920728,157.32849446405802
10.864321536,0.9999457634924048,156.84704447793308
10.8777216,0.9999271606644682,156.36585173011227
10.891122688,0.9999117926791256,155.88482927974215
10.904522752,0.9999002460445721,155.40395571810876
10.917922816,0.9998931701252766,154.9232122813989
10.93132288,0.9998908371991087,154.44250093492406
10.944723968,0.9998935170137838,153.96178536148088
10.958124032,0.9999010437789055,153.48098244922627
10.971524096,0.9999130219235086,153.00007739368488
10.98492416,0.99992898888465,152.51898120325322
10.998325248,0.9999482141059761,152.03766005595014
11.011725312,0.9999698876748101,151.55606013031826
11.025125376,0.9999930020482247,151.0741987982781
11.038526464,1.0000164475226103,150.5920238305714
11.051926528,1.0000393368864993,150.10956401387838
11.065326592,1.0000605521047665,149.6268194568488
11.078726656,1.000079098988832,149.14382222384396
11.092127744,1.00009398784499,148.6605733400679
11.105527808,1.0001047691772684,148.17718969683958
11.118927872,1.0001107706770094,147.69367275010592
11.132327936,1.0001118338174368,147.2101149416215
11.145729024,1.0001076637517068,146.72654016654732
11.159129088,1.0000985876319586,146.24304563743155
11.172529152,1.00008507539988,145.75967530431606
11.185929216,1.0000675338048768,145.27646455010014
11.199330304,1.0000467343321378,144.79349471969488
11.212730368,1.0000237230417617,144.31076976140528
11.226130432,0.9999994000384967,143.82832384805465
11.239530496,0.9999751863809231,143.34617374898926
11.252931584,0.9999517747904638,142.86430816380272
11.266331648,0.9999304703293699,142.38270541137564
11.279731712,0.9999121739602174,141.90133227167533
11.2931328,0.9998976532597641,141.4201680481911
11.306532864,0.9998878135621949,140.9391248555985
11.319932928,0.9998829711330144,140.45816622720284
11.333332992,0.9998833236374569,139.9772497663252
