freq,mag,phase
6.0,0.9999954197787535,105.27363854314918
6.008,0.9999971114290661,105.16720834727033
6.016,0.9999987775848268,105.06075177584863
6.024,1.0,104.9542688144073
6.032,1.0,104.84775944850857
6.04,0.9999999999999999,104.74122366375393
6.048,0.9999999999999999,104.6346614457843
6.056,0.9999999999999999,104.52807278028043
6.064,0.9999999999999999,104.42145765296299
6.072,1.0,104.31481604959289
6.08,0.9999999999999999,104.20814795597161
6.088,0.9999999999999999,104.10145335794128
6.096,1.0,103.99473224138511
6.104,1.0,103.88798459222751
6.112,1.0,103.78121039643437
6.12,1.0,103.67440964001342
6.128,1.0,103.56758230901431
6.136,1.0,103.46072838952897
6.144,1.0000000000000002,103.35384786769187
6.152,1.0,103.24694072968018
6.16,0.9999999999999999,103.14000696171412
6.168,1.0,103.0330465500572
6.176,1.0,102.92605948101635
6.184,1.0,102.8190457409424
6.192,1.0,102.71200531623009
6.2,1.0,102.60493819331852
6.208,0.9999999999999999,102.49784435869124
6.216,1.0,102.3907237988766
6.224,0.9999999999999999,102.28357650044805
6.232,1.0,102.17640245002423
6.24,1.0,102.06920163426935
6.248,0.9999999999999999,101.96197403989343
6.256,0.9999999999999999,101.85471965365252
6.264,1.0,101.74743846234895
6.272,0.9999999999999999,101.64013045283161
6.28,1.0,101.53279561199624
6.288,0.9999999999999999,101.42543392678554
6.296,0.9999999999999998,101.31804538418957
6.304,1.0,101.21062997124596
6.312,0.9999999999999999,101.10318767504019
6.32,0.9999999999999999,100.99571848270568
6.328,1.0,100.88822238142433
6.336,0.9999999999999999,100.78069935842646
6.344,0.9999999999999999,100.67314940099136
6.352,1.0,100.5655724964473
6.36,0.9999999999999999,100.45796863217195
6.368,1.0,100.35033779559257
6.376,0.9999999999999999,100.24267997418617
6.384,1.0,100.13499515547994
6.392,0.9999999999999999,100.02728332705142
6.4,1.0,99.91954447652874
6.408,0.9999999999999999,99.81177859159088
6.416,1.0,99.70398565996791
6.424,1.0,99.5961656694413
6.432,0.9999999999999999,99.48831860784415
6.44,0.9999999999999998,99.3804444630614
6.448,1.0,99.2725432230301
6.456,0.9999999999999999,99.16461487573972
6.464,0.9999999999999999,99.05665940923232
6.472,0.9999999999999999,98.948676811603
6.48,0.9999999999999999,98.84066707099974
6.4879999999999995,1.0,98.73263017562414
6.496,0.9999999999999999,98.62456611373128
6.504,1.0,98.51647487363033
6.5120000000000005,1.0,98.40835644368443
6.52,0.9999999999999999,98.3002108123113
6.5280000000000005,0.9999999999999999,98.1920379679832
6.536,1.0,98.08383789922733
6.5440000000000005,1.0,97.97561059462613
6.552,1.0,97.86735604281742
6.5600000000000005,0.9999999999999999,97.75907423249467
6.568,1.0,97.65076515240735
6.5760000000000005,1.0,97.54242879136108
6.584,1.0,97.43406513821796
6.592,1.0,97.3256741818967
6.6,1.0,97.21725591137309
6.608,0.9999999999999999,97.10881031568003
6.616,1.0,97.00033738390788
6.624,1.0,96.89183710520476
6.632,0.9999999999999999,96.78330946877675
6.64,0.9999999999999999,96.6747544638881
6.648,1.0,96.5661720798616
6.656,0.9999999999999999,96.45756230607873
6.664,0.9999999999999999,96.34892513197993
6.672,1.0,96.24026054706492
6.68,0.9999999999999999,96.13156854089294
6.688,1.0,96.02284910308288
6.696,1.0,95.9141022233137
6.704,1.0,95.80532789132455
6.712,1.0,95.69652609691516
6.72,1.0,95.58769682994594
6.728,1.0,95.47884008033841
6.736,0.9999999999999999,95.36995583807521
6.744,0.9999999999999999,95.26104409320064
6.752,1.0,95.15210483582072
6.76,1.0,95.04313805610346
6.768,1.0,94.93414374427918
6.776,0.9999999999999999,94.82512189064076
6.784,0.9999999999999999,94.71607248554383
6.792,0.9999999999999999,94.60699551940704
6.8,1.0,94.4978909827124
6.808,1.0,94.38875886600538
6.816,0.9999999999999999,94.27959915989535
6.824,0.9999999999999999,94.17041185505563
6.832,0.9999999999999999,94.06119694222393
6.84,1.0,93.95195441220241
6.848,1.0,93.8426842558582
6.856,1.0,93.73338646412336
6.864,1.0,93.62406102799532
6.872,1.0,93.51470793853706
6.88,1.0,93.40532718687741
6.888,1.0,93.2959187642113
6.896,0.9999999999999999,93.18648266179989
6.904,0.9999999999999999,93.077018870971
6.912,1.0,92.96752738311929
6.92,1.0,92.85800818970647
6.928,1.0,92.74846128226163
6.936,0.9999999999999999,92.63888665238137
6.944,0.9999999999999999,92.52928429173026
6.952,0.9999999999999999,92.41965419204084
6.96,1.0,92.3099963451141
6.968,1.0,92.20031074281961
6.976,0.9999999999999999,92.09059737709572
6.984,1.0,91.98085623994996
6.992,1.0,91.87108732345921
7.0,0.9999999999999999,91.76129061976998
7.008,0.9999999999999999,91.6514661210986
7.016,0.9999999999999999,91.5416138197315
7.024,1.0,91.43173370802555
7.032,1.0,91.3218257784082
7.04,0.9999999999999999,91.21189002337775
7.048,0.9999999999999999,91.10192643550364
7.056,1.0,90.99193500742679
7.064,1.0,90.88191573185955
7.072,0.9999999999999999,90.7718686015863
7.08,0.9999999999999999,90.6617936094635
7.088,1.0,90.55169074842
7.096,1.0,90.4415600114573
7.104,0.9999999999999999,90.33140139164978
7.112,1.0,90.2212148821449
7.12,0.9999999999999999,90.11100047616365
7.128,1.0,90.00075816700054
7.136,1.0,89.89048794802405
7.144,0.9999999999999999,89.78018981267671
7.152,1.0,89.66986375447561
7.16,1.0,89.55950976701233
7.168,1.0,89.44912784395345
7.176,0.9999999999999999,89.33871797904065
7.184,1.0,89.22828016609105
7.192,1.0,89.11781439899747
7.2,1.0,89.00732067172854
7.208,1.0,88.89679897832914
7.216,0.9999999999999999,88.7862493129205
7.224,1.0,88.67567166970059
7.232,1.0,88.56506604294427
7.24,1.0,88.45443242700352
7.248,0.9999999999999999,88.34377081630781
7.256,1.0,88.23308120536427
7.264,0.9999999999999999,88.12236358875793
7.272,1.0,88.01161796115206
7.28,1.0,87.90084431728829
7.288,1.0,87.79004265198698
7.296,0.9999999999999999,87.67921296014745
7.304,1.0,87.56835523674818
7.312,1.0,87.45746947684708
7.32,1.0,87.3465556755818
7.328,1.0,87.23561382816995
7.336,1.0,87.12464392990925
7.344,1.0,87.01364597617801
7.352,1.0,86.9026199624352
7.36,1.0,86.79156588422067
7.368,0.9999999999999999,86.68048373715567
7.376,1.0,86.56937351694275
7.384,0.9999999999999999,86.4582352193663
7.392,1.0,86.34706884029265
7.4,1.0,86.2358743756704
7.4079999999999995,1.0,86.12465182153062
7.416,1.0,86.01340117398712
7.4239999999999995,1.0,85.90212242923675
7.432,1.0,85.79081558355962
7.4399999999999995,1.0,85.67948063331936
7.448,0.9999999999999999,85.5681175749633
7.4559999999999995,1.0,85.45672640502295
7.464,0.9999999999999999,85.34530712011399
7.4719999999999995,1.0,85.23385971693673
7.48,1.0,85.1223841922762
7.4879999999999995,0.9999999999999999,85.0108805430026
7.496,0.9999999999999999,84.89934876607134
7.504,1.0,84.78778885852358
7.5120000000000005,1.0,84.67620081748616
7.52,1.0,84.56458464017214
7.5280000000000005,1.0,84.45294032388085
7.536,0.9999999999999999,84.34126786599839
7.5440000000000005,1.0,84.2295672639976
7.552,1.0,84.1178385154386
7.5600000000000005,0.9999999999999999,84.00608161796883
7.568,0.9999999999999999,83.89429656932354
7.5760000000000005,0.9999999999999999,83.78248336732581
7.584,1.0,83.67064200988702
7.5920000000000005,0.9999999999999999,83.55877249500693
7.6,0.9999999999999999,83.44687482077421
7.6080000000000005,0.9999999999999998,83.33494898536642
7.616,0.9999999999999998,83.22299498705046
7.6240000000000006,0.9999999999999999,83.11101282418277
7.632,1.0,82.99900249520964
7.640000000000001,1.0000000000000002,82.88696399866745
7.648,1.0,82.774897333183
7.656000000000001,1.0,82.66280249747366
7.664,1.0,82.5506794903478
7.672,1.0,82.43852831070494
7.68,1.0,82.32634895753611
7.688,0.9999999999999999,82.21414142992414
7.696,1.0,82.10190572704379
7.704,1.0,81.98964184816224
7.712,0.9999999999999999,81.87734979263925
7.72,0.9999999999999999,81.76502955992744
7.728,1.0,81.65268114957269
7.736,0.9999999999999999,81.54030456121421
7.744,0.9999999999999999,81.42789979458512
7.752,1.0,81.31546684951243
7.76,1.0,81.2030057259176
7.768,0.9999999999999999,81.09051642381674
7.776,0.9999999999999998,80.97799894332076
7.784,1.0,80.86545328463592
7.792,1.0,80.75287944806396
7.8,1.0,80.64027743400246
7.808,1.0,80.52764724294514
7.816,0.9999999999999999,80.41498887548218
7.824,0.9999999999999999,80.30230233230047
7.832,1.0,80.18958761418403
7.84,0.9999999999999999,80.07684472201421
7.848,0.9999999999999999,79.9640736567701
7.856,0.9999999999999999,79.85127441952879
7.864,0.9999999999999998,79.73844701146571
7.872,0.9999999999999999,79.62559143385498
7.88,0.9999999999999998,79.5127076880697
7.888,1.0,79.3997957755823
7.896,1.0,79.28685569796492
7.904,0.9999999999999999,79.17388745688964
7.912,1.0,79.06089105412897
7.92,0.9999999999999999,78.94786649155603
7.928,1.0,78.83481377114506
7.936,1.0,78.72173289497165
7.944,1.0,78.60862386521318
7.952,0.9999999999999999,78.49548668414913
7.96,1.0,78.38232135416149
7.968,1.0,78.26912787773509
7.976,0.9999999999999999,78.15590625745801
7.984,1.0,78.0426564960219
7.992,1.0,77.92937859622249
8.0,1.0,77.81607256095984
8.008,0.9999999999999998,77.70273839323883
8.016,1.0,77.58937609616946
8.024000000000001,1.0,77.47598567296744
8.032,1.0000000000000002,77.36256712695442
8.04,1.0,77.24912046155848
8.048,0.999999568709386,77.13564568031452
8.056000000000001,0.99999910428387,77.02214278686485
8.064,0.9999986428229946,76.90861178495936
8.072,0.999998184378468,76.7950526784562
8.08,0.9999977290017402,76.68146547132208
8.088000000000001,0.9999972767440062,76.56785016763287
8.096,0.9999968276562116,76.45420677157394
8.104,0.9999963817890554,76.34053528744067
8.112,0.9999959391929956,76.22683571963897
8.120000000000001,0.9999954999182515,76.11310807268576
8.128,0.99999506401481,75.99935235120948
8.136,0.999994631532428,75.88556855995054
8.144,0.999994202520637,75.77175670376187
8.152000000000001,0.9999937770287483,75.65791678760952
8.16,0.999993355105856,75.54404881657312
8.168,0.9999929368008419,75.43015279584642
8.176,0.9999925221623795,75.31622873073786
8.184000000000001,0.9999921112389383,75.20227662667119
8.192,0.9999917040787883,75.08829648918605
8.2,0.999991300730003,74.97428832393842
8.208,0.9999909012404656,74.86025213670143
8.216000000000001,0.9999905056578714,74.74618793336582
8.224,0.9999901140297326,74.63209571994072
8.232,0.9999897264033829,74.51797550255405
8.24,0.9999893428259808,74.40382728745344
8.248000000000001,0.9999889633445149,74.28965108100674
8.256,0.9999885880058058,74.17544688970273
8.264,0.9999882168565124,74.0612147201519
8.272,0.9999878499431344,73.94695457908699
8.280000000000001,0.9999874873120169,73.8326664733639
8.288,0.999987129009354,73.71835040996235
8.296,0.9999867750811926,73.60400639598663
8.304,0.9999864255734358,73.48963443866636
8.312,0.9999860805318465,73.37523454535742
8.32,0.9999857400020516,73.26080672354247
8.328,0.9999854040295453,73.14635098083218
8.336,0.9999850726596907,73.03186732496572
8.344,0.9999847459377256,72.91735576381186
8.352,0.9999844239087634,72.80281630536967
8.36,0.9999841066177975,72.68824895776966
8.368,0.9999837941097028,72.57365372927443
8.376,0.9999834864292387,72.45903062827986
8.384,0.999983183621053,72.34437966331595
8.392,0.9999828857296807,72.22970084304788
8.4,0.9999825927995497,72.11499417627694
8.408,0.9999823048749803,72.00025967194165
8.416,0.9999820220001875,71.88549733911879
8.424,0.9999817442192818,71.77070718702447
8.432,0.9999814715762714,71.65588922501534
8.44,0.9999812041150612,71.54104346258956
8.448,0.9999809418794551,71.4261699093881
8.456,0.9999806849131542,71.31126857519588
8.464,0.9999804332597583,71.19633946994297
8.472,0.9999801869627644,71.08138260370592
8.48,0.9999799460655654,70.96639798670887
8.488,0.9999797106114494,70.85138562932508
8.496,0.9999794806435975,70.736345542078
8.504,0.9999792562050811,70.62127773564286
8.512,0.9999790373388603,70.5061822208479
8.52,0.9999788240877786,70.39105900867591
8.528,0.9999786164945607,70.27590811026552
8.536,0.9999784146018076,70.16072953691294
8.544,0.9999782184519903,70.04552330007314
8.552,0.9999780280874461,69.93028941136174
8.56,0.9999778435503702,69.81502788255628
8.568,0.9999776648828095,69.69973872559808
8.576,0.9999774921266552,69.58442195259367
8.584,0.9999773253236319,69.46907757581664
8.592,0.9999771645152902,69.3537056077092
8.6,0.9999770097429956,69.23830606088409
8.608,0.9999768610479158,69.12287894812609
8.616,0.9999767184710107,69.00742428239414
8.624,0.9999765820530154,68.89194207682294
8.632,0.9999764518344298,68.77643234472488
8.64,0.9999763278554994,68.66089509959197
8.648,0.9999762101561998,68.54533035509775
8.656,0.9999760987762187,68.42973812509918
8.664,0.9999759937549364,68.3141184236388
8.672,0.9999758951314044,68.19847126494655
8.68,0.999975802944323,68.0827966634419
8.688,0.9999757172320184,67.96709463373593
8.696,0.999975638032416,67.8513651906334
8.704,0.9999755653830149,67.73560834913481
8.712,0.9999754993208575,67.61982412443868
8.72,0.9999754398825008,67.5040125319435
8.728,0.9999753871039817,67.38817358725014
8.736,0.9999753410207851,67.27230730616373
8.744,0.9999753016678047,67.15641370469619
8.752,0.9999752690793083,67.04049279906813
8.76,0.9999752432888932,66.92454460571129
8.768,0.9999752243294463,66.80856914127055
8.776,0.9999752122330959,66.69256642260636
8.784,0.9999752070311678,66.5765364667967
8.792,0.9999752087541309,66.46047929113946
8.8,0.9999752174315485,66.34439491315447
8.808,0.9999752330920176,66.22828335058577
8.815999999999999,0.9999752557631164,66.1121446214036
8.824,0.9999752854713395,65.9959787438066
8.832,0.9999753222420327,65.87978573622385
8.84,0.9999753660993294,65.76356561731676
8.847999999999999,0.999975417066077,65.64731840598114
8.856,0.9999754751637651,65.53104412134898
8.864,0.9999755404124477,65.41474278279036
8.872,0.999975612830663,65.29841440991508
8.879999999999999,0.9999756924353496,65.18205902257438
8.888,0.9999757792417592,65.0656766408623
8.896,0.9999758732633658,64.94926728511737
8.904,0.9999759745117706,64.83283097592373
8.911999999999999,0.9999760829966037,64.71636773411221
8.92,0.9999761987254222,64.59987758076153
8.928,0.999976321703604,64.48336053719902
8.936,0.9999764519342378,64.36681662500135
8.943999999999999,0.9999765894180096,64.2502458659949
8.952,0.9999767341530837,64.13364828225606
8.96,0.9999768861349839,64.01702389611138
8.968,0.9999770453564646,63.90037273013718
8.975999999999999,0.9999772118073832,63.78369480715916
8.984,0.9999773854745674,63.66699015025159
8.992,0.9999775663416758,63.55025878273637
9.0,0.9999777543890598,63.43350072818158
9.008,0.999977949593617,63.31671601039969
9.016,0.9999781519286449,63.19990465344554
9.024000000000001,0.9999783613636881,63.08306668161397
9.032,0.999978577864385,62.96620211943679
9.04,0.9999788013923099,62.84931099167951
9.048,0.9999790319048124,62.732393323337604
9.056000000000001,0.9999792693548545,62.61544913963231
9.064,0.9999795136908466,62.49847846600583
9.072,0.9999797648564789,62.38148132811605
9.08,0.9999800227905534,62.26445775183067
9.088000000000001,0.9999802874268139,62.14740776322098
9.096,0.9999805586937767,62.03033138855475
9.104,0.999980836514557,61.9132286542885
9.112,0.9999811208067004,61.79609958705942
9.120000000000001,0.9999814114820127,61.67894421367633
9.128,0.9999817084463887,61.56176256111009
9.136,0.9999820115996494,61.44455465648316
9.144,0.9999823208353755,61.32732052705861
9.152000000000001,0.9999826360407479,61.21006020022829
9.16,0.9999829570963906,61.09277370350023
9.168,0.9999832838762202,60.97546106448514
9.176,0.9999836162473004,60.85812231088241
9.184000000000001,0.9999839540697031,60.740757470465084
9.192,0.9999842971963787,60.623366571064025
9.2,0.999984645473034,60.505949640551336
9.208,0.9999849987380198,60.38850670682295
9.216000000000001,0.9999853568222312,60.27103779778046
9.224,0.9999857195490188,60.15354294131209
9.232,0.9999860867341128,60.036022165272755
9.24,0.9999864581855638,59.918475497463625
9.248000000000001,0.9999868337036965,59.80090296561079
9.256,0.9999872130810842,59.68330459734317
9.264,0.9999875961025366,59.56568042016975
9.272,0.9999879825451131,59.44803046145617
9.280000000000001,0.9999883721781516,59.33035474840093
9.288,0.9999887647633235,59.21265330801068
9.296,0.9999891600547101,59.09492616707517
9.304,0.9999895577989031,58.97717335214193
9.312000000000001,0.9999899577351329,58.85939488949038
9.32,0.9999903595954225,58.741590805105915
9.328,0.999990763104768,58.62376112465342
9.336,0.9999911679813532,58.505905873451056
9.344,0.9999915739367864,58.38802507644411
9.352,0.9999919806763752,58.27011875817845
9.36,0.9999923878994271,58.15218694277498
9.368,0.9999927952995867,58.034229653903665
9.376,0.9999932025652004,57.916246914758744
9.384,0.9999936093797184,57.798238748034066
9.392,0.999994015422125,57.680205175899545
9.4,0.9999944203674055,57.562146219978125
9.408,0.9999948238870425,57.44406190132432
9.416,0.999995225649545,57.32595224040343
9.424,0.9999956253210086,57.20781725707248
9.432,0.9999960225657071,57.08965697056247
9.44,0.9999964170467096,56.97147139946235
9.448,0.9999968084265297,56.85326056170477
9.456,0.9999971963677985,56.735024474553846
9.464,0.9999975805339598,56.616763154594885
9.472,0.9999979605899922,56.49847661772648
9.48,0.9999983362031463,56.380164879154826
9.488,0.9999987070437015,56.26182795339076
9.496,0.9999990727857371,56.14346585424897
9.504,0.9999994331079132,56.025078594850385
9.512,0.9999997876942611,55.90666618762694
9.52,1.0,55.78822864432951
9.528,0.9999999999999999,55.669765976038434
9.536,1.0,55.55127819317745
9.544,1.0,55.43276530553004
9.552,0.9999999999999999,55.31422732225938
9.56,1.0,55.1956642519307
9.568,1.0,55.077076102537156
9.576,0.9999999999999999,54.95846288152808
9.584,1.0000000000000002,54.83982459584057
9.592,0.9999999999999998,54.72116125193338
9.6,1.0,54.602472855823834
9.608,1.0,54.48375941312697
9.616,0.9999999999999999,54.365020929097284
9.624,0.9999999999999999,54.246257408672435
9.632,1.0,54.127468856519364
9.64,0.9999999999999999,54.00865527708166
9.648,1.0,53.88981667462919
9.656,0.9999999999999999,53.77095305330857
9.664,1.0,53.65206441719524
9.672,1.0,53.53315077034606
9.68,1.0,53.414212116852894
9.688,0.9999999999999999,53.295248460896325
9.696,0.9999999999999999,53.17625980679981
9.704,0.9999999999999999,53.05724615908334
9.712,1.0,52.93820752251717
9.72,0.9999999999999999,52.819143902174375
9.728,0.9999999999999999,52.70005530348314
9.736,1.0,52.5809417322773
9.744,0.9999999999999999,52.46180319484605
9.752,1.0,52.34263969798159
9.76,1.0,52.22345124902541
9.768,1.0,52.10423785591217
9.776,1.0,51.98499952721181
9.784,1.0,51.865736272168874
9.792,0.9999999999999999,51.74644810073984
9.8,0.9999999999999999,51.6271350236273
9.808,0.9999999999999999,51.50779705231201
9.816,1.0,51.38843419908155
9.824,0.9999999999999999,51.26904647705657
9.832,1.0,51.14963390021386
9.84,0.9999999999999999,51.03019648340654
9.847999999999999,1.0,50.91073424238132
9.856,1.0,50.791247193792685
9.864,1.0,50.67173535521441
9.872,1.0,50.5521987451479
9.879999999999999,1.0,50.43263738302786
9.888,0.9999999999999999,50.31305128922513
9.896,1.0,50.19344048504709
9.904,1.0,50.07380499273519
9.911999999999999,1.0,49.95414483546012
9.92,1.0,49.83446003731471
9.928,0.9999999999999998,49.71475062330476
9.936,0.9999999999999999,49.595016619337336
9.943999999999999,1.0,49.47525805220763
9.952,1.0,49.35547494958367
9.96,0.9999999999999999,49.23566733998966
9.968,1.0,49.11583525278762
9.975999999999999,1.0,48.9959787181576
9.984,0.9999999999999999,48.87609776707703
9.992,1.0,48.756192431298665
10.0,1.0,48.63626274332783
10.008,0.9999999999999999,48.5163087363987
10.016,1.0,48.39633044445002
10.024000000000001,1.0,48.2763279021005
10.032,1.0,48.15630114462352
10.04,0.9999999999999999,48.03625020792167
10.048,0.9999999999999999,47.916175128501145
10.056000000000001,1.0,47.79607594344629
10.064,1.0,47.67595269039383
10.072,1.0000000000000002,47.555805407507464
10.08,1.0,47.43563413345264
10.088000000000001,1.0,47.31543890737175
10.096,0.9999999999999999,47.19521976885952
10.104,1.0,47.07497675793901
10.112,0.9999999999999999,46.95470991503791
10.120000000000001,1.0,46.83441928096572
10.128,1.0,46.71410489689128
10.136,1.0,46.59376680432096
10.144,1.0,46.47340504507762
