freq,mag,phase
6.0,0.9995856191166139,108.83228525233197
6.002288128,0.9998830549589363,108.68654045836298
6.004576768,1.0001887571922448,108.53642266987987
6.006864896,1.0004822017864543,108.38196674894648
6.009153536,1.0007448605454394,108.22356131581235
6.011441664,1.0009601650583915,108.06172739602765
6.013729792,1.0011143497189614,107.89719809697758
6.016018432,1.0011977802930925,107.7310348972207
6.01830656,1.0012051460260443,107.56424158950031
6.0205952,1.0011359582826775,107.3978921343283
6.022883328,1.000994414025473,107.23314835896967
6.025171456,1.0007896960183535,107.07092896488882
6.027460096,1.0005345974290196,106.9120764479768
6.029748224,1.0002450587951202,106.7572312916579
6.032036864,0.9999396060046765,106.6067269334393
6.034324992,0.9996375452099704,106.46069561721272
6.03661312,0.9993580198748895,106.31891004290323
6.03890176,0.9991185293052678,106.18095203129033
6.041189888,0.99893466815588,106.04611403087581
6.043478016,0.9988178627280544,105.91350447914111
6.045766656,0.9987756448691745,105.78210681097646
6.048054784,0.998810866699115,105.65081513086847
6.050343424,0.9989209907729035,105.51847358057485
6.052631552,0.9990994372341289,105.38406168476708
6.05491968,0.999334601980711,105.24669828381901
6.05720832,0.9996116076793139,105.10562140195505
6.059496448,0.9999130788588111,104.9603821186458
6.061785088,1.000219721820393,104.8108073469628
6.064073216,1.0005120787677253,104.65684126781457
6.066361344,1.0007719301745972,104.49894243755345
6.068649984,1.000982610076805,104.33767279070989
6.070938112,1.001130781675553,104.17381561203086
6.073226752,1.0012070970386897,104.00838883177875
6.07551488,1.0012068706988118,103.84242128782068
6.077803008,1.0011298562049376,103.67705075982467
6.080091648,1.0009809279212685,103.51336179471316
6.082379776,1.0007696758542612,103.35231843876208
6.084668416,1.0005092146918795,103.194707873176
6.086956544,1.0002160199408003,103.04115041889203
6.089244672,0.9999087854136632,102.89200253614206
6.091533312,0.9996068227403874,102.74730644153868
6.09382144,0.9993292250611945,102.60686922848956
6.09611008,0.9990938225644741,102.47021506401703
6.098398208,0.9989153381698941,102.33662906014737
6.100686336,0.9988054323730987,102.20513892747405
6.102974976,0.9987707366152037,102.07475794655218
6.105263104,0.9988137245354292,101.94435538068261
6.107551232,0.9989317347450708,101.81281325945696
6.109839872,0.9991171734579356,101.67911386436833
6.112128,0.9993582765612118,101.5423330741039
6.11441664,0.9996397998549496,101.40176809390498
6.116704768,0.9999438410540008,101.25699003688358
6.118992896,1.0002513046004782,101.10780570440154
6.121281536,1.0005425035119384,100.95430481103358
6.123569664,1.0007991419860092,100.79683588011248
6.125858304,1.0010049718436036,100.636115661477
6.128146432,1.0011468242391628,100.47284775881316
6.13043456,1.0012159273783572,100.3080650327606
6.1327232,1.0012077425844326,100.14291597674122
6.135011328,1.001122891180462,99.97844981874287
6.137299968,1.0009664618872358,99.81578456700676
6.139588096,1.0007485971795607,99.65584521365042
6.141876224,1.0004829291328867,99.49941395217533
6.144164864,1.0001862198922655,99.34716090201431
6.146452992,0.9998772116232855,99.19931194931776
6.148741632,0.9995754551415091,99.05590537653843
6.15102976,0.9993003321911932,98.9167486326536
6.153317888,0.9990689918475208,98.78132683162886
6.155606528,0.9988962269445926,98.64891167997128
6.157894656,0.9987931818282394,98.51848879025093
6.160183296,0.9987663926767635,98.38908878367013
6.162471424,0.9988173360653307,98.25951640471177
6.164759552,0.9989431720313264,98.12870147589389
6.167048192,0.9991356942750943,97.99562135374455
6.16933632,0.9993826436145652,97.85934523911364
6.17162496,0.9996686528247164,97.71920683705353
6.173913088,0.999975351937345,97.57481596261113
6.176201216,1.0002832036328653,97.42598790183578
6.178489856,1.0005729803627754,97.27285760150976
6.180777984,1.0008262389831695,97.11580028365339
6.183066112,1.0010269385842459,96.95548677205511
6.185354752,1.0011622988209152,96.79275855388805
6.18764288,1.0012239054548275,96.62866777159421
6.18993152,1.0012077423502825,96.46422447912494
6.192219648,1.0011148134394448,96.30062668088608
6.194507776,1.0009509298274306,96.13892159831997
6.196796416,1.0007264705098553,95.98005316491721
6.199084544,1.0004555346946626,95.82480902934158
6.201373184,1.0001554420643648,95.67375012996916
6.203661312,0.9998450403056176,95.5271312779346
6.20594944,0.99954378362445,95.38502321567982
6.20823808,0.9992710711571591,95.24709599617657
6.210526208,0.999044231888585,95.1128450087379
6.212814848,0.9988774587783512,94.98149647770207
6.215102976,0.9987816210379268,94.8520880429359
6.217391104,0.9987626563672762,94.72357443069563
6.219679744,0.9988219472387723,94.59478585260518
6.221967872,0.9989556058190898,94.46462979840071
6.224256512,0.9991552010582969,94.33205983872922
6.22654464,0.999408149258389,94.19624064869203
6.228832768,0.9996984306217448,94.05647699220816
6.231121408,1.0000075642175967,93.91239525651412
6.233409536,1.0003158312493468,93.76386558568517
6.235698176,1.0006039189287848,93.61102182654405
6.237986304,1.0008535672570453,93.45431048287432
6.240274432,1.0010488924107268,93.29440148567323
6.242563072,1.0011775992038852,93.13214904917488
6.2448512,1.0012313673125004,92.96861887920028
6.24713984,1.0012070101109503,92.80491154898485
6.249427968,1.0011059524092836,92.64212685869933
6.251716096,1.0009344505025222,92.48134257369645
6.254004736,1.0007035059365148,92.32348271311014
6.256292864,1.0004275043010424,92.16935969927584
6.258580992,1.000123988766905,92.01944402802164
6.260869632,0.9998121784844282,91.87404280669544
6.26315776,0.9995118321537951,91.73309952615527
6.2654464,0.9992418631050766,91.59636644808796
6.267734528,0.9990195252274182,91.46322799141944
6.270022656,0.9988591449465678,91.33292649284866
6.272311296,0.9987706231687647,91.20447869407802
6.274599424,0.9987597426066225,91.0767656298422
6.276888064,0.9988273973743685,90.94867445300092
6.279176192,0.9989689978319276,90.81910614319406
6.28146432,0.9991757885105785,90.68700121930118
6.28375296,0.9994345828858777,90.55154090900271
6.286041088,0.9997289647051476,90.4120722810315
6.288329728,1.0000402850652652,90.26824166463172
6.290617856,1.0003487328612377,90.11993016326358
6.292905984,1.0006349522517124,89.96731813740818
6.295194624,1.000880687580561,89.81086866291452
6.297482752,1.0010704405301527,89.65131392870185
6.299771392,1.001192137283862,89.48949477196537
6.30205952,1.0012380205846363,89.32649419820247
6.304347648,1.0012053513654846,89.1634346531124
6.306636288,1.0010960547828345,89.00142872812351
6.308924416,1.0009171149326859,88.84148981457633
6.311213056,1.0006796026786418,88.68465570073508
6.313501184,1.0003985158158228,88.53155698100079
6.315789312,1.0000918805288062,88.38276136464506
6.318077952,0.9997788809040754,88.23852559149292
6.32036608,0.9994794860974894,88.09874506998467
6.322654208,0.9992125922128944,87.96309570451146
6.324942848,0.9989952248644226,87.8310412654792
6.327230976,0.9988412367730191,87.7017016898794
6.329519616,0.9987603389128081,87.57411519537513
6.331807744,0.9987577475610565,87.44716567069071
6.334095872,0.998833706715614,87.31968627961712
6.336384512,0.9989832947907455,87.19062491385765
6.33867264,0.999197353392118,87.05891640072325
6.34096128,0.9994618406605691,86.92373443211409
6.343249408,0.9997603941713932,86.78451184806947
6.345537536,1.0000737064816736,86.64086047061122
6.347826176,1.0003821828478308,86.49267580832748
6.350114304,1.0006662886302125,86.34025051184437
6.352402944,1.0009078818393604,86.18402219730862
6.354691072,1.0010917503408905,86.02475056050984
6.3569792,1.001206261583722,85.86331530406925
6.35926784,1.0012441930373925,85.70078639666532
6.361555968,1.001203051151454,85.53833066946262
6.363844608,1.001085417651898,85.3770373471338
6.366132736,1.0008987431323138,85.21795577379844
6.368420864,1.0006547615086154,85.06202253510044
6.370709504,1.0003688136549267,84.90994579793353
6.372997632,1.0000591163599872,84.76225499961994
6.375286272,0.9997450686737964,84.61908783959046
6.3775744,0.9994469263408123,84.48040158463988
6.379862528,0.9991833343057687,84.34582904334161
6.382151168,0.9989710696021094,84.21475686560757
6.384439296,0.9988237930668896,84.08634252969078
6.386727936,0.9987507079758351,83.95954540144514
6.389016064,0.998756562447481,83.833267592059
6.391304192,0.9988410378995193,83.7063620944325
6.393592832,0.9989987816665444,83.5777105326695
6.39588096,0.9992197877229826,83.44632938963724
6.398169088,0.9994900637890544,83.31138350629523
6.400457728,0.9997923764766,83.17227582266774
6.402745856,1.000107716242255,83.02872591279262
6.405034496,1.0004158355467416,82.88065655562743
6.407322624,1.000697577476718,82.72834011024057
6.409610752,1.000934787376116,82.57226807333527
6.411899392,1.0011125509982788,82.41319775847136
6.41418752,1.0012197102192313,82.25208413286695
6.41647616,1.0012493499000537,82.09003265866144
6.418764288,1.0011996659040205,81.92810580018826
6.421052416,1.0010735808883813,81.76748336189009
6.423341056,1.0008792281127534,81.60919912789834
6.425629184,1.0006287956648914,81.45416552160691
6.427917824,1.0003381002540692,81.3030572275569
6.430205952,1.0000255215987366,81.15637431087943
6.43249408,0.9997109331829723,81.01425769436503
6.43478272,0.9994141248430572,80.87660769381846
6.437070848,0.9991539146204086,80.74305228446322
6.439359488,0.9989471776790115,80.61292348847309
6.441647616,0.9988067210834451,80.48531847008964
6.443935744,0.9987416252928935,80.3592601169267
6.446224384,0.99875609854061,80.233596043156
6.448512512,0.9988491895366567,80.1071804705342
6.450801152,0.999015083100918,79.97887393497803
6.45308928,0.9992430591043847,79.84772967832063
6.455377408,0.9995190153071847,79.71295906960792
6.457666048,0.999825096188826,79.57394283223131
6.459954176,1.0001420305466122,79.43041370748533
6.462242816,1.0004498472799275,79.28238101638821
6.464530944,1.0007288407345154,79.13009405998403
6.466819072,1.0009614970998353,78.97411802442801
6.469107712,1.0011329669387428,78.81522713382476
6.47139584,1.0012325199880132,78.6544081669505
6.473683968,1.0012536637645468,78.49271116602375
6.475972608,1.001195277005487,78.33130464715231
6.478260736,1.0010608879481668,78.17130356675098
6.480549376,1.0008588589006429,78.01377775576992
6.482837504,1.0006020463617413,77.85957571789395
6.485125632,1.0003067318253307,77.70938481734852
6.487414272,0.999991515856316,77.56366822289948
6.4897024,0.9996762892275765,77.4225371842604
6.49199104,0.999381148724351,77.28589140058875
6.494279168,0.999124832368711,77.15325402795563
6.496567296,0.9989235622409931,77.02399975346313
6.498855936,0.9987903749325003,76.89717658437863
6.501144064,0.9987334901162107,76.77181105488037
6.503432704,0.9987566316113203,76.64666488484572
6.505720832,0.9988584376728797,76.52064959997553
6.50800896,0.9990324464867901,76.39264666617767
6.5102976,0.9992675453009825,76.2616755814684
6.512585728,0.9995489844281271,76.12696466304875
6.514874368,0.9998586466992867,75.98794910293263
6.517162496,1.0001771243678552,75.84440225694571
6.519450624,1.000484183546198,75.69631348932435
6.521739264,1.000760276835715,75.54403180720968
6.524027392,1.0009880494469985,75.38810460216577
6.526316032,1.0011530477151127,75.22932714869992
6.52860416,1.0012447451421236,75.06869509474305
6.530892288,1.00125738686284,74.90734760554267
6.533180928,1.0011900469624395,74.74639583284537
6.535469056,1.0010472147394598,74.58697407292118
6.537757184,1.0008376259893137,74.43014140597123
6.540045824,1.0005745005290207,74.27675434781787
6.542333952,1.0002746161579479,74.12744368367001
6.544622592,0.9999568223716532,73.9826160396487
6.54691072,0.999641296480999,73.84244114167755
6.549198848,0.9993481309836155,73.70672545253915
6.551487488,0.9990957775464231,73.57498643571516
6.553775616,0.9989003660128974,73.44653236704232
6.556064256,0.9987744178570671,73.32043933216082
6.558352384,0.9987259110481734,73.19563916203641
6.560640512,0.9987579069283357,73.07097983946407
6.562929152,0.9988685255463228,72.9452887002471
6.56521728,0.9990505452718931,72.81749180215164
6.56750592,0.9992927029922637,72.68662207560773
6.569794048,0.9995794256961642,72.55190901625821
6.572082176,0.999892580609082,72.41284899363227
6.574370816,1.0002123661573363,72.26919108376764
6.576658944,1.0005185090103696,72.12101329299227
6.578947584,1.0007914249109175,71.96864689265301
6.581235712,1.0010141445846577,71.8126790611706
6.58352384,1.0011723786674693,71.65398539885395
6.58581248,1.0012560739966239,71.49353828948144
6.588100608,1.0012599612850965,71.33248307471246
6.590389248,1.001183918939077,71.17193627411226
6.592677376,1.0010325429430795,71.01306326378295
6.594965504,1.0008153371566628,70.85686298526812
6.597254144,1.0005461078845177,70.70421706661057
6.599542272,1.0002418473626453,70.55575220105165
6.601830912,0.9999216485023336,70.41182384877916
6.60411904,0.9996061984543695,70.27253757110557
6.606407168,0.9993151446330086,70.13767313921609
6.608695808,0.9990670447748735,70.00675094689807
6.610983936,0.9988777904725401,69.8790361915012
6.613272064,0.9987593703200257,69.7535678063971
6.615560704,0.9987193705888393,69.62929777897101
6.617848832,0.9987604175232103,69.50504933173421
6.620137472,0.9988797309900944,69.37959585850888
6.6224256,0.9990700022898257,69.25194226911924
6.624713728,0.9993189612952763,69.12110363115228
6.627002368,0.9996109182834627,68.98632085982788
6.629290496,0.9999273850217119,68.84714031402666
6.631579136,1.0002482069369523,68.70330179289792
6.633867264,1.0005531655732978,68.55496376598138
6.636155392,1.0008227439231083,68.40247535615381
6.638444032,1.001040059411801,68.24643211256236
6.64073216,1.0011913047848577,68.08775148149853
6.6430208,1.0012668563102987,67.9274156452474
6.645308928,1.0012619730964092,67.7666175131508
6.647597056,1.0011768574204882,67.60642696511908
6.649885696,1.001016872739072,67.44803664811343
6.652173824,1.000792162204783,67.29245335777138
6.654462464,1.0005168017398747,67.14051014536072
6.656750592,1.0002082836272788,66.99281468945378
6.65903872,0.9998861091433207,66.84971338513273
6.66132736,0.999570696017229,66.71125570550203
6.663615488,0.9992821025462998,66.5771992369442
6.665904128,0.9990384871084702,66.44703897692422
6.668192256,0.9988556135264022,66.32002504475959
6.670480384,0.9987449420981942,66.19512622988636
6.672769024,0.998713649270551,66.07130908672285
6.675057152,0.9987636594752394,65.94737449726338
6.677345792,0.9988919004598429,65.82211847054457
6.67963392,0.9990902088385671,65.69451676170675
6.681922048,0.9993460953764348,65.56363017391352
6.684210688,0.99964321017178,65.42872324556225
6.686498816,0.9999627387296135,65.28931200768993
6.688786944,1.0002843435719817,65.14529094216232
6.691075584,1.00058780657174,64.996710877708
6.693363712,1.0008538872303323,64.84399796826709
6.695652352,1.001065648836698,64.68786133813533
6.69794048,1.001209644222465,64.52911886642616
6.700228608,1.0012768205362956,64.36886380137275
6.702517248,1.0012629774386106,64.20824097940736
6.704805376,1.0011688040081466,64.04838292610103
6.707094016,1.0010003678568724,63.89045877945551
6.709382144,1.0007680635416336,63.73544629734843
6.711670272,1.0004867866751501,63.58414475606198
6.713958912,1.0001741857871884,63.4371706235562
6.71624704,0.9998501324550054,63.294827534791985
6.71853568,0.9995351269477587,63.15715204920921
6.720823808,0.9992490850384389,63.02386025713829
6.723111936,0.9990103127172741,62.8944081406773
6.725400576,0.9988339251730182,62.76799919298754
6.727688704,0.9987312683929881,62.643613561385926
6.729977344,0.9987086834927598,62.52016830817422
6.732265472,0.9987679146661312,62.39647098872927
6.7345536,0.9989050307540461,62.271344860786414
6.73684224,0.9991114493871871,62.14373453968266
6.739130368,0.9993739693859712,62.01271277667576
6.741419008,0.9996760002580752,61.877604766330194
6.743707136,0.9999984572443862,61.737950168074185
6.745995264,1.000320756692122,61.59360615578248
6.748283904,1.0006225855699402,61.44473023675804
6.750572032,1.0008847593732375,61.29178866639698
6.75286016,1.0010906412618437,61.13545729608896
6.7551488,1.001227325791671,60.97662144467765
6.757436928,1.0012860334111733,60.81639526147862
6.759725568,1.0012630124063013,60.6559159430382
6.762013696,1.0011597730965693,60.496344815997
6.764301824,1.0009826895715013,60.33882243759756
6.766590464,1.0007430728814148,60.184302311377294
6.768878592,1.0004559849806038,60.03361659009187
6.771167232,1.0001395309140613,59.88734154185086
6.77345536,0.999813741802753,59.74571198336599
6.775743488,0.9994993287267622,59.6087510309496
6.778032128,0.9992162363113242,59.47614539616582
6.780320256,0.9989824411584997,59.34733948160227
6.782608896,0.9988127854809387,59.2214759704513
6.784897024,0.9987181619962495,59.09752306814358
6.787185152,0.9987046076615321,58.974407673651896
6.789473792,0.9987729665547223,58.85089333613454
6.79176192,0.9989190213460221,58.725805496271285
6.79405056,0.9991334633798952,58.59811648140125
6.796338688,0.9994026354403687,58.466897412490624
6.798626816,0.9997095640127693,58.331504799528524
6.800915456,1.0000346197029044,58.19151843515716
6.803203584,1.000357366391141,58.04681003035621
6.805492224,1.0006573008052086,57.897590136414955
6.807780352,1.0009153143239202,57.74433721874371
6.81006848,1.0011151324085303,57.58776354954915
6.81235712,1.001244270402861,57.428801527415615
6.814645248,1.0012942686537085,57.2685487050192
6.816933888,1.001262154795569,57.108156859088645
6.819222016,1.0011497625363994,56.94882072089472
6.821510144,1.0009642476254816,56.79164349680869
6.823798784,1.000717286290374,56.63761467567582
6.826086912,1.0004244597750667,56.487490932407816
6.82837504,1.000104260381688,56.34182817109409
6.83066368,0.9997769758449225,56.20086814170003
6.832951808,0.9994634553953005,56.06457031544451
6.835240448,0.9991833851169207,55.93261589055822
6.837528576,0.9989548672521955,55.8043789729002
6.839816704,0.9987922340619972,55.67897348059356
6.842105344,0.9987058544928619,55.55541529935238
6.844393472,0.9987013284885647,55.43252548786913
6.846682112,0.9987790374402559,55.30910017676328
6.84897024,0.9989339980944255,55.18401051405691
6.851258368,0.9991563496654853,55.0561532968161
6.853547008,0.999431990470985,54.92467015853978
6.855835136,0.9997435551098889,54.788927181214824
6.858123776,1.0000711686232557,54.64854836574681
6.860411904,1.0003940050046554,54.50340709034403
6.862700032,1.000691725988215,54.35378607418914
6.864988672,1.0009454891191845,54.20017776356453
6.8672768,1.0011391455636562,54.043290207309916
6.86956544,1.0012604087988173,53.88415484157394
6.871853568,1.0013016890999766,53.723821379619885
6.874141696,1.0012602064259088,53.56349044779467
6.876430336,1.0011387224544621,53.40433877317222
6.878718464,1.0009446649777747,53.24749538169244
6.881007104,1.00069049350411,53.09386043809022
6.883295232,1.0003921205883286,52.9442564699157
6.88558336,1.0000684192587115,52.799159510285904
6.887872,0.9997398969617851,52.65882323014188
6.890160128,0.9994274520247839,52.523140049669806
6.892448768,0.9991507883121227,52.39176923416596
6.894736896,0.9989277389040498,52.264020785606036
6.897025024,0.9987722437352847,52.1390461872752
6.899313664,0.9986943742413106,52.01579676921303
6.901601792,0.9986990866920509,51.89305970552532
6.90388992,0.9987861106292492,51.76967570731022
6.90617856,0.998949859174813,51.64447637129232
6.908466688,0.9991801673754396,51.51639364322461
6.910755328,0.9994622358268515,51.38458645842142
6.913043456,0.9997782428832273,51.24841253501459
6.915331584,1.0001081499999596,51.10755646133301
6.917620224,1.0004309201806723,50.96196332563678
6.919908352,1.0007263374257704,50.81186688968741
6.922196992,1.0009754746861501,50.657805183372574
6.92448512,1.0011626595166212,50.50060190809446
6.926773248,1.001276022835212,50.34120770584946
6.929061888,1.0013083137541647,50.18076192295123
6.931350016,1.0012576421566564,50.02042593657375
6.933638656,1.0011269257235753,49.861420149696535
6.935926784,1.0009244416032805,49.70483257396432
