freq,mag,phase
6.0,0.9999372454724877,-8.994185244768104
6.020356096,0.9999236135864897,-9.640238410868584
6.040712704,0.9999130784216366,-10.286199547862255
6.0610688,0.9999056626303051,-10.932144154953672
6.081424896,0.9999016354272398,-11.578067670388846
6.101780992,0.9999009041548749,-12.22401891643919
6.1221376,0.9999037414023217,-12.870024969617443
6.142493696,0.9999101445687789,-13.516117884542856
6.162849792,0.9999196298793863,-14.162385334286332
6.183205888,0.9999319704858161,-14.808772829429193
6.203562496,0.9999468490004466,-15.455399028758658
6.223918592,0.9999635795265087,-16.10225759799719
6.244274688,0.9999816708188138,-16.749313750645836
6.264631296,1.0000005287288674,-17.39663727241166
6.284987392,1.0000192984202765,-18.044213666281077
6.305343488,1.0000374491305895,-18.69205833299214
6.325699584,1.0000543109498852,-19.340176507544715
6.346056192,1.0000692472363666,-19.988452713438928
6.366412288,1.0000817937204483,-20.636980809378247
6.386768384,1.0000913429019467,-21.285647882466495
6.40712448,1.0000978394683537,-21.93450065797464
6.427481088,1.0001006958365843,-22.583412481497703
6.447837184,1.0001000603973689,-23.232415780718004
6.46819328,1.00009585492756,-23.881419732187613
6.488549376,1.000088234151158,-24.530456740036854
6.508905984,1.000077391823638,-25.179418328882985
6.52926208,1.0000636982851079,-25.828307290645274
6.549618176,1.0000477750322532,-26.477071987945624
6.569974784,1.000029975105635,-27.12576311611096
6.59033088,1.000011177875159,-27.774280051220096
6.610686976,0.999991970257452,-28.42259968866643
6.631043072,0.9999727363382147,-29.07082765289089
6.65139968,0.9999546160347115,-29.71885514733618
6.671755776,0.9999380873508518,-30.36677916520651
6.692111872,0.9999236412868521,-31.014571424724185
6.712467968,0.9999117520087993,-31.66227581456817
6.732824576,0.9999030749176759,-32.30990480231923
6.753180672,0.9998977671724755,-32.957532214902244
6.773536768,0.9998961305110556,-33.60519068873687
6.793893376,0.9998981452388558,-34.25289616854303
6.814249472,0.999903707763583,-34.90066383933592
6.834605568,0.9999127617804127,-35.54859535922004
6.854961664,0.999924925677598,-36.19666934254828
6.875318272,0.9999398463291305,-36.844961173433504
6.895674368,0.9999568107796297,-37.49348329921627
6.916030464,0.9999753262597453,-38.14224444969803
6.93638656,0.9999948914345826,-38.79123296298539
6.956743168,1.0000146578036424,-39.44052908581682
6.977099264,1.000033974260213,-40.09008772374665
6.99745536,1.0000520288991526,-40.73988465972018
7.017811456,1.0000683128863976,-41.38993554346802
7.038168064,1.0000821339809274,-42.040174821190135
7.05852416,1.0000932180409434,-42.6906851084149
7.078880256,1.000100880046011,-43.341288241494176
7.099236864,1.0001049345681368,-43.991994746943135
7.11959296,1.0001053115155747,-44.64281819167301
7.139949056,1.0001018803206037,-45.29366378724109
7.160305152,1.0000948995148766,-45.944506801131666
7.18066176,1.0000844607935162,-46.595319662505716
7.201017856,1.0000709514833537,-47.24607383060205
7.221373952,1.0000549310729792,-47.89669561781922
7.241730048,1.0000367624076296,-48.54719496867923
7.262086656,1.0000173162134007,-49.19755682336387
7.282442752,0.9999970512473936,-49.84776321153422
7.302798848,0.9999769791940083,-50.497764969781194
7.323155456,0.9999575731385985,-51.14763705825029
7.343511552,0.9999395610019747,-51.79737134410495
7.363867648,0.9999236843639996,-52.44695501175185
7.384223744,0.9999105036177239,-53.09641352721927
7.404580352,0.999900401621366,-53.74581394507082
7.424936448,0.9998939038430781,-54.395213899633504
7.445292544,0.9998910093279821,-55.04457226590888
7.46564864,0.9998920526695697,-55.69401586130824
7.486005248,0.9998968416645226,-56.34350767464824
7.506361344,0.9999053494783718,-56.99313714040041
7.52671744,0.9999173900766595,-57.64294954690325
7.547073536,0.9999322122012093,-58.29292180380456
7.567430144,0.9999495614253597,-58.94313490551401
7.58778624,0.9999686967183495,-59.593581308309545
7.608142336,0.9999890560965832,-60.24433884598709
7.628498944,1.0000098285272094,-60.89533489394141
7.64885504,1.0000302518336686,-61.546658379558494
7.669211136,1.0000496845861016,-62.19822481158935
7.689567232,1.0000673907597966,-62.85001276648538
7.70992384,1.000082854964821,-63.502080833763735
7.730279936,1.0000953311864218,-64.154339648702
7.750636032,1.000104269895825,-64.80677958386025
7.770992128,1.000109698587901,-65.4593333405884
7.791348736,1.0001111925394943,-66.11202495260402
7.811704832,1.0001087589072073,-66.76472679409147
7.832060928,1.00010234440012,-67.417427485884
7.852417536,1.0000922646100123,-68.07013236107211
7.872773632,1.0000789280334863,-68.72276408854142
7.893129728,1.000062661263885,-69.37527348753984
7.913485824,1.0000442315209164,-70.02765177431253
7.933842432,1.000023935571667,-70.67985745204432
7.954198528,1.0000027870518828,-71.33190990734343
7.974554624,0.9999815116972663,-71.98380968025458
7.99491072,0.9999607203825495,-72.63551599235626
8.015267328,0.9999412883421436,-73.28704526338983
8.035623424,0.9999239227799942,-73.93843188272514
8.05597952,0.9999091857846109,-74.58970225353201
8.076336128,0.9998975616177023,-75.24089937982527
8.096692224,0.9998895980641593,-75.89202681894142
8.11704832,0.9998855177122568,-76.54313240524763
8.137404416,0.9998854410320194,-77.19426432843123
8.157761024,0.999889425174747,-77.84549382420649
8.17811712,0.9998972802492571,-78.4968537605806
8.198473216,0.9999090474460756,-79.14833042706498
8.218829312,0.9999239304658301,-79.79999544328534
8.23918592,0.9999414920617065,-80.45193862053769
8.259542016,0.9999612913053829,-81.1040966725158
8.279898112,0.9999825332895398,-81.75654594192271
8.300254208,1.000004409919786,-82.40928704027255
8.320610816,1.0000262739855237,-83.06232502650288
8.340966912,1.0000472344937807,-83.71563151512782
8.361323008,1.0000664859572885,-84.36921273586428
8.381679616,1.0000834791550053,-85.0230580370353
8.402035712,1.000097630082498,-85.67711946480946
8.422391808,1.000108267567921,-86.33137810991651
8.442747904,1.000115035571504,-86.98576187373912
8.463104512,1.000117864945894,-87.64027434773867
8.483460608,1.0001164081803557,-88.29484842056146
8.503816704,1.000110831698897,-88.9494452295719
8.5241728,1.0001012542509846,-89.60399456152092
8.544529408,1.0000879030930045,-90.25850188125327
8.564885504,1.0000716246093193,-90.91289749984507
8.5852416,1.000052615950743,-91.56715727786569
8.605597696,1.0000315650176637,-92.2212454388007
8.625953792,1.0000094291437491,-92.87514584903165
8.646310912,0.9999868446556336,-93.52884836880557
8.666667008,0.9999646534118423,-94.18238204203591
8.687023104,0.9999435363551924,-94.83574181331869
8.7073792,0.9999243773863851,-95.48891135073414
8.727735296,0.9999079665138443,-96.14193326782213
8.748091392,0.9998946110046729,-96.79489568014557
8.768447488,0.9998850241226158,-97.44774967955765
8.788803584,0.999879558921064,-98.10056341239886
8.809160704,0.9998782766538569,-98.75339269342444
8.8295168,0.9998813439375068,-99.40629806593293
8.849872896,0.9998886635265026,-100.05930192507657
8.870228992,0.9998999130555336,-100.71246771407881
8.890585088,0.9999148703469217,-101.3657911340484
8.910941184,0.9999327778312819,-102.01935874105803
8.93129728,0.9999532792895555,-102.67319171625496
8.9516544,0.9999754104697508,-103.3273276833701
8.972010496,0.9999985415243424,-103.98175318574451
8.992366592,1.0000219086967905,-104.63646006123268
9.012722688,1.000044488448411,-105.29148329742624
9.033078784,1.0000654979677501,-105.94679489800787
9.05343488,1.0000843858375075,-106.60237348746234
9.073790976,1.0001003024788624,-107.25819693402305
9.094147072,1.0001126875702857,-107.91421443918118
9.114504192,1.0001211396893839,-108.57042493991199
9.134860288,1.000125282057058,-109.2267427247537
9.155216384,1.000125020089584,-109.88311190639686
9.17557248,1.0001202597859602,-110.53956490041256
9.195928576,1.0001112656119768,-111.1959599404026
9.216284672,1.000098225137607,-111.8522821405981
9.236640768,1.000081627757689,-112.50852664621277
9.256997888,1.000062080201163,-113.16460209096483
9.277353984,1.0000402254797531,-113.82049993841581
9.29771008,1.0000169689466933,-114.47623796183768
9.318066176,0.9999929651239049,-115.13175316409205
9.338422272,0.9999689963730192,-115.78705114760318
9.358778368,0.9999461244194554,-116.44214603018769
9.379134464,0.9999251803074184,-117.09706132875053
9.399491584,0.9999067364854151,-117.7517971562212
9.41984768,0.9998915116367918,-118.40642658660558
9.440203776,0.9998801254628263,-119.06095681313266
9.460559872,0.9998730629550397,-119.71540138362712
9.480915968,0.9998703524137916,-120.3698768071575
9.501272064,0.9998723188432458,-121.02437436612003
9.52162816,0.9998788463006848,-121.67894956699901
9.541984256,0.9998897867082466,-122.33369084337566
9.562341376,0.9999046474340184,-122.98863278739809
9.582697472,0.9999229505909096,-123.64377447580826
9.603053568,0.9999441369479465,-124.2992017112879
9.623409664,0.9999673511643947,-124.95490761022259
9.64376576,0.9999918502111699,-125.61091595961773
9.664121856,1.0000168371630267,-126.26724245205452
9.684477952,1.0000412132892682,-126.92387099932348
9.704835072,1.0000642905565147,-127.58083823449587
9.725191168,1.0000851657567686,-128.2380670315639
9.745547264,1.000103124296115,-128.89558903052747
9.76590336,1.0001175144332641,-129.5533024616354
9.786259456,1.0001277647086189,-130.2112150507746
9.806615552,1.0001335699327258,-130.869281692063
9.826971648,1.0001346486160851,-131.5274222827872
9.847327744,1.0001308854513264,-132.18560910975046
9.867684864,1.0001225683505308,-132.8437771608444
9.88804096,1.0001098253066782,-133.50186544483188
9.908397056,1.000093042838736,-134.15984673828478
9.928753152,1.0000729438071496,-134.81769524648058
9.949109248,1.0000502493053456,-135.475366288253
9.969465344,1.0000256673979813,-136.1328155708483
9.98982144,1.0000000511752565,-136.790054447187
10.01017856,0.9999743358994693,-137.4470457140938
10.030534656,0.9999495123855935,-138.1038145420574
10.050890752,0.9999263160992503,-138.76037944439256
10.071246848,0.999905635661788,-139.4167464638057
10.091602944,0.9998883324351197,-140.07293621697298
10.11195904,0.9998749042546099,-140.72902483908032
10.132315136,0.9998659035925378,-141.38502620953977
10.152672256,0.9998616277421365,-142.040993411854
10.173028352,0.9998623890830606,-142.69699097533024
10.193384448,0.9998679653067246,-143.3530751956994
10.213740544,0.9998783410917437,-144.00928915885413
10.23409664,0.9998931676775116,-144.66565747412665
10.254452736,0.9999118656069966,-145.32227944181125
10.274808832,0.9999338004082876,-145.9791441746164
10.295164928,0.9999581402265074,-146.6363137760534
10.315522048,0.9999842242915262,-147.29380901747052
10.335878144,1.0000109514859798,-147.95162875555425
10.35623424,1.0000374276735013,-148.60978683897412
10.376590336,1.0000626896767362,-149.2682658000368
10.396946432,1.000086030938018,-149.92705661662723
10.417302528,1.0001063269174928,-150.58614365711068
10.437658624,1.000122966799654,-151.24545766589736
10.458015744,1.0001352921898292,-151.9049863305046
10.47837184,1.0001429070591443,-152.56467220688853
10.498727936,1.000145441416848,-153.2244637202589
10.519084032,1.0001429249305505,-153.8842796951275
10.539440128,1.0001353851757389,-154.54413208725614
10.559796224,1.0001229885018117,-155.2038919980735
10.58015232,1.0001060961324273,-155.86355625700216
10.600508416,1.0000854463718838,-156.5230506264344
10.620865536,1.000061693848292,-157.18234326975897
10.641221632,1.0000355870233053,-157.841435121491
10.661577728,1.0000081817388191,-158.50026814007327
10.681933824,0.9999803936879793,-159.15886928193441
10.70228992,0.9999532228151139,-159.8171809194705
10.722646016,0.9999275554443464,-160.47526302198546
10.743002112,0.9999043737385548,-161.13310930448446
10.763359232,0.9998845195171231,-161.79076422322467
10.783715328,0.9998688096409433,-162.44827798274414
10.804071424,0.9998576472928448,-163.10568728538445
10.82442752,0.99985156531555,-163.7630295805041
10.844783616,0.9998508231104638,-164.4203876313058
10.865139712,0.9998553143082672,-165.0777875804447
10.885495808,0.9998650703795134,-165.7353097479913
10.905852928,0.9998797121683045,-166.39301305655422
10.926209024,0.999898724479573,-167.05092373667011
10.94656512,0.9999215312321339,-167.70910362515085
10.966921216,0.9999472707548138,-168.3675871647441
10.987277312,0.9999750449957855,-169.02640812551107
11.007633408,1.0000039017986608,-169.68556662348016
11.027989504,1.0000326799352972,-170.34506975402806
11.0483456,1.0000605942324527,-171.00494098532755
11.06870272,1.0000865010889342,-171.66513497245904
11.089058816,1.0001095465308243,-172.32564253994323
11.109414912,1.0001288166942932,-172.98641683528658
11.129771008,1.000143571654939,-173.6474182075164
11.150127104,1.0001533876127635,-174.3086040385051
11.1704832,1.0001578858629725,-174.96990657667197
11.190839296,1.0001567586779423,-175.63128346138785
11.211196416,1.0001500536353733,-176.29264647766047
11.231552512,1.0001380286501875,-176.95396602283412
11.251908608,1.0001211695202359,-177.6151631440076
11.272264704,1.0000998026584171,-178.27618427526485
11.2926208,1.0000749499258057,-178.93702033921457
11.312976896,1.000047196217124,-179.59758453982792
11.333332992,1.0000177598670381,179.7421013958764
11.353689088,0.9999875456519333,179.08206451058865
11.374046208,0.9999576562120949,178.42233378107883
11.394402304,0.9999291293961359,177.7628875466578
11.4147584,0.9999031442672095,177.1036821723825
11.435114496,0.9998803912866506,176.44470420586043
11.455470592,0.9998617985970015,175.78593947081475
11.475826688,0.9998481065588387,175.12729901676153
11.496182784,0.9998399084002704,174.46874592724606
11.516539904,0.9998372640270704,173.81021833464058
11.536896,0.999840435839639,173.15166132986337
11.557252096,0.9998494044673709,172.4929998347514
11.577608192,0.9998638741302799,171.83419183965006
11.597964288,0.9998833012194862,171.1751601062382
11.618320384,0.9999069865134522,170.51585462802163
11.63867648,0.9999342560272425,169.85624330884372
11.659032576,0.9999640155939311,169.19629427611073
11.679389696,0.9999952319896122,168.53597570301258
11.699745792,1.0000268073776015,167.87527278284765
11.720101888,1.0000576757965463,167.21420472240928
11.740457984,1.0000868385231707,166.5527783917415
11.76081408,1.0001129663351933,165.89099766451096
11.781170176,1.000135280349579,165.22893918593223
11.801526272,1.0001530252541408,164.56661685984898
11.821883392,1.0001654199783623,163.90409039627536
11.842239488,1.0001719669610907,163.24139739890668
11.862595584,1.0001725678663678,162.57866257574298
11.88295168,1.000167063600795,161.91588921456872
11.903307776,1.0001556843967916,161.25318012686523
11.923663872,1.0001386070408256,160.59058902762925
11.944019968,1.0001166297083386,159.92817178533434
11.964377088,1.0000903713149736,159.2659840319589
11.984733184,1.000060876586265,158.60403919880875
12.00508928,1.0000289871187746,157.94241417021388
12.025445376,0.9999959300351811,157.28109764469707
12.045801472,0.99996290830653,156.6201093896841
12.066157568,0.9999310665382719,155.95944206712682
12.086513664,0.999901590887022,155.29906859036817
12.10686976,0.9998753008530609,154.6389702823733
12.12722688,0.9998534671143267,153.97912449522877
12.147582976,0.9998368458263439,153.31944181487805
12.167939072,0.999825908558834,152.65987295098978
12.188295168,0.9998212022093562,152.0003792199914
12.208651264,0.9998227737163685,151.34087805018203
12.22900736,0.9998307902979492,150.68128724247563
12.249363456,0.9998448700146745,150.02157807022732
12.269720576,0.9998646983235383,149.36162141359193
12.290076672,0.9998895063900328,148.70142414181316
12.310432768,0.9999184552394962,148.0408924072623
12.330788864,0.9999504488445771,147.38001557685766
12.35114496,0.999984496543596,146.71873905935365
12.371501056,1.000019449601136,146.05707635343677
12.391857152,1.0000538944574182,145.39500324326983
12.412213248,1.0000866782754652,144.7325060537881
12.432570368,1.0001166443898444,144.06966058229614
12.452926464,1.0001426709061227,143.40648448225346
12.47328256,1.0001638278678027,142.7429976522056
12.493638656,1.0001793984412393,142.079293282035
12.513994752,1.000188642720877,141.41543513339874
12.534350848,1.000191291861763,140.75145735872857
12.554706944,1.0001872383059758,140.08744789504078
12.575064064,1.000176480411661,139.42348608922762
12.59542016,1.000159388760883,138.75964706201816
12.615776256,1.000136603358306,138.09597922460057
12.636132352,1.0001088513396497,137.4325638129673
12.656488448,1.0000771206075014,136.76942792216042
12.676844544,1.0000423647198695,136.10663042671592
12.69720064,1.000005970155443,135.4442037348688
12.71755776,0.9999691538304515,134.78212861671207
12.737913856,0.9999332882266904,134.12042330878674
12.758269952,0.9998996032544556,133.45907354007525
12.778626048,0.9998692047684782,132.79805623226423
12.798982144,0.9998434956110792,132.1373039830382
12.81933824,0.999823019106117,131.4768034247153
12.839694336,0.9998089426536036,130.8164485811514
12.860050432,0.9998015199590565,130.15620227630484
12.880407552,0.9998012625782005,129.4959857630702
12.900763648,0.9998079877112577,128.83571226463377
12.921119744,0.9998217078283438,128.17531009166194
12.94147584,0.9998419323040617,127.5147058546264
12.961831936,0.9998680627674619,126.8538186249431
12.982188032,0.9998990305437003,126.19261730938238
13.002544128,0.9999338765631575,125.53103440720295
13.022901248,0.9999713300593229,124.86903036790036
13.043257344,1.0000101774507144,124.20660172471038
13.06361344,1.0000490611278898,123.54373004487871
13.083969536,1.0000864514199388,122.88041552298569
13.104325632,1.0001209416053432,122.21667305385608
13.124681728,1.000151581921474,121.5525523413649
13.145037824,1.0001769739377766,120.88810949575435
13.16539392,1.000196339798645,120.22338943292883
13.18575104,1.0002089152899432,119.55846963026161
13.206107136,1.0002142448753848,118.89341668032785
13.226463232,1.0002118738486594,118.22831852601361
13.246819328,1.0002019944573106,117.56324724897217
13.267175424,1.0001849722797502,116.89830428702345
13.28753152,1.000161191879107,116.23353709581181
13.307887616,1.000131640614211,115.56904224012263
13.328244736,1.0000970522538832,114.90487599405864
13.348600832,1.0000589005148786,114.24106656683144
13.368956928,1.000018345663612,113.57766235526242
13.389313024,0.9999768742786664,112.91467979329015
13.40966912,0.9999359933510447,112.25212908450001
13.430025216,0.9998969974251105,111.58997936712476
13.450381312,0.999861613221718,110.92822897334592
13.470737408,0.99983077700487,110.26681012763645
13.491094528,0.9998058268392912,109.60569577376125
13.511450624,0.9997876293846715,108.94481427967943
13.53180672,0.9997768624674936,108.28404519821817
13.552162816,0.9997740668318984,107.62336549599843
13.572518912,0.9997794082633212,106.96265853744028
13.592875008,0.9997927038238527,106.3018332357195
13.613231104,0.9998133736041929,105.64080538104648
13.633588224,0.9998410062780666,104.9795263299486
13.65394432,0.9998746062681584,104.31789169149445
13.674300416,0.9999129911072347,103.65584883979766
13.694656512,0.9999547335962488,102.99336464740962
13.715012608,0.9999986656406198,102.33040228853997
13.735368704,1.0000429177350485,101.66694215700176
13.7557248,1.0000861073237557,101.00297733981367
13.77608192,1.000126491964427,100.33855859654439
13.796438016,1.0001629137522918,99.673683731123
13.816794112,1.0001937831910188,99.00841562998096
13.837150208,1.0002180629593762,98.34284436180974
13.857506304,1.0002348004338355,97.67700548665985
13.8778624,1.000243341291958,97.01101095199327
13.898218496,1.0002432692213947,96.3449362116229
13.918574592,1.000234645968248,95.67886979556009
13.938931712,1.0002175372185003,95.01292719124098
13.959287808,1.0001925543526582,94.34718431455441
13.979643904,1.0001605412829084,93.6817372760665
14.0,1.00012254140943,93.01662381739646
