freq,mag,phase
6.0,1.0007844138386175,-53.293024368447846
6.005161472,1.0008310606319726,-53.53083242177338
6.010322432,1.000828846318963,-53.76894644625371
6.015483904,1.0007783130156167,-54.00680501811716
6.020645376,1.000682056013731,-54.243681167276016
6.025806336,1.0005458656206105,-54.478988559286265
6.030967808,1.0003779534585988,-54.71224395124427
6.03612928,1.0001875876165425,-54.943024475870224
6.04129024,0.9999862436281189,-55.17120270529069
6.046451712,0.9997855667401114,-55.396569289997785
6.051612672,0.9995973548353414,-55.619267946980145
6.056774144,0.9994324350136077,-55.83960291837399
6.061935616,0.9993008610310933,-56.05789355814121
6.067096576,0.9992101306849005,-56.27462888032193
6.072258048,0.9991655929649611,-56.49055761160566
6.07741952,0.9991698794162625,-56.7062119687239
6.08258048,0.9992227435069678,-56.92231906266961
6.087741952,0.9993211988018298,-57.139570477346155
6.092903424,0.9994596124420749,-57.35848276880831
6.098064384,0.9996296158965267,-57.579613683844755
6.103225856,0.9998213582625343,-57.8033756899143
6.108387328,1.0000237040075726,-58.02987360443196
6.113548288,1.0002248392629902,-58.259269132577835
6.11870976,1.000412809620935,-58.49149181918995
6.12387072,1.0005767742562095,-58.72614656905473
6.129032192,1.000707254872075,-58.96292785126747
6.134193664,1.00079625182038,-59.20134303191419
6.139354624,1.0008387860155994,-59.44070182466759
6.144516096,1.00083246590888,-59.680377228520086
6.149677568,1.0007774951497717,-59.919639906046164
6.154838528,1.0006766643445282,-60.15790543059251
6.16,1.0005366617861833,-60.394555821863555
6.165161472,1.0003650732395677,-60.62909283973634
6.170322432,1.0001719808827803,-60.86113168320491
6.175483904,0.9999685819919977,-61.09048963208568
6.180645376,0.9997669906715025,-61.31705003025709
6.185806336,0.9995789459911728,-61.54096548274044
6.190967808,0.9994155482653688,-61.762444190575906
6.19612928,0.9992861272865677,-61.98191137250675
6.20129024,0.9991985041121817,-62.19993224514236
6.206451712,0.9991578234886785,-62.417169711161414
6.211612672,0.9991662705069039,-62.63414691531653
6.216774144,0.999223615913856,-62.85167099988961
6.221935616,0.9993266254073891,-63.070407210409066
6.227096576,0.9994689632370163,-63.290834672883996
6.232258048,0.9996425384161713,-63.51354005581007
6.23741952,0.99983702336332,-63.73892480406127
6.24258048,1.0000413109403157,-63.96711559366265
6.247741952,1.000243352743047,-64.19819340921256
6.252903424,1.0004312216470455,-64.43201836893894
6.258064384,1.0005939898121865,-64.66836942765474
6.263225856,1.0007220615864434,-64.90677809657426
6.268387328,1.0008079813998405,-65.14674848153605
6.273548288,1.0008467914206505,-65.38770809247075
6.27870976,1.0008360698388943,-65.6288303682218
6.28387072,1.0007766910564067,-65.86957290154437
6.289032192,1.0006716850637283,-66.1092271863921
6.294193664,1.0005275535597244,-66.34718669740296
6.299354624,1.0003523360200814,-66.58297165052434
6.304516096,1.000156567459003,-66.81620112311076
6.309677568,0.999951389477089,-67.0467548715028
6.314838528,0.9997489970999912,-67.27446856058368
6.32,0.9995612073830151,-67.49950777055558
6.325161472,0.9993989226736083,-67.7222078488389
6.330322432,0.9992716283051992,-67.94287241561452
6.335483904,0.9991871117992156,-68.16212606475163
6.340645376,0.9991500665078801,-68.38056786689124
6.345806336,0.9991627562513098,-68.59894764805959
6.350967808,0.9992245779999734,-68.8178148686279
6.35612928,0.9993317854273884,-69.03795432006542
6.36129024,0.9994782348184732,-69.25991226619439
6.366451712,0.9996553969122955,-69.4841999198207
6.371612672,0.9998525904200335,-69.71115022580362
6.376774144,1.0000585974089262,-69.94094664782286
6.381935616,1.0002615464477556,-70.1736446947368
6.387096576,1.0004490364928849,-70.40914584361511
6.392258048,1.00061058109246,-70.64715131325283
6.39741952,1.0007364236297773,-70.887186978632
6.40258048,1.0008194956391188,-71.12873790783398
6.407741952,1.0008545174476455,-71.37113802199654
6.412903424,1.0008398264356355,-71.61376181493195
6.418064384,1.0007759845713722,-71.85590342246836
6.423225856,1.0006667229039878,-72.0969116384508
6.428387328,1.000518512940827,-72.33615420075165
6.433548288,1.0003398641031551,-72.57317851851978
6.43870976,1.0001414268477005,-72.80759905316579
6.44387072,0.9999343199873966,-73.03927407384161
6.449032192,0.9997310672754919,-73.26815604458105
6.454193664,0.9995433300152646,-73.49435107519561
6.459354624,0.9993824278763576,-73.7181263844839
6.464516096,0.999257451422755,-73.93997681488545
6.469677568,0.9991757823762263,-74.16043763376612
6.474838528,0.9991425861059459,-74.38012957651792
6.48,0.9991592423938067,-74.59975900118381
6.485161472,0.9992253009228633,-74.82002785685157
6.490322432,0.9993369223772278,-75.0415726802938
6.495483904,0.9994873347921965,-75.26497185201235
6.500645376,0.999667743050473,-75.49078905776285
6.505806336,0.9998677862697997,-75.71927836881996
6.510967808,1.0000758611520764,-75.9506541031069
6.51612928,1.0002793298514026,-76.18499817888248
6.52129024,1.0004668727210746,-76.42208523990217
6.526451712,1.0006270416031116,-76.66167406924198
6.531612672,1.000750694127456,-76.90328300846757
6.536774144,1.0008306957040936,-77.14636148730881
6.541935616,1.000862222785459,-77.39026464527684
6.547096576,1.0008434171277727,-77.63434014965088
6.552258048,1.0007752357773878,-77.87784908340967
6.55741952,1.000661830695724,-78.1201317781613
6.56258048,1.0005097261526321,-78.36063790987595
6.567741952,1.000327551063211,-78.59887369261696
6.572903424,1.0001263767971835,-78.83446722638224
6.578064384,0.9999174954205318,-79.06724501528629
6.583225856,0.999713433779668,-79.29722317024405
6.588387328,0.9995260275723128,-79.52447327971348
6.593548288,0.9993661245219913,-79.749416339086
6.59870976,0.9992433147959415,-79.97238138114642
6.60387072,0.9991647317945002,-80.19401426805696
6.609032192,0.9991350287629343,-80.41487282975702
6.614193664,0.9991559094777271,-80.63575009611972
6.619354624,0.9992263325971648,-80.85735304356166
6.624516096,0.9993419677860208,-81.0802514827801
6.629677568,0.99949622459287,-81.30513474293473
6.634838528,0.9996800984591441,-81.53237975759806
6.64,0.9998827579551763,-81.76239988070473
6.645161472,1.000092602577294,-81.99536936491084
6.650322432,1.0002969453701829,-82.23124716453813
6.655483904,1.0004841662359107,-82.46990590848546
6.660645376,1.0006432446346336,-82.71102895872295
6.665806336,1.0007648677902574,-82.95417474223319
6.670967808,1.0008418802592078,-83.19870735480187
6.67612928,1.00086977632477,-83.44407794941466
6.68129024,1.0008469559036557,-83.68954837622692
6.686451712,1.0007745967781423,-83.93434601166108
6.691612672,1.0006569328888932,-84.17793383714313
6.696774144,1.0005008946907037,-84.41963779388634
6.701935616,1.0003154417296412,-84.65902345060637
6.707096576,1.000111525448813,-84.89574642087697
6.712258048,0.9999010307035704,-85.1296030977369
6.71741952,0.9996961003186522,-85.36066534206441
6.72258048,0.9995087694337648,-85.58900454963793
6.727741952,0.999350117056998,-85.81498322895692
6.732903424,0.9992293336437731,-86.039023349792
6.738064384,0.9991537274820436,-86.26177729174388
6.743225856,0.9991275224279257,-86.48381899776636
6.748387328,0.9991525032956303,-86.70592873082298
6.753548288,0.9992269094619769,-86.92875775744119
6.75870976,0.999346796374569,-87.15300227963276
6.76387072,0.9995049800682252,-87.37925492554218
6.769032192,0.9996921862771772,-87.60794224494983
6.774193664,0.9998975744423544,-87.83944418824709
6.779354624,1.000108987461105,-88.07384944184277
6.784516096,1.0003143707229347,-88.3112434989382
6.789677568,1.0005014091824491,-88.55144527280873
6.794838528,1.0006592484355465,-88.79408159511466
6.8,1.000778745296416,-89.03869331731343
6.805161472,1.000852850530495,-89.2847214382356
6.810322432,1.0008773491879852,-89.53145168189681
6.815483904,1.0008504249143648,-89.77824730275081
6.820645376,1.0007738779012958,-90.02435345855159
6.825806336,1.0006522685864516,-90.26916384828222
6.830967808,1.000492355028516,-90.51206131361998
6.83612928,1.0003035964273184,-90.75253135624227
6.84129024,1.00009692953614,-90.99030865989592
6.846451712,0.9998845169915064,-91.22524508850746
6.851612672,0.9996787677072208,-91.45728224030967
6.856774144,0.9994915688752789,-91.68663010334194
6.861935616,0.9993341159781007,-91.91362019926122
6.867096576,0.9992154945994776,-92.13875463400021
6.872258048,0.9991427902784189,-92.36253271682956
6.87741952,0.999119991277727,-92.58572944395
6.88258048,0.9991488020439708,-92.8089854869266
6.887741952,0.9992276180303907,-93.03304139786792
6.892903424,0.9993515105219183,-93.25856983871843
6.898064384,0.9995135466484224,-93.486092360703
6.903225856,0.99970404741286,-93.71616150829709
6.908387328,0.9999120993151523,-93.94906990646588
6.913548288,1.0001254094347467,-94.18494963044854
6.91870976,1.00033150728289,-94.42382144329191
6.92387072,1.000518481691657,-94.66547052560172
6.929032192,1.0006752324070771,-94.90955430966918
6.934193664,1.0007926807436165,-95.15560555217006
6.939354624,1.0008639615684232,-95.40296008658689
6.944516096,1.0008847919979487,-95.65108231171529
6.949677568,1.0008540948204392,-95.89915170428013
6.954838528,1.0007735422489679,-96.14651142542863
6.96,1.0006476552691255,-96.39246889471153
6.965161472,1.0004838704093926,-96.63647777086307
6.970322432,1.0002919409624689,-96.87805021467574
6.975483904,1.0000826703981966,-97.11684977846078
6.980645376,0.9998683797921429,-97.352737747811
6.985806336,0.999661823981056,-97.58576470595327
6.990967808,0.9994747547646078,-97.8160690286218
6.99612928,0.9993183613151647,-98.0440196809839
7.00129024,0.9992016612327743,-98.27009752720208
7.006451712,0.9991318161302185,-98.49493533953698
7.011612672,0.9991126406875288,-98.71914931443554
7.016774144,0.9991453622878507,-98.94353385654912
7.021935616,0.9992281006620243,-99.16877184477563
7.027096576,0.9993561048209282,-99.39546997920415
7.032258048,0.9995219523064541,-99.62431917301075
7.03741952,0.9997158484448532,-99.85570649553623
7.04258048,0.9999265635704462,-100.0899366960646
7.047741952,1.0001416796861533,-100.32722531007012
7.052903424,1.0003486921136493,-100.56747138899124
7.058064384,1.0005353681649265,-100.81051030019115
7.063225856,1.0006911079366185,-101.05600437371358
7.068387328,1.0008065245557975,-101.30339306829912
7.073548288,1.000874979521706,-101.55212509441607
7.07870976,1.000892286974376,-101.80152410590266
7.08387072,1.000857726861258,-102.0508255176258
7.089032192,1.0007730966017234,-102.29933239809591
7.094193664,1.0006432159864278,-102.54644072178876
7.099354624,1.0004756977057454,-102.7914908705756
7.104516096,1.000280372771267,-103.03406480343611
7.109677568,1.0000683903510144,-103.27383115309094
7.114838528,0.9998524358449586,-103.51067484413801
7.12,0.9996448627680677,-103.74459824485727
7.125161472,0.9994579705181931,-103.97581817170166
7.130322432,0.9993025692403946,-104.20467472841088
7.135483904,0.9991880168635716,-104.4316458012314
7.140645376,0.9991208282937164,-104.65741198128647
7.145806336,0.9991050617705802,-104.88264892141387
7.150967808,0.9991416551154813,-105.10808619068074
7.15612928,0.9992285087523621,-105.33440763775543
7.16129024,0.9993606153332684,-105.56228423992391
7.166451712,0.9995302332704618,-105.79229984902905
7.171612672,0.9997274242489145,-106.02495574745444
7.176774144,0.9999407220013203,-106.26049282277
7.181935616,1.0001576817620785,-106.49905401406542
7.187096576,1.0003655695190692,-106.74066991891401
7.192258048,1.0005521771732697,-106.98504660468835
7.19741952,1.0007069135372826,-107.23182453755915
7.20258048,1.0008203681341052,-107.48054835881882
7.207741952,1.0008860665598,-107.73055020879127
7.212903424,1.0009001140769003,-107.98113032594202
7.218064384,1.0008616560845485,-108.23162525996067
7.223225856,1.000772926232789,-108.48126978165597
7.228387328,1.0006389637636715,-108.72940627174654
7.233548288,1.0004676209815841,-108.9754328500001
7.23870976,1.0002689566259026,-109.21895513720548
7.24387072,1.000054473874576,-109.45961607430155
7.249032192,0.9998365747554627,-109.69731817621471
7.254193664,0.9996281916118647,-109.93210914028668
7.259354624,0.9994412601257916,-110.16413311558148
7.264516096,0.9992869992918908,-110.39383673536116
7.269677568,0.9991743893434353,-110.62169328330218
7.274838528,0.999109938125653,-110.84835147622181
7.28,0.9990975336828763,-111.0745219482766
7.285161472,0.9991379696145287,-111.30088837926208
7.290322432,0.9992288895435313,-111.52827163653077
7.295483904,0.9993649964409284,-111.7572503834205
7.300645376,0.9995384159500948,-111.9884010419424
7.305806336,0.9997388397089685,-112.2221941300132
7.310967808,0.9999549113640526,-112.45896186777338
7.31612928,1.000173669113448,-112.6987769939625
7.32129024,1.000382442500559,-112.94161100096291
7.326451712,1.0005690478734632,-113.18728769496856
7.331612672,1.000722697543228,-113.43533633327144
7.336774144,1.0008342466589424,-113.6852755574689
7.341935616,1.0008971772887205,-113.93647032781082
7.347096576,1.000907867965737,-114.18822089067575
7.352258048,1.0008656072804167,-114.43979699947886
7.35741952,1.000772842244291,-114.69046630424624
7.36258048,1.0006349130904515,-114.93959481029918
7.367741952,1.0004598084718668,-115.18656006926716
7.372903424,1.0002578623688945,-115.43095653731328
7.378064384,1.0000406719812216,-115.67247725627226
7.383225856,0.9998208342940108,-115.9109704344975
7.388387328,0.9996115081541302,-116.14648127558314
7.393548288,0.9994246055007874,-116.3793034873704
7.39870976,0.9992713433214299,-116.60972908978457
7.40387072,0.99916062124718,-116.83842595762951
7.409032192,0.9990989452870672,-117.06587674924604
7.414193664,0.9990898520699794,-117.2929062965807
7.419354624,0.9991341118078482,-117.5201985288697
7.424516096,0.9992290490930791,-117.74850958446093
7.429677568,0.9993692244950819,-117.97845804083545
7.434838528,0.9995463323245224,-118.2106809986365
7.44,0.9997501645241834,-118.44559408294644
7.445161472,0.9999687173287787,-118.68349151078304
7.450322432,1.000189402409206,-118.9244738946967
7.455483904,1.000399111338603,-119.16851952728311
7.460645376,1.000585763504463,-119.4153557047741
7.465806336,1.0007383602653177,-119.66457679120477
7.470967808,1.0008480185081474,-119.91568993030091
7.47612928,1.0009083550566464,-120.16801150956405
7.48129024,1.0009156754303765,-120.42081114978492
7.486451712,1.0008696234897012,-120.67340608000328
7.491612672,1.0007727703031644,-120.92505574602075
7.496774144,1.000630881896874,-121.17507724746325
7.501935616,1.0004520543354363,-121.42290810447034
7.507096576,1.0002466583266196,-121.66808689884132
7.512258048,1.0000267094895066,-121.91036305768324
7.51741952,0.9998051309892616,-122.14957550890087
7.52258048,0.9995947666583972,-122.38581464054809
7.527741952,0.9994079560511927,-122.61928785505879
7.532903424,0.9992555857323732,-122.85044681701203
7.538064384,0.9991466944896111,-123.07981576374507
7.543225856,0.9990876874731426,-123.30799155309842
7.548387328,0.9990820055108637,-123.53580774853926
7.553548288,0.99913006492623,-123.76391970868545
7.55870976,0.999228939568219,-123.99307332607073
7.56387072,0.9993731606387367,-124.22394228863314
7.569032192,0.9995541072051528,-124.45716642770321
7.574193664,0.9997612570037419,-124.69309357911068
7.579354624,0.9999826017023979,-124.93205739023645
7.584516096,1.0002050933685238,-125.17413152141535
7.589677568,1.0004158667483467,-125.41927901586848
7.594838528,1.0006024953931507,-125.66721847728438
7.6,1.0007541442958308,-125.91755771827304
7.605161472,1.0008620366663943,-126.16972822381864
7.610322432,1.000919641897871,-126.42307758369631
7.615483904,1.0009236625405136,-126.67688229477248
7.620645376,1.000873838406309,-126.9304442365593
7.625806336,1.0007730027759092,-127.18296003298106
7.630967808,1.0006270738492389,-127.43383330385572
7.63612928,1.0004444199775868,-127.6824218707862
7.64129024,1.000235642959385,-127.9283249303001
7.646451712,1.0000130341651328,-128.1712399116648
7.651612672,0.9997895335988353,-128.41111888342206
7.656774144,0.9995781482552056,-128.64792824542997
7.661935616,0.9993913071401178,-128.88204359514324
7.667096576,0.9992398457218173,-129.11378991471938
7.672258048,0.99913280024169,-129.34379718278447
7.67741952,0.9990764328966694,-129.57263258751556
7.68258048,0.9990740098110522,-129.8010889821259
7.687741952,0.9991258023189271,-130.02995964996546
7.692903424,0.9992288348930397,-130.2599238369629
7.698064384,0.9993770451664454,-130.49162149235835
7.703225856,0.9995617331159703,-130.72569262872946
7.708387328,0.9997722910534542,-130.9625678479734
7.713548288,0.9999963893078891,-131.20250346743242
7.71870976,1.0002208737904008,-131.4455948074537
7.72387072,1.0004325816609292,-131.69174686511124
7.729032192,1.000619250718582,-131.94070697725417
7.734193664,1.0007699965199914,-132.19207295165674
7.739354624,1.000876020167245,-132.44522354686885
7.744516096,1.00093103963093,-132.69953439734334
7.749677568,1.0009317243310152,-132.9542764383469
7.754838528,1.0008781580655022,-133.20868745771605
7.76,1.0007732627053678,-133.46199772097023
7.765161472,1.0006232774869277,-133.71359784240246
7.770322432,1.0004367741384568,-133.96288836939712
7.775483904,1.0002247567052138,-134.2094240301863
7.780645376,0.9999993702393304,-134.45294876324888
7.785806336,0.9997738965581968,-134.6933463834968
7.790967808,0.9995614593157474,-134.93071208559866
7.79612928,0.9993744691633253,-135.1653219295783
7.80129024,0.999223925664391,-135.3975958302489
7.806451712,0.9991187051730038,-135.62808068567327
7.811612672,0.9990649851714976,-135.8575042677627
7.816774144,0.9990658986190718,-136.0865659576978
7.821935616,0.9991213994321072,-136.3160513898318
7.827096576,0.9992284801159861,-136.54669527973985
7.832258048,0.9993807267841763,-136.77917087152855
7.83741952,0.9995693194015374,-137.01403615152577
7.84258048,0.9997833068452923,-137.25176269874245
7.847741952,1.000010094772068,-137.49258495147035
7.852903424,1.0002365272947584,-137.73658665041378
7.858064384,1.0004493355213466,-137.98370063563388
7.863225856,1.000636193462229,-138.23355612198523
7.868387328,1.0007860166623077,-138.48583204162978
7.873548288,1.000890155355075,-138.73991991663183
7.87870976,1.000942494985375,-138.99509898712407
7.88387072,1.0009399575741287,-139.2506634018231
7.889032192,1.0008826107110822,-139.5058108889805
7.894193664,1.0007737409846449,-139.75988945890077
7.899354624,1.0006196456325844,-140.0121349872574
7.904516096,1.0004292641608872,-140.2619886490675
7.909677568,1.0002137748840574,-140.50910594081
7.914838528,0.9999855453509996,-140.75309372282675
7.92,0.9997581288742691,-140.9939533323814
7.925161472,0.999544525226394,-141.23175634350184
7.930322432,0.9993574740264174,-141.46678017067237
7.935483904,0.9992077760333962,-141.69948178936815
7.940645376,0.9991043871933244,-141.93041492232638
7.945806336,0.9990532390521157,-142.1602994913089
7.950967808,0.9990574974409053,-142.38986996667805
7.95612928,0.9991168485554287,-142.61989845008452
7.96129024,0.9992279578270219,-142.85115338583
7.966451712,0.9993843057750004,-143.08426746532527
7.971612672,0.9995767570460256,-143.31984848356112
7.976774144,0.9997941662792444,-143.55832576644565
7.981935616,1.0000237740031295,-143.7999171655018
7.987096576,1.0002522939189145,-144.04474325728802
7.992258048,1.0004662316294357,-144.29265401749134
7.99741952,1.0006531496094375,-144.5434197549721
8.00258048,1.0008021985057232,-144.79650667046312
8.007741952,1.0009045890459134,-145.05137792487594
8.012903424,1.000954274669607,-145.30734394849372
8.018064384,1.0009484756843396,-145.56366038083266
8.023225856,1.0008872443936605,-145.81950332650962
8.028387328,1.0007743275221614,-146.07417640394794
8.033548288,1.0006161753995269,-146.32699198324042
8.03870976,1.0004219404703771,-146.577361117729
8.04387072,1.0002028280153052,-146.82490687000467
8.049032192,0.9999718476093662,-147.06930311116523
8.054193664,0.9997422617361952,-147.3105271814714
8.059354624,0.999527572246183,-147.5486490568749
8.064516096,0.9993403444923438,-147.78400592513898
8.069677568,0.9991915189889196,-148.01703072454427
