freq,mag,phase
6.0,0.9997088858768663,-26.643108601993273
6.010553856,0.9994923984279699,-27.035374169930176
6.021108224,0.9992994048596038,-27.425223695705757
6.03166208,0.9991414746314624,-27.812946255844953
6.042216448,0.9990262249103845,-28.199126956199123
6.052770304,0.998959845845459,-28.584287542206013
6.063324672,0.9989453945871614,-28.96910444322767
6.073878528,0.9989839138711388,-29.354240478475234
6.084432896,0.9990733757304374,-29.740381139002384
6.094986752,0.9992094025562415,-30.128139942682353
6.10554112,0.9993852003553263,-30.518107627898445
6.116094976,0.9995922248996916,-30.910682464128342
6.126648832,0.9998200200975023,-31.306253770762066
6.1372032,1.0000572056892607,-31.704986293432142
6.147757056,1.0002921576402288,-32.106942540067806
6.158311424,1.0005129495243088,-32.512014753757
6.16886528,1.0007088604577126,-32.9199311866314
6.179419648,1.000869655214455,-33.330387307540384
6.189973504,1.0009877489774492,-33.74273537249464
6.200527872,1.0010567522261293,-34.156513310938294
6.211081728,1.0010738162749744,-34.57102621008457
6.221636096,1.0010374578944967,-34.98561942173589
6.232189952,1.000949830873244,-35.39957934773069
6.242743808,1.000814898486346,-35.81235060266649
6.253298176,1.0006395059840487,-36.22326678428455
6.263852032,1.0004322745078849,-36.63193290096788
6.2744064,1.0002034184917534,-37.03796763121505
6.284960256,0.9999643241599726,-37.44122569187414
6.295514624,0.9997269207069257,-37.84153210425386
6.30606848,0.9995029608564131,-38.23912661886966
6.316622848,0.9993040400565895,-38.63411125487611
6.327176704,0.9991395669593296,-39.026985967939275
6.337731072,0.9990181686405978,-39.41816936364043
6.348284928,0.9989455681336169,-39.80824205727046
6.358839296,0.9989260439064178,-40.19797600323323
6.369393152,0.9989599278827039,-40.58792565296782
6.379947008,0.9990461855012633,-40.9788125417444
6.390501376,0.9991804267370435,-41.37135552901013
6.401055232,0.9993559312928035,-41.766009664292625
6.4116096,0.999563884392285,-42.16334727896195
6.422163456,0.9997941684052352,-42.563718295248236
6.432717824,1.0000350968087075,-42.96726053598528
6.44327168,1.0002748760082605,-43.374089801730676
6.453826048,1.0005016121706936,-43.784119550809564
6.464379904,1.0007035458299127,-44.197112797218935
6.474934272,1.0008712715240926,-44.61264701897421
6.485488128,1.0009960943911853,-45.03023020594126
6.496041984,1.001071583159189,-45.449332301175694
6.506596352,1.0010942538055903,-45.86922028086766
6.517150208,1.0010626312535882,-46.289271008745
6.527704576,1.0009784643860973,-46.7087422659762
6.538258432,1.0008455171369683,-47.12710085793218
6.5488128,1.0006707260672114,-47.54359488915976
6.559366656,1.0004625586150233,-47.957867279668264
6.569921024,1.000231274265587,-48.3695050602464
6.58047488,0.9999882159200502,-48.77828740854803
6.591029248,0.9997459399599086,-49.184152175182255
6.601583104,0.9995160390006761,-49.587073434374126
6.61213696,0.9993101519296861,-49.98748581331052
6.622691328,0.9991386059865676,-50.38559480871351
6.633245184,0.9990099328782658,-50.78195018051095
6.643799552,0.9989307388826512,-51.17717962767118
6.654353408,0.9989050176832003,-51.57185888468771
6.664907776,0.998933893418375,-51.96678885202346
6.675461632,0.9990163917399006,-52.36258452475419
6.686016,0.9991481183859506,-52.75995703890436
6.696569856,0.9993227483634463,-53.15947430258094
6.707124224,0.9995315708578115,-53.561651421250886
6.71767808,0.9997642650137017,-53.96689229073295
6.728231936,1.0000090915748303,-54.3753612391441
6.738786304,1.0002541601060773,-54.78717364058991
6.74934016,1.0004871350981794,-55.20223268150687
6.759894528,1.0006963773348507,-55.620347404042114
6.770448384,1.0008715122302276,-56.04112870223973
6.781002752,1.0010036931029538,-56.464051290687216
6.791556608,1.0010864694784414,-56.8885842437818
6.802110976,1.0011154605105703,-57.314024042866386
6.812664832,1.001089409507753,-57.73967729737421
6.8232192,1.0010093652275198,-58.16486433614732
6.833773056,1.0008792575591576,-58.588873424107724
6.844327424,1.0007054274446257,-59.011169285949585
6.85488128,1.0004965815352163,-59.43121548192412
6.865435136,1.0002627471007388,-59.848599934894025
6.875989504,1.0000158921907003,-60.26307508598664
6.88654336,0.9997680609584849,-60.67458837797903
6.897097728,0.9995318344177819,-61.083156376640055
6.907651584,0.9993183729240179,-61.489032982153
6.918205952,0.9991390285702334,-61.89255608959525
6.928759808,0.9990023363076607,-62.29421750412526
6.939314176,0.9989156642966276,-62.6946379636862
6.949868032,0.9988827434048531,-63.09448773008815
6.9604224,0.9989058842438588,-63.49444179057032
6.970976256,0.998983666543215,-63.895212790658256
6.981530112,0.9991124206663683,-64.29751897882387
6.99208448,0.9992859207778921,-64.70193473926334
7.002638336,0.9994952443097742,-65.1090245583787
7.013192704,0.9997303141060628,-65.51913765710134
7.02374656,0.999979244079944,-65.93258665018686
7.034300928,1.0002299271988846,-66.349423900724
7.044854784,1.0004696533176234,-66.76960112557127
7.055409152,1.0006866021378706,-67.19292561656401
7.065963008,1.0008698826025613,-67.61901241643942
7.076517376,1.0010104238709492,-68.04736522270738
7.087071232,1.0011013592403988,-68.47739767959986
7.097625088,1.0011376701323231,-68.90848048587125
7.108179456,1.0011180335479233,-69.33984443144755
7.118733312,1.0010428744474418,-69.770799920884
7.12928768,1.000916166688878,-70.20069590798701
7.139841536,1.0007438647488538,-70.62885231607463
7.150395904,1.0005345248968656,-71.0547751330193
7.16094976,1.0002985121029078,-71.47805006656208
7.171504128,1.0000475185087265,-71.89838954386316
7.182057984,0.9997939804372111,-72.31569485129901
7.192612352,0.9995504805425475,-72.72994722561782
7.203166208,0.9993292179438307,-73.14143701238103
7.213720064,0.9991410535974348,-73.5504943013826
7.224274432,0.998995767317149,-73.95752074346456
7.234828288,0.9989002642187684,-74.36326783687505
7.245382656,0.9988596827647582,-74.76826511313197
7.255936512,0.9988758653872423,-75.17329955968756
7.26649088,0.9989483581199132,-75.57911155589245
7.277044736,0.9990734946337693,-75.98634980923295
7.287599104,0.999245138365908,-76.39572354914515
7.29815296,0.9994547046293358,-76.80769765898329
7.308707328,0.999691891835788,-77.22275410985141
7.319261184,0.9999451829021451,-77.64112407769639
7.329815552,1.0002016380570529,-78.06300195966006
7.340369408,1.0004485893868078,-78.48830429860847
7.350923264,1.0006738562307116,-78.91681898903445
7.361477632,1.0008663834866838,-79.34822218444037
7.372031488,1.001016153927474,-79.78201980284048
7.382585856,1.0011160820447003,-80.21763884363624
7.393139712,1.001160991051704,-80.6543555009356
7.40369408,1.0011484783151177,-81.09152968735557
7.414247936,1.0010792640932489,-81.52832136475237
7.424802304,1.00095634870746,-81.9641406130763
7.43535616,1.0007861085655247,-82.39829525748267
7.445910528,1.0005768401409316,-82.83017923036827
7.456464384,1.0003386149413669,-83.25942768360639
7.46701824,1.0000834929185616,-83.68570257211802
7.477572608,0.9998238709586016,-84.10885496200474
7.488126464,0.9995728359297302,-84.52893535281386
7.498680832,0.9993427869691842,-84.94608732599386
7.509234688,0.9991452236554975,-85.36066092877205
7.519789056,0.9989901564553797,-85.77317429113819
7.530342912,0.9988849509498493,-86.18422273922972
7.54089728,0.9988354637665304,-86.59441665493533
7.551451136,0.9988438730611207,-87.00455036567354
7.562005504,0.9989101595777728,-87.41531711507778
7.57255936,0.9990308535167518,-87.82749254048946
7.583113216,0.9992001015795673,-88.24172154835748
7.593667584,0.9994095724595007,-88.65855970443899
7.60422144,0.9996489965830984,-89.07848507543328
7.614775808,0.9999063145198543,-89.50178266353502
7.625329664,1.000168979854192,-89.92864820108043
7.635884032,1.000423755209931,-90.3589795756722
7.646437888,1.0006580700686734,-90.79266552641377
7.656992256,1.0008603955190025,-91.22935224794725
7.667546112,1.0010206153167411,-91.66857050047653
7.67810048,1.0011305175931573,-92.10970726672046
7.688654336,1.0011848342433411,-92.55209490347029
7.699208192,1.001180631604461,-92.99504082095388
7.70976256,1.001118020960644,-93.43772378672327
7.720316416,1.0010000619273152,-93.87948298041259
7.730870784,1.0008326011875857,-94.31960585099328
7.74142464,1.000623458227442,-94.75752254718985
7.751979008,1.0003834774927196,-95.19275827056536
7.762532864,1.000124122372649,-95.62501810422708
7.773087232,0.9998583345506863,-96.05406245293386
7.783641088,0.9995991699746898,-96.47993120373829
7.794195456,0.9993597453587533,-96.90277194689935
7.804749312,0.9991518388875135,-97.32295981207636
7.81530368,0.9989858753272933,-97.74087877097621
7.825857536,0.9988702006863485,-98.15718515963161
7.836411392,0.9988105998162958,-98.57256210107984
7.84696576,0.9988102290542396,-98.98769369370797
7.857519616,0.9988692442841439,-99.40339186585987
7.868073984,0.9989845498985682,-99.82041152647668
7.87862784,0.9991508516912222,-100.23939838810718
7.889182208,0.999359665709373,-100.66100025988635
7.899736064,0.9996008733790585,-101.08567032037598
7.910290432,0.9998624487705021,-101.51378367807385
7.920844288,1.000131459988275,-101.94546529206056
7.931398656,1.000394592655126,-102.38074151756437
7.941952512,1.000638724518416,-102.81950435256961
7.952506368,1.0008517134858408,-103.26134023949409
7.963060736,1.0010231581518567,-103.70587311912021
7.973614592,1.0011443352947138,-104.15245024361964
7.98416896,1.0012090165688556,-104.60045636203209
7.994722816,1.0012141822567666,-105.04907514127015
8.005277184,1.0011593673303383,-105.49762297858628
8.01583104,1.0010472401270707,-105.94526820508686
8.026385408,1.000883020028658,-106.39136469550324
8.036939264,1.0006749634281047,-106.83527703158515
8.047493632,1.000433182575154,-107.27647491711164
8.058047488,1.0001696112474432,-107.71466532217059
8.068601344,0.9998972960094316,-108.14958048487821
8.079155712,0.9996297362683398,-108.58121240140368
8.089709568,0.9993801553925341,-109.00973461427475
8.100263936,0.9991610180440659,-109.43542512399866
8.110817792,0.9989832359529077,-109.85871195536366
8.12137216,0.9988558128576586,-110.28020479546318
8.131926016,0.9987851612112133,-110.70061620728752
8.142480384,0.9987747373499022,-111.12066499928187
8.15303424,0.9988254188567226,-111.5411457300114
8.163588608,0.9989345553272854,-111.96285580699572
8.174142464,0.9990970219258316,-112.38646169231029
8.18469632,0.9993047234959153,-112.81263300261642
8.195250688,0.9995474849968756,-113.24184689897203
8.205804544,0.9998132518508983,-113.67455476842689
8.216358912,1.0000888522741835,-114.11089375973818
8.226912768,1.000360727481923,-114.550915318467
8.237467136,1.000615381170085,-114.9945448169242
8.248020992,1.0008400559543364,-115.44139680375449
8.25857536,1.0010237040892995,-115.89106330499618
8.269129216,1.0011572083442162,-116.34297735091933
8.279683584,1.001233740058823,-116.79640233160931
8.29023744,1.0012494345387084,-117.25063480021198
8.300791808,1.0012035442099443,-117.70485791766868
8.311345664,1.0010980731989445,-118.15832011262322
8.32189952,1.0009380839716624,-118.61027695348342
8.332453888,1.0007315004777906,-119.06004652043205
8.343007744,1.0004883839206473,-119.50718037360512
8.353562112,1.0002207977532565,-119.95121639268166
8.364115968,0.9999417700718014,-120.39191700225294
8.374670336,0.9996651753800693,-120.82924713574128
8.385224192,0.9994048445664068,-121.26329501704446
8.39577856,0.9991735945941225,-121.69435657290862
8.406332416,0.9989829303180395,-122.12289157623347
8.416886784,0.9988425910226321,-122.54943813067597
8.42744064,0.9987595055770985,-122.97472695297431
8.437994496,0.9987379018819991,-123.3995120637299
8.448548864,0.9987790762849328,-123.82458607643115
8.45910272,0.998880933492911,-124.25073923587897
8.469657088,0.9990388176237773,-124.67872123512166
8.480210944,0.9992446279720938,-125.10920629573413
8.490765312,0.9994886365714526,-125.5427623465574
8.501319168,0.9997583598766215,-125.97980631099023
8.511873536,1.0000408419070483,-126.4205313896861
8.522427392,1.0003219640208398,-126.86505591756011
8.53298176,1.0005878082484025,-127.31325746791549
8.543535616,1.000825039736541,-127.76488687023317
8.554089472,1.001022135348172,-128.21945988280672
8.56464384,1.0011691622152057,-128.67643034995208
8.575197696,1.0012586574097047,-129.13509006462286
8.585752064,1.001286195860783,-129.59470696635464
8.59630592,1.0012503585055315,-130.05443745353543
8.606860288,1.001152643064646,-130.51353866852105
8.617414656,1.0009977858492354,-130.9711900988121
8.627968,1.0007934323261836,-131.42674047432624
8.638522368,1.0005493388774054,-131.87960573790124
8.649076736,1.0002777871754742,-132.32934214206537
8.659631104,0.9999918964873753,-132.77567518753708
8.670184448,0.9997059823986193,-133.2185371150423
8.680738816,0.9994340194029505,-133.6579634593822
8.691293184,0.999189721982379,-134.09423699859568
8.701846528,0.998985083385419,-134.52780850021136
8.712400896,0.9988305343178294,-134.95922609464162
8.722955264,0.9987336635376413,-135.38915890582496
8.733509632,0.9986995452208516,-135.81837415673735
8.744062976,0.9987299732400066,-136.24777266934498
8.754617344,0.998823520649436,-136.6780886789239
8.765171712,0.9989757197282644,-137.11014542144034
8.77572608,0.9991791199794067,-137.5446390713594
8.786279424,0.9994237432199663,-137.98217784347423
8.796833792,0.9996974616555616,-138.42321876327853
8.80738816,0.999986854332881,-138.86798961324186
8.817941504,1.0002776003339462,-139.31668658051427
8.828495872,1.0005552599590064,-139.76918979269152
8.83905024,1.0008060954272393,-140.22521679188873
8.849604608,1.0010176750724806,-140.68439986999692
8.860157952,1.0011794504473008,-141.1461556270462
8.87071232,1.0012834355798161,-141.60976253941834
8.881266688,1.0013242565941265,-142.07448712887486
8.891821056,1.0012996832177794,-142.53950237932762
8.9023744,1.0012110412569672,-143.0039729984882
8.912928768,1.001062257380275,-143.46710779750046
8.923483136,1.0008608525816054,-143.9281757751117
8.93403648,1.0006164304371645,-144.3865631637605
8.944590848,1.0003410705243028,-144.84179703357788
8.955145216,1.0000482765466596,-145.2935516246572
8.965699584,0.9997524167954179,-145.7417141312272
8.976252928,0.9994682893897244,-146.18628658043997
8.986807296,0.9992099710307377,-146.62756789070133
8.997361664,0.9989901464915493,-147.06586300422532
9.007916032,0.9988200831510545,-147.50184599465194
9.018469376,0.998708111629518,-147.93613300186524
9.029023744,0.998660068480271,-148.36955076010128
9.039578112,0.9986783819873275,-148.80288552278057
9.050131456,0.998762291814566,-149.23703407644277
9.060685824,0.9989078572527372,-149.6727666372095
9.071240192,0.9991079359849255,-150.11089949837532
9.08179456,0.9993527168101816,-150.5520082269253
9.092347904,0.999630160093904,-150.99663299934903
9.102902272,0.9999265607746674,-151.44506521404074
9.11345664,1.0002273606482026,-151.89750050193993
9.124011008,1.0005176468167043,-152.35389102046577
9.134564352,1.0007829996029298,-152.8139526123975
9.14511872,1.001010346315764,-153.27733560000934
9.155673088,1.0011883686452188,-153.74349064557023
9.166226432,1.0013080887396255,-154.21170240374346
9.1767808,1.0013634965647964,-154.6812231355317
9.187335168,1.001351809041983,-155.1511637559849
9.197889536,1.0012733313970337,-155.6207204076352
9.20844288,1.0011318519490817,-156.08902161083572
9.218997248,1.000934149861771,-156.55532362855956
9.229551616,1.0006898413915228,-157.01899280308288
9.240105984,1.000410949721182,-157.47943624297872
9.250659328,1.0001110968252696,-157.9363341787683
9.261213696,0.9998051018274223,-158.3895108017943
9.271768064,0.9995079556164738,-158.83894894219952
9.282321408,0.9992344961551118,-159.28488668632647
9.292875776,0.998998416127174,-159.72767524782327
9.303430144,0.9988114214695739,-160.16784847882622
9.313984512,0.9986827993534202,-160.60613645552345
9.324537856,0.9986192436125518,-161.04333306739463
9.335092224,0.998623911040519,-161.48024494414096
9.345646592,0.9986969307554385,-161.91777685885492
9.35620096,0.998834720712304,-162.3567917497918
9.366754304,0.9990305302806403,-162.7980716970096
9.377308672,0.999274895327749,-163.24229995680366
9.38786304,0.9995557167060218,-163.69003956716992
9.398416384,0.9998593078065716,-164.14166245047514
9.408970752,1.000170594749421,-164.59733626363834
9.41952512,1.00047414459599,-165.05712084806964
9.430079488,1.0007550858453764,-165.52076104503982
9.440632832,1.0009994940997025,-165.98792484027848
9.4511872,1.0011949931964297,-166.45804239522775
9.461741568,1.001332095640754,-166.93043940451645
9.472295936,1.0014037246056977,-167.40431975926185
9.48284928,1.0014063214286655,-167.8788271877542
9.493403648,1.0013395584167004,-168.3531010195947
9.503958016,1.0012064060055172,-168.8262281991653
9.514512384,1.0010135580941004,-169.29742501902723
9.525065728,1.0007699576622908,-169.76600762768717
9.535620096,1.0004879318028124,-170.23135751457016
9.546174464,1.0001809208960943,-170.6930730558091
9.556727808,0.999864196987521,-171.15094178017893
9.567282176,0.9995534100064553,-171.60492573711505
9.577836544,0.9992639837353839,-172.05514251983377
9.588390912,0.9990101041790761,-172.50201751395753
9.598944256,0.9988047437274393,-172.94604243674053
9.609498624,0.9986579562293637,-173.38793390759184
9.620052992,0.9985772893666384,-173.82843982689698
9.63060736,0.9985668178002893,-174.26846567772188
9.641160704,0.9986274465718993,-174.70892388637603
9.651715072,0.998756124198678,-175.15071154933395
9.66226944,0.9989467312570606,-175.59463137194834
9.672822784,0.9991900196227751,-176.04144877550786
9.683377152,0.9994739611814016,-176.4917761906996
9.69393152,0.9997847144165819,-176.94602177254197
9.704485888,1.000106860930606,-177.404444282106
9.715039232,1.0004245550437663,-177.86705820505523
9.7255936,1.0007221071975727,-178.33377652206062
9.736147968,1.0009848740580338,-178.80419408451104
9.746702336,1.0011995063717312,-179.2777964850477
9.75725568,1.0013555882498577,-179.75388089664372
9.767810048,1.0014451369033603,179.76830501520215
9.778364416,1.0014637251769503,179.28966169013114
9.78891776,1.001410058753363,178.81109989602894
9.799472128,1.0012866787733363,178.3335496455559
9.810026496,1.0010994569502174,177.85780889084234
9.820580864,1.00085757878733,177.38470023823055
9.831134208,1.000572455333696,176.9148322784411
9.841688576,1.0002583274920787,176.44864221574275
9.852242944,0.9999306651603193,175.98645424716625
9.862797312,0.9996053641943592,175.52835100095982
9.873350656,0.9992987274140372,175.07418796548805
9.883905024,0.9990259095025886,174.62365801831103
9.894459392,0.9988005284864391,174.17620295905675
9.905012736,0.9986337920639199,173.73121297603214
9.915567104,0.998534244263909,173.28781181418208
9.926121472,0.998507055337784,172.84517599619244
9.93667584,0.9985536635593757,172.40233073804782
9.947229184,0.9986720021704938,171.95833668752525
9.957783552,0.9988563910551067,171.51231601081057
9.96833792,0.999097837363333,171.0634749651312
9.978892288,0.9993844916905786,170.61114987339158
9.989445632,0.9997025396734249,170.15485651467463
10.0,1.0000360750439263,169.69428545845733
10.010554368,1.0003685945642093,169.22937452746422
10.021107712,1.0006839788373771,168.76018096031467
10.03166208,1.0009664055602623,168.28706348635353
10.042216448,1.0012019203130655,167.81051142714415
10.052770816,1.0013786872073882,167.3312120098686
10.06332416,1.0014879988403529,166.84996343376199
10.073878528,1.0015241669958153,166.36767142853782
10.084432896,1.0014852543232882,165.8852682829536
10.094987264,1.0013730135834424,165.40369008298867
10.105540608,1.0011926080608062,164.92386681424537
10.116094976,1.0009528340561888,164.44659887847882
10.126649344,1.0006653524098232,163.9725798692666
10.137202688,1.000343951410507,163.50235959171712
10.147757056,1.0000047407803,163.0362647701435
10.158311424,0.9996642379726912,162.57442016271324
10.168865792,0.9993392117755187,162.11673756085014
10.179419136,0.9990457785284713,161.66295821557688
10.189973504,0.9987987360634696,161.21257175473488
10.200527872,0.9986102615620045,160.7649312003915
10.21108224,0.9984900889075743,160.3191828011372
