freq,mag,phase
6.0,0.9999979657498451,123.43508535791061
6.008,0.9999981148172022,123.35081395087944
6.016,0.9999982598230501,123.26650590026793
6.024,0.9999984007930248,123.18216115969452
6.032,0.9999985377527815,123.09777968276632
6.04,0.9999986707279933,123.01336142307903
6.048,0.999998799744353,122.92890633421737
6.056,0.9999989248275741,122.84441436975507
6.064,0.9999990460033902,122.75988548325498
6.072,0.9999991632975578,122.67531962826936
6.08,0.9999992767358551,122.59071675834
6.088,0.9999993863440848,122.50607682699828
6.096,0.9999994921480735,122.42139978776541
6.104,0.9999995941736722,122.33668559415263
6.112,0.9999996924467596,122.25193419966119
6.12,0.9999997869932392,122.16714555778275
6.128,0.9999998778390436,122.0823196219993
6.136,0.9999999650101336,121.99745634578345
6.144,1.0,121.91255568259861
6.152,1.0,121.827617585899
6.16,1.0,121.74264200913
6.168,0.9999999999999999,121.6576289057281
6.176,1.0,121.57257822912126
6.184,1.0,121.48748993272892
6.192,0.9999999999999999,121.4023639699622
6.2,1.0,121.31720029422407
6.208,1.0,121.23199885890956
6.216,1.0,121.14675961740575
6.224,0.9999999999999999,121.0614825230921
6.232,1.0,120.97616752934051
6.24,0.9999999999999999,120.89081458951563
6.248,1.0,120.80542365697467
6.256,0.9999999999999999,120.71999468506795
6.264,1.0,120.63452762713884
6.272,1.0,120.54902243652398
6.28,0.9999999999999999,120.46347906655342
6.288,1.0,120.37789747055075
6.296,0.9999999999999999,120.29227760183328
6.304,1.0000000000000002,120.20661941371225
6.312,1.0,120.12092285949291
6.32,0.9999999999999999,120.03518789247472
6.328,0.9999999999999999,119.94941446595143
6.336,1.0,119.86360253321136
6.344,1.0,119.77775204753748
6.352,1.0,119.69186296220752
6.36,1.0,119.60593523049427
6.368,1.0,119.51996880566557
6.376,1.0,119.43396364098452
6.384,1.0,119.34791968970971
6.392,0.9999999999999999,119.2618369050953
6.4,0.9999999999999999,119.1757152403912
6.408,1.0,119.08955464884315
6.416,0.9999999999999999,119.00335508369298
6.424,1.0,118.91711649817869
6.432,0.9999999999999999,118.83083884553463
6.44,1.0,118.74452207899168
6.448,1.0,118.65816615177731
6.456,1.0,118.57177101711576
6.464,1.0,118.48533662822837
6.472,1.0,118.39886293833331
6.48,1.0,118.31234990064624
6.4879999999999995,1.0,118.22579746838005
6.496,1.0,118.13920559474519
6.504,1.0,118.05257423294987
6.5120000000000005,1.0,117.96590333619997
6.52,0.9999999999999999,117.87919285769948
6.5280000000000005,1.0,117.79244275065041
6.536,1.0,117.70565296825302
6.5440000000000005,1.0,117.61882346370601
6.552,0.9999999999999999,117.53195419020659
6.5600000000000005,1.0,117.4450451009506
6.568,0.9999999504572913,117.35809614913278
6.5760000000000005,0.9999998767329391,117.27110728794669
6.584,0.9999998008628174,117.1840784705851
6.592,0.9999997228761449,117.09700965023993
6.6,0.9999996428022294,117.00990078010244
6.608,0.9999995606704671,116.92275181336342
6.616,0.999999476510346,116.83556270321326
6.624,0.999999390351445,116.74833340284208
6.632,0.9999993022234366,116.66106386543991
6.64,0.9999992121560863,116.57375404419679
6.648,0.9999991201792556,116.48640389230286
6.656,0.9999990263229018,116.39901336294854
6.664,0.9999989306170788,116.31158240932463
6.672,0.9999988330919398,116.22411098462244
6.68,0.9999987337777358,116.13659904203392
6.688,0.9999986327048198,116.04904653475178
6.696,0.9999985299036448,115.96145341596954
6.704,0.9999984254047667,115.87381963888178
6.712,0.9999983192388453,115.78614515668411
6.72,0.9999982114366435,115.69842992257347
6.728,0.9999981020290307,115.61067388974796
6.736,0.9999979910469821,115.52287701140729
6.744,0.9999978785215802,115.43503924075259
6.752,0.9999977644840159,115.34716053098676
6.76,0.9999976489655888,115.25924083531432
6.768,0.9999975319977092,115.17128010694178
6.776,0.9999974136118975,115.08327829907758
6.784,0.9999972938397866,114.99523536493224
6.792,0.9999971727131215,114.9071512577184
6.8,0.9999970502637606,114.81902593065101
6.808,0.999996926523677,114.73085933694735
6.816,0.9999968015249582,114.6426514298272
6.824,0.999996675299808,114.5544021625128
6.832,0.9999965478805461,114.46611148822909
6.84,0.9999964192996096,114.37777936020372
6.848,0.9999962895895534,114.28940573166709
6.856,0.999996158783051,114.20099055585254
6.864,0.9999960269128945,114.11253378599635
6.872,0.9999958940119955,114.02403537533783
6.88,0.9999957601133862,113.93549527711941
6.888,0.9999956252502192,113.84691344458675
6.896,0.9999954894557681,113.75828983098869
6.904,0.9999953527634278,113.66962438957749
6.912,0.999995215206715,113.58091707360877
6.92,0.999995076819269,113.49216783634157
6.928,0.999994937634851,113.4033766310385
6.936,0.9999947976873454,113.31454341096575
6.944,0.9999946570107587,113.22566812939314
6.952,0.9999945156392213,113.13675073959416
6.96,0.9999943736069857,113.0477911948461
6.968,0.9999942309484287,112.95878944842995
6.976,0.9999940876980485,112.86974545363069
6.984,0.9999939438904684,112.78065916373703
6.992,0.999993799560433,112.6915305320417
7.0,0.99999365474281,112.60235951184137
7.008,0.9999935094725894,112.51314605643672
7.016,0.9999933637848835,112.4238901191325
7.024,0.9999932177149263,112.33459165323745
7.032,0.9999930712980724,112.24525061206452
7.04,0.9999929245697977,112.1558669489307
7.048,0.9999927775656978,112.06644061715717
7.056,0.9999926303214878,111.97697157006928
7.064,0.9999924828730011,111.88745976099656
7.072,0.9999923352561889,111.7979051432728
7.08,0.9999921875071187,111.70830767023595
7.088,0.9999920396619746,111.61866729522825
7.096,0.9999918917570544,111.52898397159615
7.104,0.9999917438287699,111.43925765269036
7.112,0.9999915959136441,111.34948829186587
7.12,0.9999914480483112,111.25967584248194
7.128,0.9999913002695149,111.16982025790205
7.136,0.9999911526141049,111.07992149149396
7.144,0.999991005119038,110.9899794966297
7.152,0.9999908578213748,110.89999422668554
7.16,0.9999907107582765,110.80996563504196
7.168,0.9999905639670059,110.71989367508372
7.176,0.9999904174849225,110.62977830019976
7.184,0.9999902713494808,110.53961946378323
7.192,0.9999901255982295,110.44941711923144
7.2,0.9999899802688064,110.35917121994596
7.208,0.9999898353989372,110.2688817193324
7.216,0.9999896910264326,110.17854857080053
7.224,0.9999895471891851,110.08817172776426
7.232,0.9999894039251659,109.99775114364151
7.24,0.999989261272421,109.9072867718543
7.248,0.9999891192690691,109.81677856582868
7.256,0.9999889779532973,109.72622647899466
7.264,0.9999888373633568,109.63563046478622
7.272,0.9999886975375597,109.54499047664132
7.28,0.999988558514275,109.45430646800176
7.288,0.9999884203319244,109.3635783923133
7.296,0.9999882830289768,109.2728062030255
7.304,0.9999881466439458,109.18198985359166
7.312,0.9999880112153824,109.09112929746898
7.32,0.9999878767818723,109.00022448811835
7.328,0.9999877433820299,108.90927537900437
7.336,0.9999876110544923,108.81828192359538
7.344,0.999987479837915,108.72724407536327
7.352,0.9999873497709654,108.6361617877837
7.36,0.9999872208923173,108.54503501433581
7.368,0.9999870932406439,108.45386370850234
7.376,0.9999869668546135,108.36264782376963
7.384,0.9999868417728804,108.27138731362751
7.392,0.99998671803408,108.18008213156929
7.4,0.9999865956768211,108.08873223109181
7.4079999999999995,0.9999864747396789,107.99733756569536
7.416,0.9999863552611874,107.90589808888366
7.4239999999999995,0.9999862372798316,107.81441375416397
7.432,0.9999861208340406,107.72288451504686
7.4399999999999995,0.9999860059621779,107.63131032504648
7.448,0.9999858927025346,107.53969113768031
7.4559999999999995,0.9999857810933194,107.44802690646935
7.464,0.999985671172651,107.35631758493805
7.4719999999999995,0.9999855629785482,107.26456312661436
7.48,0.9999854565489206,107.17276348502966
7.4879999999999995,0.9999853519215597,107.08091861371898
7.496,0.9999852491341278,106.98902846622082
7.504,0.9999851482241492,106.89709299607735
7.5120000000000005,0.9999850492289986,106.80511215683441
7.52,0.9999849521858918,106.71308590204154
7.5280000000000005,0.9999848571318732,106.6210141852521
7.536,0.9999847641038062,106.52889696002329
7.5440000000000005,0.9999846731383603,106.43673417991626
7.552,0.9999845842720005,106.34452579849629
7.5600000000000005,0.9999844975409747,106.25227176933272
7.568,0.9999844129813015,106.1599720459992
7.5760000000000005,0.9999843306287579,106.06762658207377
7.584,0.9999842505188662,105.97523533113902
7.5920000000000005,0.999984172686881,105.88279824678223
7.6,0.9999840971677754,105.79031528259554
7.6080000000000005,0.9999840239962287,105.6977863921761
7.616,0.9999839532066105,105.60521152912634
7.6240000000000006,0.9999838848329679,105.51259064705405
7.632,0.9999838189090109,105.41992369957278
7.640000000000001,0.9999837554680966,105.32721064030187
7.648,0.9999836945432156,105.23445142286691
7.656000000000001,0.9999836361669757,105.14164600089985
7.664,0.999983580371587,105.0487943280394
7.672,0.9999835271888449,104.95589635793127
7.68,0.9999834766501152,104.86295204422856
7.688,0.9999834287863177,104.76996134059208
7.696,0.9999833836279087,104.67692420069066
7.704,0.9999833412048647,104.58384057820166
7.712,0.9999833015466655,104.49071042681133
7.72,0.9999832646822759,104.3975337002152
7.728,0.9999832306401298,104.3043103521186
7.736,0.9999831994481104,104.21104033623713
7.744,0.9999831711335334,104.11772360629713
7.752,0.9999831457231285,104.02436011603629
7.76,0.9999831232430205,103.93094981920417
7.768,0.9999831037187111,103.83749266956272
7.776,0.9999830871750605,103.74398862088707
7.784,0.9999830736362664,103.65043762696595
7.792,0.9999830631258473,103.5568396416026
7.8,0.9999830556666208,103.46319461861526
7.808,0.9999830512806863,103.36950251183806
7.816,0.9999830499894028,103.2757632751217
7.824,0.9999830518133712,103.18197686233431
7.832,0.9999830567724136,103.08814322736217
7.84,0.9999830648855523,102.99426232411074
7.848,0.9999830761709915,102.90033410650543
7.856,0.9999830906460956,102.80635852849257
7.864,0.9999831083273691,102.71233554404037
7.872,0.9999831292304374,102.61826510714002
7.88,0.9999831533700244,102.52414717180653
7.888,0.9999831807599343,102.42998169208003
7.896,0.9999832114130297,102.33576862202678
7.904,0.999983245341212,102.24150791574024
7.912,0.9999832825554007,102.14719952734251
7.92,0.9999833230655129,102.05284341098528
7.928,0.9999833668804435,101.95843952085134
7.936,0.9999834140080459,101.86398781115572
7.944,0.9999834644551101,101.76948823614718
7.952,0.9999835182273445,101.67494075010953
7.96,0.9999835753293557,101.58034530736306
7.968,0.9999836357646285,101.48570186226611
7.976,0.9999836995355074,101.39101036921647
7.984,0.9999837666431777,101.29627078265307
7.992,0.9999838370876455,101.20148305705747
8.0,0.9999839108677205,101.10664714695562
8.008,0.9999839879809973,101.0117630069195
8.016,0.9999840684238371,100.91683059156878
8.024000000000001,0.9999841521913512,100.8218498555728
8.032,0.9999842392773829,100.72682075365222
8.04,0.9999843296744912,100.63174324058095
8.048,0.999984423373935,100.53661727118798
8.056000000000001,0.9999845203656564,100.44144280035952
8.064,0.9999846206382662,100.34621978304087
8.072,0.9999847241790287,100.25094817423833
8.08,0.9999848309738477,100.15562792902152
8.088000000000001,0.9999849410072528,100.06025900252536
8.096,0.9999850542623864,99.96484134995228
8.104,0.9999851707209915,99.86937492657435
8.112,0.9999852903633996,99.77385968773557
8.120000000000001,0.99998541316852,99.67829558885417
8.128,0.9999855391138297,99.58268258542489
8.136,0.9999856681753638,99.48702063302129
8.144,0.9999858003277061,99.3913096872982
8.152000000000001,0.9999859355439824,99.29554970399417
8.16,0.9999860737958527,99.19974063893385
8.168,0.999986215053505,99.10388244803048
8.176,0.9999863592856506,99.00797508728843
8.184000000000001,0.9999865064595187,98.91201851280584
8.192,0.9999866565408545,98.81601268077708
8.2,0.999986809493915,98.71995754749534
8.208,0.9999869652814692,98.62385306935536
8.216000000000001,0.9999871238647975,98.52769920285604
8.224,0.9999872852036907,98.4314959046032
8.232,0.9999874492564542,98.33524313131204
8.24,0.9999876159799097,98.23894083981008
8.248000000000001,0.9999877853293981,98.14258898703993
8.256,0.9999879572587872,98.04618753006184
8.264,0.9999881317204758,97.94973642605662
8.272,0.9999883086654023,97.85323563232828
8.280000000000001,0.9999884880430531,97.75668510630699
8.288,0.9999886698014725,97.66008480555172
8.296,0.9999888538872734,97.56343468775313
8.304,0.9999890402456513,97.46673471073623
8.312,0.9999892288203956,97.36998483246339
8.32,0.9999894195539072,97.27318501103687
8.328,0.9999896123872117,97.17633520470186
8.336,0.9999898072599794,97.07943537184906
8.344,0.9999900041105435,96.98248547101755
8.352,0.9999902028759187,96.88548546089753
8.36,0.9999904034918249,96.78843530033302
8.368,0.9999906058927077,96.69133494832458
8.376,0.9999908100117644,96.59418436403212
8.384,0.999991015780967,96.49698350677737
8.392,0.9999912231310909,96.3997323360467
8.4,0.9999914319917417,96.30243081149365
8.408,0.9999916422913836,96.20507889294154
8.416,0.9999918539573714,96.10767654038597
8.424,0.9999920669159805,96.01022371399748
8.432,0.9999922810924415,95.91272037412374
8.44,0.9999924964109725,95.81516648129228
8.448,0.9999927127948146,95.71756199621268
8.456,0.9999929301662699,95.61990687977892
8.464,0.9999931484467368,95.5222010930717
8.472,0.9999933675567502,95.42444459736068
8.48,0.9999935874160215,95.32663735410654
8.488,0.9999938079434781,95.22877932496324
8.496,0.9999940290573057,95.13087047177989
8.504,0.999994250674992,95.03291075660286
8.512,0.9999944727133697,94.93490014167763
8.52,0.999994695088662,94.83683858945068
8.528,0.999994917716527,94.73872606257115
8.536,0.9999951405121047,94.64056252389273
8.544,0.9999953633900659,94.54234793647501
8.552,0.9999955862646577,94.4440822635853
8.56,0.9999958090497537,94.34576546869988
8.568,0.9999960316589032,94.24739751550554
8.576,0.9999962540053805,94.14897836790071
8.584,0.9999964760022372,94.05050798999687
8.592,0.9999966975623517,93.95198634611945
8.6,0.9999969185984806,93.85341340080912
8.608,0.9999971390233126,93.75478911882246
8.616,0.9999973587495181,93.65611346513309
8.624,0.9999975776898039,93.5573864049322
8.632,0.9999977957569649,93.45860790362948
8.64,0.9999980128639382,93.35977792685341
8.648,0.9999982289238541,93.26089644045202
8.656,0.9999984438500917,93.16196341049306
8.664,0.9999986575563298,93.06297880326456
8.672,0.9999988699566019,92.96394258527471
8.68,0.9999990809653478,92.86485472325232
8.688,0.9999992904974672,92.76571518414659
8.696,0.9999994984683708,92.66652393512716
8.704,0.9999997047940345,92.56728094358385
8.712,0.9999999093910495,92.46798617712659
8.72,0.9999999999999999,92.36863960358477
8.728,1.0,92.26924119100714
8.736,1.0,92.16979090766098
8.744,0.9999999999999999,92.07028872203173
8.752,1.0,91.97073460282206
8.76,0.9999999999999999,91.87112851895128
8.768,0.9999999999999999,91.77147043955429
8.776,1.0,91.67176033398074
8.784,0.9999999999999999,91.57199817179394
8.792,0.9999999999999999,91.47218392276976
8.8,1.0,91.37231755689535
8.808,1.0,91.27239904436809
8.815999999999999,1.0,91.17242835559392
8.824,0.9999999999999999,91.07240546118621
8.832,1.0,90.97233033196413
8.84,1.0,90.87220293895118
8.847999999999999,0.9999999999999999,90.77202325337349
8.856,0.9999999999999999,90.67179124665822
8.864,0.9999999999999999,90.57150689043182
8.872,0.9999999999999999,90.4711701565183
8.879999999999999,1.0,90.37078101693724
8.888,1.0,90.27033944390209
8.896,0.9999999999999998,90.16984540981817
8.904,1.0,90.06929888728071
8.911999999999999,1.0,89.9686998490728
8.92,1.0,89.86804826816345
8.928,1.0,89.76734411770542
8.936,0.9999999999999999,89.66658737103323
8.943999999999999,0.9999999999999999,89.5657780016609
8.952,1.0,89.46491598327988
8.96,1.0,89.36400128975693
8.968,0.9999999999999999,89.26303389513183
8.975999999999999,1.0,89.16201377361527
8.984,1.0,89.06094089958654
8.992,1.0,88.9598152475915
9.0,1.0,88.85863679234022
9.008,1.0,88.75740550870478
9.016,0.9999999999999999,88.65612137171708
9.024000000000001,1.0,88.55478435656669
9.032,0.9999999999999998,88.45339443859865
9.04,0.9999999999999999,88.35195159331117
9.048,1.0,88.25045579635358
9.056000000000001,1.0,88.14890702352416
9.064,0.9999999999999999,88.04730525076809
9.072,1.0,87.94565045417514
9.08,0.9999999999999999,87.84394260997776
9.088000000000001,1.0,87.7421816945491
9.096,1.0,87.64036768440083
9.104,1.0,87.53850055618122
9.112,1.0,87.4365802866732
9.120000000000001,1.0,87.33460685279255
9.128,0.9999999999999999,87.23258023158589
9.136,0.9999999999999999,87.13050040022893
9.144,1.0,87.02836733602463
9.152000000000001,0.9999999999999999,86.92618101640167
9.16,1.0,86.82394141891254
9.168,1.0,86.72164852123197
9.176,1.0,86.61930230115541
9.184000000000001,1.0,86.5169027365975
9.192,1.0000000000000002,86.41444980559054
9.2,1.0,86.31194348628307
9.208,0.9999999999999999,86.20938375693855
9.216000000000001,1.0,86.10677059593411
9.224,0.9999999999999998,86.00410398175917
9.232,1.0,85.90138389301435
9.24,1.0,85.79861030841029
9.248000000000001,0.9999999999999999,85.69578320676666
9.256,0.9999999999999999,85.59290256701108
9.264,0.9999999999999999,85.48996836817822
9.272,0.9999999999999999,85.38698058940885
9.280000000000001,0.9999999999999999,85.28393920994915
9.288,0.9999999999999999,85.18084420914987
9.296,0.9999999999999999,85.07769556646561
9.304,0.9999999999999999,84.97449326145417
9.312000000000001,0.9999999999999999,84.87123727377616
9.32,1.0,84.76792758319432
9.328,1.0,84.66456416957307
9.336,1.0,84.5611470128782
9.344,0.9999999999999999,84.45767609317653
9.352,1.0,84.35415139063565
9.36,1.0,84.25057288552368
9.368,1.0,84.14694055820917
9.376,0.9999999999999999,84.04325438916102
9.384,1.0,83.93951435894834
9.392,0.9999999999999999,83.83572044824075
9.4,1.0,83.73187263780807
9.408,1.0,83.6279709085209
9.416,1.0,83.52401524135043
9.424,0.9999999999999999,83.420005617369
9.432,1.0,83.31594201775019
9.44,1.0,83.21182442376931
9.448,1.0,83.10765281680371
9.456,1.0,83.00342717833334
9.464,1.0,82.89914748994114
9.472,1.0,82.79481373331376
9.48,0.9999999999999999,82.69042589024193
9.488,1.0,82.58598394262133
9.496,1.0,82.48148787245312
9.504,0.9999999999999999,82.37693766184479
9.512,0.9999999999999999,82.27233329301085
9.52,1.0,82.1676747482737
9.528,1.0,82.06296201006437
9.536,1.0,81.95819506092363
9.544,0.9999999999999999,81.85337388350268
9.552,1.0,81.74849846056429
9.56,0.9999999999999999,81.64356877498368
9.568,1.0,81.53858480974962
9.576,1.0,81.43354654796542
9.584,1.0,81.32845397285018
9.592,1.0,81.22330706773968
9.6,0.9999999999999999,81.11810581608773
9.608,0.9999999999999999,81.0128502014672
9.616,0.9999999999999999,80.90754020757139
9.624,1.0,80.80217581821502
9.632,1.0,80.69675701733573
9.64,0.9999999999999998,80.59128378899514
9.648,0.9999999999999999,80.48575611738032
9.656,0.9999999999999999,80.38017398680493
9.664,0.999999814081488,80.27453738171072
9.672,0.9999996153699798,80.16884628666868
9.68,0.9999994148516301,80.06310068638065
9.688,0.9999992125786403,79.95730056568044
9.696,0.9999990086031074,79.85144590953544
9.704,0.9999988029770059,79.74553670304789
9.712,0.9999985957521725,79.63957293145636
9.72,0.9999983869802889,79.53355458013714
9.728,0.9999981767128674,79.42748163460575
9.736,0.9999979650012353,79.3213540805183
9.744,0.9999977518965213,79.21517190367305
9.752,0.9999975374496404,79.10893509001176
9.76,0.9999973217112811,79.00264362562132
9.768,0.9999971047318923,78.89629749673502
9.776,0.9999968865616714,78.78989668973428
9.784,0.9999966672505504,78.68344119114992
9.792,0.9999964468481864,78.57693098766383
9.8,0.9999962254039497,78.47036606611032
9.808,0.9999960029669122,78.36374641347774
9.816,0.9999957795858385,78.2570720169099
9.824,0.9999955553091752,78.15034286370768
9.832,0.9999953301850416,78.04355894133032
9.84,0.9999951042612212,77.9367202373972
9.847999999999999,0.9999948775851528,77.82982673968914
9.856,0.9999946502039223,77.72287843614997
9.864,0.9999944221642545,77.61587531488806
9.872,0.9999941935125071,77.5088173641778
