freq,mag,phase
6.0,0.9999511220344037,3.8921341558378058
6.024096256,0.9999576897121715,3.179476523797241
6.048193024,0.9999653764221481,2.4666962824746066
6.07228928,0.9999741466764082,1.7537321308875056
6.096385536,0.9999837906936588,1.0406289593205695
6.120481792,0.9999940294673038,0.32735647967627723
6.14457856,1.000004586739047,-0.38611177189395146
6.168674816,1.0000149228133242,-1.0997294987826878
6.192771072,1.0000248861550414,-1.813514518068154
6.216867328,1.0000341343154109,-2.5274809858892953
6.240964096,1.0000423406591794,-3.2416118834882406
6.265060352,1.0000492215984729,-3.955860633751444
6.289156608,1.0000545615359648,-4.67027527710765
6.313252864,1.0000582738270076,-5.384754576572801
6.337349632,1.0000601749411724,-6.099367452105437
6.361445888,1.0000601375954619,-6.814021204804208
6.385542144,1.0000581832375903,-7.528760403396742
6.4096384,1.000054344700198,-8.243557598902719
6.433735168,1.0000489059892839,-8.958363207773754
6.457831424,1.000041830740009,-9.673164465883815
6.48192768,1.0000335125894506,-10.387962082973791
6.506023936,1.0000239923719976,-11.102713243232557
6.530120704,1.0000136300603928,-11.817462935775316
6.55421696,1.0000029899707201,-12.532162584149544
6.578313216,0.9999921458561724,-13.246823006350315
6.602409472,0.9999815694491193,-13.961408436251974
6.62650624,0.9999714351615951,-14.675977178080352
6.650602496,0.9999623168860654,-15.390561620168109
6.674698752,0.9999543409852927,-16.105078239070142
6.698795008,0.9999478585207492,-16.819586623343078
6.722891776,0.9999429768633203,-17.5341072575107
6.746988032,0.9999399191052627,-18.248692218549827
6.771084288,0.9999388201787153,-18.963290424563706
6.795180544,0.9999396023405024,-19.677938737385976
6.819277312,0.9999423884837142,-20.392693891366015
6.843373568,0.9999468718638093,-21.107573006732643
6.867469824,0.9999534244944492,-21.8225637513539
6.89156608,0.9999613451360405,-22.537705338984182
6.915662848,0.9999705344513007,-23.252970695336554
6.939759104,0.9999806894834796,-23.96844747375794
6.96385536,0.9999915772800151,-24.68407917603175
6.987951616,1.0000028652985729,-25.39988657380771
7.012048384,1.0000139260049208,-26.115865472512763
7.03614464,1.0000247765007084,-26.832082227264745
7.060240896,1.0000348678104043,-27.54847102325028
7.084337152,1.0000439485450205,-28.264979483567434
7.10843392,1.0000518298397176,-28.98168272057904
7.132530176,1.0000577811978635,-29.6985084526098
7.156626432,1.000062115300578,-30.415497175348246
7.180722688,1.0000646450669304,-31.132534691291394
7.204819456,1.0000649070199403,-31.84968781040228
7.228915712,1.0000633408226234,-32.566944246767505
7.253011968,1.0000595681556987,-33.284185155051624
7.277108224,1.0000541727567833,-34.00147729693116
7.301204992,1.0000467815584457,-34.71879204991808
7.325301248,1.0000380940394145,-35.4360687207717
7.349397504,1.0000280634940115,-36.1533487111798
7.37349376,1.0000171542866871,-36.87057518898693
7.397590528,1.0000056321269415,-37.58778165987024
7.421686784,0.9999939532503042,-38.30490970056292
7.44578304,0.9999823531588323,-39.02202500032698
7.469879296,0.9999714533431425,-39.73907797025641
7.493976064,0.9999613056416223,-40.45610461997922
7.51807232,0.999952379011256,-41.17307941240635
7.542168576,0.9999450229635977,-41.89005264310311
7.566264832,0.9999393829498789,-42.60703436115017
7.5903616,0.9999354959981116,-43.324053394530495
7.614457856,0.9999338284634357,-44.041119581697096
7.638554112,0.9999341593731655,-44.75822200353315
7.662650368,0.9999367938945806,-45.47542022577742
7.686747136,0.9999412904912774,-46.19272560126971
7.710843392,0.9999477233138637,-46.910188520577165
7.734939648,0.9999560185623457,-47.62775335435116
7.759035904,0.9999656590532815,-48.34549676165471
7.783132672,0.9999765028372458,-49.063423014905815
7.807228928,0.9999879755190869,-49.78154382340642
7.831325184,1.0000000988193265,-50.49985726203954
7.85542144,1.000012338621811,-51.21835030167732
7.879518208,1.000024166319144,-51.93703085119408
7.903614464,1.0000352454246793,-52.65594348000543
7.92771072,1.0000453746181475,-53.374998665763165
7.951806976,1.000054065897932,-54.09425616292546
7.975903744,1.0000611578597005,-54.8136640417699
8.0,1.0000663471670426,-55.53318903106871
8.024096256,1.0000694060690591,-56.252873757396145
8.048193024,1.0000704176772153,-56.97260989520933
8.07228928,1.0000690579987501,-57.69243634559865
8.096385536,1.0000655566676242,-58.412316049686616
8.120481792,1.0000600430415214,-59.13222196851525
8.14457856,1.0000526390089894,-59.8521361223216
8.168674816,1.000043417176688,-60.572047872691726
8.192771072,1.0000328043185478,-61.29194114102986
8.216867328,1.0000213155126914,-62.011777451499
8.240964096,1.0000088507750775,-62.73155619195385
8.265060352,0.9999961769387071,-63.45129685574345
8.289156608,0.9999835317574208,-64.17101555546327
8.313252864,0.9999713702677346,-64.89061126292616
8.337349632,0.9999601603866399,-65.61017245623853
8.361445888,0.9999501642565634,-66.32973490971176
8.385542144,0.9999416221875777,-67.04925874566145
8.4096384,0.9999348917694021,-67.76879610996242
8.433735168,0.9999302563399165,-68.48830965225238
8.457831424,0.999927833998405,-69.20787396192169
8.48192768,0.9999277864013795,-69.92752329853691
8.506023936,0.9999299601172238,-70.64723073975014
8.530120704,0.9999342734810194,-71.36704609144175
8.55421696,0.9999409442036944,-72.0869923194102
8.578313216,0.9999494070537318,-72.80709772085972
8.602409984,0.999959437679374,-73.52737495544878
8.626505728,0.9999710770291806,-74.24781892797742
8.650602496,0.9999835306494338,-74.96846524430808
8.674699264,0.9999966264685763,-75.68931073754149
8.698795008,1.0000099112223924,-76.41036964962828
8.722891776,1.0000229017021702,-77.13164700625326
8.74698752,1.0000353113763367,-77.85312419921931
8.771084288,1.0000466740640857,-78.57480562232003
8.795181056,1.0000566205782824,-79.29664292509878
8.8192768,1.0000648466488382,-80.01864416749663
8.843373568,1.000071073186643,-80.74082408279145
8.867470336,1.000075025223684,-81.46312259079932
8.89156608,1.0000767274527684,-82.1855482516421
8.915662848,1.0000759463870263,-82.90802585032303
8.939758592,1.0000727820907782,-83.63056966503679
8.96385536,1.0000672683608276,-84.35315401749574
8.987952128,1.000059683938732,-85.07571613782419
9.012047872,1.0000501078722568,-85.79828364770032
9.03614464,1.0000388313406017,-86.52085005574655
9.060241408,1.0000264739884355,-87.2433329956806
9.084337152,1.0000129952071652,-87.9657830574138
9.10843392,0.9999991907120377,-88.68814318232243
9.132529664,0.9999852840234441,-89.41045710253468
9.156626432,0.9999718062726385,-90.13268780807151
9.1807232,0.9999591276109877,-90.85485949372091
9.204818944,0.9999476672717418,-91.57698094591629
9.228915712,0.9999378472133617,-92.29908770515372
9.25301248,0.9999299169819476,-93.0211488248277
9.277108224,0.9999241843558871,-93.74322830173057
9.301204992,0.9999208302564411,-94.46531595116853
9.325300736,0.9999199689543455,-95.1874548817098
9.349397504,0.9999216187601018,-95.90969284748886
9.373494272,0.9999258975569596,-96.63202851273458
9.397590016,0.9999324224859154,-97.35446213259793
9.421686784,0.9999411778828707,-98.07707955958233
9.445783552,0.9999518848813578,-98.79984992808527
9.469879296,0.9999641506563277,-99.52280418300897
9.493976064,0.9999776344553686,-100.24597060919677
9.518071808,0.9999918485960622,-100.96937076081616
9.542168576,1.0000064644318316,-101.69295527314209
9.566265344,1.0000210206864402,-102.4167703717629
9.590361088,1.000034841255674,-103.14082219521532
9.614457856,1.0000478076028954,-103.8650678503708
9.638554624,1.0000592867225349,-104.58951502090606
9.662650368,1.0000688910395983,-105.31413832072593
9.686747136,1.000076385556854,-106.03895393871677
9.71084288,1.0000816375109483,-106.76388245818458
9.734939648,1.0000842062458302,-107.48892050530876
9.759036416,1.0000841480139637,-108.21407057345996
9.78313216,1.0000813220170441,-108.93926449324218
9.807228928,1.00007602855449,-109.6644891085095
9.831325696,1.0000683004680266,-110.38974442881656
9.85542144,1.0000583619401775,-111.11498714556993
9.879518208,1.000046503422724,-111.84015561705142
9.903613952,1.0000330344645454,-112.56529037876614
9.92771072,1.0000185131850257,-113.29035073111598
9.951807488,1.0000032535117191,-114.01533823987846
9.975903232,0.9999878273870493,-114.74022347579603
10.0,0.9999726645685223,-115.4650439629908
10.024096768,0.9999583536816089,-116.18979166494029
10.048192512,0.9999452483446343,-116.91443396854419
10.07228928,0.9999337614062138,-117.63903790799563
10.096386048,0.9999242769212554,-118.36362655742333
10.120481792,0.9999171603115758,-119.0881852088085
10.14457856,0.9999126004823097,-119.81273222680329
10.168674304,0.9999108102075356,-120.53732204825607
10.192771072,0.9999118524585588,-121.2619985911253
10.21686784,0.9999156357901199,-121.98675134181438
10.240963584,0.9999221347367254,-122.71162947930384
10.265060352,0.999931165142319,-123.4366481999753
10.28915712,0.9999424224451414,-124.1618565907283
10.313252864,0.9999555125131885,-124.88723006006435
10.337349632,0.9999701645404939,-125.6128351006759
10.361445376,0.9999857978804049,-126.33866042900169
10.385542144,1.000001966010423,-127.06471512392153
10.409638912,1.0000182741794472,-127.79099813670813
10.433734656,1.000034002867766,-128.51753218808722
10.457831424,1.0000487134619371,-129.24427604381071
10.481928192,1.00006210625095,-129.97125166554517
10.506023936,1.0000734774932256,-130.6983980874617
10.530120704,1.0000827288486458,-131.42576317171196
10.554216448,1.0000893087244247,-132.15325370828342
10.578313216,1.0000931355103817,-132.88085934986876
10.602409984,1.0000940406439314,-133.60858699608633
10.626505728,1.0000918894275443,-134.3363742000286
10.650602496,1.0000869272608506,-135.06419044809422
10.674699264,1.0000791356390164,-135.79201685933435
10.698795008,1.0000687354396092,-136.51981250673074
10.722891776,1.0000561648438817,-137.24757874193645
10.74698752,1.000041591262168,-137.97528010110426
10.771084288,1.0000256895214596,-138.70285918669754
10.795181056,1.0000088689769866,-139.4303688636833
10.8192768,0.9999916738532516,-140.15777281999308
10.843373568,0.9999745774516758,-140.88505019566026
10.867470336,0.9999581712777533,-141.6122383807905
10.89156608,0.999942873368905,-142.33933044647114
10.915662848,0.9999293915434966,-143.06634485346706
10.939758592,0.9999179731408304,-143.79330438397574
10.96385536,0.999909165545682,-144.5201889465049
10.987952128,0.9999030236219125,-145.24709194916554
11.012047872,0.9998999853217787,-145.97401195100923
11.03614464,0.9999000355254064,-146.70095876950026
11.060241408,0.9999032802911526,-147.4279999544909
11.084337152,0.9999095694633627,-148.15515214573512
11.10843392,0.9999187641835122,-148.88245714241836
11.132529664,0.9999305998042526,-149.609916937878
11.156626432,0.9999447174145759,-150.3375694328476
11.1807232,0.9999606497434932,-151.06545193552765
11.204818944,0.9999779056457855,-151.7935635445655
11.228915712,0.9999960062045468,-152.5219157793692
11.25301248,1.0000142989915366,-153.25050956757613
11.277108224,1.000032312458491,-153.97937845030785
11.301204992,1.0000494261106774,-154.70847226169758
11.325300736,1.000065116196015,-155.43782057826488
11.349397504,1.00007878223531,-156.16736323540547
11.373494272,1.0000899601426878,-156.89710870475386
11.397590016,1.0000985592165106,-157.62703017641232
11.421686784,1.0001039478037086,-158.35707005099857
11.445783552,1.0001061188072702,-159.0872394095154
11.469879296,1.000104973921532,-159.81747160307492
11.493976064,1.0001004384079608,-160.5477335169339
11.518071808,1.0000926971283182,-161.2780129775778
11.542168576,1.000081965101382,-162.00826275704569
11.566265344,1.000068524993861,-162.73845542670728
11.590361088,1.0000528427149924,-163.46856499695414
11.614457856,1.0000354135734786,-164.19856010408782
11.638554624,1.0000166175708456,-164.92843351751077
11.662650368,0.9999971637126293,-165.65819183923426
11.686747136,0.9999776456992105,-166.38778902391547
11.71084288,0.9999586636377672,-167.11726578450111
11.734939648,0.9999408205051681,-167.84663029329585
11.759036416,0.9999247076860484,-168.575852369884
11.78313216,0.9999109005573399,-169.30499948819408
11.807228928,0.9998997514853619,-170.0340636285274
11.831325696,0.9998916590626908,-170.7630935205293
11.85542144,0.9998869763955687,-171.49211538930737
11.879518208,0.9998856840355121,-172.22115926044788
11.903613952,0.9998881139273255,-172.95026113539708
11.92771072,0.9998940262332401,-173.67947731684492
11.951807488,0.9999033688716131,-174.40880614891404
11.975903232,0.9999158356047639,-175.13832056308095
12.0,0.9999309097256806,-175.86801041922897
12.024096768,0.9999483805709154,-176.5979443688328
12.048192512,0.9999675396466136,-177.32811649568606
12.07228928,0.9999879425140463,-178.0585321320698
12.096386048,1.000008990172099,-178.78924060988993
12.120481792,1.0000296369134798,-179.52021770493204
12.14457856,1.0000496837722614,179.7485637137512
12.168674304,1.0000682427998178,179.01707118368097
12.192771072,1.0000847453390551,178.28534742245972
12.21686784,1.0000986937403733,177.55340976995848
12.240963584,1.0001097264688719,176.82127300697206
12.265060352,1.0001172312877753,176.08897522762965
12.28915712,1.000121239792271,175.3565599383332
12.313252864,1.0001213212732893,174.6240548900619
12.337349632,1.0001175879428803,173.89151946958262
12.361445376,1.0001100767094269,173.15898062523206
12.385542144,1.0000990320071101,172.42648196991038
12.409638912,1.0000847074149946,171.6940369441683
12.433734656,1.0000676291532913,170.96169847463275
12.457831424,1.0000481647217345,170.22948774438694
12.481928192,1.0000270705993897,169.49742304249665
12.506023936,1.0000049556681578,168.7655368586206
12.530120704,0.9999824463082955,168.03381036976552
12.554216448,0.9999602888794549,167.3022555599964
12.578313216,0.999939113929171,166.57087600047586
12.602409984,0.9999197874133684,165.8396449727092
12.626505728,0.9999027395003991,165.10855215293842
12.650602496,0.9998885970064025,164.37758313016255
12.674699264,0.9998779030800768,163.64667884081865
12.698795008,0.9998708747590211,162.91580157321565
12.722891776,0.9998679360959638,162.18495737852217
12.74698752,0.9998690525237827,161.4540552044318
12.771084288,0.9998744242302835,160.72308887218895
12.795181056,0.9998835879874723,159.992004683091
12.8192768,0.9998967345803466,159.26073922701252
12.843373568,0.999913054775751,158.52929614515784
12.867470336,0.9999323084552478,157.79761109190673
12.89156608,0.9999539032040142,157.06567992351017
12.915662848,0.9999771147247758,156.33346010905768
12.939758592,1.0000012310771844,155.60096481135184
12.96385536,1.0000255758581436,154.86815578269838
12.987952128,1.0000492441731328,154.13506749478466
13.012047872,1.0000716481724727,153.40166573670504
13.03614464,1.0000918882124241,152.66800870898578
13.060241408,1.0001094267496966,151.93411864092164
13.084337152,1.0001237259679046,151.20000375066837
13.10843392,1.000134169147113,150.46570237538748
13.132529664,1.0001404508356275,149.73126132440046
13.156626432,1.0001423823621933,148.99671484474686
13.1807232,1.0001397704132327,148.26213659082245
13.204818944,1.000132701719073,147.52754644188045
13.228915712,1.0001214666840115,146.7929984235156
13.25301248,1.0001061797852695,146.05850659753975
13.277108224,1.0000873495280511,145.32416915002054
13.301204992,1.000065561588867,144.5899638612257
13.325300736,1.0000415762819141,143.85595423664498
13.349397504,1.0000159956142054,143.12214326200115
13.373494272,0.9999896582116916,142.3885606437024
13.397590016,0.9999632496946609,141.65519073706653
13.421686784,0.9999378119649305,140.9220373329922
13.445783552,0.9999140663068964,140.18908471778676
13.469879296,0.9998928840059933,139.45634540399251
13.493976064,0.999874625433574,138.72375168380898
13.518071808,0.9998602360680184,137.9912838285745
13.542168576,0.9998501427877546,137.25891648755947
13.566265344,0.999844658556161,136.52656301654986
13.590361088,0.9998440069980239,135.79423934604682
13.614457856,0.9998482887145892,135.06184128361858
13.638554624,0.9998573630179268,134.32934929246295
13.662650368,0.9998710623622007,133.59669739179841
13.686747136,0.999888984647394,132.86384743001355
13.71084288,0.9999105188611623,132.13077135540462
13.734939648,0.9999351226636123,131.3974175637192
13.759036416,0.9999620769518114,130.66375596930538
13.78313216,0.9999904609715737,129.9297772740042
13.807228928,1.0000194597856036,129.1954722666821
13.831325696,1.0000482608940593,128.46081938890978
13.85542144,1.0000755933924423,127.72584457918656
13.879518208,1.0001010417949148,126.99054766619905
13.903613952,1.0001234865245083,126.25497222447689
13.92771072,1.000142315864106,125.51912202855502
13.951807488,1.0001568266181395,124.78307171399102
13.975903232,1.0001665279299208,124.04685265350655
14.0,1.0001710175793723,123.31050119298493
