freq,mag,phase
6.0,0.9999965254406404,176.84840890610104
6.008,0.9999956472254183,176.4720471245693
6.016,0.9999947867354807,176.09565078398538
6.024,0.9999939437467316,175.71921451300176
6.032,0.9999931180371815,175.34273292969576
6.04,0.9999923093869335,174.9662006415856
6.048,0.9999915175781716,174.58961224564527
6.056,0.9999907423951476,174.21296232831824
6.064,0.9999899836241695,173.8362454655303
6.072,0.999989241053589,173.45945622270125
6.08,0.9999885144737868,173.08258915475568
6.088,0.9999878036771633,172.70563880613304
6.096,0.9999871084581223,172.32859971079657
6.104,0.9999864286130616,171.95146639224168
6.112,0.9999857639403561,171.57423336350362
6.12,0.9999851142403507,171.19689512716434
6.128,0.9999844793153407,170.81944617535873
6.136,0.999983858969565,170.44188098978051
6.144,0.9999832530091884,170.0641940416874
6.152,0.9999826612422917,169.6863797919058
6.16,0.9999820834788571,169.3084326908355
6.168,0.999981519530757,168.93034717845333
6.176,0.999980969211739,168.55211768431724
6.184,0.9999804323374131,168.17373862756972
6.192,0.9999799087252395,167.7952044169411
6.2,0.9999793981945171,167.41650945075304
6.208,0.9999789005663657,167.03764811692156
6.216,0.9999784156637191,166.65861479296035
6.224,0.9999779433113066,166.27940384598398
6.232,0.9999774833356453,165.90000963271143
6.24,0.99997703556502,165.5204264994696
6.248,0.999976599829478,165.14064878219727
6.256,0.9999761759608113,164.76067080644913
6.264,0.9999757637925453,164.3804868874004
6.272,0.9999753631599235,164.0000913298518
6.28,0.9999749738999005,163.61947842823508
6.288,0.9999745958511204,163.2386424666188
6.296,0.9999742288539127,162.85757771871545
6.304,0.9999738727502736,162.4762784478883
6.312,0.9999735273838547,162.09473890715978
6.32,0.9999731925999513,161.71295333922043
6.328,0.9999728682454883,161.3309159764387
6.336,0.9999725541690087,160.94862104087156
6.344,0.9999722502206592,160.5660627442766
6.352,0.9999719562521812,160.18323528812473
6.36,0.9999716721168923,159.8001328636144
6.368,0.9999713976696785,159.41674965168667
6.376,0.9999711327669809,159.03307982304221
6.384,0.9999708772667808,158.649117538159
6.392,0.9999706310285912,158.2648569473118
6.4,0.99997039391344,157.88029219059342
6.408,0.9999701657838594,157.49541739793693
6.416,0.999969946503878,157.11022668914023
6.424,0.9999697359390006,156.7247141738919
6.432,0.9999695339561995,156.33887395179906
6.44,0.9999693404239074,155.9527001124173
6.448,0.9999691552119946,155.56618673528214
6.456,0.9999689781917669,155.1793278899432
6.464,0.9999688092359489,154.7921176359998
6.472,0.9999686482186723,154.40455002313942
6.48,0.9999684950154638,154.01661909117803
6.4879999999999995,0.9999683495032361,153.62831887010321
6.496,0.9999682115602715,153.23964338011916
6.504,0.9999680810662145,152.85058663169525
6.5120000000000005,0.9999679579020574,152.4611426256158
6.52,0.9999678419501296,152.0713053530342
6.5280000000000005,0.9999677330940853,151.6810687955285
6.536,0.9999676312188939,151.29042692516094
6.5440000000000005,0.9999675362108271,150.89937370453956
6.552,0.9999674479574464,150.50790308688386
6.5600000000000005,0.9999673663475949,150.1160090160927
6.568,0.9999672912713827,149.72368542681644
6.5760000000000005,0.9999672226201788,149.33092624453144
6.584,0.9999671602865972,148.93772538561916
6.592,0.9999671041644876,148.54407675744764
6.6,0.9999670541489238,148.1499742584577
6.608,0.9999670101361926,147.75541177825218
6.616,0.9999669720237835,147.36038319768946
6.624,0.999966939710377,146.9648823889807
6.632,0.9999669130958345,146.56890321579138
6.64,0.9999668920811885,146.1724395333468
6.648,0.9999668765686288,145.77548518854192
6.656,0.9999668664614954,145.37803402005565
6.664,0.9999668616642672,144.98007985846974
6.672,0.9999668620825504,144.58161652639185
6.68,0.9999668676230681,144.18263783858376
6.688,0.9999668781936516,143.78313760209426
6.696,0.9999668937032292,143.38310961639692
6.704,0.9999669140618155,142.9825476735329
6.712,0.9999669391805023,142.58144555825905
6.72,0.999966968971448,142.1797970482011
6.728,0.9999670033478677,141.7775959140123
6.736,0.9999670422240234,141.37483591953776
6.744,0.9999670855152136,140.97151082198414
6.752,0.9999671331377653,140.56761437209516
6.76,0.9999671850090212,140.16314031433313
6.768,0.9999672410473335,139.7580823870663
6.776,0.9999673011720515,139.35243432276243
6.784,0.9999673653035138,138.94618984818845
6.792,0.9999674333630381,138.5393426846167
6.8,0.999967505272912,138.13188654803758
6.808,0.9999675809563838,137.7238151493786
6.816,0.9999676603376526,137.31512219473066
6.824,0.9999677433418604,136.9058013855807
6.832,0.9999678298950815,136.49584641905165
6.84,0.9999679199243143,136.0852509881495
6.848,0.9999680133574724,135.6740087820177
6.856,0.9999681101233747,135.26211348619864
6.864,0.9999682101517376,134.84955878290322
6.872,0.9999683133731659,134.43633835128765
6.88,0.9999684197191431,134.0224458677383
6.888,0.9999685291220249,133.60787500616453
6.896,0.9999686415150277,133.1926194382994
6.904,0.9999687568322222,132.77667283400896
6.912,0.9999688750085247,132.36002886160978
6.92,0.9999689959796864,131.94268118819474
6.928,0.9999691196822886,131.52462347996817
6.936,0.9999692460537318,131.105849402589
6.944,0.9999693750322287,130.68635262152353
6.952,0.9999695065567935,130.26612680240692
6.96,0.9999696405672386,129.8451656114142
6.968,0.9999697770041617,129.4234627156405
6.976,0.99996991580894,129.00101178349095
6.984,0.9999700569237226,128.5778064850801
6.992,0.9999702002914213,128.15384049264168
7.0,0.9999703458557031,127.72910748094765
7.008,0.9999704935609837,127.30360112773793
7.016,0.9999706433524179,126.87731511416051
7.024,0.9999707951758935,126.45024312522143
7.032,0.9999709489780217,126.02237885024604
7.04,0.9999711047061322,125.59371598335052
7.048,0.9999712623082628,125.16424822392474
7.056,0.999971421733155,124.7339692771258
7.064,0.9999715829302436,124.30287285438297
7.072,0.9999717458496523,123.87095267391412
7.08,0.9999719104421833,123.43820246125337
7.088,0.9999720766593113,123.00461594979073
7.096,0.999972244453179,122.57018688132337
7.104,0.999972413776586,122.13490900661881
7.112,0.9999725845829829,121.69877608599056
7.12,0.9999727568264659,121.26178188988563
7.128,0.9999729304617667,120.82392019948469
7.136,0.9999731054442504,120.38518480731486
7.144,0.9999732817299037,119.94556951787511
7.152,0.9999734592753301,119.50506814827445
7.16,0.9999736380377439,119.06367452888324
7.168,0.9999738179749621,118.6213825039978
7.176,0.9999739990453991,118.17818593251795
7.184,0.9999741812080584,117.7340786886384
7.192,0.9999743644225274,117.28905466255341
7.2,0.9999745486489705,116.84310776117532
7.208,0.9999747338481225,116.39623190886691
7.216,0.9999749199812826,115.94842104818767
7.224,0.9999751070103056,115.49966914065442
7.232,0.9999752948976006,115.04997016751588
7.24,0.9999754836061199,114.59931813054176
7.248,0.999975673099355,114.14770705282648
7.256,0.999975863341329,113.69513097960726
7.264,0.999976054296593,113.24158397909713
7.272,0.999976245930218,112.78706014333272
7.28,0.9999764382077883,112.33155358903718
7.288,0.9999766310953967,111.8750584584979
7.296,0.9999768245596398,111.41756892045963
7.304,0.9999770185676078,110.95907917103283
7.312,0.9999772130868838,110.4995834346175
7.32,0.9999774080855351,110.03907596484227
7.328,0.9999776035321057,109.57755104551924
7.336,0.9999777993956157,109.11500299161453
7.344,0.9999779956455502,108.65142615023426
7.352,0.999978192251856,108.1868149016267
7.36,0.9999783891849375,107.72116366020013
7.368,0.9999785864156499,107.25446687555664
7.376,0.99997878391529,106.78671903354191
7.384,0.9999789816555973,106.31791465731115
7.392,0.999979179608743,105.848048308411
7.4,0.9999793777473285,105.37711458787777
7.4079999999999995,0.9999795760443777,104.90510813735168
7.416,0.9999797744733318,104.4320236402072
7.4239999999999995,0.9999799730080442,103.95785582270015
7.432,0.999980171622777,103.4825994551302
7.4399999999999995,0.9999803702921922,103.00624935302048
7.448,0.9999805689913502,102.52880037831267
7.4559999999999995,0.9999807676957029,102.05024744057897
7.464,0.9999809663810875,101.57058549824951
7.4719999999999995,0.9999811650237234,101.0898095598571
7.48,0.9999813636002062,100.60791468529645
7.4879999999999995,0.9999815620875031,100.12489598710145
7.496,0.999981760462948,99.64074863173651
7.504,0.9999819587042357,99.15546784090569
7.5120000000000005,0.9999821567894176,98.66904889287606
7.52,0.9999823546968976,98.1814871238184
7.5280000000000005,0.9999825524054256,97.69277792916215
7.536,0.9999827498940946,97.2029167649675
7.5440000000000005,0.999982947142335,96.71189914931115
7.552,0.9999831441299091,96.21972066368946
7.5600000000000005,0.999983340836908,95.72637695443473
7.568,0.9999835372437463,95.23186373414852
7.5760000000000005,0.9999837333311576,94.73617678314801
7.584,0.9999839290801897,94.23931195092871
7.5920000000000005,0.9999841244722003,93.7412651576401
7.6,0.9999843194888526,93.24203239557734
7.6080000000000005,0.9999845141121101,92.741609730685
7.616,0.9999847083242331,92.23999330407678
7.6240000000000006,0.9999849021077761,91.73717933356687
7.632,0.9999850954455783,91.23316411521637
7.640000000000001,0.9999852883207648,90.72794402489117
7.648,0.999985480716739,90.22151551983409
7.656000000000001,0.99998567261718,89.713875140248
7.664,0.9999858640060375,89.20501951089275
7.672,0.9999860548675289,88.69494534269194
7.68,0.9999862451861324,88.18364943435287
7.688,0.9999864349465879,87.67112867399663
7.696,0.9999866241338872,87.15738004079893
7.704,0.9999868127332745,86.6424006066414
7.712,0.9999870007302402,86.12618753777271
7.72,0.9999871881105183,85.60873809647889
7.728,0.9999873748600809,85.09004964276279
7.736,0.9999875609651355,84.57011963603199
7.744,0.9999877464121222,84.04894563679449
7.752,0.9999879311877072,83.52652530836208
7.76,0.9999881152787816,83.00285641856055
7.768,0.9999882986724574,82.47793684144614
7.776,0.9999884813560623,81.95176455902802
7.784,0.9999886633171384,81.42433766299585
7.792,0.9999888445434361,80.89565435645193
7.8,0.9999890250229131,80.36571295564737
7.808,0.9999892047437295,79.83451189172165
7.816,0.999989383694245,79.30204971244468
7.824,0.9999895618630144,78.76832508396109
7.832,0.9999897392387869,78.23333679253552
7.84,0.9999899158104996,77.69708374629866
7.848,0.9999900915672764,77.15956497699304
7.856,0.9999902664984246,76.62077964171787
7.864,0.9999904405934308,76.08072702467211
7.872,0.9999906138419591,75.53940653889504
7.88,0.9999907862338467,74.99681772800342
7.888,0.9999909577591025,74.45296026792454
7.896,0.9999911284079026,73.90783396862412
7.904,0.9999912981705881,73.36143877582822
7.912,0.9999914670376626,72.81377477273844
7.92,0.9999916349997892,72.26484218173927
7.928,0.9999918020477871,71.7146413660967
7.936,0.99999196817263,71.16317283164727
7.944,0.9999921333654425,70.61043722847646
7.952,0.9999922976174981,70.05643535258532
7.96,0.9999924609202163,69.50116814754475
7.968,0.9999926232651607,68.94463670613582
7.976,0.9999927846440355,68.38684227197555
7.984,0.9999929450486844,67.82778624112696
7.992,0.9999931044710875,67.26747016369212
8.0,0.9999932629033587,66.70589574538745
8.008,0.9999934203377447,66.1430648490999
8.016,0.9999935767666217,65.5789794964227
8.024000000000001,0.9999937321824937,65.01364186917061
8.032,0.9999938865779903,64.44705431087192
8.04,0.9999940399458657,63.87921932823688
8.048,0.9999941922789948,63.31013959260179
8.056000000000001,0.9999943435703734,62.73981794134726
8.064,0.9999944938131143,62.16825737928872
8.072,0.9999946430004483,61.59546108003853
8.08,0.9999947911257194,61.02143238733914
8.088000000000001,0.9999949381823854,60.44617481636533
8.096,0.9999950841640154,59.86969205499393
8.104,0.9999952290642883,59.29198796504041
8.112,0.9999953728769917,58.71306658346123
8.120000000000001,0.9999955155960198,58.132932123520554
8.128,0.9999956572153735,57.551588975919636
8.136,0.999995797729157,56.96904170988749
8.144,0.9999959371315786,56.38529507423305
8.152000000000001,0.9999960754169482,55.800353998356094
8.16,0.9999962125796771,55.21422359321611
8.168,0.9999963486142759,54.62690915225753
8.176,0.9999964835153553,54.03841615229097
8.184000000000001,0.9999966172776228,53.44875025432891
8.192,0.9999967498958843,52.85791730437364
8.2,0.9999968813650412,52.26592333415712
8.208,0.9999970116800909,51.672774561831744
8.216000000000001,0.9999971408361267,51.07847739261048
8.224,0.9999972688283352,50.483038419354635
8.232,0.9999973956519979,49.886464423108514
8.24,0.9999975213024892,49.288762373580305
8.248000000000001,0.9999976457752767,48.689939429567595
8.256,0.9999977690659213,48.090002939325764
8.264,0.9999978911700754,47.488960440878685
8.272,0.9999980120834847,46.88681966227108
8.280000000000001,0.9999981318019857,46.28358852176118
8.288,0.9999982503215078,45.679275127951605
8.296,0.9999983676380727,45.073887779858445
8.304,0.9999984837477923,44.467434966917715
8.312,0.9999985986468727,43.859925368928124
8.32,0.9999987123316105,43.25136785592722
8.328,0.9999988247983953,42.641771488003926
8.336,0.9999989360437096,42.03114551504194
8.344,0.999999046064128,41.41949937639762
8.352,0.9999991548563187,40.80684270050731
8.36,0.9999992624170442,40.19318530442731
8.368,0.9999993687431599,39.57853719330179
8.376,0.9999994738316166,38.96290855976198
8.384,0.9999995776794608,38.34630978325164
8.392,0.9999996802838335,37.72875142928277
8.4,0.9999997816419737,37.11024424861612
8.408,0.9999998817512165,36.49079917637097
8.416,0.9999999806089956,35.87042733105856
8.424,1.0,35.24914001354367
8.432,1.0,34.626948705929415
8.44,1.0,34.00386507036889
8.448,0.9999999999999999,33.37990094779962
8.456,0.9999999999999999,32.755068356604404
8.464,1.0,32.12937949119415
8.472,0.9999999999999999,31.50284672051705
8.48,0.9999999999999999,30.875482586489326
8.488,1.0,30.247299802352195
8.496,0.9999999999999999,29.618311250950487
8.504,0.9999999999999999,28.988529982937354
8.512,0.9999999999999999,28.357969214900976
8.52,0.9999999999999999,27.72664232741773
8.528,0.9999999999999999,27.094562863027587
8.536,1.0,26.461744524136734
8.544,1.0,25.828201170842988
8.552,1.0,25.193946818689195
8.56,1.0,24.55899563634051
8.568,0.9999999999999999,23.92336194319053
8.576,0.9999999999999999,23.28706020689258
8.584,0.9999999999999999,22.650105040821128
8.592,1.0,22.01251120145968
8.6,0.9999999999999999,21.37429358572057
8.608,1.0,20.73546722819265
8.616,1.0,20.096047298322784
8.624,0.9999999999999999,19.456049097527224
8.632,0.9999999999999998,18.81548805623867
8.64,1.0,18.174379730885512
8.648,1.0,17.532739800809026
8.656,0.9999999999999999,16.890584065115025
8.664,0.9999999999999999,16.24792843946619
8.672,1.0,15.60478895281134
8.68,0.9999999999999999,14.96118174405821
8.688,1.0,14.317123058686045
8.696,1.0,13.67262924530461
8.704,1.0,13.02771675215625
8.712,0.9999999999999999,12.382402123567424
8.72,1.0,11.7367019963467
8.728,1.0,11.090633096135553
8.736,1.0,10.444212233709226
8.744,1.0,9.797456301233902
8.752,0.9999999999999998,9.150382268477689
8.76,0.9999999999999999,8.503007178981735
8.768,0.9999999999999999,7.855348146188961
8.776,1.0,7.207422349536958
8.784,0.9999999999999999,6.559247030512481
8.792,1.0,5.910839488674243
8.8,1.0,5.262217077641517
8.808,0.9999999999999999,4.6133972010552595
8.815999999999999,0.9999999999999999,3.9643973085095183
8.824,0.9999999999999999,3.3152348914588865
8.832,1.0,2.6659274791026593
8.84,0.9999999999999999,2.0164926342475336
8.847999999999999,0.9999999999999999,1.366947949151671
8.856,0.9999999999999999,0.7173110413530145
8.864,1.0,0.06759954948359669
8.872,0.9999999999999998,-0.5821688709284281
8.879999999999999,0.9999999999999998,-1.2319765516660943
8.888,1.0,-1.881805816037367
8.896,0.9999999999999999,-2.5316389830935218
8.904,1.0,-3.1814583718504075
8.911999999999999,0.9999999999999999,-3.8312463055095978
8.92,0.9999999999999999,-4.480985115676575
8.928,1.0,-5.130657146574055
8.936,1.0,-5.780244759248806
8.943999999999999,0.9999999999999998,-6.429730335768887
8.952,0.9999999999999999,-7.079096283408544
8.96,1.0,-7.728325038818886
8.968,0.9999999999999999,-8.3773990721827
8.975999999999999,1.0,-9.026300891350473
8.984,1.0,-9.675013045954813
8.992,0.9999999999999999,-10.32351813150157
9.0,0.9999999999999999,-10.97179879343603
9.008,1.0,-11.619837731181336
9.016,1.0,-12.26761770214655
9.024000000000001,0.9999999999999999,-12.915121525702547
9.032,1.0,-13.562332087124446
9.04,0.9999999999999999,-14.209232341497788
9.048,1.0,-14.855805317585872
9.056000000000001,0.9999999999999999,-15.502034121656918
9.064,0.9999999999999999,-16.14790194126948
9.072,1.0,-16.79339204901387
9.08,1.0,-17.43848780620695
9.088000000000001,1.0,-18.083172666539124
9.096,0.9999999999999998,-18.727430179672346
9.104,0.9999999999999999,-19.371243994786813
9.112,1.0,-20.01459786407404
9.120000000000001,1.0,-20.65747564617548
9.128,1.0,-21.299861309565372
9.136,0.9999999999999999,-21.94173893587595
9.144,0.9999999999999998,-22.58309272316305
9.152000000000001,0.9999999999999999,-23.22390698911093
9.16,1.0,-23.864166174176034
9.168,1.0,-24.503854844667316
9.176,1.0,-25.142957695761744
9.184000000000001,0.9999999999999999,-25.78145955445419
9.192,1.0,-26.41934538244118
9.2,1.0,-27.056600278936887
9.208,1.0,-27.693209483419917
9.216000000000001,0.9999999999999999,-28.329158378310378
9.224,1.0,-28.964432491577064
9.232,1.0,-29.599017499273344
9.24,1.0,-30.23289922800038
9.248000000000001,1.0,-30.86606365729778
9.256,1.0,-31.498496921961348
9.264,1.0,-32.13018531428708
9.272,1.0,-32.761115286240205
9.280000000000001,1.0,-33.39127345154938
9.288,0.9999999999999999,-34.0206465877265
9.296,1.0,-34.649221638010935
9.304,0.9999999999999999,-35.27698571323743
9.312000000000001,0.9999999999999999,-35.90392609362838
9.32,1.0000000000000002,-36.5300302305105
9.328,1.0,-37.15528574795552
9.336,1.0,-37.77968044434419
9.344,0.9999999999999999,-38.403202293854264
9.352,1.0,-39.02583944787386
9.36,1.0,-39.64758023633702
9.368,1.0,-40.26841316898595
9.376,1.0,-40.88832693655592
9.384,0.9999999999999999,-41.5073104118872
9.392,0.9999999999999999,-42.12535265096034
9.4,0.9999999999999999,-42.74244289385958
9.408,1.0,-43.35857056566028
9.416,1.0,-43.97372527724524
9.424,1.0,-44.58789682604653
9.432,1.0,-45.20107519671714
9.44,1.0,-45.81325056172951
9.448,1.0,-46.42441328190498
9.456,1.0,-47.03455390687169
9.464,0.9999999999999999,-47.64366317545511
9.472,1.0,-48.25173201599815
9.48,1.0,-48.85875154661587
9.488,0.9999999999999999,-49.46471307538131
9.496,1.0,-50.069608100447745
9.504,0.9999999999999999,-50.673428310104065
9.512,0.9999999999999999,-51.27616558276821
9.52,1.0,-51.877811986915766
9.528,1.0,-52.47835978094878
9.536,1.0,-53.077801413001744
9.544,1.0,-53.676129520689756
9.552,1.0,-54.27333693079614
9.56,0.9999999999999999,-54.86941665890454
9.568,1.0,-55.4643619089725
9.576,0.9999999999999999,-56.05816607285197
9.584,1.0,-56.650822729753585
9.592,1.0,-57.24232564566011
9.6,1.0000000000000002,-57.832668772686134
9.608,1.0,-58.42184624838932
9.616,0.9999999999999999,-59.00985239503037
9.624,0.9999999999999999,-59.596681718786826
9.632,1.0,-60.18232890891816
9.64,1.0,-60.766788836887315
9.648,1.0,-61.350056555435714
9.656,1.0,-61.93212729761738
9.664,1.0,-62.51299647578918
9.672,1.0,-63.09265968056238
9.68,0.9999999999999999,-63.67111267971305
9.688,1.0,-64.24835141705628
9.696,1.0,-64.8243720112816
9.704,0.9999999999999999,-65.39917075475492
9.712,1.0000000000000002,-65.97274411228408
9.72,1.0,-66.54508871985334
9.728,1.0,-67.11620138332408
9.736,0.9999999999999999,-67.68607907710685
9.744,1.0,-68.25471894280213
9.752,1.0,-68.82211828781476
9.76,1.0,-69.38827458393965
9.768,1.0,-69.95318546592351
9.776,1.0,-70.51684873000015
9.784,1.0,-71.0792623324043
9.792,1.0,-71.64042438786127
9.8,1.0,-72.20033316805745
9.808,0.9999999999999999,-72.75898710008886
9.816,1.0,-73.31638476489292
9.824,0.9999999999999999,-73.87252489566045
9.832,1.0,-74.42740637623308
9.84,1.0,-74.98102823948304
9.847999999999999,1.0,-75.53338966568033
9.856,1.0,-76.08448998084539
9.864,0.9999999999999999,-76.63432865508906
