freq,mag,phase
6.0,0.9998316737525144,2.039679854781326
6.01520896,0.999748540468445,1.5774118438282358
6.030418432,0.9996751118085531,1.1159791953448548
6.045627392,0.9996152920188894,0.6552421150313258
6.060836352,0.9995719883064744,0.1950312715076047
6.076045824,0.9995470714869399,-0.2648189714122142
6.091254784,0.9995417680301857,-0.7246323019822196
6.106463744,0.9995564864452932,-1.1845964588927613
6.121673216,0.9995905578424112,-1.6449115866279733
6.136882176,0.9996427715417777,-2.105869383807365
6.152091136,0.9997108529828879,-2.5676386942126372
6.167300608,0.9997919070976604,-3.03038940564798
6.182509568,0.9998825388657375,-3.494295181048268
6.197718528,0.9999786885540475,-3.959446613109169
6.212928,1.000076282932886,-4.425848751289291
6.22813696,1.0001708878604074,-4.8935514229883355
6.24334592,1.0002585929850252,-5.36244147334777
6.25855488,1.0003353099064112,-5.83248642056374
6.273764352,1.000397505764192,-6.303433846647527
6.288973312,1.000442730493877,-6.775199972230425
6.304182272,1.0004684889427873,-7.247468181628958
6.319391744,1.000473802775439,-7.720115733510074
6.334600704,1.000458372947874,-8.192822179159835
6.349809664,1.000422521700652,-8.665326307408234
6.365019136,1.000367712453461,-9.1374009748217
6.380228096,1.0002963587598943,-9.608899889523066
6.395437056,1.0002114571726108,-10.079559270952567
6.410646528,1.0001166025699628,-10.54923148151597
6.425855488,1.0000159982762733,-11.017879101661386
6.441064448,0.9999137478802295,-11.485453708749079
6.45627392,0.9998147091190622,-11.951848170952594
6.47148288,0.9997230078964991,-12.417248943171206
6.48669184,0.9996429278046247,-12.881710150040307
6.501901312,0.9995776632093034,-13.345406951566988
6.517110272,0.9995304490503029,-13.808523193121736
6.532319232,0.9995034925617364,-14.271313826509639
6.547528704,0.9994979938555284,-14.733993033514269
6.562737664,0.9995143523479493,-15.19682510348173
6.577946624,0.9995519482527936,-15.66013755763664
6.593156096,0.9996094117393386,-16.12407273027186
6.608365056,0.999684066440277,-16.58890269880712
6.623574016,0.9997731061950723,-17.054850680885313
6.638783488,0.9998724137998,-17.5220424243269
6.653992448,0.9999777799633456,-17.99059324075165
6.669201408,1.0000845726752714,-18.46054250042824
6.68441088,1.0001882474660095,-18.93186533569884
6.69961984,1.0002841619914042,-19.4045223766711
6.7148288,1.000367920104231,-19.87841632739651
6.730038272,1.0004360753927528,-20.353350043682667
6.745247232,1.000485550628216,-20.829082755147937
6.760456192,1.000513680853437,-21.30547203605036
6.775665152,1.0005193239809962,-21.782189617026667
6.790874624,1.0005022751835275,-22.258997389272118
6.806083584,1.0004630347865657,-22.73559838117985
6.821292544,1.0004030513135576,-23.211733677421254
6.836502016,1.0003250756461688,-23.687188478397573
6.851710976,1.0002320537017149,-24.161743259108487
6.866919936,1.0001281949255507,-24.63528215538911
6.882129408,1.0000180742247575,-25.10761427793602
6.897338368,0.9999063421985415,-25.578736818381522
6.912547328,0.9997978056081536,-26.048695814201242
6.9277568,0.9996973066128421,-26.51751403976988
6.94296576,0.999609430434016,-26.985302654444638
6.95817472,0.9995379772473082,-27.45223337920539
6.973384192,0.9994861692142977,-27.91854327519506
6.988593152,0.9994565419283805,-28.38446921930526
7.003802112,0.9994503569056351,-28.850322856708377
7.019011584,0.999468030703556,-29.316287631192555
7.034220544,0.9995091302923074,-29.78276654400484
7.049429504,0.9995717582585038,-30.249982751545893
7.064638976,0.9996533177405696,-30.718149603388174
7.079847936,0.9997504935678341,-31.187530708967202
7.095056896,0.9998589878235692,-31.658257703121006
7.110266368,0.9999742736235216,-32.130493846922086
7.125475328,1.0000912551429673,-32.604224955732754
7.140684288,1.0002048077404744,-33.07947645335463
7.15589376,1.0003099074109576,-33.556186617292106
7.17110272,1.0004018613795138,-34.03420734071208
7.18631168,1.0004768489843545,-34.51342031759189
7.201521152,1.0005311334427125,-34.99353801353677
7.216730112,1.0005624062274,-35.47431582314436
7.231939072,1.000569123265316,-35.95550542451318
7.247148544,1.0005509471772467,-36.43671501051086
7.262357504,1.0005083360176847,-36.917786401851814
7.277566464,1.0004432470305247,-37.398326874603406
7.292775424,1.0003580926834073,-37.87812482845177
7.307984896,1.0002565804725576,-38.356968387428076
7.323193856,1.000143284468289,-38.834600609473654
7.338402816,1.0000227626581424,-39.311061834943324
7.353612288,0.9999005200997184,-39.786116420176604
7.368821248,0.9997816273525414,-40.259894359294385
7.384030208,0.9996715003813187,-40.73243431439495
7.39923968,0.9995748631951553,-41.20383174109827
7.41444864,0.9994961993591657,-41.67433877892591
7.4296576,0.9994388435433017,-42.14408622221668
7.444867072,0.9994056045047773,-42.613448401473825
7.460076032,0.9993981879445112,-43.082673124164764
7.475284992,0.9994168216785326,-43.55205565894229
7.490494464,0.9994610408938525,-44.02197202710378
7.505703424,0.9995289813127849,-44.49265080292781
7.520912384,0.9996176507159986,-44.9644303444769
7.536121856,0.9997235622802305,-45.437495554764425
7.551330816,0.9998419918333714,-45.91203455463896
7.566539776,0.999968010784819,-46.38818961992226
7.581749248,1.0000959963059999,-46.86600076745104
7.596958208,1.0002203337715843,-47.34549525950349
7.612167168,1.0003357689505603,-47.82657309390201
7.62737664,1.0004370217134972,-48.30909675938169
7.6425856,1.000519651261301,-48.7928637279016
7.65779456,1.000580058736332,-49.277679193801575
7.673004032,1.0006152190941024,-49.76325588615658
7.688212992,1.0006237084386465,-50.249238259892884
7.703421952,1.0006048290338325,-50.735309785114424
7.718631424,1.0005590647153422,-51.22119300981021
7.733840384,1.0004888478706422,-51.70651016292386
7.749049344,1.0003963841476742,-52.19103904281537
7.764258304,1.000286101160767,-52.6744930914858
7.779467776,1.0001625065721262,-53.156698887741335
7.794676736,1.0000307954270402,-53.63756685450308
7.809885696,0.9998970007045834,-54.11693712873531
7.825095168,0.9997665592305505,-54.59488982112153
7.840304128,0.9996454674017654,-55.07148141890827
7.855513088,0.9995389147714774,-55.546802244763946
7.87072256,0.9994518809532702,-56.02109522498469
7.88593152,0.9993879847403163,-56.494618382096036
7.90114048,0.9993504798830346,-56.96768074591684
7.916349952,0.9993408006469616,-57.44058057675794
7.931558912,0.9993598444590631,-57.9136399832582
7.946767872,0.9994069124221537,-58.387228465144545
7.961977344,0.9994798723357033,-58.86167541258811
7.977186304,0.9995759583799938,-59.337274042514714
7.992395264,0.9996910448949978,-59.81426373605201
8.007604736,0.9998200436442524,-60.29289303096531
8.022813696,0.9999576297548027,-60.773257384479166
8.038022656,1.0000976692410206,-61.255447365409076
8.053232128,1.0002343089805046,-61.73944112937179
8.068441088,1.0003613088715615,-62.22519646675371
8.083650048,1.000473149574775,-62.71255649025287
8.09885952,1.000564795249203,-63.20124951787469
8.11406848,1.000632355972014,-63.69114717661317
8.12927744,1.0006725203456102,-64.1818390309286
8.144486912,1.0006834427609148,-64.67300837015495
8.159695872,1.0006644825700772,-65.16433867041522
8.174904832,1.000616201586928,-65.65541101888367
8.190114304,1.000540633645129,-66.14594284124136
8.205323264,1.0004410088561386,-66.63560163717399
8.220532224,1.0003212948786084,-67.12411194817685
8.235741696,1.0001866398610018,-67.61126081948147
8.250950656,1.0000428585447019,-68.09688360478897
8.266159616,0.9998962755571332,-68.58097523938692
8.281368576,0.9997531085591281,-69.06344608814737
8.296578048,0.9996196746260049,-69.54441412315894
8.311787008,0.9995019200573774,-70.02403361265765
8.326995968,0.9994050476396248,-70.50248980781676
8.34220544,0.9993334380755794,-70.98006026130867
8.3574144,0.9992901375139924,-71.45706608130952
8.37262336,0.9992776389010597,-71.93389822475937
8.387832832,0.9992964231859166,-72.41089646818001
8.403041792,0.999345756619306,-72.88845489494679
8.418250752,0.9994239746216885,-73.36691851881004
8.433460224,0.9995275448451427,-73.8466045415091
8.448669184,0.9996522674877057,-74.32781069807541
8.463878144,0.9997927387731963,-74.81075766079216
8.479087616,0.9999430547074984,-75.29561431402782
8.494296576,1.0000965247237097,-75.78242964897184
8.509505536,1.0002466749772385,-76.27129535121541
8.524715008,1.0003867701936044,-76.76202122268941
8.539923968,1.0005105722405003,-77.2545548448701
8.555132928,1.0006129125643308,-77.74859758053042
8.5703424,1.0006890831198696,-78.24390129441
8.58555136,1.000735366731502,-78.74014128787232
8.60076032,1.0007498580376262,-79.23692153389
8.615969792,1.0007315912036525,-79.73391228024428
8.63117824,1.0006812255685098,-80.23065532088516
8.646387712,1.0006006663167086,-80.72682754620753
8.661597184,1.0004933119140005,-81.22204958656967
8.676805632,1.000363700190303,-81.71605250098985
8.692015104,1.0002173019608558,-82.20857072120555
8.707224576,1.0000603467980078,-82.69944753853804
8.722433024,0.999899640268799,-83.18858961330913
8.737642496,0.9997420679381467,-83.67600119536553
8.752851968,0.9995948196893081,-84.16173552559363
8.768060416,0.9994639519749814,-84.64595665288586
8.783269888,0.9993556136944247,-85.12890034343924
8.79847936,0.999274511499926,-85.61085676633293
8.813687808,0.9992244972487818,-86.09216900411417
8.82889728,0.9992077664103572,-86.57318486845593
8.844106752,0.9992252885448474,-87.05438656350641
8.8593152,0.9992764799876704,-87.53616839055569
8.874524672,0.9993594802058072,-88.01887153616988
8.889734144,0.9994708849295783,-88.5028965077523
8.904942592,0.9996057726008291,-88.98857083761789
8.920152064,0.9997584875395292,-89.47613480116458
8.935361536,0.9999225135175664,-89.96577724131357
8.950569984,1.0000907815921385,-90.45757399326124
8.965779456,1.000256078617849,-90.95155876623322
8.980988928,1.0004109796819152,-91.4476536821224
8.996197376,1.0005488431973668,-91.94568969072658
9.011406848,1.0006634598143307,-92.44543592941346
9.02661632,1.000749869584822,-92.94657157242757
9.041824768,1.0008039159585413,-93.44878440504743
9.05703424,1.0008232190187032,-93.95163351884328
9.072243712,1.0008066581327708,-94.4547237235463
9.08745216,1.0007547955256004,-94.9576048887144
9.102661632,1.0006695410350408,-95.45987940459321
9.117871104,1.0005543942350026,-95.96114434221299
9.133079552,1.0004143536296426,-96.4610936917012
9.148289024,1.000255237953908,-96.9594692797825
9.163498496,1.0000838130637393,-97.45604324875548
9.178706944,0.9999074921710032,-97.95072770960763
9.193916416,0.9997338006901191,-98.44348629963616
9.209125888,0.999570676523754,-98.93438315828072
9.224334336,0.9994248800098647,-99.42358933406818
9.239543808,0.9993030977514276,-99.9113826224858
9.25475328,0.9992107112703993,-100.3980401905305
9.269961728,0.9991518899564951,-100.88394104784203
9.2851712,0.9991296095029029,-101.36948268527723
9.300380672,0.999144823032152,-101.8551694011773
9.31558912,0.9991973038195382,-102.3414170904228
9.330798592,0.9992848925784029,-102.82865998311404
9.346008064,0.9994040814479626,-103.31731530837024
9.361216512,0.9995496461870541,-103.80770387680661
9.376425984,0.9997156399406257,-104.30014220083471
9.391635456,0.9998949236065406,-104.79485709973082
9.406843904,1.0000797433500963,-105.29190460969778
9.422053376,1.0002621196576609,-105.79137824117566
9.437262848,1.000434015758822,-106.29315836480916
9.452471296,1.0005879122022436,-106.79711301402794
9.467680768,1.00071709758249,-107.30296965287931
9.48289024,1.000815751832971,-107.81040456973136
9.498098688,1.000879445780517,-108.3190372966498
9.51330816,1.0009052800072062,-108.82843751976561
9.528516608,1.0008916284991936,-109.33813770187078
9.54372608,1.0008389850282193,-109.84767828075866
9.558935552,1.000749462106169,-110.35659242020262
9.574144,1.0006266189782347,-110.86444333546854
9.589353472,1.0004754900066761,-111.37088603820763
9.604562944,1.0003026145526754,-111.87562011908265
9.619771392,1.0001152371465578,-112.3783944340332
9.634980864,0.9999215385185132,-112.87910078326681
9.650190336,0.9997297552334009,-113.37765673916594
9.665398784,0.9995483466821651,-113.87419260871872
9.680608256,0.9993852326000645,-114.36882581426798
9.695817728,0.999247564862856,-114.86183793168257
9.711026176,0.9991415776187423,-115.35356337122451
9.726235648,0.9990721271523063,-115.84437928680029
9.74144512,0.9990424428063854,-116.3347763628482
9.756653568,0.9990540185193495,-116.82524223288488
9.77186304,0.9991066487729151,-117.31624754524063
9.787072512,0.9991983268669565,-117.80829170983814
9.80228096,0.9993252760532308,-118.30182185031492
9.817490432,0.9994823342602539,-118.79723192910339
9.832699904,0.9996626495567433,-119.29485347584104
9.847908352,0.9998586588745831,-119.79491863192644
9.863117824,1.0000618487740152,-120.2975737419972
9.878327296,1.0002635802067925,-120.80288148980004
9.893535744,1.0004549878859714,-121.31072684247482
9.908745216,1.000627718899824,-121.82100966216545
9.923954688,1.000774109744816,-122.33342316173687
9.939163136,1.000887713633903,-122.84763375586434
9.954372608,1.0009633446134987,-123.36319735149611
9.96958208,1.0009975525495747,-123.87969010683325
9.984790528,1.0009884246331582,-124.39658342146397
10.0,1.0009362625736968,-124.91333789137872
10.015209472,1.0008430008449527,-125.42947460019371
10.03041792,1.000712220892736,-125.94452107589719
10.045627392,1.0005495817370933,-126.45805649125145
10.060836864,1.0003618168108366,-126.96973396600578
10.076045312,1.0001569040384395,-127.47926857049941
10.091254784,0.9999436807872658,-127.98654038406313
10.106464256,0.9997311390621036,-128.49146046841304
10.121672704,0.9995288060776358,-128.99410389537036
10.136882176,0.9993453419859087,-129.49463950768416
10.152091648,0.999188968782436,-129.99332446066168
10.167300096,0.9990665929854238,-130.4904892040048
10.182509568,0.9989837539195106,-130.98663266112268
10.19771904,0.9989443538538713,-131.48220888174365
10.212927488,0.9989504187518391,-131.97776625936504
10.22813696,0.9990019611014822,-132.47384288739727
10.243346432,0.9990970181588185,-132.9709694083726
10.25855488,0.999231866727313,-133.46965753420346
10.273764352,0.9994007218813873,-133.97038264587485
10.288973824,0.9995966132021792,-134.47347623518885
10.304182272,0.9998111463516853,-134.97923814370031
10.319391744,1.0000350930736592,-135.48783646725997
10.334601216,1.000258929521173,-135.9993507214447
10.349809664,1.000472723223785,-136.51369109884607
10.365019136,1.0006673924239766,-137.03074938534957
10.380228608,1.000834198915481,-137.55020982784183
10.395437056,1.000965857115563,-138.07170165798527
10.410646528,1.0010563167107334,-138.59480059565297
10.425856,1.0011014276231693,-139.11895706779455
10.441064448,1.0010989479616337,-139.64366207468672
10.45627392,1.0010485869067072,-140.16831787448555
10.471483392,1.0009523702962555,-140.6923629994073
10.48669184,1.0008140080874266,-141.21527438650762
10.501901312,1.0006392113719254,-141.73659682345462
10.51710976,1.0004352633332874,-142.2558896546668
10.532319232,1.0002108184135645,-142.772879956722
10.547528704,0.9999755847264623,-143.28734554159442
10.562737152,0.9997394588534265,-143.7992474586544
10.577946624,0.9995127681131099,-144.30858200795296
10.593156096,0.999305511444658,-144.81552758036105
10.608364544,0.9991268024567997,-145.32037217919168
10.623574016,0.9989845004758487,-145.82349401061649
10.638783488,0.9988851194938527,-146.32534222470926
10.653991936,0.9988332343565842,-146.82649780277683
10.669201408,0.9988314775950523,-147.32749188013122
10.68441088,0.9988802123777054,-147.8289658926163
10.699619328,0.9989778025958955,-148.33149102794061
10.7148288,0.9991201769761284,-148.8356760233984
10.730038272,0.9993016712758384,-149.34199449011365
10.74524672,0.9995144008819404,-149.85090240058187
10.760456192,0.9997496251812954,-150.3627122385824
10.775665664,0.9999969754496909,-150.8776354940917
10.790874112,1.0002461697787401,-151.39576979883594
10.806083584,1.0004861835668248,-151.91709827223565
10.821293056,1.0007067703916908,-152.4414249876654
10.836501504,1.0008979971451655,-152.9684984774463
10.851710976,1.0010514655466132,-153.49791028981846
10.866920448,1.001160359485589,-154.02916259865182
10.882128896,1.0012196486783234,-154.56172440678245
10.897338368,1.001226374483685,-155.09497839018456
10.91254784,1.00117986008551,-155.628285797328
10.927756288,1.001081836494461,-156.16104476558905
10.94296576,1.0009360034701862,-156.69264175538717
10.958175232,1.000748458290576,-157.2225447857178
10.97338368,1.0005269159387002,-157.75028936782815
10.988593152,1.000280750680761,-158.27551370842403
11.003802624,1.0000204462778624,-158.79795450978844
11.019011072,0.9997570990446795,-159.31754274474872
11.034220544,0.9995021208153299,-159.83427615311587
11.049430016,0.9992667641223614,-160.34829486284502
11.064638464,0.9990610434093223,-160.85989275521783
11.079847936,0.9988944590309788,-161.36947311347436
11.095057408,0.9987744480166385,-161.87755194429977
11.110265856,0.9987063944797131,-162.3846992809579
11.125475328,0.9986937366764247,-162.8915564553476
11.1406848,0.9987375964321976,-163.39881601640093
11.155893248,0.9988362036487666,-163.9071409972944
11.17110272,0.998985816586583,-164.41715735131996
11.186312192,0.9991803576548202,-164.9294522800225
11.20152064,0.9994115894099539,-165.44452185735764
11.216730112,0.9996698133057079,-165.96276972226124
11.231939584,0.9999441477996293,-166.48445670724354
11.247148032,1.0002225763231951,-167.00972448957137
11.262357504,1.0004933342362892,-167.5385299709409
11.277566976,1.0007444881443899,-168.0707329961512
11.292775424,1.0009651609872612,-168.606086410085
11.307984896,1.0011454702625089,-169.144113334415
11.323194368,1.0012774310185115,-169.6843476484132
11.338402816,1.0013548535349313,-170.22613975926046
11.353612288,1.001374257765778,-170.76882456577817
11.36882176,1.00133418551448,-171.3117591533327
11.384030208,1.0012358462189492,-171.8541836811851
11.39923968,1.0010832520269282,-172.39544806703145
11.414449152,1.0008823133141396,-172.93493699704803
11.4296576,1.0006415665693422,-173.47210758850795
11.444867072,1.0003708968210174,-174.0065294183804
11.460076544,1.000081901688672,-174.5379039094951
11.475284992,0.9997868904128975,-175.06608852187966
11.490494464,0.9994985606518282,-175.5910382828636
11.505702912,0.9992295851507315,-176.11292739065337
11.520912384,0.9989914431560345,-176.63201391012984
11.536121856,0.998794956495347,-177.14873117833227
11.551330304,0.9986489865502424,-177.66362846296093
11.566539776,0.998560127832593,-178.17735046076916
11.581749248,0.9985327480952191,-178.6905918328124
11.596957696,0.9985685595911539,-179.20408136039103
11.612167168,0.998666408731631,-179.71861648390916
11.62737664,0.9988224996283327,179.76510759986988
11.642585088,0.999030754510594,179.24640275761277
11.65779456,0.9992821754525113,178.72468212867162
11.673004032,0.999566515592829,178.19952323765824
11.68821248,0.9998715716464545,177.67054890789152
11.703421952,1.0001844290196338,177.13759034062207
11.718631424,1.0004914133339027,176.60061885405588
11.733839872,1.0007793488631669,176.05978520602392
11.749049344,1.0010358175618776,175.51537510092433
11.764258816,1.0012492186312751,174.96780588607407
11.779467264,1.0014101523990497,174.41765607804084
11.794676736,1.0015113315453332,173.8655739753669
11.809886208,1.0015478261666952,173.31230427712288
11.825094656,1.00151757034357,172.75861479065264
11.840304128,1.0014214002194182,172.20527807837698
11.8555136,1.0012627184457754,171.65309133576542
11.870722048,1.0010481745443542,171.1027614991837
11.88593152,1.000786164468577,170.55489843834397
11.901140992,1.000487836101042,170.01003837386804
11.91634944,1.000165775879647,169.46851897141366
11.931558912,0.9998335918420347,168.93060444171482
11.946768384,0.9995055016958266,168.3963184064388
11.961976832,0.999195886970774,167.86555481762093
11.977186304,0.9989181137384658,167.33800319595343
11.992395776,0.9986846549092431,166.8132779411751
12.007604224,0.9985058442554325,166.2907482301809
12.022813696,0.9983899235487849,165.76976164233497
12.038023168,0.9983425339953571,165.24948529373907
