freq,mag,phase
6.0,0.9999858171216465,-133.82768359871082
6.008,0.9999847253356348,-134.27152399599163
6.016,0.9999836683154762,-134.715238511706
6.024,0.9999826456243879,-135.15882691847102
6.032,0.9999816568264754,-135.60228899959645
6.04,0.9999807014867842,-136.04562454902907
6.048,0.999979779171341,-136.4888333712961
6.056,0.9999788894472034,-136.93191528144877
6.064,0.9999780318825026,-137.37487010500513
6.072,0.999977206046489,-137.81769767789282
6.08,0.9999764115095766,-138.2603978463914
6.088,0.9999756478433864,-138.70297046707435
6.096,0.9999749146207887,-139.1454154067508
6.104,0.9999742114159459,-139.58773254240683
6.112,0.999973537804357,-140.02992176114682
6.12,0.9999728933628956,-140.47198296013423
6.128,0.9999722776698492,-140.91391604653202
6.136,0.9999716903049667,-141.3557209374433
6.144,0.9999711308494915,-141.79739755985105
6.152,0.9999705988862005,-142.23894585055837
6.16,0.9999700939994501,-142.6803657561277
6.168,0.9999696157752038,-143.12165723282052
6.176,0.9999691638010786,-143.56282024653632
6.184,0.9999687376663768,-144.0038547727516
6.192,0.9999683369621237,-144.44476079645892
6.2,0.9999679612811064,-144.88553831210507
6.208,0.9999676102179008,-145.32618732352978
6.216,0.9999672833689172,-145.76670784390384
6.224,0.9999669803324263,-146.20709989566723
6.232,0.9999667007085955,-146.64736351046704
6.24,0.9999664440995235,-147.08749872909527
6.248,0.9999662101092677,-147.52750560142653
6.256,0.9999659983438843,-147.96738418635513
6.264,0.9999658084114512,-148.40713455173326
6.272,0.999965639922103,-148.84675677430755
6.28,0.9999654924880617,-149.28625093965658
6.288,0.9999653657236669,-149.72561714212802
6.296,0.9999652592453996,-150.1648554847752
6.304,0.9999651726719171,-150.60396607929462
6.312,0.9999651056240787,-151.04294904596213
6.32,0.9999650577249707,-151.4818045135704
6.328,0.9999650285999399,-151.9205326193647
6.336,0.9999650178766102,-152.3591335089805
6.344,0.9999650251849178,-152.79760733637926
6.352,0.9999650501571324,-153.23595426378552
6.36,0.9999650924278801,-153.67417446162312
6.368,0.999965151634173,-154.11226810845173
6.376,0.9999652274154245,-154.55023539090328
6.384,0.9999653194134818,-154.98807650361866
6.392,0.999965427272644,-155.42579164918365
6.4,0.9999655506396828,-155.86338103806588
6.408,0.9999656891638656,-156.300844888551
6.416,0.9999658424969761,-156.73818342667897
6.424,0.9999660102933391,-157.17539688618098
6.432,0.9999661922098311,-157.61248550841535
6.44,0.9999663879059087,-158.04944954230447
6.448,0.9999665970436235,-158.48628924427126
6.456,0.999966819287639,-158.9230048781756
6.464,0.9999670543052542,-159.35959671525097
6.472,0.9999673017664154,-159.79606503404125
6.48,0.9999675613437353,-160.23241012033748
6.4879999999999995,0.9999678327125073,-160.6686322671142
6.496,0.9999681155507267,-161.104731774467
6.504,0.9999684095390999,-161.54070894954882
6.5120000000000005,0.9999687143610632,-161.97656410650728
6.52,0.9999690297027958,-162.41229756642147
6.5280000000000005,0.9999693552532327,-162.84790965723963
6.536,0.9999696907040805,-163.28340071371568
6.5440000000000005,0.9999700357498298,-163.71877107734716
6.552,0.9999703900877646,-164.15402109631216
6.5600000000000005,0.9999707534179777,-164.58915112540754
6.568,0.9999711254433822,-165.0241615259856
6.5760000000000005,0.9999715058697191,-165.45905266589284
6.584,0.9999718944055735,-165.893824919407
6.592,0.999972290762376,-166.32847866717577
6.6,0.9999726946544233,-166.76301429615424
6.608,0.9999731057988772,-167.19743219954356
6.616,0.9999735239157814,-167.63173277672917
6.624,0.9999739487280637,-168.06591643321926
6.632,0.9999743799615463,-168.49998358058352
6.64,0.9999748173449545,-168.93393463639188
6.648,0.9999752606099206,-169.36777002415326
6.656,0.9999757094909933,-169.80149017325496
6.664,0.9999761637256415,-170.2350955189016
6.672,0.999976623054261,-170.66858650205472
6.68,0.999977087220179,-171.10196356937217
6.688,0.9999775559696606,-171.53522717314777
6.696,0.9999780290519112,-171.9683777712514
6.704,0.9999785062190805,-172.40141582706877
6.712,0.9999789872262673,-172.83434180944184
6.72,0.9999794718315206,-173.26715619260895
6.728,0.9999799597958454,-173.69985945614565
6.736,0.9999804508832013,-174.13245208490517
6.744,0.999980944860508,-174.56493456895947
6.752,0.9999814414976436,-174.9973074035403
6.76,0.9999819405674467,-175.42957108898042
6.768,0.9999824418457189,-175.86172613065517
6.776,0.9999829451112227,-176.293773038924
6.784,0.9999834501456824,-176.72571232907242
6.792,0.9999839567337842,-177.15754452125393
6.8,0.9999844646631736,-177.58927014043226
6.808,0.9999849737244569,-178.020889716324
6.816,0.9999854837111973,-178.452403783341
6.824,0.999985994419914,-178.8838128805332
6.832,0.99998650565008,-179.3151175515318
6.84,0.999987017204119,-179.74631834449255
6.848,0.9999875288874024,179.8225841879611
6.856,0.9999880405082465,179.391589488794
6.864,0.999988551877909,178.96069699661567
6.872,0.9999890628105834,178.52990614573608
6.88,0.999989573123397,178.0992163662214
6.888,0.9999900826364038,177.66862708394964
6.896,0.9999905911725813,177.2381377206657
6.904,0.9999910985578241,176.80774769403646
6.912,0.9999916046209393,176.3774564177059
6.92,0.9999921091936389,175.94726330134935
6.928,0.999992612110535,175.51716775072816
6.936,0.9999931132091328,175.0871691677438
6.944,0.9999936123298223,174.65726695049176
6.952,0.9999941093158737,174.22746049331548
6.96,0.9999946040134282,173.79774918685962
6.968,0.9999950962714884,173.36813241812354
6.976,0.9999955859419153,172.93860957051427
6.984,0.9999960728794145,172.50918002389946
6.992,0.9999965569415308,172.07984315465987
7.0,0.9999970379886374,171.6505983357418
7.008,0.9999975158839279,171.22144493670933
7.016,0.9999979904934067,170.79238232379618
7.024,0.9999984616858782,170.3634098599574
7.032,0.9999989293329371,169.93452690492092
7.04,0.9999993933089593,169.50573281523873
7.048,0.9999998534910882,169.07702694433792
7.056,1.0,168.64840864257155
7.064,1.0,168.2198772572691
7.072,1.0,167.79143213278684
7.08,1.0,167.36307261055794
7.088,1.0,166.93479802914234
7.096,1.0,166.5066077242764
7.104,1.0,166.0785010289223
7.112,1.0,165.6504772733172
7.12,1.0,165.22253578502225
7.128,0.9999999999999999,164.79467588897126
7.136,1.0,164.36689690751928
7.144,0.9999999999999999,163.93919816049063
7.152,1.0,163.51157896522727
7.16,0.9999999999999999,163.08403863663636
7.168,1.0,162.65657648723797
7.176,0.9999999999999999,162.22919182721228
7.184,1.0,161.80188396444686
7.192,1.0,161.3746522045835
7.2,1.0,160.94749585106487
7.208,1.0,160.52041420518097
7.216,1.0,160.09340656611533
7.224,1.0,159.666472230991
7.232,1.0,159.23961049491635
7.24,1.0,158.81282065103062
7.248,0.9999999999999999,158.38610199054912
7.256,1.0,157.95945380280853
7.264,1.0,157.5328753753115
7.272,0.9999999999999999,157.10636599377156
7.28,0.9999999999999998,156.67992494215738
7.288,1.0,156.25355150273708
7.296,0.9999999999999999,155.82724495612214
7.304,1.0,155.4010045813112
7.312,1.0,154.9748296557336
7.32,0.9999999999999999,154.54871945529283
7.328,0.9999999999999999,154.1226732544094
7.336,0.9999999999999999,153.69669032606402
7.344,1.0,153.27076994184006
7.352,1.0,152.84491137196622
7.36,0.9999999999999999,152.41911388535866
7.368,0.9999999999999999,151.99337674966304
7.376,1.0,151.56769923129647
7.384,1.0,151.14208059548906
7.392,0.9999999999999999,150.7165201063254
7.4,1.0,150.29101702678562
7.4079999999999995,1.0,149.86557061878673
7.416,0.9999999999999999,149.44018014322288
7.4239999999999995,1.0,149.01484486000666
7.432,1.0,148.58956402810864
7.4399999999999995,0.9999999999999999,148.16433690559862
7.448,1.0,147.73916274968443
7.4559999999999995,1.0,147.31404081675282
7.464,1.0,146.8889703624082
7.4719999999999995,1.0000000000000002,146.46395064151264
7.48,0.9999999999999999,146.03898090822446
7.4879999999999995,1.0,145.614060416038
7.496,1.0,145.18918841782158
7.504,0.9999999999999999,144.7643641658569
7.5120000000000005,1.0,144.3395869118767
7.52,0.9999999999999999,143.9148559071038
7.5280000000000005,1.0,143.49017040228821
7.536,1.0,143.0655296477459
7.5440000000000005,1.0,142.64093289339567
7.552,1.0,142.2163793887974
7.5600000000000005,1.0,141.79186838318844
7.568,0.9999999999999999,141.36739912552162
7.5760000000000005,1.0,140.94297086450132
7.584,1.0,140.5185828486211
7.5920000000000005,0.9999999999999999,140.09423432619934
7.6,0.9999999999999999,139.6699245454164
7.6080000000000005,0.9999999999999999,139.24565275435023
7.616,1.0,138.82141820101296
7.6240000000000006,1.0,138.39722013338607
7.632,1.0,137.97305779945683
7.640000000000001,1.0,137.54893044725296
7.648,1.0,137.12483732487888
7.656000000000001,1.0,136.70077768055
7.664,1.0,136.27675076262844
7.672,1.0,135.85275581965715
7.68,0.9999999999999999,135.4287921003952
7.688,0.9999999999999999,135.004858853852
7.696,1.0,134.58095532932145
7.704,0.9999999999999999,134.15708077641642
7.712,1.0,133.73323444510254
7.72,1.0,133.30941558573207
7.728,1.0,132.88562344907768
7.736,1.0,132.4618572863659
7.744,1.0,132.03811634931037
7.752,1.0,131.61439989014525
7.76,0.9999999999999999,131.19070716165817
7.768,1.0,130.7670374172231
7.776,1.0,130.34338991083317
7.784,0.9999999999999999,129.91976389713315
7.792,1.0,129.49615863145203
7.8,1.0,129.0725733698353
7.808,0.9999999999999999,128.6490073690769
7.816,0.9999999999999999,128.22545988675148
7.824,1.0,127.8019301812461
7.832,1.0,127.37841751179202
7.84,1.0,126.95492113849622
7.848,0.9999999999999999,126.53144032237276
7.856,0.9999999999999999,126.10797432537423
7.864,0.9999999999999998,125.68452241042273
7.872,1.0,125.26108384144104
7.88,1.0,124.83765788338323
7.888,0.9999999999999999,124.41424380226572
7.896,0.9999999999999999,123.99084086519763
7.904,1.0,123.56744834041126
7.912,0.9999999999999999,123.14406549729256
7.92,1.0,122.72069160641118
7.928,0.9999999999999998,122.29732593955062
7.936,1.0,121.87396776973806
7.944,1.0,121.45061637127426
7.952,0.9999999999999999,121.02727101976326
7.96,0.9999999999999998,120.60393099214171
7.968,1.0,120.1805955667086
7.976,1.0,119.75726402315429
7.984,0.9999999999999999,119.3339356425898
7.992,1.0,118.91060970757583
8.0,1.0,118.4872855021517
8.008,1.0,118.06396231186415
8.016,0.9999999999999999,117.64063942379583
8.024000000000001,1.0,117.21731612659423
8.032,1.0,116.79399171049991
8.04,1.0,116.37066546737462
8.048,0.9999999999999999,115.9473366907297
8.056000000000001,0.9999999999999999,115.52400467575438
8.064,1.0,115.10066871934345
8.072,1.0000000000000002,114.67732812012501
8.08,0.9999999999999999,114.25398217848841
8.088000000000001,1.0000000000000002,113.83063019661199
8.096,0.9999999999999999,113.40727147849043
8.104,1.0,112.98390532996197
8.112,1.0,112.56053105873583
8.120000000000001,0.9999999999999999,112.13714797441968
8.128,1.0,111.71375538854635
8.136,1.0,111.2903526146007
8.144,1.0,110.86693896804671
8.152000000000001,1.0,110.44351376635416
8.16,1.0,110.02007632902534
8.168,1.0,109.59662597762126
8.176,1.0,109.1731620357881
8.184000000000001,0.9999999999999999,108.749683829284
8.192,1.0,108.32619068600481
8.2,1.0,107.9026819360101
8.208,1.0,107.47915691154935
8.216000000000001,1.0,107.05561494708793
8.224,0.9999999999999999,106.63205537933278
8.232,0.9999999999999999,106.2084775472578
8.24,1.0,105.78488079212968
8.248000000000001,0.9999999999999999,105.36126445753354
8.256,1.0,104.93762788939803
8.264,1.0,104.51397043602051
8.272,1.0,104.09029144809229
8.280000000000001,1.0,103.66659027872392
8.288,0.9999999999999999,103.24286628347
8.296,0.9999999999999999,102.81911882035371
8.304,0.9999999999999999,102.39534724989187
8.312,1.0,101.97155093511986
8.32,0.9999999999999999,101.5477292416154
8.328,1.0,101.12388153752387
8.336,1.0,100.70000719358188
8.344,0.9999999999999999,100.27610558314217
8.352,1.0,99.85217608219713
8.36,1.0,99.42821806940356
8.368,1.0,99.00423092610578
8.376,1.0,98.58021403636039
8.384,1.0,98.15616678695906
8.392,1.0,97.73208856745315
8.4,0.9999999999999999,97.3079787701763
8.408,1.0,96.88383679026875
8.416,1.0,96.45966202569993
8.424,0.999999944930412,96.03545387729237
8.432,0.9999996913063209,95.61121174874424
8.44,0.9999994391822697,95.18693504665295
8.448,0.9999991886391085,94.76262318053755
8.456,0.9999989397571295,94.33827556286217
8.464,0.9999986926160546,93.9138916090581
8.472,0.9999984472950175,93.48947073754715
8.48,0.9999982038725505,93.06501236976348
8.488,0.9999979624265669,92.6405159301767
8.496,0.9999977230343481,92.21598084631358
8.504,0.9999974857725265,91.79140654878094
8.512,0.9999972507170729,91.36679247128708
8.52,0.9999970179432801,90.94213805066457
8.528,0.9999967875257502,90.51744272689137
8.536,0.9999965595383781,90.09270594311354
8.544,0.9999963340543393,89.66792714566604
8.552,0.9999961111460741,89.2431057840952
8.56,0.9999958908852759,88.81824131117955
8.568,0.9999956733428751,88.39333318295179
8.576,0.9999954585890272,87.96838085871953
8.584,0.9999952466930987,87.54338380108716
8.592,0.9999950377236544,87.11834147597617
8.6,0.9999948317484436,86.69325335264695
8.608,0.9999946288343874,86.26811890371889
8.616,0.9999944290475666,85.84293760519184
8.624,0.9999942324532091,85.41770893646616
8.632,0.9999940391156751,84.99243238036391
8.64,0.9999938490984487,84.56710742314857
8.648,0.9999936624641227,84.14173355454615
8.656,0.9999934792743892,83.71631026776464
8.664,0.9999932995900249,83.29083705951487
8.672,0.9999931234708825,82.8653134300298
8.68,0.9999929509758774,82.43973888308508
8.688,0.9999927821629775,82.01411292601817
8.696,0.9999926170891916,81.58843506974863
8.704,0.9999924558105584,81.16270482879702
8.712,0.9999922983821363,80.73692172130504
8.72,0.9999921448579936,80.311085269054
8.728,0.999991995291196,79.88519499748494
8.736,0.9999918497337991,79.45925043571681
8.744,0.9999917082368361,79.03325111656618
8.752,0.9999915708503102,78.60719657656541
8.76,0.9999914376231831,78.181086355982
8.768,0.9999913086033669,77.75491999883657
8.776,0.9999911838377143,77.32869705292187
8.784,0.9999910633720103,76.90241706982059
8.792,0.9999909472509624,76.47607960492415
8.8,0.9999908355181923,76.04968421745016
8.808,0.9999907282162285,75.62323047046105
8.815999999999999,0.999990625386496,75.19671793088126
8.824,0.9999905270693107,74.77014616951529
8.832,0.9999904333038694,74.34351476106536
8.84,0.9999903441282436,73.91682328414873
8.847999999999999,0.9999902595793713,73.4900713213148
8.856,0.9999901796930505,73.06325845906245
8.864,0.999990104503931,72.6363842878573
8.872,0.9999900340455087,72.2094484021484
8.879999999999999,0.9999899683501181,71.78245040038483
8.888,0.9999899074489265,71.35538988503247
8.896,0.9999898513719278,70.92826646259068
8.904,0.9999898001479354,70.50107974360857
8.911999999999999,0.9999897538045779,70.07382934270079
8.92,0.9999897123682925,69.64651487856398
8.928,0.9999896758643195,69.21913597399273
8.936,0.9999896443166982,68.79169225589527
8.943999999999999,0.9999896177482605,68.36418335530882
8.952,0.9999895961806271,67.93660890741526
8.96,0.9999895796342021,67.50896855155666
8.968,0.99998956812817,67.08126193125027
8.975999999999999,0.9999895616804898,66.65348869420325
8.984,0.9999895603078931,66.22564849232784
8.992,0.9999895640258777,65.79774098175616
9.0,0.9999895728487073,65.36976582285462
9.008,0.9999895867894054,64.94172268023809
9.016,0.9999896058597533,64.51361122278429
9.024000000000001,0.9999896300702885,64.08543112364814
9.032,0.9999896594302998,63.657182060275304
9.04,0.9999896939478269,63.228863714415915
9.048,0.9999897336296559,62.80047577213821
9.056000000000001,0.99998977848132,62.372017923842165
9.064,0.9999898285070957,61.94348986427252
9.072,0.9999898837100024,61.51489129253167
9.08,0.9999899440918005,61.08622191209275
9.088000000000001,0.9999900096529899,60.657481430812474
9.096,0.999990080392811,60.228669560943565
9.104,0.9999901563092412,59.79978601914689
9.112,0.9999902373989971,59.37083052650379
9.120000000000001,0.9999903236575324,58.94180280852839
9.128,0.9999904150790391,58.51270259517905
9.136,0.9999905116564469,58.08352962087001
9.144,0.9999906133814247,57.65428362448286
9.152000000000001,0.9999907202443805,57.224964349378105
9.16,0.9999908322344612,56.795571543406005
9.168,0.999990949339557,56.36610495891724
9.176,0.999991071546299,55.936564352773914
9.184000000000001,0.9999911988400636,55.50694948636005
9.192,0.9999913312049722,55.077260125591884
9.2,0.9999914686238954,54.647496040927706
9.208,0.9999916110784531,54.21765700737795
9.216000000000001,0.9999917585490185,53.787742804515084
9.224,0.9999919110147197,53.35775321648301
9.232,0.9999920684534438,52.927688032006074
9.24,0.9999922308418394,52.4975470443984
9.248000000000001,0.9999923981553196,52.06733005157296
9.256,0.9999925703680663,51.63703685605011
9.264,0.999992747453034,51.206667264965795
9.272,0.9999929293819528,50.77622109008005
9.280000000000001,0.9999931161253346,50.34569814778524
9.288,0.999993307652476,49.91509825911365
9.296,0.9999935039314631,49.484421249744955
9.304,0.9999937049291777,49.053666950013785
9.312000000000001,0.9999939106113013,48.62283519491709
9.32,0.9999941209423207,48.19192582412091
9.328,0.9999943358855345,47.76093868196689
9.336,0.9999945554030577,47.32987361747895
9.344,0.9999947794558285,46.89873048436991
9.352,0.9999950080036143,46.46750914104685
9.36,0.9999952410050189,46.036209450617555
9.368,0.9999954784174887,45.60483128089553
9.376,0.9999957201973187,45.173374504406
9.384,0.999995966299662,44.741838998390186
9.392,0.9999962166785346,44.31022464481113
9.4,0.9999964712868257,43.878531330357355
9.408,0.9999967300763035,43.44675894644814
9.416,0.9999969929976237,43.01490738923685
9.424,0.9999972600003384,42.58297655961567
9.432,0.9999975310329038,42.15096636321837
9.44,0.9999978060426904,41.718876710424574
9.448,0.9999980849759896,41.28670751636213
9.456,0.999998367778025,40.85445870091071
9.464,0.99999865439296,40.42213018870385
9.472,0.9999989447639096,39.98972190913193
9.48,0.9999992388329477,39.557233796343645
9.488,0.9999995365411192,39.124665789248645
9.496,0.9999998378284478,38.69201783151837
9.504,1.0,38.25928987158818
9.512,1.0,37.82648186265768
9.52,0.9999999999999999,37.39359376269232
9.528,1.0000000000000002,36.96062553442321
9.536,0.9999999999999999,36.52757714534813
9.544,0.9999999999999999,36.09444856773088
9.552,0.9999999999999999,35.66123977860172
9.56,1.0,35.227950759756055
9.568,1.0,34.7945814977546
9.576,0.9999999999999999,34.3611319839213
9.584,1.0,33.92760221434289
9.592,1.0,33.49399218986656
9.6,1.0,33.06030191609865
9.608,1.0,32.62653140340182
9.616,1.0,32.19268066689337
9.624,0.9999999999999999,31.75874972644163
9.632,1.0,31.324738606663733
9.64,1.0,30.890647336921532
9.648,0.9999999999999999,30.45647595131874
9.656,0.9999999999999999,30.022224488696267
9.664,0.9999999999999999,29.58789299262879
9.672,1.0,29.15348151141954
9.68,1.0,28.71899009809617
9.688,1.0,28.28441881040505
9.696,1.0,27.84976771080657
9.704,0.9999999999999999,27.41503686646874
9.712,0.9999999999999999,26.980226349262
9.72,0.9999999999999999,26.545336235752153
9.728,1.0,26.110366607194575
9.736,1.0,25.67531754952657
9.744,0.9999999999999999,25.240189153360962
9.752,1.0,24.804981513977886
9.76,1.0,24.36969473131766
9.768,0.9999999999999999,23.93432890997211
9.776,1.0,23.49888415917672
9.784,1.0,23.063360592801317
9.792,0.9999999999999999,22.62775832934176
9.8,0.9999999999999999,22.192077491909814
9.808,1.0,21.756318208224364
9.816,1.0,21.320480610600594
9.824,1.0,20.884564835940562
9.832,0.9999999999999999,20.44857102572179
9.84,1.0,20.012499325987218
9.847999999999999,1.0,19.57634988733322
9.856,1.0,19.140122864898487
9.864,0.9999999999999999,18.703818418352217
9.872,0.9999999999999998,18.267436711881924
9.879999999999999,1.0,17.830977914180664
9.888,1.0,17.394442198434444
9.896,1.0,16.95782974230933
9.904,1.0,16.52114072793776
9.911999999999999,0.9999999999999999,16.08437534190465
9.92,1.0,15.647533775233471
9.928,1.0,15.21061622337206
9.936,1.0,14.773622886177666
9.943999999999999,1.0,14.336553967901757
9.952,1.0,13.899409677174814
9.96,1.0,13.462190226990836
9.968,1.0,13.024895834691147
