freq,mag,phase
6.0,0.9999923137734649,88.38271554418299
6.008,0.999993391278109,88.24707781504416
6.016,0.9999944371536877,88.1113883400224
6.024,0.9999954518126185,87.97564707660875
6.032,0.9999964356651322,87.8398539823902
6.04,0.9999973891192729,87.7040090150506
6.048,0.9999983125808978,87.56811213237157
6.056,0.9999992064536761,87.4321632922335
6.064,0.9999999999999999,87.29616245261643
6.072,1.0,87.16010957160111
6.08,1.0,87.02400460736985
6.088,0.9999999999999998,86.88784751820745
6.096,0.9999999999999999,86.75163826250231
6.104,1.0,86.61537679874719
6.112,0.9999999999999999,86.47906308554025
6.12,0.9999999999999999,86.342697081586
6.128,1.0,86.20627874569627
6.136,1.0,86.06980803679107
6.144,0.9999999999999999,85.93328491389966
6.152,0.9999999999999999,85.79670933616143
6.16,1.0,85.66008126282686
6.168,1.0,85.52340065325846
6.176,0.9999999999999998,85.38666746693177
6.184,0.9999999999999999,85.24988166343627
6.192,1.0,85.11304320247635
6.2,1.0,84.97615204387223
6.208,1.0,84.83920814756101
6.216,0.9999999999999999,84.70221147359744
6.224,1.0,84.56516198215512
6.232,0.9999999999999999,84.42805963352717
6.24,0.9999999999999999,84.29090438812746
6.248,0.9999999999999999,84.15369620649136
6.256,1.0,84.0164350492768
6.264,1.0,83.87912087726517
6.272,1.0,83.74175365136227
6.28,1.0,83.60433333259935
6.288,0.9999999999999999,83.46685988213397
6.296,1.0,83.32933326125095
6.304,1.0,83.19175343136341
6.312,1.0,83.0541203540136
6.32,1.0,82.916433990874
6.328,1.0,82.77869430374811
6.336,0.9999999999999999,82.64090125457159
6.344,0.9999999999999999,82.50305480541299
6.352,1.0,82.36515491847493
6.36,0.9999999999999999,82.22720155609485
6.368,0.9999999999999998,82.08919468074615
6.376,1.0,81.95113425503897
6.384,1.0,81.81302024172126
6.392,1.0,81.67485260367967
6.4,1.0,81.53663130394055
6.408,0.9999999999999999,81.39835630567086
6.416,0.9999999999999999,81.26002757217913
6.424,0.9999999999999999,81.12164506691644
6.432,0.9999999999999999,80.98320875347729
6.44,1.0,80.84471859560067
6.448,0.9999999999999999,80.70617455717091
6.456,0.9999999999999999,80.5675766022187
6.464,1.0,80.42892469492195
6.472,0.9999999999999999,80.29021879960685
6.48,1.0,80.15145888074869
6.4879999999999995,0.9999999999999999,80.01264490297301
6.496,1.0,79.87377683105623
6.504,1.0,79.73485462992697
6.5120000000000005,0.9999999999999999,79.59587826466667
6.52,0.9999999999999998,79.45684770051078
6.5280000000000005,1.0,79.3177629028495
6.536,1.0,79.17862383722894
6.5440000000000005,0.9999999999999999,79.03943046935187
6.552,1.0,78.90018276507878
6.5600000000000005,0.9999999999999999,78.76088069042878
6.568,0.9999999999999999,78.62152421158056
6.5760000000000005,1.0,78.4821132948733
6.584,0.9999999999999999,78.34264790680767
6.592,1.0,78.20312801404674
6.6,1.0,78.06355358341686
6.608,0.9999999999999999,77.92392458190875
6.616,0.9999999999999999,77.78424097667823
6.624,1.0,77.64450273504741
6.632,1.0,77.5047098245054
6.64,1.0,77.36486221270935
6.648,0.9999999999999999,77.2249598674854
6.656,0.9999999999999999,77.08500275682957
6.664,0.9999999999999999,76.94499084890873
6.672,0.9999999999999999,76.80492411206151
6.68,0.9999999999999999,76.66480251479928
6.688,1.0,76.52462602580694
6.696,0.9999999999999999,76.38439461394407
6.704,0.9999999999999998,76.2441082482457
6.712,0.9999999999999999,76.10376689792324
6.72,1.0,75.96337053236553
6.728,0.9999999999999999,75.82291912113963
6.736,1.0,75.68241263399185
6.744,1.0,75.54185104084856
6.752,1.0,75.40123431181728
6.76,0.9999999999999999,75.26056241718742
6.768,1.0,75.11983532743133
6.776,1.0,74.97905301320519
6.784,1.0,74.8382154453499
6.792,1.0,74.69732259489203
6.8,1.0,74.5563744330447
6.808,1.0,74.41537093120853
6.816,0.9999999999999999,74.27431206097258
6.824,0.9999999999999999,74.13319779411519
6.832,0.9999999999999999,73.99202810260496
6.84,0.9999996228171829,73.85080295860163
6.848,0.9999992220384349,73.70952233445695
6.856,0.9999988210622193,73.5681862027157
6.864,0.9999984200748743,73.42679453611647
6.872,0.9999980192606791,73.28534730759267
6.88,0.9999976188018554,73.14384449027334
6.888,0.9999972188785727,73.00228605748416
6.896,0.9999968196689485,72.86067198274822
6.904,0.9999964213490541,72.71900223978706
6.912,0.9999960240929145,72.57727680252147
6.92,0.9999956280725143,72.4354956450724
6.928,0.9999952334577995,72.29365874176189
6.936,0.9999948404166793,72.15176606711397
6.944,0.9999944491150312,72.00981759585548
6.952,0.9999940597167033,71.86781330291703
6.96,0.9999936723835171,71.72575316343386
6.968,0.9999932872752719,71.58363715274676
6.976,0.999992904549746,71.44146524640288
6.984,0.9999925243627008,71.2992374201567
6.992,0.9999921468678858,71.15695364997084
7.0,0.9999917722170392,71.014613912017
7.008,0.999991400559892,70.87221818267679
7.016,0.9999910320441726,70.72976643854264
7.024,0.9999906668156087,70.58725865641864
7.032,0.9999903050179315,70.44469481332145
7.04,0.9999899467928781,70.30207488648117
7.048,0.9999895922801962,70.15939885334208
7.056,0.9999892416176469,70.01666669156378
7.064,0.9999888949410082,69.87387837902178
7.072,0.9999885523840778,69.73103389380847
7.08,0.999988214078679,69.58813321423403
7.088,0.9999878801546609,69.4451763188272
7.096,0.999987550739905,69.30216318633619
7.104,0.9999872259603266,69.15909379572952
7.112,0.9999869059398798,69.01596812619684
7.12,0.9999865908005606,68.87278615714982
7.128,0.9999862806624106,68.72954786822301
7.136,0.9999859756435204,68.58625323927457
7.144,0.9999856758600347,68.4429022503873
7.152,0.9999853814261539,68.29949488186932
7.16,0.9999850924541396,68.15603111425494
7.168,0.9999848090543177,68.01251092830557
7.176,0.9999845313350824,67.86893430501047
7.184,0.9999842594028991,67.72530122558757
7.192,0.99998399336231,67.5816116714844
7.2,0.9999837333159376,67.43786562437879
7.208,0.9999834793644866,67.29406306617976
7.216,0.9999832316067503,67.15020397902833
7.224,0.9999829901396132,67.00628834529833
7.232,0.9999827550580557,66.86231614759723
7.24,0.9999825264551574,66.71828736876687
7.248,0.9999823044221016,66.57420199188437
7.256,0.9999820890481794,66.4300600002629
7.264,0.9999818804207926,66.28586137745248
7.272,0.9999816786254604,66.14160610724069
7.28,0.99998148374582,65.99729417365364
7.288,0.9999812958636345,65.85292556095665
7.296,0.999981115058793,65.708500253655
7.304,0.9999809414093186,65.56401823649482
7.312,0.9999807749913693,65.41947949446381
7.32,0.9999806158792457,65.27488401279203
7.328,0.9999804641453913,65.1302317769527
7.336,0.9999803198603999,64.98552277266286
7.344,0.9999801830930191,64.84075698588435
7.352,0.9999800539101514,64.6959344028244
7.36,0.9999799323768657,64.55105500993643
7.368,0.9999798185563926,64.40611879392085
7.376,0.999979712510137,64.26112574172573
7.384,0.9999796142976767,64.11607584054777
7.392,0.9999795239767693,63.970969077832656
7.4,0.9999794416033558,63.8258054412762
7.4079999999999995,0.9999793672315663,63.68058491882491
7.416,0.9999793009137234,63.53530749867661
7.4239999999999995,0.9999792427003457,63.38997316928145
7.432,0.9999791926401532,63.24458191934233
7.4399999999999995,0.9999791507800739,63.099133737815926
7.448,0.9999791171652447,62.95362861391312
7.4559999999999995,0.9999790918390172,62.80806653709995
7.464,0.9999790748429634,62.66244749709813
7.4719999999999995,0.9999790662168787,62.51677148388596
7.48,0.9999790659987887,62.37103848769886
7.4879999999999995,0.9999790742249494,62.22524849903012
7.496,0.9999790909298575,62.07940150863161
7.504,0.9999791161462507,61.93349750751456
7.5120000000000005,0.9999791499051145,61.78753648695001
7.52,0.9999791922356847,61.64151843846973
7.5280000000000005,0.9999792431654553,61.49544335386677
7.536,0.9999793027201805,61.349311225196196
7.5440000000000005,0.9999793709238807,61.20312204477563
7.552,0.9999794477988453,61.056875805186145
7.5600000000000005,0.9999795333656417,60.910572499272675
7.568,0.9999796276431149,60.76421212014487
7.5760000000000005,0.9999797306483956,60.61779466117753
7.584,0.9999798423969035,60.471320116011505
7.5920000000000005,0.999979962902354,60.32478847855411
7.6,0.9999800921767592,60.17819974297988
7.6080000000000005,0.9999802302304376,60.031553903731115
7.616,0.9999803770720149,59.88485095551871
7.6240000000000006,0.9999805327084305,59.73809089332232
7.632,0.9999806971449426,59.5912737123916
7.640000000000001,0.9999808703851335,59.44439940824617
7.648,0.9999810524309117,59.29746797667678
7.656000000000001,0.9999812432825209,59.1504794137454
7.664,0.9999814429385422,59.00343371578631
7.672,0.999981651395899,58.856330879406165
7.68,0.9999818686498634,58.70917090148501
7.688,0.9999820946940594,58.5619537791766
7.696,0.9999823295204712,58.41467950990904
7.704,0.9999825731194427,58.267348091385365
7.712,0.9999828254796878,58.11995952158405
7.72,0.9999830865882929,57.972513798759586
7.728,0.9999833564307226,57.825010921442995
7.736,0.9999836349908233,57.67745088844239
7.744,0.9999839222508305,57.529833698843454
7.752,0.9999842181913726,57.38215935201004
7.76,0.9999845227914764,57.234427847584605
7.768,0.9999848360285716,57.08663918548876
7.776,0.9999851578784965,56.938793365923765
7.784,0.999985488315503,56.79089038937101
7.792,0.999985827312262,56.642930256592514
7.8,0.9999861748398685,56.49491296863138
7.808,0.9999865308678456,56.34683852681226
7.816,0.999986895364152,56.198706932741956
7.824,0.9999872682951847,56.05051818830959
7.832,0.9999876496257863,55.90227229568734
7.84,0.9999880393192497,55.75396925733074
7.848,0.9999884373373221,55.60560907597912
7.856,0.9999888436402121,55.457191754656044
7.864,0.9999892581865939,55.30871729666977
7.872,0.9999896809336131,55.1601857056136
7.88,0.9999901118368909,55.01159698536628
7.888,0.9999905508505321,54.86295114009243
7.896,0.9999909979271274,54.71424817424293
7.904,0.9999914530177616,54.56548809255526
7.912,0.999991916072016,54.4166709000539
7.92,0.9999923870379763,54.267796602050666
7.928,0.9999928658622379,54.11886520414505
7.936,0.9999933524899096,53.96987671222462
7.944,0.9999938468646207,53.82083113246527
7.952,0.9999943489285266,53.671728471331626
7.96,0.999994858622313,53.52256873557726
7.968,0.9999953758852027,53.37335193224508
7.976,0.9999959006549614,53.22407806866764
7.984,0.9999964328679015,53.07474715246727
7.992,0.9999969724588909,52.92535919155655
8.0,0.999997519361355,52.77591419413845
8.008,0.9999980735072853,52.626412168706615
8.016,0.9999986348272443,52.476853124045604
8.024000000000001,0.9999992032503705,52.327237069231124
8.032,0.9999997787043852,52.177564013630366
8.04,1.0,52.02783396690195
8.048,1.0,51.87804693899636
8.056000000000001,1.0,51.72820294015608
8.064,1.0,51.578301980915796
8.072,1.0,51.42834407210247
8.08,1.0,51.27832922483548
8.088000000000001,0.9999999999999999,51.12825745052703
8.096,1.0,50.978128760881994
8.104,1.0,50.82794316789814
8.112,0.9999999999999999,50.67770068386619
8.120000000000001,0.9999999999999999,50.5274013213701
8.128,1.0,50.377045093286974
8.136,0.9999999999999999,50.226632012787164
8.144,1.0,50.07616209333429
8.152000000000001,1.0,49.92563534868548
8.16,1.0,49.77505179289127
8.168,1.0,49.62441144029556
8.176,1.0,49.473714305535694
8.184000000000001,1.0,49.322960403542545
8.192,1.0,49.17214974954045
8.2,1.0,49.02128235904704
8.208,1.0,48.870358247873384
8.216000000000001,1.0,48.71937743212383
8.224,1.0,48.56833992819606
8.232,1.0,48.41724575278078
8.24,1.0,48.26609492286178
8.248000000000001,1.0,48.11488745571586
8.256,1.0,47.96362336891263
8.264,1.0,47.81230268031429
8.272,1.0,47.660925408075606
8.280000000000001,0.9999999999999999,47.50949157064371
8.288,1.0,47.35800118675791
8.296,1.0,47.20645427544934
8.304,1.0,47.054850856040986
8.312,1.0,46.90319094814734
8.32,0.9999999999999999,46.75147457167405
8.328,0.9999999999999999,46.599701746817864
8.336,1.0,46.44787249406609
8.344,1.0,46.29598683419659
8.352,1.0,46.144044788277185
8.36,0.9999999999999999,45.99204637766562
8.368,0.9999999999999999,45.83999162400879
8.376,1.0000000000000002,45.68788054924289
8.384,1.0,45.53571317559263
8.392,1.0,45.38348952557107
8.4,1.0,45.231209621978984
8.408,0.9999999999999998,45.07887348790474
8.416,1.0,44.92648114672349
8.424,0.9999999999999999,44.774032622096954
8.432,1.0,44.62152793797289
8.44,0.9999999999999999,44.46896711858457
8.448,0.9999999999999999,44.31635018845009
8.456,1.0000000000000002,44.16367717237222
8.464,1.0,44.01094809543732
8.472,1.0,43.858162983015376
8.48,1.0,43.70532186075879
8.488,1.0,43.552424754602235
8.496,1.0,43.39947169076182
8.504,1.0000000000000002,43.24646269573429
8.512,1.0,43.09339779629677
8.52,0.9999999999999999,42.94027701950583
8.528,1.0,42.787100392696445
8.536,0.9999999999999999,42.633867943482045
8.544,1.0,42.480579699753
8.552,1.0,42.327235689676435
8.56,1.0,42.17383594169506
8.568,0.9999999999999999,42.02038048452648
8.576,1.0,41.866869347162535
8.584,1.0,41.71330255886826
8.592,1.0,41.559680149181084
8.6,0.9999999999999999,41.40600214790999
8.608,1.0,41.25226858513461
8.616,1.0,41.09847949120435
8.624,0.9999999999999999,40.94463489673733
8.632,1.0,40.79073483261962
8.64,1.0,40.63677933000394
8.648,1.0,40.48276842030932
8.656,0.9999999999999999,40.3287021352193
8.664,1.0,40.17458050668149
8.672,1.0,40.02040356690619
8.68,1.0,39.866171348365725
8.688,1.0,39.71188388379288
8.696,1.0,39.55754120618028
8.704,1.0,39.40314334877889
8.712,1.0,39.24869034509711
8.72,1.0,39.09418222889968
8.728,0.9999999999999999,38.93961903420642
8.736,1.0,38.785000795291225
8.744,1.0,38.63032754668043
8.752,1.0,38.47559932315222
8.76,1.0,38.3208161597352
8.768,1.0,38.165978091706876
8.776,0.9999999999999999,38.01108515459292
8.784,0.9999999999999999,37.85613738416555
8.792,1.0,37.70113481644231
8.8,1.0,37.546077487685196
8.808,0.9999999999999999,37.39096543439898
8.815999999999999,1.0,37.23579869332986
8.824,1.0,37.08057730146454
8.832,1.0,36.9253012960287
8.84,1.0,36.7699707144858
8.847999999999999,1.0,36.61458559453566
8.856,1.0,36.459145974113206
8.864,1.0,36.30365189138698
8.872,1.0,36.14810338475837
8.879999999999999,1.0,35.99250049285961
8.888,1.0,35.836843254552896
8.896,1.0,35.68113170892881
8.904,0.9999999999999999,35.5253658953054
8.911999999999999,0.9999999999999999,35.369545853226406
8.92,1.0,35.2136716224601
8.928,1.0,35.05774324299812
8.936,1.0,34.90176075505438
8.943999999999999,1.0,34.745724199062984
8.952,1.0,34.589633615678
8.96,1.0,34.43348904577129
8.968,0.9999999999999999,34.27729053043211
8.975999999999999,0.9999999999999998,34.121038110965046
8.984,1.0,33.964731828889484
8.992,0.9999999999999999,33.80837172593809
9.0,0.9999999999999998,33.65195784405574
9.008,1.0,33.49549022539841
9.016,0.9999999999999999,33.33896891233195
9.024000000000001,1.0,33.182393947431216
9.032,1.0,33.02576537347877
9.04,1.0000000000000002,32.869083233464174
9.048,0.9999999999999999,32.71234757058274
9.056000000000001,0.9999999999999999,32.555558428234626
9.064,0.9999999999999999,32.39871585002415
9.072,1.0,32.241819879758815
9.08,1.0,32.084870561448305
9.088000000000001,0.9999999999999999,31.927867939304218
9.096,1.0,31.770812057738688
9.104,1.0,31.613702961364655
9.112,0.9999999999999999,31.45654069499421
9.120000000000001,1.0,31.299325303639
9.128,0.9999999999999998,31.142056832509343
9.136,1.0,30.98473532701368
9.144,1.0,30.827360832758675
9.152000000000001,1.0000000000000002,30.669933395548668
9.16,0.9999999999999999,30.512453061385624
9.168,1.0,30.35491987646901
9.176,1.0,30.197333887195963
9.184000000000001,0.9999999999999999,30.039695140161044
9.192,1.0,29.882003682156913
9.2,0.9999999999999999,29.724259560174264
9.208,1.0,29.56646282140208
9.216000000000001,1.0,29.40861351322847
9.224,1.0,29.250711683241292
9.232,0.9999999999999998,29.092757379228548
9.24,1.0,28.934750649179247
9.248000000000001,1.0,28.776691541284762
9.256,1.0,28.618580103939685
9.264,1.0,28.460416385742562
9.272,1.0,28.302200435497888
9.280000000000001,1.0,28.143932302217557
9.288,1.0,27.98561203512187
9.296,1.0,27.827239683641952
9.304,1.0,27.66881529742129
9.312000000000001,0.9999999999999999,27.51033892631766
9.32,0.9999999999999999,27.3518106204061
9.328,1.0,27.193230429980446
9.336,1.0,27.034598405556135
9.344,1.0,26.87591459787301
9.352,1.0,26.717179057898395
9.36,1.0,26.55839183682967
9.368,0.9999999999999999,26.399552986097998
9.376,1.0,26.240662557371177
9.384,0.9999999999999998,26.08172060255795
9.392,1.0,25.922727173811385
9.4,1.0,25.763682323532727
9.408,1.0,25.604586104375905
9.416,1.0,25.445438569251884
9.424,0.9999999999999999,25.286239771332895
9.432,1.0,25.12698976405777
9.44,0.9999999999999999,24.96768860113635
9.448,0.9999999999999999,24.80833633655533
9.456,1.0,24.648933024583165
9.464,1.0,24.48947871977557
9.472,0.9999999999999999,24.329973476982072
9.48,0.9999999999999998,24.1704173513512
9.488,1.0,24.010810398337423
9.496,0.9999999999999998,23.851152673707013
9.504,1.0,23.69144423354553
9.512,0.9999999999999998,23.531685134263377
9.52,0.9999999999999999,23.37187543260462
9.528,1.0,23.21201518565292
9.536,1.0,23.052104450839636
9.544,0.9999999999999999,22.89214328595136
9.552,0.9999999999999999,22.732131749138137
9.56,1.0,22.572069898921182
9.568,1.0,22.411957794201378
9.576,1.0,22.251795494268144
9.584,0.9999999999999999,22.09158305880737
9.592,0.9999999999999999,21.93132054791103
9.6,1.0,21.771008022085862
9.608,1.0,21.61064554226269
9.616,1.0,21.450233169805816
9.624,1.0,21.289770966522667
9.632,1.0,21.129258994673428
9.64,1.0,20.968697316980734
9.648,1.0,20.808085996640116
9.656,1.0,20.647425097329446
9.664,0.9999999999999999,20.486714683219855
9.672,0.9999999999999999,20.325954818985487
9.68,0.9999999999999998,20.165145569814314
9.688,0.9999999999999998,20.004287001418255
9.696,0.9999999999999999,19.843379180044217
9.704,1.0,19.682422172484337
9.712,1.0,19.52141604608678
9.72,1.0,19.360360868766303
9.728,1.0,19.19925670901514
9.736,1.0,19.038103635913792
9.744,1.0,18.87690171914129
9.752,1.0,18.715651028986162
9.76,1.0,18.554351636357012
9.768,0.9999999999999999,18.393003612792842
9.776,1.0,18.231607030474034
9.784,1.0,18.07016196223191
9.792,0.9999999999999999,17.90866848155944
9.8,1.0,17.747126662621316
9.808,1.0,17.585536580263643
9.816,1.0,17.423898310023954
9.824,1.0,17.262211928140573
9.832,1.0,17.10047751156183
9.84,1.0,16.93869513795544
9.847999999999999,1.0,16.7768648857171
9.856,0.9999999999999999,16.614986833978982
9.864,1.0,16.453061062618314
9.872,0.9999999999999999,16.291087652264995
9.879999999999999,1.0,16.12906668430923
9.888,0.9999999999999999,15.96699824090875
9.896,1.0,15.804882404995832
9.904,0.9999999999999999,15.642719260283638
9.911999999999999,1.0,15.480508891272052
9.92,1.0,15.318251383253585
9.928,1.0,15.155946822318363
9.936,0.9999999999999999,14.993595295358798
9.943999999999999,0.9999999999999999,14.83119689007373
9.952,0.9999999999999999,14.668751694972096
9.96,0.9999999999999998,14.506259799376156
9.968,1.0,14.34372129342402
9.975999999999999,1.0,14.181136268071644
9.984,0.9999999999999999,14.018504815094301
9.992,1.0,13.855827027087612
10.0,1.0,13.693102997467697
10.008,0.9999999999999999,13.530332820470836
10.016,1.0,13.367516591152574
10.024000000000001,0.9999999999999999,13.204654405386243
10.032,1.0,13.041746359860667
10.04,1.0,12.878792552077293
10.048,0.9999999999999999,12.715793080346709
10.056000000000001,1.0,12.552748043784613
10.064,1.0,12.38965754230696
10.072,1.0,12.22652167662437
10.08,0.9999999999999999,12.063340548236104
10.088000000000001,1.0,11.900114259423335
10.096,1.0,11.736842913241714
10.104,1.0,11.57352661351309
10.112,1.0,11.410165464816984
10.120000000000001,0.9999999999999999,11.246759572481043
10.128,0.9999999999999999,11.083309042571226
10.136,1.0000000000000002,10.919813981880873
10.144,0.9999999999999999,10.756274497919605
10.152000000000001,0.9999999999999999,10.592690698901473
10.16,0.9999999999999999,10.429062693732362
10.168,0.9999999999999999,10.2653905919971
10.176,1.0,10.10167450394552
10.184000000000001,0.9999999999999999,9.937914540478909
10.192,1.0,9.774110813134612
10.2,1.0,9.61026343407124
10.208,1.0,9.446372516052953
10.216000000000001,0.9999999999999999,9.282438172433181
10.224,1.0,9.118460517138049
10.232,1.0,8.954439664649426
