freq,mag,phase
6.0,0.9996769125498582,49.025220788552026
6.002286592,0.9997465144301819,48.870908512442114
6.004572672,0.9998320930728899,48.71544880240935
6.006859264,0.999928251000543,48.55862615215053
6.009145344,1.000029071067132,48.400330153526546
6.011431936,1.0001279326713868,48.240565134924914
6.013718016,1.000218700951901,48.079397333361925
6.016004608,1.0002956353016008,47.91696505582621
6.018290688,1.0003538523307645,47.753550083004185
6.02057728,1.0003896532745846,47.589398555591636
6.022863872,1.0004007964643076,47.424851815512994
6.025149952,1.0003866377353015,47.26034246360776
6.027436544,1.0003479437101161,47.09614008609225
6.029722624,1.0002871988194213,46.93266117878356
6.032009216,1.000208215948581,46.77012831050737
6.034295296,1.0001160990397215,46.6088249704253
6.036581888,1.000016459248001,46.448880358207234
6.03886848,0.999915780046226,46.29034898700945
6.04115456,0.9998202941862601,46.13320048477881
6.043441152,0.9997361389127388,45.97734571603555
6.045727232,0.9996685885772478,45.82254544268536
6.048013824,0.9996219478841523,45.66854011175807
6.050299904,0.9995991728507464,45.51502271035375
6.052586496,0.9996017512339824,45.36160155493325
6.054872576,0.999629478228882,45.207939387178556
6.057159168,0.9996806106268327,45.0536361691758
6.05944576,0.9997519174492827,44.89844778088087
6.06173184,0.9998388717516913,44.742065100079955
6.064018432,0.9999360631993912,44.584311206634595
6.066304512,1.0000372630974452,44.425073002822465
6.068591104,1.0001361164162788,44.26434201169671
6.070877184,1.0002263233993862,44.102226378948274
6.073163776,1.0003022359045048,43.93884036981939
6.075450368,1.0003590069734387,43.77446196956461
6.077736448,1.0003930704498274,43.609396567953766
6.08002304,1.0004022581205605,43.44398066736194
6.08230912,1.0003859671164073,43.27856893513537
6.084595712,1.0003452771288739,43.113543086733756
6.086881792,1.0002826641025568,42.94922102794029
6.089168384,1.0002021932422787,42.78590921555603
6.091454464,1.000108831296005,42.62381053299716
6.093741056,1.0000085604788929,42.463075971176295
6.096027648,0.9999076221250042,42.303767038298936
6.098313728,0.9998124635511226,42.145845964082405
6.10060032,0.9997291511006907,41.98919807790426
6.1028864,0.9996628414242346,41.83358611660811
6.105172992,0.9996178413748914,41.67874390607061
6.107459072,0.9995969822727749,41.524334758627376
6.109745664,0.9996015562046384,41.37002268211403
6.112032256,0.9996313154755682,41.215434927199205
6.114318336,0.9996843176980678,41.06019169771201
6.116604928,0.9997573872292211,40.9039770050685
6.118891008,0.9998456818427225,40.7465674050521
6.1211776,0.9999437382814812,40.58776025424525
6.12346368,1.0000453854467393,40.427462401083524
6.125750272,1.0001441588427373,40.26567702637825
6.128036352,1.0002338764624854,40.10246985273807
6.130322944,1.0003086714896114,39.93804705680985
6.132609536,1.000364071691167,39.77261339478101
6.134895616,1.0003963032197198,39.606512641085544
6.137182208,1.0004035654982577,39.440104528768096
6.139468288,1.0003852884498037,39.273704026111076
6.14175488,1.0003425430247128,39.10771345364112
6.14404096,1.0002782201029101,38.94246982331298
6.146327552,1.0001961441503264,38.77823107175026
6.148614144,1.0001016517267416,38.61523874032474
6.150900224,1.0000007194904712,38.45360648844797
6.153186816,0.9998996399269878,38.29343239829286
6.155472896,0.9998048433214292,38.13460326418493
6.157759488,0.9997223033831792,37.977035776354626
6.160045568,0.9996572508941799,37.82049390252046
6.16233216,0.9996138681258813,37.66470260402487
6.16461824,0.9995948875753718,37.50932197924037
6.166904832,0.9996014949328054,37.353994047195314
6.169191424,0.9996332498121865,37.19834094686354
6.171477504,0.9996881652344937,37.042020436171754
6.173764096,0.9997628188489923,36.884711058648655
6.176050176,0.9998524184929338,36.7261506590221
6.178336768,0.999951475716618,36.56618258872943
6.180622848,1.000053429283578,36.40471047298593
6.18290944,1.0001521812312029,36.241754879265685
6.18519552,1.0002411810539156,36.0773722453975
6.187482112,1.0003148977085394,35.91176576829412
6.189768704,1.0003688378568576,35.745191271792116
6.192054784,1.0003994133861422,35.57795448944242
6.194341376,1.00040473822116,35.410412360680255
6.196627456,1.0003844307744474,35.24293599695366
6.198914048,1.000339794710367,35.07587960432376
6.201200128,1.0002736426980439,34.90958506918262
6.20348672,1.0001901525202153,34.74433515645927
6.205773312,1.000094590499354,34.5803123079703
6.208059392,0.9999930099133514,34.41768688023925
6.210345984,0.9998917726839892,34.2565043286202
6.212632064,0.9997972992867095,34.09667975495945
6.214918656,0.9997156785448393,33.93809645089583
6.217204736,0.9996518294648564,33.7805023416695
6.219491328,0.999610043041177,33.62365777969186
6.221777408,0.999592899302497,33.467167082191246
6.224064,0.9996014096389982,33.310710360918286
6.226350592,0.9996351206424723,33.153903118545124
6.228636672,0.9996919317789579,32.99637178951023
6.230923264,0.9997681711876013,32.83783499202927
6.233209344,0.9998590730787033,32.678039286312405
6.235495936,0.9999588363368188,32.51680855112669
6.237782016,1.0000613413325228,32.354064867508455
6.240068608,1.000159834323733,32.189814412529024
6.2423552,1.000248277155239,32.02415002285363
6.24464128,1.0003210208364743,31.857262468576412
6.246927872,1.0003734895933496,31.689415582047978
6.249213952,1.0004023329703005,31.520937088694247
6.251500544,1.0004057709786214,31.352175047252093
6.253786624,1.0003834753209404,31.18349519808853
6.256073216,1.00033696285804,31.015260624433715
6.258359296,1.0002690968560999,30.847798819280854
6.260645888,1.0001841993512663,30.681399412747467
6.26293248,1.000087617051592,30.516278914667293
6.26521856,0.9999853832901386,30.35252625412937
6.267505152,0.9998839483213176,30.190216062213057
6.269791232,0.9997899573192518,30.029270443577342
6.272077824,0.9997090273702286,29.869545786754397
6.274363904,0.9996465030931303,29.71080962139442
6.276650496,0.9996062784122891,29.552771461141166
6.278937088,0.9995909302183695,29.395066003686853
6.281223168,0.9996013841347422,29.23737695986793
6.28350976,0.9996370462871251,29.079274863498384
6.28579584,0.9996955957250315,28.92044587100082
6.288082432,0.9997733896570887,28.760579380674887
6.290368512,0.9998655583719477,28.599412648408126
6.292655104,0.9999662223161895,28.436825595095947
6.294941184,1.0000689552291553,28.2726693974143
6.297227776,1.0001673271788318,28.10702634694974
6.299514368,1.0002552099083608,27.939964746761454
6.301800448,1.0003268662084237,27.77170238570952
6.30408704,1.0003779079122876,27.602472878794313
6.30637312,1.000405069985686,27.43265067217771
6.308659712,1.0004066076084976,27.262539507737856
6.310945792,1.0003824356674669,27.092552388149393
6.313232384,1.00033411735379,26.92300393710372
6.315518464,1.000264554214237,26.75430129574401
6.317805056,1.0001782545569724,26.586658291729492
6.320091648,1.000080589455716,26.420281437923123
6.322377728,0.9999778432397455,26.255291229767952
6.32466432,0.9998763393337599,26.091749880894117
6.3269504,0.9997827154122692,25.929559057779166
6.329236992,0.9997026437649698,25.768570462636497
6.331523072,0.9996414068642442,25.608573277425442
6.333809664,0.9996026954842776,25.44922672063536
6.336096256,0.9995891106981114,25.290219828812248
6.338382336,0.9996014323451322,25.131158015960033
6.340668928,0.9996389471862254,24.971696684713184
6.342955008,0.9996993234665651,24.811428311420563
6.3452416,0.9997786007800827,24.650131839862606
6.34752768,0.9998719526795866,24.48748562012654
6.349814272,0.9999733252242753,24.323399067233435
6.352100352,1.000076392481308,24.15774029069612
6.354386944,1.0001746961631013,23.990579166305302
6.356673536,1.0002619154913683,23.822025861533824
6.358959616,1.0003325915728059,23.652258984949736
6.361246208,1.000382310403092,23.48155285777308
6.363532288,1.0004078518250112,23.310249900662303
6.36581888,1.00040763764845,23.13868531185519
6.36810496,1.000381441202079,22.967271662774678
6.370391552,1.0003312823148838,22.796342984809133
6.372678144,1.0002601850521848,22.62624058429646
6.374964224,1.0001725762323073,22.45720846481608
6.377250816,1.000073939208336,22.28949553239246
6.379536896,0.9999706957868911,22.123167526380193
6.381823488,0.9998691881741848,21.958275908221967
6.384109568,0.9997758385699901,21.794741943798112
6.38639616,0.9996965945738796,21.632373655585265
6.38868224,0.9996365824042636,21.470960045341197
6.390968832,0.9995992989105799,21.3102262077879
6.393255424,0.9995874466666749,21.149773536054152
6.395541504,0.9996015751992122,20.989234077578466
6.397828096,0.9996409331744738,20.828244640410414
6.400114176,0.9997029214125237,20.666488649436168
6.402400768,0.9997837356622734,20.50360955533736
6.404686848,0.9998781981307925,20.339388535218344
6.40697344,0.9999803518178899,20.173682741433414
6.409260032,1.000083742322987,20.006441889503176
6.411546112,1.0001818344478475,19.837656849678623
6.413832704,1.0002684286712868,19.66746853540329
6.416118784,1.000338116065447,19.49609462254128
6.418405376,1.0003864563683882,19.323800831746322
6.420691456,1.000410292106728,19.15089343075052
6.422978048,1.0004082953222508,18.977792423487266
6.425264128,1.000380471891099,18.80483855151417
6.42755072,1.000328518050999,18.632394370081208
6.429837312,1.0002559086896485,18.460775644170557
6.432123392,1.000167004911251,18.29027009470587
6.434409984,1.0000674086316872,18.121067023741006
6.436696064,0.9999636442551839,17.95329702992372
6.438982656,0.9998619630448008,17.78691687548385
6.441268736,0.9997690432197921,17.62191758902962
6.443555328,0.9996906406063607,17.458080330273752
6.44584192,0.9996316748659869,17.295177053452026
6.448128,0.9995959373020479,17.13290348221303
6.450414592,0.9995857277974632,16.970888433219574
6.452700672,0.9996017110071866,16.808768584911924
6.454987264,0.9996428147402107,16.646180008807328
6.457273344,0.9997063914988326,16.48273983919589
6.459559936,0.9997886594431815,16.318203232651946
6.461846016,0.9998841091704084,16.152290312361167
6.464132608,0.9999870304421603,15.98488894965258
6.4664192,1.0000906738388595,15.815893433290688
6.46870528,1.0001887141297017,15.645389186410595
6.470991872,1.0002746427245723,15.47348640151155
6.473277952,1.0003433867541807,15.300375711360605
6.475564544,1.0003904173149227,15.126367569120301
6.477850624,1.0004126718077844,14.951793293780542
6.480137216,1.000409015839009,14.777001105341036
6.482423296,1.0003794428084003,14.602399766557337
6.484709888,1.0003258415582899,14.428305383001502
6.48699648,1.0002515868565016,14.255094787971332
6.48928256,1.0001614453395615,14.08299245023895
6.491569152,1.0000610655694646,13.912214043981411
6.493855232,0.9999566928105195,13.742842020179305
6.496141824,0.9998549858560574,13.574890511514099
6.498427904,0.9997624746814698,13.408288639907246
6.500714496,0.9996848077077609,13.242840722933902
6.503001088,0.9996270010039137,13.07830934015263
6.505287168,0.999592787620907,12.914402421757314
6.50757376,0.9995841419566841,12.750710228478153
6.50985984,0.9996017682331714,12.586900238653813
6.512146432,0.9996445785758856,12.422569460619686
6.514432512,0.9997097798014217,12.257389882321203
6.516719104,0.9997933247174898,12.09105327995473
6.519005184,0.9998899365018119,11.923360582443136
6.521291776,0.9999935773987807,11.754105820142437
6.523578368,1.0000974413823522,11.583310804622018
6.525864448,1.0001952158832652,11.41094336270986
6.52815104,1.0002807093770674,11.237191845902046
6.53043712,1.0003484143917902,11.062273718197032
6.532723712,1.000394170326689,10.886437403895854
6.535009792,1.0004149982133541,10.710063309572327
6.537296384,1.0004096354217134,10.533486092525402
6.539582976,1.0003783516798164,10.357105920521109
6.541869056,1.0003231379612005,10.181282039318676
6.544155648,1.0002474753107227,10.006334253775137
6.546441728,1.0001561473912164,9.832518557043038
6.54872832,1.0000548785337884,9.660022455433232
6.5510144,0.999950051541537,9.488945248739892
6.553300992,0.999848359602752,9.319295070973899
6.555587072,0.9997561501822005,9.150983197729843
6.557873664,0.9996792071052351,8.983844851465408
6.560160256,0.9996225192067505,8.817568261453626
6.562446336,0.9995896296930963,8.651889140846205
6.564732928,0.999582590182058,8.48641447994116
6.567019008,0.9996019309680231,8.320785885247453
6.5693056,0.9996462663687016,8.154620290437947
6.57159168,0.9997130387389073,7.987563731783211
6.573878272,0.9997978637586411,7.819346354100063
6.576164864,0.9998955999566926,7.649732811717112
6.578450944,0.9999997049939965,7.478559063724013
6.580737536,1.000103890788688,7.305807407505043
6.583023616,1.0002016309409385,7.131508679933252
6.585310208,1.0002865174522635,6.95580296447985
6.587596288,1.0003533515342478,6.778930210009095
6.58988288,1.000397951589489,6.601179908773701
6.59216896,1.0004172869222892,6.422876027989146
6.594455552,1.0004103298761362,6.244421634501776
6.596742144,1.000377374819744,6.066139593412006
6.599028224,1.0003206956063233,5.88846059430286
6.601314816,1.0002436278692433,5.711656073506216
6.603600896,1.0001511441893058,5.536011632571472
6.605887488,1.000049000995131,5.361711324806716
6.608173568,0.9999437865183761,5.188812885211424
6.61046016,0.9998420459877614,5.017357906891125
6.612746752,0.999749998754614,4.847217551397301
6.615032832,0.999673940358355,4.678216833463165
6.617319424,0.9996182378438488,4.510103020857923
6.619605504,0.9995866588026499,4.342539546960567
6.621892096,0.9995811125538726,4.1751798069138655
6.624178176,0.9996020214730197,4.007625207419236
6.626464768,0.9996479884982206,3.8394856718932138
6.628750848,0.9997161197651234,3.6704544269686132
6.63103744,0.9998022746409694,3.500224727347377
6.633324032,0.9999008559483933,3.328575450346662
6.635610112,1.0000057561592037,3.155382939462956
6.637896704,1.0001101476843715,2.9805489481635377
6.640182784,1.0002076744522062,2.8042148770607893
6.642469376,1.0002920793924566,2.62645260908532
6.644755456,1.0003580228589557,2.447538091742538
6.647042048,1.000401476957992,2.2677419806292125
6.649328128,1.0004194228268053,2.0874175231634347
6.65161472,1.000411031830301,1.9069200376610835
6.653901312,1.0003766279678996,1.7266795305482854
6.656187392,1.0003183510179434,1.5470079701764234
6.658473984,1.0002400213910143,1.368270300304434
6.660760064,1.0001463320166932,1.1906675534795301
6.663046656,1.00004348575212,1.0144164151914732
6.665332736,0.9999377250156912,0.8396068176602987
6.667619328,0.9998359040307717,0.6662054991492652
6.66990592,0.9997442819422904,0.4941335450331869
6.672192,0.9996687646446248,0.32317467996254884
6.674478592,0.9996141114453533,0.15308964598093283
6.676764672,0.9995838219008936,-0.01643749652756676
6.679051264,0.9995796209974224,-0.18583595379350104
6.681337344,0.9996019408256787,-0.3554247462025478
6.683623936,0.9996495673964566,-0.5256182729999744
6.685910016,0.9997190893350355,-0.6967386642354865
6.688196608,0.9998063228474241,-0.8690838260276461
6.6904832,0.9999058656334633,-1.0428550893591169
6.69276928,1.0000113349664823,-1.2182242875196878
6.695055872,1.0001161281307693,-1.395177544133724
6.697341952,1.0002135732463358,-1.573686259032319
6.699628544,1.0002974731297494,-1.7536179921081103
6.701914624,1.0003625885965348,-1.9346955737001823
6.704201216,1.0004049895551776,-2.116642375263911
6.706487808,1.0004216466560596,-2.2991110207246463
6.708773888,1.000411738079022,-2.4817023697087675
6.71106048,1.0003758851385927,-2.6640693940880653
6.71334656,1.0003162616686898,-2.84581889729986
6.715633152,1.0002365296756246,-3.026647532328596
6.717919232,1.0001419510051937,-3.2063061349075177
6.720205824,1.0000382843470128,-3.3846131891664295
6.722491904,0.9999321795127623,-3.5614693556119406
6.724778496,0.9998301932721143,-3.7369161795686585
6.727065088,0.9997388926037075,-3.911040414869597
6.729351168,0.9996639600613788,-4.084061532678967
6.73163776,0.999610204462925,-4.256221786429852
6.73392384,0.9995809737745516,-4.42787915504808
6.736210432,0.9995782352435123,-4.599373830901937
6.738496512,0.9996020517955132,-4.771124834096622
6.740783104,0.9996508725454321,-4.9434930705428375
6.743069696,0.9997217394023576,-5.116809411480857
6.745355776,0.9998102019892063,-5.29136473100389
6.747642368,0.9999106304922566,-5.4673893113466825
6.749928448,1.00001662919564,-5.644990199768939
6.75221504,1.0001216565864095,-5.824216028830556
6.75450112,1.000219027984811,-6.005002248305226
6.756787712,1.0003024603839281,-6.1871910217343435
6.759073792,1.0003669636706713,-6.370540565990184
6.761360384,1.000408160922007,-6.554726611484444
6.763646976,1.0004236671439843,-6.739440170987386
6.765933056,1.0004125324205828,-6.924263133092933
6.768219648,1.0003752346177128,-7.108843383907912
6.770505728,1.0003142612149913,-7.292795865688486
6.77279232,1.0002334176846845,-7.475796126218405
6.7750784,1.0001377055059228,-7.657621897197143
6.777364992,1.0000333275994653,-7.838091883766809
6.779651584,0.9999267579950205,-8.017121915623402
6.781937664,0.9998246626321825,-8.194754168982206
6.784224256,0.9997336327428084,-8.371039700697388
6.786510336,0.9996593036618138,-8.546230183071064
6.788796928,0.9996064258274712,-8.720582565750155
6.791083008,0.9995782014968934,-8.894447966307812
6.7933696,0.999576672801552,-9.06816502740238
6.79565568,0.9996018433349043,-9.242178074115204
6.797942272,0.9996520304886725,-9.416816689517557
6.800228864,0.9997241525169077,-9.592445665594669
6.802514944,0.9998137175445421,-9.769318227025556
6.804801536,0.9999149502899839,-9.947687607705436
6.807087616,1.0000215297483646,-10.127636799075464
6.809374208,1.0001268708964421,-10.309239810166755
6.811660288,1.0002241832645644,-10.492374734339837
6.81394688,1.0003073090350545,-10.676940323287685
6.81623296,1.0003711185159214,-10.862646080752935
6.818519552,1.0004114328401918,-11.049218603275355
6.820806144,1.000425834012734,-11.236265306379027
6.823092224,1.000413354249722,-11.423418680379719
6.825378816,1.000374817765622,-11.610326496602836
6.827664896,1.0003126078845042,-11.796568262830089
6.829951488,1.0002305444516326,-11.981888743385031
6.832237568,1.0001340406800012,-12.165998763194425
6.83452416,1.0000287957742382,-12.348744690993392
6.836810752,0.9999218006238783,-12.530042597508642
6.839096832,0.999819618838964,-12.709932056733834
6.841383424,0.999728804619746,-12.888504195377084
6.843669504,0.9996549336706538,-13.065976267949125
6.845956096,0.9996027704411321,-13.242635555580426
6.848242176,0.9995757045531978,-13.418803300433932
6.850528768,0.9995751712327474,-13.594885365033447
6.852814848,0.9996015373119195,-13.771245690046827
6.85510144,0.999653008339081,-13.948255141121633
6.857388032,0.9997263137884739,-14.12628087587695
6.859674112,0.9998169029056218,-14.305565797448518
6.861960704,0.9999189569915536,-14.486376384263568
6.864246784,1.0000262736758596,-14.668791283277681
6.866533376,1.0001317086140593,-14.852845572851104
6.868819456,1.0002289727674403,-15.038457073481206
6.871106048,1.0003118319831095,-15.22548543858492
6.87339264,1.0003750008097105,-15.413664689780969
6.87567872,1.0004144964381774,-15.602695371844769
6.877965312,1.0004278424700823,-15.792199009619523
6.880251392,1.0004142750730511,-15.98179981680099
6.882537984,1.000374407039401,-16.17111785546095
6.884824064,1.0003110235582542,-16.359789771947227
6.887110656,1.0002278899568515,-16.54749947662383
6.889396736,1.0001304375285567,-16.734010166061978
6.891683328,1.0000246321339028,-16.91913293545047
6.89396992,0.9999171250101156,-17.102809698846166
6.896256,0.9998147921731322,-17.285055396728378
6.898542592,0.9997240662091971,-17.466025855856387
6.900828672,0.9996505909442446,-17.645892701919625
6.903115264,0.9995991490009589,-17.824953217710537
6.905401344,0.9995728584212403,-18.00354977040752
6.907687936,0.9995736192161435,-18.182059509422924
6.909974528,0.9996010114223866,-18.36086614826059
6.912260608,0.9996535597950444,-18.54035211862374
6.9145472,0.9997280911175859,-18.720875880650482
6.91683328,0.999819567885383,-18.90270438131025
6.919119872,0.9999224730253766,-19.086039282540312
6.921405952,1.0000302791772024,-19.27096447248949
6.923692544,1.0001360909242352,-19.457587414851844
