freq,mag,phase
6.0,0.999988320166442,84.67940582386922
6.008,0.9999876152647804,84.51167809453572
6.016,0.9999869212717436,84.34378775694016
6.024,0.999986238122323,84.17573470203826
6.032,0.9999855657514636,84.00751882208212
6.04,0.9999849040940647,83.83914001062942
6.048,0.999984253084983,83.67059816255274
6.056,0.9999836126590324,83.50189317404872
6.064,0.999982982750989,83.33302494264748
6.072,0.9999823632955885,83.16399336722186
6.08,0.9999817542275327,82.99479834799676
6.088,0.9999811554814879,82.82543978655859
6.096,0.9999805669920877,82.65591758586447
6.104,0.9999799886939358,82.48623165025181
6.112,0.9999794205216063,82.31638188544764
6.12,0.9999788624096468,82.14636819857806
6.128,0.9999783142925798,81.97619049817766
6.136,0.9999777761049038,81.80584869419907
6.144,0.999977247781097,81.63534269802241
6.152,0.9999767292556165,81.46467242246482
6.16,0.9999762204629035,81.29383778178989
6.168,0.9999757213373819,81.12283869171738
6.176,0.9999752318134624,80.95167506943265
6.184,0.9999747518255441,80.78034683359628
6.192,0.9999742813080146,80.60885390435365
6.2,0.9999738201952548,80.43719620334461
6.208,0.9999733684216386,80.26537365371304
6.216,0.9999729259215355,80.09338618011648
6.224,0.9999724926293129,79.92123370873588
6.232,0.9999720684793373,79.74891616728516
6.24,0.9999716534059773,79.57643348502098
6.248,0.9999712473436041,79.4037855927524
6.256,0.9999708502265949,79.2309724228506
6.264,0.9999704619893336,79.0579939092586
6.272,0.9999700825662147,78.884849987501
6.28,0.9999697118916421,78.71154059469374
6.288,0.9999693499000343,78.53806566955386
6.296,0.9999689965258248,78.36442515240927
6.304,0.999968651703464,78.1906189852085
6.312,0.9999683153674216,78.01664711153056
6.32,0.9999679874521888,77.84250947659471
6.328,0.99996766789228,77.66820602727024
6.336,0.9999673566222343,77.4937367120864
6.344,0.9999670535766189,77.31910148124207
6.352,0.9999667586900299,77.14430028661579
6.36,0.9999664718970946,76.96933308177545
6.368,0.9999661931324737,76.7941998219882
6.376,0.9999659223308638,76.61890046423036
6.384,0.9999656594269983,76.44343496719725
6.392,0.9999654043556508,76.26780329131304
6.4,0.9999651570516358,76.09200539874068
6.408,0.9999649174498119,75.91604125339177
6.416,0.9999646854850832,75.73991082093643
6.424,0.9999644610924016,75.56361406881322
6.432,0.9999642442067692,75.38715096623905
6.44,0.9999640347632396,75.21052148421906
6.448,0.9999638326969207,75.03372559555652
6.456,0.999963637942976,74.85676327486276
6.464,0.9999634504366282,74.67963449856707
6.472,0.9999632701131598,74.50233924492662
6.48,0.9999630969079153,74.32487749403633
6.4879999999999995,0.9999629307563045,74.14724922783886
6.496,0.9999627715938036,73.96945443013442
6.504,0.9999626193559573,73.79149308659082
6.5120000000000005,0.9999624739783816,73.61336518475318
6.52,0.9999623353967652,73.43507071405409
6.5280000000000005,0.999962203546872,73.2566096658232
6.536,0.9999620783645436,73.07798203329753
6.5440000000000005,0.9999619597857007,72.8991878116309
6.552,0.9999618477463452,72.72022699790422
6.5600000000000005,0.9999617421825636,72.54109959113514
6.568,0.9999616430305276,72.36180559228809
6.5760000000000005,0.9999615502264967,72.18234500428397
6.584,0.9999614637068219,72.00271783201029
6.592,0.9999613834079447,71.8229240823307
6.6,0.9999613092664021,71.64296376409514
6.608,0.999961241218828,71.46283688814955
6.616,0.9999611792019546,71.28254346734573
6.624,0.9999611231526152,71.10208351655118
6.632,0.9999610730077462,70.92145705265887
6.64,0.9999610287043895,70.74066409459716
6.648,0.9999609901796942,70.55970466333955
6.656,0.9999609573709194,70.37857878191431
6.664,0.9999609302154363,70.19728647541457
6.672,0.9999609086507292,70.01582777100779
6.68,0.9999608926143999,69.83420269794564
6.688,0.999960882044167,69.65241128757377
6.696,0.9999608768778715,69.47045357334142
6.704,0.9999608770534759,69.28832959081119
6.712,0.999960882509068,69.1060393776687
6.72,0.999960893182863,68.9235829737323
6.728,0.9999609090132053,68.74096042096265
6.736,0.9999609299385707,68.55817176347243
6.744,0.9999609558975692,68.3752170475359
6.752,0.9999609868289459,68.1920963215985
6.76,0.9999610226715846,68.00880963628644
6.768,0.9999610633645101,67.8253570444163
6.776,0.9999611088468879,67.6417386010044
6.784,0.99996115905803,67.45795436327651
6.792,0.9999612139373941,67.27400439067718
6.8,0.999961273424588,67.08988874487929
6.808,0.9999613374593697,66.90560748979347
6.816,0.9999614059816517,66.72116069157747
6.824,0.9999614789315013,66.53654841864555
6.832,0.9999615562491444,66.35177074167792
6.84,0.9999616378749665,66.16682773362999
6.848,0.9999617237495155,65.9817194697417
6.856,0.9999618138135038,65.79644602754675
6.864,0.9999619080078104,65.61100748688195
6.872,0.9999620062734826,65.42540392989628
6.88,0.9999621085517398,65.23963544106024
6.888,0.9999622147839736,65.05370210717487
6.896,0.9999623249117514,64.86760401738096
6.904,0.9999624388768179,64.68134126316801
6.912,0.9999625566210976,64.49491393838343
6.92,0.9999626780866973,64.3083221392415
6.928,0.9999628032159066,64.12156596433226
6.936,0.9999629319512031,63.93464551463058
6.944,0.9999630642352513,63.74756089350501
6.952,0.9999632000109071,63.560312206726614
6.96,0.9999633392212186,63.372899562477905
6.968,0.9999634818094294,63.1853230713615
6.976,0.9999636277189792,62.997582846408925
6.984,0.9999637768935075,62.8096790030894
6.992,0.9999639292768548,62.62161165931837
7.0,0.9999640848130653,62.4333809354662
7.008,0.9999642434463888,62.24498695436676
7.016,0.9999644051212825,62.056429841325915
7.024,0.9999645697824134,61.867709724130094
7.032,0.9999647373746609,61.67882673305462
7.04,0.999964907843118,61.4897810008722
7.048,0.9999650811330941,61.300572662861235
7.056,0.9999652571901168,61.1112018568141
7.064,0.9999654359599339,60.921668723045435
7.072,0.9999656173885162,60.73197340440033
7.08,0.9999658014220587,60.54211604626247
7.088,0.9999659880069828,60.3520967965622
7.096,0.999966177089939,60.16191580578465
7.104,0.9999663686178084,59.97157322697763
7.112,0.9999665625377049,59.78106921575967
7.12,0.9999667587969775,59.59040393032777
7.128,0.999966957343212,59.39957753146533
7.136,0.999967158124233,59.2085901825499
7.144,0.9999673610881061,59.01744204956085
7.152,0.9999675661831408,58.826133301087076
7.16,0.9999677733578904,58.634664108334526
7.168,0.9999679825611559,58.44303464513378
7.176,0.9999681937419872,58.2512450879475
7.184,0.9999684068496858,58.059295615877865
7.192,0.9999686218338054,57.867186410673874
7.2,0.999968838644155,57.67491765673863
7.208,0.9999690572308007,57.48248954113663
7.216,0.9999692775440675,57.28990225360078
7.224,0.9999694995345413,57.097155986539626
7.232,0.9999697231530704,56.90425093504426
7.24,0.9999699483507684,56.711187296895346
7.248,0.9999701750790151,56.517965272569924
7.256,0.9999704032894592,56.324585065248286
7.264,0.99997063293402,56.13104688082067
7.272,0.9999708639648881,55.93735092789396
7.28,0.9999710963345297,55.743497417798245
7.288,0.9999713299956863,55.54948656459337
7.296,0.999971564901377,55.35531858507542
7.304,0.9999718010049014,55.160993698782924
7.312,0.9999720382598404,54.966512128003394
7.32,0.9999722766200576,54.77187409777931
7.328,0.9999725160397036,54.57707983591445
7.336,0.9999727564732137,54.38212957297983
7.344,0.9999729978753138,54.18702354231973
7.352,0.9999732402010195,53.99176198005757
7.36,0.9999734834056385,53.796345125101766
7.368,0.9999737274447731,53.60077321915146
7.376,0.9999739722743209,53.40504650670215
7.384,0.9999742178504776,53.209165235051266
7.392,0.9999744641297369,53.013129654303654
7.4,0.9999747110688945,52.81694001737702
7.4079999999999995,0.999974958625048,52.62059658000718
7.416,0.9999752067555994,52.42409960075326
7.4239999999999995,0.9999754554182562,52.22744934100301
7.432,0.9999757045710336,52.03064606497755
7.4399999999999995,0.9999759541722556,51.833690039736716
7.448,0.9999762041805573,51.63658153518346
7.4559999999999995,0.9999764545548854,51.4393208240691
7.464,0.999976705254501,51.241908181997594
7.4719999999999995,0.9999769562389796,51.04434388743046
7.48,0.9999772074682145,50.84662822169096
7.4879999999999995,0.999977458902417,50.648761468968836
7.496,0.9999777105021179,50.45074391632418
7.504,0.9999779622281698,50.25257585369218
7.5120000000000005,0.999978214041748,50.05425757388663
7.52,0.9999784659043516,49.85578937260451
7.5280000000000005,0.9999787177778062,49.657171548429375
7.536,0.9999789696242637,49.45840440283562
7.5440000000000005,0.9999792214062049,49.25948824019176
7.552,0.9999794730864403,49.06042336776446
7.5600000000000005,0.9999797246281114,48.86121009572158
7.568,0.9999799759946927,48.66184873713607
7.5760000000000005,0.9999802271499919,48.4623396079887
7.584,0.9999804780581528,48.262683027171846
7.5920000000000005,0.9999807286836544,48.062879316491994
7.6,0.9999809789913146,47.8629288006732
7.6080000000000005,0.9999812289462893,47.66283180735953
7.616,0.9999814785140747,47.462588667118226
7.6240000000000006,0.9999817276605092,47.26219971344191
7.632,0.9999819763517722,47.061665282751605
7.640000000000001,0.9999822245543885,46.86098571439866
7.648,0.9999824722352261,46.66016135066746
7.656000000000001,0.9999827193615001,46.459192536777344
7.664,0.9999829659007723,46.25807962088497
7.672,0.9999832118209524,46.05682295408593
7.68,0.9999834570902993,45.85542289041692
7.688,0.9999837016774221,45.653879786857296
7.696,0.9999839455512815,45.45219400333077
7.704,0.99998418868119,45.25036590270687
7.712,0.999984431036813,45.04839585080235
7.72,0.9999846725881709,44.84628421638247
7.728,0.9999849133056381,44.64403137116207
7.736,0.9999851531599456,44.44163768980669
7.744,0.9999853921221806,44.23910354993338
7.752,0.9999856301637886,44.036429332111545
7.76,0.9999858672565735,43.833615419863605
7.768,0.9999861033726977,43.630662199665444
7.776,0.9999863384846842,43.427570060946934
7.784,0.9999865725654172,43.22433939609213
7.792,0.9999868055881416,43.02097060043949
7.8,0.9999870375264652,42.81746407228183
7.808,0.9999872683543586,42.61382021286633
7.816,0.9999874980461555,42.41003942639422
7.824,0.9999877265765545,42.206122120020474
7.832,0.999987953920619,42.00206870385335
7.84,0.9999881800537765,41.7978795909537
7.848,0.9999884049518226,41.59355519733428
7.856,0.9999886285909175,41.38909594195893
7.864,0.9999888509475899,41.184502246741424
7.872,0.9999890719987348,40.979774536544504
7.88,0.9999892917216155,40.77491323917848
7.888,0.9999895100938639,40.569918785399885
7.896,0.999989727093481,40.36479160890992
7.904,0.9999899426988359,40.15953214635278
7.912,0.9999901568886678,39.95414083731388
7.92,0.9999903696420861,39.74861812431784
7.928,0.9999905809385694,39.54296445282647
7.936,0.9999907907579674,39.337180271236505
7.944,0.9999909990805002,39.13126603087731
7.952,0.9999912058867583,38.92522218600829
7.96,0.9999914111577041,38.71904919381636
7.968,0.9999916148746703,38.51274751441307
7.976,0.9999918170193614,38.3063176108318
7.984,0.9999920175738531,38.099759949024616
7.992,0.9999922165205926,37.8930749978591
8.0,0.9999924138423983,37.68626322911509
8.008,0.9999926095224609,37.47932511748108
8.016,0.9999928035443423,37.272261140550626
8.024000000000001,0.9999929958919751,37.06507177881872
8.032,0.9999931865496641,36.85775751567775
8.04,0.9999933755020854,36.650318837413444
8.048,0.9999935627342862,36.44275623320063
8.056000000000001,0.9999937482316844,36.2350701950992
8.064,0.9999939319800694,36.0272612180493
8.072,0.9999941139655999,35.81932979986675
8.08,0.9999942941748069,35.611276441238395
8.088000000000001,0.9999944725945897,35.40310164571711
8.096,0.999994649212219,35.194805919716835
8.104,0.9999948240153332,34.98638977250714
8.112,0.9999949969919419,34.777853716208014
8.120000000000001,0.9999951681304213,34.56919826578446
8.128,0.9999953374195173,34.36042393904065
8.136,0.9999955048483433,34.15153125661421
8.144,0.9999956704063798,33.942520741970164
8.152000000000001,0.9999958340834745,33.73339292139506
8.16,0.9999959958698409,33.52414832399063
8.168,0.999996155756059,33.31478748166718
8.176,0.9999963137330737,33.10531092913726
8.184000000000001,0.9999964697921935,32.89571920390901
8.192,0.9999966239250923,32.68601284627924
8.2,0.9999967761238057,32.4761923993263
8.208,0.9999969263807327,32.26625840890309
8.216000000000001,0.9999970746886334,32.0562114236298
8.224,0.999997221040629,31.846051994886416
8.232,0.9999973654302011,31.63578067680499
8.24,0.9999975078511899,31.42539802626202
8.248000000000001,0.9999976482977943,31.21490460287063
8.256,0.9999977867645706,31.004300968972387
8.264,0.9999979232464314,30.793587689629128
8.272,0.9999980577386455,30.58276533261457
8.280000000000001,0.9999981902368354,30.371834468405936
8.288,0.9999983207369774,30.16079567017529
8.296,0.9999984492354005,29.949649513780518
8.304,0.9999985757287849,29.738396577756564
8.312,0.999998700214161,29.527037443306376
8.32,0.9999988226889083,29.31557269429141
8.328,0.9999989431507541,29.104002917222545
8.336,0.9999990615977725,28.892328701250133
8.344,0.9999991780283836,28.68055063815469
8.352,0.9999992924413501,28.468669322336684
8.36,0.9999994048357793,28.256685350806837
8.368,0.9999995152111191,28.044599323175607
8.376,0.9999996235671579,27.83241184164327
8.384,0.9999997299040224,27.620123510989064
8.392,0.9999998342221774,27.407734938560946
8.4,0.9999999365224228,27.19524673426445
8.408,1.0,26.98265951055214
8.416,1.0,26.769973882412195
8.424,1.0,26.557190467357522
8.432,1.0,26.344309885414066
8.44,1.0,26.13133275910964
8.448,1.0,25.918259713461886
8.456,1.0,25.705091375966823
8.464,1.0,25.491828376586575
8.472,1.0,25.278471347737543
8.48,1.0,25.06502092427785
8.488,0.9999999999999999,24.851477743495266
8.496,0.9999999999999999,24.6378424450943
8.504,1.0,24.42411567118386
8.512,0.9999999999999999,24.210298066264055
8.52,1.0,23.99639027721355
8.528,0.9999999999999998,23.78239295327607
8.536,1.0,23.568306746047508
8.544,1.0,23.354132309462074
8.552,1.0000000000000002,23.139870299779112
8.56,0.9999999999999999,22.925521375569097
8.568,1.0,22.711086197699963
8.576,1.0,22.49656542932293
8.584,0.9999999999999998,22.28195973585858
8.592,1.0,22.06726978498228
8.6,1.0,21.852496246610077
8.608,1.0,21.6376397928838
8.616,0.9999999999999999,21.422701098156683
8.624,1.0,21.20768083897815
8.632,1.0,20.992579694079215
8.64,1.0,20.777398344356975
8.648,0.9999999999999999,20.562137472859693
8.656,1.0,20.34679776477106
8.664,1.0,20.131379907395
8.672,1.0,19.91588459013963
8.68,0.9999999999999999,19.700312504501806
8.688,0.9999999999999999,19.484664344050838
8.696,0.9999999999999999,19.268940804412775
8.704,1.0,19.053142583253784
8.712,1.0,18.837270380264208
8.72,0.9999999999999998,18.621324897141722
8.728,1.0,18.405306837575093
8.736,1.0000000000000002,18.189216907227056
8.744,1.0,17.973055813717824
8.752,0.9999999999999999,17.756824266607737
8.76,1.0,17.540522977380505
8.768,0.9999999999999999,17.324152659425586
8.776,1.0,17.107714028021174
8.784,1.0,16.891207800316348
8.792,1.0,16.6746346953138
8.8,0.9999999999999999,16.45799543385174
8.808,1.0,16.241290738586372
8.815999999999999,1.0,16.02452133397362
8.824,1.0,15.807687946251102
8.832,0.9999999999999999,15.590791303420058
8.84,0.9999999999999999,15.373832135226852
8.847999999999999,1.0,15.156811173144458
8.856,0.9999999999999999,14.939729150353955
8.864,1.0,14.722586801725923
8.872,1.0,14.505384863801543
8.879999999999999,1.0,14.288124074773615
8.888,1.0,14.070805174467539
8.896,1.0,13.853428904322348
8.904,1.0,13.635996007371311
8.911999999999999,1.0,13.418507228222495
8.92,1.0,13.200963313039383
8.928,0.9999999999999999,12.983365009521377
8.936,0.9999999999999999,12.76571306688406
8.943999999999999,0.9999999999999999,12.548008235839278
8.952,0.9999999999999999,12.33025126857536
8.96,1.0,12.112442918737232
8.968,0.9999999999999999,11.894583941406207
8.975999999999999,0.9999999999999999,11.676675093079737
8.984,1.0,11.458717131651175
8.992,0.9999999999999999,11.240710816389521
9.0,1.0,11.022656907918838
9.008,0.9999999999999998,10.804556168197571
9.016,0.9999999999999999,10.586409360497989
9.024000000000001,1.0,10.368217249385506
9.032,0.9999999999999999,10.149980600697765
9.04,0.9999999999999999,9.931700181523572
9.048,0.9999999999999999,9.713376760181983
9.056000000000001,1.0,9.495011106201293
9.064,0.9999999999999999,9.27660399029771
9.072,1.0,9.058156184354038
9.08,1.0,8.839668461398345
9.088000000000001,0.9999999999999999,8.621141595582671
9.096,1.0,8.402576362161359
9.104,1.0,8.1839735374694
9.112,0.9999999999999999,7.965333898900823
9.120000000000001,1.0,7.746658224887053
9.128,1.0,7.527947294874976
9.136,0.9999999999999999,7.309201889304964
9.144,1.0,7.090422789588962
9.152000000000001,0.9999999999999999,6.8716107780885975
9.16,1.0,6.6527666380929285
9.168,1.0,6.433891153796197
9.176,1.0,6.214985110275687
9.184000000000001,0.9999999999999999,5.9960492934695
9.192,1.0,5.777084490154115
9.2,0.9999999999999998,5.558091487921857
9.208,1.0,5.3390710751585
9.216000000000001,1.0,5.120024041020842
9.224,1.0000000000000002,4.900951175413989
9.232,0.9999999999999999,4.681853268968614
9.24,1.0,4.462731113018356
9.248000000000001,0.9999999999999999,4.243585499577159
9.256,0.9999999999999999,4.024417221316341
9.264,1.0,3.8052270715416876
9.272,1.0,3.586015844170613
9.280000000000001,1.0,3.3667843337093215
9.288,1.0,3.1475333352297246
9.296,1.0,2.928263644346306
9.304,1.0,2.708976057193151
9.312000000000001,1.0,2.4896713704009272
9.32,0.9999999999999999,2.2703503810736536
9.328,0.9999999999999999,2.051013886765388
9.336,0.9999999999999999,1.8316626854571512
9.344,0.9999999999999999,1.6122975755337925
9.352,1.0,1.3929193557603712
9.36,1.0,1.173528825259257
9.368,1.0000000000000002,0.9541267834863738
9.376,1.0,0.7347140302082578
9.384,0.9999999999999998,0.5152913654782558
9.392,1.0,0.2958595896135357
9.4,0.9999999999999999,0.07641950317123977
9.408,0.9999999999999999,-0.14302809307458905
9.416,1.0,-0.36248239815678573
9.424,0.9999999510100535,-0.5819426109382515
9.432,0.9999998963267175,-0.8014079301357742
9.44,0.9999998417159528,-1.0208775543431685
9.448,0.9999997872004889,-1.240350682055191
9.456,0.9999997328030076,-1.4598265116906808
9.464,0.9999996785461411,-1.6793042416164583
9.472,0.999999624452467,-1.8987830701705157
9.48,0.9999995705445061,-2.1182621956859236
9.488,0.9999995168447177,-2.337740816514001
9.496,0.9999994633754979,-2.557218131048263
9.504,0.9999994101591748,-2.776693337747554
9.512,0.9999993572180056,-2.996165635160025
9.52,0.9999993045741733,-3.2156342219462424
9.528,0.9999992522497838,-3.4350982969031567
9.536,0.9999992002668618,-3.6545570589871947
9.544,0.9999991486473477,-3.874009707338218
9.552,0.9999990974130947,-4.093455441302607
9.56,0.9999990465858654,-4.312893460457162
9.568,0.9999989961873278,-4.532322964632204
9.576,0.999998946239053,-4.7517431539354105
9.584,0.9999988967625119,-4.971153228774899
9.592,0.9999988477790707,-5.190552389883041
9.6,0.9999987993099896,-5.409939838339454
9.608,0.9999987513764185,-5.629314775594836
9.616,0.9999987039993935,-5.848676403493885
9.624,0.9999986571998349,-6.068023924299069
9.632,0.9999986109985428,-6.2873565407135015
9.64,0.9999985654161946,-6.5066734559046795
9.648,0.9999985204733426,-6.725973873527263
9.656,0.9999984761904094,-6.94525699774677
9.664,0.999998432587686,-7.164522033262311
9.672,0.9999983896853281,-7.38376818533015
9.68,0.9999983475033535,-7.602994659786427
9.688,0.9999983060616394,-7.822200663070641
9.696,0.999998265379918,-8.041385402248276
9.704,0.9999982254777755,-8.260548085034161
9.712,0.9999981863746469,-8.479687919815103
9.72,0.9999981480898161,-8.698804115673093
9.728,0.9999981106424098,-8.917895882407851
9.736,0.9999980740513961,-9.136962430559974
9.744,0.9999980383355827,-9.356002971433345
9.752,0.9999980035136119,-9.575016717118183
9.76,0.9999979696039597,-9.794002880513373
9.768,0.999997936624931,-10.01296067534943
9.776,0.9999979045946593,-10.231889316210623
9.784,0.9999978735311019,-10.450788018557914
9.792,0.9999978434520387,-10.669655998750954
9.8,0.9999978143750677,-10.888492474070874
9.808,0.9999977863176045,-11.107296662742176
