freq,mag,phase
6.0,0.9999827055648695,-5.615632297291186
6.041025536,0.9999820297283104,-6.889560876650866
6.082051072,0.9999821608628017,-8.163557373832253
6.12307712,0.9999824585937799,-9.437645166683646
6.164102656,0.9999830006232612,-10.711855593264382
6.205128192,0.9999837425216749,-11.986141454191376
6.246153728,0.9999846342893315,-13.260532432877046
6.287179264,0.9999856746794545,-14.534991240162519
6.328205312,0.999986957537735,-15.809586935274154
6.369230848,0.9999883616992079,-17.08426965246924
6.410256384,0.9999898911573689,-18.35905740660513
6.45128192,0.9999914620755944,-19.633959183805313
6.492307456,0.9999933779337656,-20.908953532509205
6.533333504,0.9999952134183734,-22.18404556706657
6.57435904,0.9999970563205717,-23.459256501922358
6.615384576,0.9999989449575589,-24.734579267942046
6.656410112,1.0000008904079698,-26.009995499028875
6.697435648,1.0000028419986426,-27.2855410596906
6.738461696,1.0000046559948645,-28.561191625752095
6.779487232,1.0000064602092602,-29.836918241496086
6.820512768,1.0000081318208256,-31.1127886107354
6.861538304,1.0000097171053346,-32.388759514336044
6.902564352,1.0000110647842304,-33.66482933092063
6.943589888,1.000012261066313,-34.94101411567434
6.984615424,1.0000133922453107,-36.21729570343236
7.02564096,1.0000143129673709,-37.493693338632866
7.066666496,1.0000149492561705,-38.770188409229455
7.107692544,1.0000153717341278,-40.04676576200507
7.14871808,1.000015541098871,-41.32349368374207
7.189743616,1.000015551997626,-42.6002971140749
7.230769152,1.0000151123512653,-43.87716926493751
7.271794688,1.0000145615122746,-45.15417559472952
7.312820736,1.000013744118773,-46.431257905622424
7.353846272,1.0000127407526327,-47.708440522430266
7.394871808,1.0000115555910993,-48.985718611514535
7.435897344,1.0000100073254363,-50.26310486160453
7.47692288,1.0000084097452326,-51.54055070902945
7.517948928,1.0000065419199795,-52.818096396857825
7.558974464,1.0000045664790607,-54.095727499063834
7.6,1.0000024214427843,-55.37344395097616
7.641025536,1.0000001304446848,-56.65126761134222
7.682051072,0.9999979158095252,-57.929151239456324
7.72307712,0.9999954692819754,-59.207147640303134
7.764102656,0.9999931963338679,-60.48518148947349
7.805128192,0.9999907772483212,-61.76335917953599
7.846153728,0.9999884891905854,-63.04158497433783
7.887179264,0.9999864106013616,-64.31990475214928
7.928205312,0.9999842882519718,-65.59831003054992
7.969230848,0.9999822633451553,-66.87681982453641
8.010256384,0.9999805366167731,-68.15538608072264
8.05128192,0.9999789582857443,-69.43409141305987
8.092307456,0.9999775798398058,-70.71284359282872
8.133333504,0.9999764875887539,-71.99170822263308
8.17435904,0.999975695071515,-73.270654344055
8.215384576,0.9999750926340857,-74.54970602511304
8.256410112,0.9999748624268492,-75.8288308313121
8.297435648,0.9999748000771822,-77.10809506508097
8.338461696,0.9999751799657897,-78.38744430997656
8.379487232,0.9999758766108295,-79.666902123651
8.420512768,0.9999767379482478,-80.94647103664298
8.461538304,0.9999780016875796,-82.22614217011818
8.502564352,0.9999795945927673,-83.50590093083952
8.543589888,0.9999812986365443,-84.78580587063901
8.584615424,0.9999832879972772,-86.06580926051444
8.625641472,0.999985585201034,-87.34594717993825
8.666667008,0.9999880520401186,-88.62618298077837
8.707692544,0.9999906616944941,-89.90652044292632
8.74871808,0.9999934004540861,-91.1870114275206
8.789743616,0.9999962041703861,-92.46762644747629
8.830769152,0.999999134044323,-93.7483389241718
8.871794688,1.000002094357961,-95.02917094192127
8.912820224,1.0000049741901214,-96.31015589656087
8.95384576,1.0000078577393585,-97.5912387373491
8.994871296,1.000010699383512,-98.8724406414887
9.035897856,1.0000133969798848,-100.15375758015665
9.076923392,1.000015860082238,-101.43522838035938
9.117948928,1.0000181162918471,-102.71678516093696
9.158974464,1.0000202403838576,-103.99846793977625
9.2,1.000022071658283,-105.28026839742941
9.241025536,1.000023614063183,-106.56219059861863
9.282051072,1.0000247287555324,-107.84422425595534
9.323076608,1.000025578055595,-109.12635043526925
9.364102144,1.000026152187136,-110.40860634564257
9.405128704,1.0000262172458656,-111.69097020277049
9.44615424,1.0000260608444806,-112.9734177290118
9.487179776,1.0000254606638197,-114.255971042134
9.528205312,1.0000244001208738,-115.53862568548871
9.569230848,1.0000230824834782,-116.82136438713964
9.610256384,1.0000214078119354,-118.10423247491714
9.65128192,1.0000194337924362,-119.38715794355504
9.692307456,1.0000170688705166,-120.67017742363613
9.733332992,1.000014444570085,-121.9532897198195
9.774358528,1.0000115233251345,-123.23647640267393
9.815385088,1.0000085242743284,-124.51975288174563
9.856410624,1.0000052695812458,-125.80310336902201
9.89743616,1.0000018910310535,-127.08653564340054
9.938461696,0.9999983173816603,-128.3700603388697
9.979487232,0.999994908413953,-129.65364439209722
10.020512768,0.9999912668452148,-130.9373125216688
10.061538304,0.999987814216359,-132.22107096634372
10.10256384,0.9999844529557977,-133.50488320603597
10.143589376,0.9999811528961301,-134.78877461813414
10.184614912,0.99997808726715,-136.0727517415869
10.225641472,0.9999752143544836,-137.35679928077246
10.266667008,0.9999726756009693,-138.64093527230628
10.307692544,0.9999704826801542,-139.92515558329322
10.34871808,0.9999685757617313,-141.20946548845376
10.389743616,0.9999669900369288,-142.49385186392118
10.430769152,0.9999658641785826,-143.77833077574908
10.471794688,0.9999651790168904,-145.0629128344464
10.512820224,0.9999649286466511,-146.34755755385993
10.55384576,0.9999651112946913,-147.63231790402858
10.594871296,0.9999657431852034,-148.91719026808607
10.635897856,0.9999668650490936,-150.20215755708645
10.676923392,0.9999683923886574,-151.48721599882876
10.717948928,0.9999703155056124,-152.77237105174387
10.758974464,0.999972774481847,-154.0576609758275
10.8,0.9999755783279984,-155.34306794004738
10.841025536,0.999978675745332,-156.6285809545489
10.882051072,0.9999821443470668,-157.91419771971232
10.923076608,0.9999859153265792,-159.19994812061597
10.964102144,0.9999898251050668,-160.48581484887498
11.005128704,0.9999940165007445,-161.77180075640118
11.04615424,0.9999982921669499,-163.05791450868665
11.087179776,1.000002722449913,-164.3441518754598
11.128205312,1.0000070601865376,-165.63050847078503
11.169230848,1.0000113758267783,-166.91699078395663
11.210256384,1.0000156955146975,-168.20360136934158
11.25128192,1.0000197669775488,-169.4903338325306
11.292307456,1.0000236278552699,-170.7771806359836
11.333332992,1.0000272217086406,-172.06416319013766
11.374358528,1.0000305146470383,-173.3512434964354
11.415385088,1.00003346591062,-174.63845295594865
11.456410624,1.0000360177427357,-175.92576838988555
11.49743616,1.0000380855620643,-177.213207626448
11.538461696,1.0000396885055354,-178.50071748100143
11.579487232,1.000040677663821,-179.78836276336526
11.620512768,1.000041246109165,178.9239134182501
11.661538304,1.0000411313846258,177.63607164565636
11.70256384,1.000040565619402,176.34814926495972
11.743589376,1.0000394719968926,175.06013966305912
11.784614912,1.0000377406772842,173.7720491469039
11.825641472,1.0000353914756333,172.4838672224771
11.866667008,1.000032693523757,171.19562453273207
11.907692544,1.0000293630044692,169.907314931309
11.94871808,1.0000256312753009,168.61892090669065
11.989743616,1.0000214298345402,167.33047427726552
12.030769152,1.0000170295676958,166.04195582253382
12.071794688,1.0000121948883411,164.75337972646298
12.112820224,1.0000071510065291,163.46474748955805
12.15384576,1.0000018840403728,162.1760684950644
12.194871296,0.9999964565142706,160.88733553257276
12.235897856,0.9999910458807431,159.59855406701055
12.276923392,0.9999856082055276,158.30970492479284
12.317948928,0.9999802367282676,157.02080641826237
12.358974464,0.9999750906418248,155.7318817798302
12.4,0.9999701748556155,154.4428823101535
12.441025536,0.9999655077320667,153.15385035411055
12.482051072,0.9999612540441735,151.8647410805132
12.523076608,0.9999574177664464,150.57560468955603
12.564102144,0.9999541007535807,149.28638200527215
12.605128704,0.99995142633627,147.9971128983497
12.64615424,0.9999492081922229,146.7077616160071
12.687179776,0.9999476039805225,145.41836601303675
12.728205312,0.9999467692545817,144.12889245732862
12.769230848,0.9999465369895119,142.83932782250298
12.810256384,0.9999470495176324,141.549694999762
12.85128192,0.9999482648133212,140.25997729568607
12.892307456,0.9999501829371009,138.97017040377432
12.933332992,0.9999528453809764,137.68026107675075
12.974358528,0.9999561156540552,136.3902666882182
13.015385088,0.9999600384929266,135.10016664381516
13.056410624,0.9999645118499404,133.80996392014495
13.09743616,0.9999696432198085,132.51965388603557
13.138461696,0.999975219312397,131.22922153049018
13.179487232,0.9999811180441881,129.93868775805197
13.220512768,0.9999875623327786,128.64802964655456
13.261538304,0.9999942121701577,127.35724375530296
13.30256384,1.0000009384001152,126.06634264936088
13.343589376,1.0000078934244445,124.77532327639626
13.384614912,1.0000148955620034,123.48416906433356
13.425641472,1.0000217626034782,122.19290161639319
13.466667008,1.000028420829701,120.90149892041791
13.507692544,1.0000348738350189,119.6100024244023
13.54871808,1.0000410052098045,118.31835889417852
13.589743616,1.000046683854593,117.02660666767328
13.630769152,1.0000517896893881,115.73474279486295
13.671794688,1.0000563181420388,114.44276806188223
13.712820224,1.0000601288367612,113.1506902822233
13.75384576,1.0000632745221885,111.85852690180181
13.794871296,1.0000656385493902,110.56624466258019
13.835897856,1.0000670550941195,109.27387616173989
13.876923392,1.0000676517495748,107.98143721881058
13.917948928,1.000067358397279,106.68890083433962
13.958974464,1.0000660643422679,105.39630150366851
14.0,1.0000639714845196,104.10363317377241
