freq,mag,phase
6.0,0.9999942620822178,69.54373726145565
6.008,0.999994685584889,69.37912360023381
6.016,0.9999950966605718,69.21444622143896
6.024,0.99999549550635,69.04970507125185
6.032,0.9999958823173739,68.88490009616213
6.04,0.999996257286872,68.72003124296943
6.048,0.9999966206061615,68.55509845878441
6.056,0.9999969724646579,68.39010169102974
6.064,0.9999973130498877,68.22504088744118
6.072,0.999997642547497,68.05991599606851
6.08,0.9999979611412635,67.89472696527665
6.088,0.9999982690131066,67.72947374374667
6.096,0.9999985663430987,67.5641562804767
6.104,0.999998853309475,67.39877452478304
6.112,0.9999991300886447,67.23332842630111
6.12,0.9999993968552015,67.06781793498654
6.128,0.9999996537819343,66.90224300111603
6.136,0.9999999010398376,66.73660357528847
6.144,1.0,66.5708996084259
6.152,1.0,66.40513105177443
6.16,1.0,66.23929785690534
6.168,0.9999999999999999,66.073399975716
6.176,1.0,65.90743736043085
6.184,1.0,65.7414099636024
6.192,1.0,65.57531773811215
6.2,1.0,65.40916063717165
6.208,0.9999999999999998,65.24293861432342
6.216,1.0,65.0766516234419
6.224,0.9999999999999999,64.91029961873444
6.232,0.9999999999999999,64.74388255474221
6.24,0.9999999999999999,64.5774003863412
6.248,0.9999999999999999,64.41085306874318
6.256,1.0,64.2442405574966
6.264,0.9999999999999999,64.0775628084876
6.272,0.9999999999999999,63.91081977794085
6.28,0.9999999999999999,63.744011422420584
6.288,0.9999999999999999,63.57713769883149
6.296,1.0,63.410198564419666
6.304,0.9999999999999999,63.24319397677347
6.312,1.0,63.07612389382456
6.32,1.0,62.90898827384872
6.328,0.9999999999999999,62.74178707546684
6.336,1.0,62.574520257645744
6.344,1.0,62.407187779699235
6.352,0.9999999999999999,62.23978960128881
6.36,1.0,62.07232568242479
6.368,1.0,61.904795983467004
6.376,0.9999999999999999,61.73720046512583
6.384,1.0,61.56953908846302
6.392,0.9999999999999999,61.401811814892596
6.4,1.0,61.23401860618172
6.408,0.9999999999999999,61.06615942445165
6.416,1.0,60.89823423217851
6.424,0.9999999999999999,60.73024299219424
6.432,1.0,60.562185667687395
6.44,1.0,60.3940622222041
6.448,0.9999999999999999,60.22587261964884
6.456,0.9999999999999999,60.05761682428534
6.464,1.0,59.889294800737424
6.472,1.0,59.72090651398987
6.48,1.0,59.55245192938921
6.4879999999999995,0.9999999999999999,59.383931012644666
6.496,1.0,59.215343729828845
6.504,1.0,59.046690047378796
6.5120000000000005,1.0,58.87796993209653
6.52,1.0,58.70918335115022
6.5280000000000005,1.0,58.54033027207463
6.536,0.9999999999999999,58.37141066277229
6.5440000000000005,1.0,58.20242449151399
6.552,1.0,58.03337172693995
6.5600000000000005,1.0,57.864252338060226
6.568,0.9999999999999999,57.695066294255895
6.5760000000000005,1.0,57.52581356527954
6.584,0.9999999999999999,57.35649412125628
6.592,0.9999999999999999,57.187107932684356
6.6,1.0,57.017654970436155
6.608,0.9999999999999999,56.84813520575874
6.616,0.9999999999999999,56.67854861027484
6.624,1.0,56.50889515598348
6.632,1.0,56.33917481526085
6.64,1.0,56.16938756086098
6.648,1.0,55.99953336591661
6.656,1.0,55.82961220393986
6.664,1.0,55.65962404882301
6.672,0.9999999999999999,55.4895688748393
6.68,1.0,55.31944665664358
6.688,1.0,55.149257369273094
6.696,1.0,54.97900098814828
6.704,1.0,54.80867748907343
6.712,0.9999999999999999,54.63828684823743
6.72,1.0000000000000002,54.4678290422145
6.728,0.9999999999999999,54.29730404796488
6.736,0.9999999999999999,54.12671184283563
6.744,0.9999999999999999,53.956052404561255
6.752,1.0,53.78532571126446
6.76,0.9999999999999999,53.61453174145679
6.768,1.0000000000000002,53.443670474039415
6.776,1.0,53.272741888303806
6.784,1.0,53.101745963932345
6.792,1.0,52.93068268099912
6.8,1.0,52.759552019970535
6.808,1.0000000000000002,52.588353961706005
6.816,0.9999999529264462,52.41708848745862
6.824,0.9999998368761669,52.24575557887586
6.832,0.9999997203388339,52.07435521800019
6.84,0.999999603367489,51.90288738726977
6.848,0.9999994860142603,51.73135206951906
6.856,0.9999993683303712,51.55974924797954
6.864,0.9999992503661485,51.388078906280285
6.872,0.9999991321710321,51.21634102844863
6.88,0.9999990137935834,51.044535598910855
6.888,0.9999988952814932,50.87266260249269
6.896,0.9999987766815922,50.70072202442011
6.904,0.9999986580398577,50.52871385031983
6.912,0.9999985394014227,50.35663806621995
6.92,0.9999984208105851,50.184494658550626
6.928,0.9999983023108157,50.012283614144586
6.936,0.9999981839447671,49.84000492023781
6.944,0.9999980657542811,49.66765856447008
6.952,0.9999979477803984,49.4952445348856
6.96,0.9999978300633664,49.322762819933615
6.968,0.9999977126426476,49.15021340846889
6.976,0.9999975955569276,48.9775962897524
6.984,0.9999974788441236,48.80491145345186
6.992,0.9999973625413932,48.63215888964229
7.0,0.9999972466851416,48.45933858880661
7.008,0.9999971313110309,48.28645054183613
7.016,0.999997016453987,48.11349474003121
7.024,0.9999969021482086,47.94047117510174
7.032,0.9999967884271748,47.767379839167674
7.04,0.9999966753236538,47.59422072475963
7.048,0.9999965628697097,47.42099382481934
7.056,0.9999964510967118,47.24769913270033
7.064,0.9999963400353413,47.07433664216825
7.072,0.9999962297156004,46.900906347401566
7.08,0.9999961201668189,46.727408242991984
7.088,0.9999960114176631,46.55384232394496
7.096,0.9999959034961429,46.38020858568026
7.104,0.9999957964296191,46.20650702403241
7.112,0.9999956902448126,46.03273763525123
7.12,0.999995584967811,45.85890041600227
7.128,0.9999954806240761,45.68499536336741
7.136,0.9999953772384514,45.51102247484516
7.144,0.9999952748351708,45.336981748351334
7.152,0.9999951734378646,45.16287318221938
7.16,0.9999950730695683,44.98869677520085
7.168,0.9999949737527285,44.814452526466006
7.176,0.9999948755092123,44.64014043560408
7.184,0.9999947783603123,44.465760502623866
7.192,0.9999946823267558,44.29131272795407
7.2,0.9999945874287112,44.11679711244384
7.208,0.9999944936857955,43.94221365736312
7.216,0.9999944011170809,43.76756236440312
7.224,0.9999943097411033,43.59284323567673
7.232,0.9999942195758672,43.41805627371895
7.24,0.9999941306388553,43.243201481487304
7.248,0.9999940429470336,43.068278862362185
7.256,0.9999939565168594,42.89328842014739
7.264,0.9999938713642875,42.718230159070345
7.272,0.9999937875047779,42.543104083782666
7.28,0.9999937049533016,42.367910199360445
7.288,0.9999936237243493,42.19264851130463
7.296,0.9999935438319355,42.01731902554145
7.304,0.9999934652896079,41.841921748422756
7.312,0.9999933881104514,41.666456686726406
7.32,0.9999933123070974,41.49092384765656
7.328,0.999993237891729,41.315323238844144
7.336,0.9999931648760871,41.13965486834708
7.344,0.9999930932714786,40.963918744650734
7.352,0.9999930230887807,40.788114876668196
7.36,0.9999929543384487,40.61224327374059
7.368,0.9999928870305228,40.436303945637476
7.376,0.9999928211746331,40.260296902557094
7.384,0.9999927567800067,40.08422215512673
7.392,0.9999926938554743,39.908079714403
7.4,0.9999926324094753,39.73186959187216
7.4079999999999995,0.9999925724500652,39.55559179945046
7.416,0.9999925139849202,39.379246349484255
7.4239999999999995,0.9999924570213456,39.202833254750594
7.432,0.9999924015662791,39.026352528457146
7.4399999999999995,0.999992347626299,38.84980418424285
7.448,0.9999922952076286,38.67318823617781
7.4559999999999995,0.9999922443161433,38.49650469876391
7.464,0.9999921949573759,38.31975358693476
7.4719999999999995,0.9999921471365224,38.14293491605623
7.48,0.9999921008584474,37.96604870192641
7.4879999999999995,0.9999920561276908,37.789094960776204
7.496,0.9999920129484724,37.61207370926917
7.504,0.9999919713246984,37.43498496450209
7.5120000000000005,0.9999919312599668,37.25782874400496
7.52,0.9999918927575724,37.080605065741395
7.5280000000000005,0.9999918558205124,36.903313948108604
7.536,0.9999918204514928,36.72595540993792
7.5440000000000005,0.9999917866529325,36.548529470494664
7.552,0.9999917544269701,36.371036149478606
7.5600000000000005,0.999991723775467,36.19347546702395
7.568,0.9999916947000156,36.015847443699755
7.5760000000000005,0.9999916672019414,35.83815210050978
7.584,0.9999916412823113,35.66038945889305
7.5920000000000005,0.9999916169419362,35.482559540723635
7.6,0.9999915941813768,35.304662368311135
7.6080000000000005,0.9999915730009501,35.126697964400584
7.616,0.999991553400732,34.94866635217283
7.6240000000000006,0.9999915353805635,34.770567555244405
7.632,0.9999915189400562,34.592401597667944
7.640000000000001,0.9999915040785963,34.41416850393204
7.648,0.9999914907953489,34.2358682989617
7.656000000000001,0.9999914790892638,34.05750100811803
7.664,0.9999914689590801,33.879066657198834
7.672,0.9999914604033303,33.700565272438276
7.68,0.9999914534203448,33.52199688050727
7.688,0.9999914480082579,33.34336150851345
7.696,0.99999144416501,33.16465918400134
7.704,0.9999914418883544,32.98588993495232
7.712,0.9999914411758604,32.80705378978478
7.72,0.9999914420249174,32.62815077735418
7.728,0.9999914444327408,32.44918092695312
7.736,0.9999914483963739,32.27014426831134
7.744,0.9999914539126952,32.091040831595876
7.752,0.9999914609784194,31.91187064741097
7.76,0.9999914695901041,31.732633746798236
7.768,0.9999914797441521,31.553330161236612
7.776,0.9999914914368169,31.373959922642403
7.784,0.9999915046642053,31.19452306336931
7.792,0.9999915194222826,31.015019616208466
7.8,0.9999915357068758,30.835449614388363
7.808,0.9999915535136774,30.655813091574952
7.816,0.9999915728382497,30.47611008187158
7.824,0.999991593676028,30.296340619818988
7.832,0.9999916160223256,30.116504740395285
7.84,0.999991639872335,29.936602479015924
7.848,0.9999916652211338,29.75663387153371
7.856,0.9999916920636878,29.57659895423873
7.864,0.9999917203948538,29.396497763858278
7.872,0.9999917502093837,29.21633033755686
7.88,0.9999917815019274,29.036096712936136
7.888,0.9999918142670369,28.855796928034792
7.896,0.9999918484991694,28.675431021328556
7.904,0.9999918841926899,28.49499903173006
7.912,0.9999919213418759,28.31450099858878
7.92,0.9999919599409186,28.13393696169098
7.928,0.9999919999839277,27.95330696125955
7.936,0.9999920414649348,27.77261103795394
7.944,0.9999920843778944,27.591849232870064
7.952,0.9999921287166889,27.41102158754018
7.96,0.9999921744751302,27.23012814393274
7.968,0.9999922216469641,27.049168944452312
7.976,0.9999922702258716,26.86814403193939
7.984,0.9999923202054728,26.687053449670305
7.992,0.9999923715793292,26.50589724135703
8.0,0.9999924243409467,26.32467545114709
8.008,0.9999924784837778,26.14338812362335
8.016,0.9999925340012257,25.962035303803784
8.024000000000001,0.9999925908866438,25.780617037141507
8.032,0.9999926491333422,25.59913336952443
8.04,0.9999927087345869,25.41758434727507
8.048,0.9999927696836046,25.23597001715035
8.056000000000001,0.9999928319735835,25.054290426341566
8.064,0.9999928955976762,24.87254562247406
8.072,0.9999929605490027,24.690735653606907
8.08,0.9999930268206514,24.5088605682328
8.088000000000001,0.9999930944056825,24.32692041527791
8.096,0.9999931632971294,24.144915244101583
8.104,0.9999932334880016,23.962845104495933
8.112,0.9999933049712855,23.780710046685822
8.120000000000001,0.9999933777399479,23.598510121328562
8.128,0.9999934517869375,23.41624537951363
8.136,0.9999935271051861,23.23391587276231
8.144,0.9999936036876119,23.051521653027503
8.152000000000001,0.9999936815271198,22.869062772693542
8.16,0.9999937606166049,22.686539284575773
8.168,0.9999938409489529,22.50395124192024
8.176,0.9999939225170427,22.321298698403446
8.184000000000001,0.9999940053137472,22.138581708132108
8.192,0.9999940893319363,21.955800325642787
8.2,0.999994174564477,21.77295460590146
8.208,0.9999942610042366,21.590044604303294
8.216000000000001,0.9999943486440821,21.407070376672408
8.224,0.999994437476884,21.2240319792614
8.232,0.999994527495516,21.04092946875095
8.24,0.9999946186928571,20.857762902249572
8.248000000000001,0.9999947110617934,20.67453233729326
8.256,0.999994804595218,20.491237831845133
8.264,0.9999948992860338,20.30787944429488
8.272,0.9999949951271537,20.124457233458536
8.280000000000001,0.9999950921115025,19.940971258578138
8.288,0.9999951902320174,19.757421579321235
8.296,0.9999952894816492,19.57380825578046
8.304,0.9999953898533642,19.39013134847313
8.312,0.9999954913401443,19.20639091834098
8.32,0.9999955939349876,19.02258702674949
8.328,0.9999956976309108,18.83871973548772
8.336,0.9999958024209487,18.654789106767588
8.344,0.999995908298156,18.470795203223723
8.352,0.9999960152556073,18.286738087912713
8.36,0.9999961232863992,18.10261782431295
8.368,0.9999962323836488,17.918434476323856
8.376,0.9999963425404966,17.734188108265727
8.384,0.9999964537501065,17.549878784878914
8.392,0.9999965660056654,17.365506571323692
8.4,0.9999966793003853,17.181071533179416
8.408,0.9999967936275024,16.99657373644437
8.416,0.9999969089802789,16.812013247534882
8.424,0.999997025352003,16.627390133285196
8.432,0.9999971427359888,16.44270446094659
8.44,0.999997261125577,16.257956298187196
8.448,0.9999973805141359,16.073145713091087
8.456,0.9999975008950603,15.88827277415812
8.464,0.999997622261774,15.70333755030303
8.472,0.9999977446077271,15.518340110855211
8.48,0.9999978679263992,15.333280525557788
8.488,0.9999979922112969,15.148158864567424
8.496,0.9999981174559565,14.96297519845339
8.504,0.9999982436539415,14.777729598197299
8.512,0.9999983707988449,14.592422135192189
8.52,0.9999984988842879,14.407052881242269
8.528,0.9999986279039202,14.221621908561959
8.536,0.9999987578514207,14.036129289775607
8.544,0.9999988887204956,13.850575097916556
8.552,0.9999990205048801,13.664959406426837
8.56,0.9999991531983381,13.479282289156192
8.568,0.9999992867946609,13.293543820361757
8.576,0.9999994212876677,13.107744074707115
8.584,0.9999995566712054,12.921883127261934
8.592,0.9999996929391484,12.735961053500985
8.6,0.9999998300853982,12.549977929303799
8.608,0.9999999681038823,12.36393383095366
8.616,1.0,12.177828835137245
8.624,1.0,11.991663018943598
8.632,0.9999999999999999,11.805436459863776
8.64,1.0,11.619149235789772
8.648,1.0,11.432801425014176
8.656,1.0,11.246393106229092
8.664,1.0,11.059924358525759
8.672,1.0,10.873395261393453
8.68,1.0,10.6868058947191
8.688,0.9999999999999999,10.500156338786182
8.696,0.9999999999999999,10.31344667427432
8.704,1.0,10.126676982258166
8.712,1.0,9.939847344206951
8.72,0.9999999999999999,9.75295784198339
8.728,0.9999999999999999,9.566008557843231
8.736,1.0,9.378999574434097
8.744,1.0,9.191930974795048
8.752,0.9999999999999999,9.004802842355414
8.76,0.9999999999999999,8.817615260934332
8.768,1.0,8.630368314739565
8.776,1.0,8.44306208836702
8.784,0.9999999999999999,8.255696666799567
8.792,1.0,8.068272135406524
8.8,0.9999999999999998,7.880788579942485
8.808,1.0,7.693246086546762
8.815999999999999,1.0,7.505644741742254
8.824,1.0,7.317984632434675
8.832,0.9999999999999999,7.130265845911764
8.84,1.0,6.942488469842309
8.847999999999999,0.9999999999999999,6.754652592275155
8.856,0.9999999999999999,6.5667583016384
8.864,0.9999999999999999,6.378805686738546
8.872,1.0,6.190794836759504
8.879999999999999,1.0,6.002725841261581
8.888,1.0,5.814598790180631
8.896,0.9999999999999999,5.626413773827184
8.904,1.0,5.438170882885423
8.911999999999999,1.0,5.249870208412138
8.92,1.0,5.061511841835844
8.928,1.0,4.873095874955889
8.936,1.0,4.684622399941396
8.943999999999999,1.0,4.496091509330186
8.952,1.0,4.307503296027862
8.96,0.9999999999999999,4.118857853306907
8.968,0.9999999999999999,3.9301552748055695
8.975999999999999,1.0,3.741395654526768
8.984,0.9999999999999999,3.5525790868371603
8.992,1.0,3.363705666466175
9.0,1.0,3.1747754885049075
9.008,0.9999999999999999,2.9857886484049683
9.016,1.0000000000000002,2.7967452419775274
9.024000000000001,1.0,2.6076453653923286
9.032,1.0,2.418489115176533
9.04,1.0,2.2292765882135557
9.048,1.0,2.0400078817420737
9.056000000000001,1.0,1.8506830933550062
9.064,1.0,1.6613023209983333
9.072,0.9999999999999999,1.4718656629699043
9.08,0.9999999999999999,1.282373217918406
9.088000000000001,1.0,1.0928250848423213
9.096,0.9999999999999999,0.9032213630887163
9.104,1.0,0.713562152352015
9.112,0.9999999999999999,0.5238475526729375
9.120000000000001,0.9999999999999999,0.33407766443743586
9.128,1.0,0.14425258837543944
9.136,0.9999999999999999,-0.0456275744403938
9.144,1.0,-0.23556272259576966
9.152000000000001,0.9999999999999999,-0.42555275433585954
9.16,0.9999999999999999,-0.6155975675665706
9.168,1.0,-0.8056970598558402
9.176,1.0,-0.9958511284347524
9.184000000000001,0.9999999999999999,-1.1860596701986672
9.192,0.9999999999999999,-1.3763225817085296
9.2,1.0,-1.5666397591921837
9.208,1.0,-1.7570110985455283
9.216000000000001,1.0,-1.9474364953336774
9.224,0.9999999999999999,-2.1379158447922917
9.232,1.0,-2.328449041828931
9.24,0.9999999999999999,-2.5190359810242375
9.248000000000001,1.0,-2.709676556633125
9.256,1.0,-2.90037066258615
9.264,1.0,-3.0911181924908826
9.272,1.0,-3.2819190396331255
9.280000000000001,1.0,-3.4727730969781376
9.288,0.9999999999999999,-3.6636802571720337
9.296,1.0,-3.854640412543185
9.304,0.9999999999999999,-4.045653455103472
9.312000000000001,1.0,-4.236719276549531
9.32,1.0,-4.42783776826419
9.328,1.0,-4.6190088213179115
9.336,0.9999999999999999,-4.810232326470052
9.344,1.0,-5.001508174170117
9.352,1.0,-5.192836254559442
9.36,0.9999999999999999,-5.384216457472212
9.368,0.9999999999999999,-5.575648672437216
9.376,0.9999999999999999,-5.767132788678901
9.384,1.0,-5.9586686951191234
9.392,0.9999999999999999,-6.150256280378207
9.4,1.0,-6.341895432776726
9.408,0.9999999999999998,-6.533586040336595
9.416,0.9999999999999999,-6.725327990782832
9.424,1.0,-6.917121171544686
9.432,0.9999999999999999,-7.108965469757408
9.44,1.0,-7.30086077226341
9.448,0.9999999999999999,-7.4928069656140215
9.456,0.9999999999999999,-7.684803936070692
9.464,1.0,-7.876851569606758
9.472,0.9999999999999999,-8.068949751908628
9.48,1.0000000000000002,-8.261098368377626
9.488,0.9999999999999999,-8.453297304131162
9.496,1.0,-8.645546444004555
9.504,1.0,-8.837845672552268
9.512,0.9999999999999999,-9.030194874049755
9.52,0.9999999999999999,-9.222593932494668
9.528,1.0,-9.415042731608729
9.536,1.0,-9.607541154838975
9.544,0.9999999999999999,-9.800089085359652
9.552,0.9999999999999999,-9.992686406073434
9.56,0.9999999999999998,-10.185332999613378
9.568,1.0,-10.378028748344134
9.576,0.9999999999999999,-10.570773534363894
9.584,0.9999999999999999,-10.763567239505678
9.592,1.0,-10.95640974533927
9.6,1.0,-11.149300933172482
9.608,0.9999999999999999,-11.342240684053161
9.616,1.0,-11.535228878770443
9.624,0.9999999999999999,-11.728265397856786
9.632,0.9999999999999999,-11.921350121589237
9.64,1.0,-12.114482929991452
9.648,1.0,-12.307663702835049
9.656,1.0,-12.500892319641569
9.664,0.9999999999999999,-12.694168659683879
9.672,1.0,-12.88749260198815
9.68,0.9999999999999999,-13.080864025335284
9.688,0.9999999999999999,-13.274282808262905
9.696,0.9999999999999999,-13.467748829066746
9.704,1.0,-13.661261965802751
9.712,1.0,-13.854822096288434
9.72,1.0,-14.048429098104961
9.728,1.0,-14.242082848598585
9.736,0.9999999999999999,-14.435783224882707
9.744,0.9999999999999998,-14.62953010383934
9.752,0.9999999999999999,-14.823323362121188
9.76,1.0,-15.01716287615313
9.768,0.9999999999999999,-15.21104852213431
9.776,1.0,-15.404980176039592
9.784,1.0,-15.59895771362177
9.792,0.9999999999999999,-15.792981010412971
9.8,0.9999999999999999,-15.98704994172685
9.808,1.0,-16.181164382660075
9.816,1.0,-16.375324208094522
9.824,1.0,-16.569529292698753
9.832,1.0,-16.763779510930256
9.84,0.9999999999999999,-16.958074737036895
9.847999999999999,0.9999999999999999,-17.15241484505918
9.856,0.9999999999999999,-17.346799708831938
9.864,0.9999999999999999,-17.541229201986155
9.872,1.0,-17.735703197950947
9.879999999999999,1.0,-17.930221569955574
9.888,1.0,-18.12478419103122
9.896,0.9999999999999999,-18.319390934012876
9.904,0.9999999999999999,-18.514041671541335
9.911999999999999,0.9999999999999999,-18.708736276065245
9.92,1.0,-18.9034746198429
9.928,1.0,-19.09825657494419
9.936,1.0,-19.293082013252636
9.943999999999999,0.9999999999999999,-19.4879508064674
9.952,1.0,-19.682862826105215
9.96,1.0,-19.877817943502293
