freq,mag,phase
6.0,1.000487552430574,-1.9616402373194863
6.002285056,1.000426506286329,-2.0435424791829737
6.004570112,1.0003393959160107,-2.12441767301309
6.006855168,1.0002309873516018,-2.2038440859943838
6.009140224,1.0001080607872466,-2.2816063623458716
6.01142528,0.9999786501999917,-2.357513664360222
6.013710336,0.9998509471498281,-2.4316051933670186
6.015995392,0.9997329881870503,-2.5038623390667314
6.018280448,0.9996326148886215,-2.5745462168311026
6.020565504,0.9995561405693351,-2.6439134420409145
6.02285056,0.99950832281295,-2.712401924028807
6.025135616,0.9994924438277188,-2.780423424287945
6.027420672,0.9995095020617482,-2.8484680333367782
6.029705728,0.9995583158173768,-2.9170110913677756
6.031990784,0.9996357901688302,-2.986414851820218
6.03427584,0.9997369492948153,-3.057231912543286
6.036560896,0.9998555026451208,-3.1295872234379227
6.038845952,0.999983665118454,-3.203774857507117
6.041131008,1.000113125723641,-3.279893741192884
6.043416064,1.000235950076925,-3.357817657309478
6.04570112,1.0003440865447473,-3.437433406524686
6.047986176,1.000430469584805,-3.5184998598742174
6.050271232,1.0004898535990587,-3.600606583944893
6.052556288,1.0005182022248775,-3.683393783814658
6.054841344,1.0005137600001652,-3.766336252826404
6.0571264,1.0004768794064993,-3.8490202033007805
6.059411456,1.0004098550548002,-3.93094257484911
6.061696512,1.0003169042828561,-4.011697907575694
6.063981568,1.0002041040745087,-4.090964126353738
6.066266624,1.000078512072741,-4.168506402920371
6.06855168,0.9999482565708807,-4.244191105990243
6.070836736,0.9998217329106965,-4.317955711057251
6.073121792,0.9997068180209877,-4.389974707406906
6.075406848,0.9996112056783089,-4.460492049049879
6.077691904,0.9995406398964309,-4.529792985755122
6.07997696,0.9994999241672882,-4.598282421977579
6.082262016,0.9994916999774945,-4.666417289267812
6.084547072,0.9995163173340254,-4.734697103834277
6.086832128,0.9995723352101853,-4.803554207810196
6.089117184,0.999656121025017,-4.873451337032799
6.09140224,0.9997623723585505,-4.944749416909019
6.093687296,0.9998841426521312,-5.01769213585633
6.095972352,1.0000138003925596,-5.092530701118639
6.098257408,1.000143004666464,-5.169204192264543
6.100542464,1.0002634311338936,-5.247740742501107
6.10282752,1.0003674103713196,-5.327907985080972
6.105112576,1.000448171443508,-5.409452430137422
6.107397632,1.0005008247993619,-5.492009288442421
6.1096832,1.0005218000007916,-5.575026747098877
6.111968256,1.0005097393430336,-5.658192308123192
6.114253312,1.0004653459675774,-5.740952915447589
6.116538368,1.0003916131632402,-5.8227941989056395
6.118823424,1.0002933110658536,-5.903449690059203
6.12110848,1.0001763919860776,-5.982524972261375
6.123393536,1.0000485942448714,-6.059798161133409
6.125678592,0.9999180748546121,-6.135213772868015
6.127963648,0.9997930511550313,-6.208778219032078
6.130248704,0.99968157945221,-6.280597072729099
6.13253376,0.9995909406423157,-6.350954936269681
6.134818816,0.9995268463322564,-6.420207660331002
6.137103872,0.9994934028339737,-6.488701096787631
6.139388928,0.9994927945591902,-6.557003677554027
6.141673984,0.9995249722067738,-6.625505010867116
6.14395904,0.9995879834507994,-6.694733664765501
6.146244096,0.9996778351528709,-6.765051657130199
6.148529152,0.9997887914223869,-6.836891662579424
6.150814208,0.9999133838841241,-6.910445784492569
6.153099264,1.000044229001277,-6.985882254780549
6.15538432,1.000172442295569,-7.063196361011392
6.157669376,1.0002901068934045,-7.1423603075481035
6.159954432,1.000389635222948,-7.2230630815006345
6.162239488,1.000464582415354,-7.30506310097001
6.164524544,1.0005102688957834,-7.387955160719047
6.1668096,1.0005236839009655,-7.471294630446652
6.169094656,1.0005038601025538,-7.5545533020383075
6.171379712,1.0004522713001822,-7.63734426387683
6.173664768,1.0003720168239947,-7.719195562670984
6.175949824,1.0002684574400085,-7.799668378905168
6.17823488,1.0001478626200269,-7.878565897879185
6.180519936,1.0000182760210126,-7.955609185115321
6.182804992,0.999887835494157,-8.030735486560916
6.185090048,0.9997648289472842,-8.10403784328335
6.187375104,0.999657314423948,-8.17567881908959
6.18966016,0.9995720845844268,-8.245907177156472
6.191945216,0.9995144475640507,-8.315134585973755
6.194230272,0.9994885521302498,-8.383681439338684
6.196515328,0.9994955151819244,-8.452151430023054
6.198800384,0.9995352929343744,-8.5209381334247
6.20108544,0.999605108409618,-8.590528958561219
6.203370496,0.9997007277699357,-8.66136963314541
6.205655552,0.99981584357266,-8.73377070269731
6.207940608,0.9999432079478338,-8.807908543623537
6.210225664,1.000074580524358,-8.883944593923827
6.21251072,1.0002015801045885,-8.961897188154978
6.214795776,1.0003160543552267,-9.041628836012219
6.217080832,1.0004107623153105,-9.122881400962655
6.219365888,1.0004795394734802,-9.205339900335746
6.221650944,1.0005180321116094,-9.288574994890755
6.223936,1.0005236471405352,-9.372135066964193
6.226221056,1.000496234269527,-9.45557342178367
6.228506112,1.000437589547153,-9.538360168965747
6.230791168,1.0003511586285523,-9.620131592576941
6.233076224,1.0002425873832215,-9.700481617373876
6.23536128,1.000118846660598,-9.779093338086716
6.237646336,0.9999877821414644,-9.855925163854593
6.239931392,0.9998578792097733,-9.930806019136845
6.242216448,0.9997374222980341,-10.003874519116593
6.244501504,0.9996340018227478,-10.075350539241457
6.24678656,0.9995544410186759,-10.145451415062334
6.249071616,0.9995037331161818,-10.214613288203429
6.251356672,0.9994851341675783,-10.283265322171392
6.253641728,0.9994999389533502,-10.351931524572244
6.255926784,0.9995471873719542,-10.421023426220184
6.25821184,0.9996237901750955,-10.49105209643374
6.260496896,0.9997247989242237,-10.562354058033238
6.262781952,0.9998438077834405,-10.635312491628339
6.265067008,0.9999733423732912,-10.710105967220692
6.267352064,1.000104874166526,-10.786774712807084
6.26963712,1.0002300340018406,-10.865316383378971
6.271922176,1.0003410045205738,-10.94560615228874
6.274207232,1.0004304376257407,-11.027394837340163
6.276492288,1.000492916569202,-11.110261784533591
6.278777344,1.0005240506638344,-11.193851153737883
6.2810624,1.000522024715933,-11.277633647051994
6.283347456,1.0004871333200087,-11.361177609340409
6.285632512,1.0004212588054784,-11.444014005341717
6.287917568,1.0003289225599314,-11.525641570066213
6.290202624,1.00021573860518,-11.605807801228993
6.29248768,1.00008920478162,-11.684246820821986
6.294772736,0.9999571669449402,-11.760775494441635
6.297057792,0.9998282973490052,-11.83543791773702
6.299342848,0.9997106032810484,-11.908291579840535
6.301627904,0.9996119122794983,-11.979587854784691
6.30391296,0.9995383213596835,-12.04959585009674
6.306198016,0.9994947257588292,-12.118776546224668
6.308483072,0.9994837573134742,-12.187544910016394
6.310768128,0.9995062894539288,-12.256389207402869
6.313053184,0.9995607564617749,-12.325866967980328
6.31533824,0.9996438266353194,-12.396301704440003
6.317623296,0.9997500190871799,-12.468149292582366
6.319908352,0.9998725975593552,-12.541658533914312
6.322193408,1.0000036897473235,-12.61706419397763
6.324478976,1.0001350726042053,-12.694398896234091
6.326764032,1.0002580331635245,-12.773541433624013
6.329049088,1.000365003641232,-12.854402189621556
6.331334144,1.000448960979893,-12.936696064304602
6.3336192,1.0005046859601017,-13.01997269295416
6.335904256,1.0005283634566347,-13.103824009655566
6.338189312,1.0005187271534441,-13.187848089968444
6.340474368,1.0004762150913715,-13.271472606653212
6.342759424,1.0004034563170392,-13.354239095269575
6.34504448,1.0003055275989265,-13.435786336639765
6.347329536,1.0001881881418717,-13.515761441840537
6.349614592,1.000059035698152,-13.593976624808228
6.351899648,0.9999266132454512,-13.67027991947569
6.354184704,0.9997990940577177,-13.744648205858963
6.35646976,0.999684877057325,-13.817322767244603
6.358754816,0.9995910519542476,-13.888461241240787
6.361039872,0.9995238385243533,-13.958397556314551
6.363324928,0.9994874263823822,-14.027611657104528
6.365609984,0.9994841303259293,-14.096537903850463
6.36789504,0.9995143870985167,-14.16562194850175
6.370180096,0.999575989451165,-14.235425805805097
6.372465152,0.9996651771214431,-14.306331672191666
6.374750208,0.9997762484071775,-14.378734788390325
6.377035264,0.9999019253283062,-14.4528509439265
6.37932032,1.000034331919187,-14.528883221859974
6.381605376,1.000165002204385,-14.6068211001858
6.383890432,1.000285462542987,-14.686587154987414
6.386175488,1.0003880382534462,-14.76801347814462
6.388460544,1.0004662009833125,-14.850746010640968
6.3907456,1.0005149510799614,-14.934437564709313
6.393030656,1.0005310283783988,-15.018607842997483
6.395315712,1.000513565103029,-15.102771894420545
6.397600768,1.0004635798537949,-15.18646271174933
6.399885824,1.0003844478930974,-15.269185812861691
6.40217088,1.00028086982834,-15.350629020075772
6.404455936,1.000159780646935,-15.430396448044396
6.406740992,1.000028694731954,-15.5083828349485
6.409026048,0.9998961847369082,-15.584394195486311
6.411311104,0.9997705599189398,-15.658549946385317
6.41359616,0.9996599868663233,-15.730985625259317
6.415881216,0.9995714518537251,-15.802019071142647
6.418166272,0.9995107767646148,-15.871913051030079
6.420451328,0.9994818503953844,-15.941145769839851
6.422736384,0.9994862784330351,-16.01023811099501
6.42502144,0.9995241608906161,-16.079649050261505
6.427306496,0.9995927320900945,-16.149864304671613
6.429591552,0.9996878575454076,-16.221238880753294
6.431876608,0.999803351608267,-16.294170680396764
6.434161664,0.999931757153954,-16.368876401110256
6.43644672,1.0000650857821123,-16.445539577659886
6.438731776,1.0001944920096586,-16.52410451677932
6.441016832,1.000311843054902,-16.604488347966246
6.443301888,1.000409741169852,-16.68644325026259
6.445586944,1.0004817904453864,-16.76969396079578
6.447872,1.0005233615102938,-16.853729679968186
6.450157056,1.0005318623756045,-16.93815307002439
6.452442112,1.0005065861663207,-17.02247333654641
6.454727168,1.0004494176492167,-17.106192605433037
6.457012224,1.0003637703741137,-17.18889674875397
6.45929728,1.0002552651554013,-17.270182005834677
6.461582336,1.0001306732722777,-17.349723085523458
6.463867392,0.9999979974962305,-17.427445125053644
6.466152448,0.9998657122786566,-17.503220811314364
6.468437504,0.99974247242303,-17.577135299560037
6.47072256,0.9996360658778723,-17.649394836263976
6.473007616,0.9995532087287456,-17.720288208721815
6.475292672,0.9994992960113118,-17.790152478679737
6.477577728,0.9994778286776581,-17.85949360367977
6.479862784,0.9994902061559918,-17.928791871875426
6.48214784,0.9995354504549189,-17.99849858505176
6.484432896,0.9996109223425537,-18.069096972950927
6.486717952,0.9997117635599488,-18.14096041976281
6.489003008,0.9998313125093048,-18.2144602748017
6.491288064,0.9999620813752449,-18.28985272826489
6.49357312,1.0000957478450694,-18.367117305104287
6.495858176,1.0002235674075954,-18.44634674301978
6.498143232,1.0003375516605677,-18.52726943015625
6.500428288,1.0004302540907735,-18.609798398471487
6.502713344,1.0004959170310603,-18.693475993895674
6.5049984,1.0005302848873834,-18.77786356319339
6.507283456,1.000530896788634,-18.862536823183888
6.509568512,1.0004980308691507,-18.946968986025812
6.511853568,1.0004336031821806,-19.03071521042283
6.514138624,1.0003417782443595,-19.11330232741028
6.51642368,1.000228534568594,-19.19443705414969
6.518708736,1.000100823178774,-19.27379113598524
6.520993792,0.9999670873065627,-19.351251093009846
6.523278848,0.9998356100450396,-19.426788845408694
6.525563904,0.9997152130020955,-19.500491504154795
6.52784896,0.9996131663155289,-19.57255892918321
6.530134016,0.9995363509609444,-19.64335710905719
6.532419072,0.9994894921983107,-19.71324452102499
6.534704128,0.9994756260690216,-19.782657607066206
6.536989184,0.9994957424061901,-19.852184206295217
6.53927424,0.9995485625059698,-19.922225615920684
6.541559808,0.9996305611694647,-19.99324362738601
6.543844864,0.9997367102915734,-20.06566759455368
6.54612992,0.9998600430370336,-20.139767627652283
6.548414976,0.9999927131123721,-20.21574374038655
6.550700032,1.0001261870046287,-20.293678428639264
6.552985088,1.0002521598824512,-20.373513762000623
6.555270144,1.0003622071403988,-20.455049513203708
6.5575552,1.0004495091982673,-20.53807369591187
6.559840256,1.0005084331967633,-20.622163058077362
6.562125312,1.000535197949128,-20.70689386769513
6.564410368,1.0005280673237291,-20.79178385998843
6.566695424,1.0004875277462322,-20.87629995264222
6.56898048,1.0004162689854919,-20.960036521161385
6.571265536,1.0003185697158028,-21.042525269683765
6.573550592,1.00020081728868,-21.12347353941393
6.575835648,1.000070561022101,-21.202620267077524
6.578120704,0.9999361495479251,-21.27982262708358
6.58040576,0.9998059626044241,-21.355119326188063
6.582690816,0.9996887352565776,-21.42859744152182
6.584975872,0.9995915909776246,-21.500534309743678
6.587260928,0.9995209144454886,-21.571233851827085
6.589545984,0.9994813510667637,-21.641150758949717
6.59183104,0.9994752840650862,-21.71073050461104
6.594116096,0.9995031865316186,-21.780479181687316
6.596401152,0.9995631061835268,-21.85087108958075
6.598686208,0.9996516143878151,-21.922347748164068
6.600971264,0.999762774421566,-21.99531821575176
6.60325632,0.999889399435209,-22.07000171769814
6.605541376,1.0000235616830568,-22.14662057019282
6.607826432,1.0001566183332433,-22.225160250979844
6.610111488,1.0002800814364803,-22.305666261485488
6.612396544,1.0003857975677148,-22.38778416069831
6.6146816,1.000467393892792,-22.471315338469136
6.616966656,1.0005195709020818,-22.555804774116268
6.619251712,1.0005386178642361,-22.64082890518814
6.621536768,1.0005237605201884,-22.725895971917012
6.623821824,1.0004755727764343,-22.810493751530142
6.62610688,1.0003975058965406,-22.89419998980838
6.628391936,1.00029420352388,-22.9766092092956
6.630676992,1.0001723816340495,-23.05733675631883
6.632962048,1.000040081382248,-23.136238762033827
6.635247104,0.9999053290668422,-23.213211413572314
6.63753216,0.999776832713345,-23.288274490648686
6.639817216,0.9996631272664463,-23.361559376807065
6.642102272,0.9995712742451073,-23.43334194511026
6.644387328,0.9995070833504412,-23.503993381989076
6.646672384,0.9994749715494443,-23.573969509156544
6.64895744,0.9994766582000905,-23.643681908116797
6.651242496,0.9995123731127605,-23.713699566575126
6.653527552,0.999579544780092,-23.78447475407208
6.655812608,0.9996739892866365,-23.856457281830455
6.658097664,0.999789791494315,-23.92997845744012
6.66038272,0.9999193663231585,-24.005277950654754
6.662667776,1.0000546376969397,-24.082556416357473
6.664952832,1.000186647762237,-24.16177622623643
6.667237888,1.000307130112341,-24.242849229807806
6.669522944,1.000408353463603,-24.325543131453408
6.671808,1.0004839257988656,-24.40952752992342
6.674093056,1.0005287563092307,-24.494411566058936
6.676378112,1.000540230902486,-24.579702925404273
6.678663168,1.0005176069171142,-24.664929257209106
6.680948224,1.000462052800811,-24.74964186112946
6.68323328,1.0003773190604557,-24.833261611011334
6.685518336,1.0002688468750305,-24.915520733138873
6.687803392,1.0001433376333217,-24.996081088384013
6.690088448,1.0000091151318116,-25.07474808881706
6.692373504,0.9998744948384678,-25.151461803587335
6.69465856,0.9997483493365454,-25.226291823868547
6.696943616,0.9996385380034161,-25.299364992927472
6.699228672,0.9995521777922798,-25.371017566911355
6.701513728,0.9994948561846435,-25.441666353662736
6.703798784,0.9994701960863023,-25.51169264024346
6.70608384,0.9994799446163238,-25.581620174628707
6.708368896,0.9995231189049276,-25.651933030500228
6.710653952,0.9995973727720635,-25.72313716452635
6.712939008,0.9996977179458476,-25.795600867973214
6.715224064,0.9998178008534793,-25.869692577249232
6.71750912,0.9999499026342301,-25.945648496243624
6.719794176,1.000085600557685,-26.023520195896033
6.722079232,1.0002163165109503,-26.103389199613876
6.724364288,1.0003334360323228,-26.18506340551028
6.726649344,1.0004297983017507,-26.268316026747204
6.7289344,1.0004988295745942,-26.352800957208323
6.731219456,1.000536433045468,-26.43803451235742
6.733504512,1.0005400207029467,-26.5235988317499
6.735789568,1.0005095582087107,-26.6089624483973
6.738074624,1.0004466646660148,-26.693674534397623
6.74035968,1.0003555357588751,-26.777247829479485
6.742644736,1.0002421740978475,-26.859380582368924
6.744929792,1.0001135037477513,-26.939687433099326
6.747214848,0.9999777915283681,-27.018108164998228
6.749499904,0.9998439679143941,-27.094579451788164
6.75178496,0.9997202681447143,-27.169182254175553
6.754070016,0.9996147996533371,-27.242099172286416
6.756355072,0.9995345637117545,-27.313661257024506
6.75864064,0.9994842795199269,-27.384276148247533
6.760925696,0.9994671338079607,-27.454414457469007
6.763210752,0.9994846928849185,-27.524562921623293
6.765495808,0.9995355919015301,-27.595206307930813
6.767780864,0.9996165872518341,-27.66682560742857
6.77006592,0.9997224050747103,-27.739808608465435
6.772350976,0.9998464050868581,-27.814501733482732
6.774636032,0.9999807032631033,-27.891092794294952
6.776921088,1.0001165386387747,-27.969667653138583
6.779206144,1.0002453634121475,-28.050111402170604
6.7814912,1.0003588306953275,-28.132414013453445
6.783776256,1.0004496142921773,-28.21620779322303
6.786061312,1.000512163321245,-28.301097220326803
6.788346368,1.000542284424931,-28.386707804904333
6.790631424,1.0005380118655551,-28.472505074237652
6.79291648,1.0004998253680717,-28.557990033677466
6.795201536,1.0004297795562522,-28.64270587146654
6.797486592,1.0003326922667228,-28.726168893735988
6.799771648,1.000214682710805,-28.808111967015236
6.802056704,1.0000830633067626,-28.88827195499381
6.80434176,0.9999464994802552,-28.966440900587497
6.806626816,0.9998136595603706,-29.04262804132131
6.808911872,0.9996931128820266,-29.11703291589242
6.811196928,0.9995925114225009,-29.189763384775357
6.813481984,0.9995182018525296,-29.261237841017266
6.81576704,0.9994751551516712,-29.331889324763154
6.818052096,0.999465932675949,-29.402158185793393
6.820337152,0.9994913990645978,-29.472544296303866
6.822622208,0.999549772458501,-29.54352466005493
6.824907264,0.999637292415658,-29.615628659796673
6.82719232,0.999748335222809,-29.689159839069255
6.829477376,0.9998759091241296,-29.764441314612387
6.831762432,1.0000117718025043,-29.84166297412295
6.834047488,1.0001473764122013,-29.92086822954804
6.836332544,1.0002738689380892,-30.002044596510697
6.8386176,1.0003832542328952,-30.084885870280846
6.840902656,1.0004684161140784,-30.169184954469664
6.843187712,1.000524010506944,-30.254513616274533
6.845472768,1.000546515479742,-30.340418817486082
6.847757824,1.0005343597369933,-30.42642131168189
6.85004288,1.0004885018079288,-30.51201081279017
6.852327936,1.0004113862513213,-30.596711674622938
6.854612992,1.0003085522036612,-30.680103063526655
6.856898048,1.0001862883080186,-30.761858119966924
6.859183104,1.0000523207151173,-30.841748470086994
6.86146816,0.9999153355936592,-30.91967656893667
6.863753216,0.9997840246118984,-30.995669141623452
6.866038272,0.9996667809830739,-31.069820632449574
6.868323328,0.9995713871376948,-31.142428333711067
6.870608384,0.9995035212178777,-31.21382969538543
6.87289344,0.9994679293226513,-31.28454630747941
6.875178496,0.9994666041228928,-31.35494033441922
6.877463552,0.9994997103562642,-31.42559875754598
6.879748608,0.9995654492109213,-31.496978819698548
6.882033664,0.9996593052785149,-31.569554950280754
6.88431872,0.9997752741842774,-31.643660042506177
6.886603776,0.9999060186712257,-31.71956033175602
6.888888832,1.0000431348920873,-31.797442308047483
6.891173888,1.0001778935540726,-31.877314241043848
6.893458944,1.0003015903425152,-31.959085871168416
6.895744,1.0004064488560998,-32.04252372332425
6.898029056,1.0004856107970608,-32.127335219740495
6.900314112,1.0005341632154785,-32.213070459585005
6.902599168,1.000548958364174,-32.299260362070115
6.904884224,1.0005288102377166,-32.385452970920326
6.90716928,1.0004752186860468,-32.47109306812353
6.909454336,1.0003915945970152,-32.55576333217701
