freq,mag,phase
6.0,0.9999901036000134,67.84142672997177
6.008,0.999991563192043,67.68531929055705
6.016,0.9999929755347949,67.52918980521814
6.024,0.9999943413347231,67.37303825908802
6.032,0.9999956612937672,67.21686463726603
6.04,0.9999969361093503,67.06066892481901
6.048,0.9999981664743789,66.90445110678237
6.056,0.9999993530772381,66.74821116816128
6.064,0.9999999999999999,66.59194909393156
6.072,0.9999999999999998,66.43566486904108
6.08,1.0,66.27935847841057
6.088,1.0,66.12302990693492
6.096,1.0,65.96667913948419
6.104,1.0,65.81030616090473
6.112,1.0,65.65391095602031
6.12,1.0,65.49749350963319
6.128,1.0,65.34105380652521
6.136,1.0,65.18459183145896
6.144,0.9999999999999999,65.02810756917884
6.152,1.0,64.87160100441216
6.16,1.0,64.71507212187024
6.168,1.0,64.5585209062496
6.176,1.0,64.40194734223296
6.184,0.9999999999999999,64.24535141449043
6.192,1.0,64.08873310768057
6.2,1.0,63.9320924064515
6.208,1.0,63.77542929544209
6.216,1.0,63.618743759283
6.224,0.9999999999999999,63.462035782597795
6.232,1.0,63.30530535000407
6.24,1.0,63.148552446114664
6.248,1.0,62.9917770555386
6.256,0.9999999999999999,62.83497916288231
6.264,1.0000000000000002,62.6781587527508
6.272,1.0,62.521315809748664
6.28,1.0,62.36445031848132
6.288,0.9999999999999999,62.20756226355601
6.296,1.0000000000000002,62.05065162958302
6.304,1.0,61.8937184011768
6.312,0.9999999999999999,61.736762562957054
6.32,1.0,61.57978409954992
6.328,1.0,61.42278299558904
6.336,1.0,61.265759235716764
6.344,0.9999999999999999,61.10871280458524
6.352,0.9999999999999999,60.95164368685754
6.36,0.9999999999999999,60.794551867208895
6.368,1.0,60.637437330327714
6.376,0.9999999999999999,60.48030006091679
6.384,0.9999999999999999,60.323140043694444
6.392,0.9999999999999999,60.16595726339569
6.4,1.0,60.00875170477334
6.408,1.0,59.851523352599166
6.416,0.9999999999999999,59.69427219166511
6.424,1.0,59.53699820678435
6.432,1.0,59.37970138279254
6.44,0.9999999999999998,59.222381704548944
6.448,1.0,59.065039156937594
6.456,1.0,58.90767372486841
6.464,1.0,58.75028539327849
6.472,0.9999999999999999,58.59287414713316
6.48,1.0,58.43543997142726
6.4879999999999995,1.0,58.277982851186174
6.496,1.0,58.12050277146712
6.504,1.0,57.96299971736039
6.5120000000000005,0.9999999999999999,57.805473673990306
6.52,1.0,57.64792462651674
6.5280000000000005,0.9999999999999999,57.490352560135925
6.536,1.0,57.33275746008203
6.5440000000000005,0.9999999999999999,57.175139311628044
6.552,0.9999999999999999,57.01749810008724
6.5600000000000005,1.0,56.85983381081408
6.568,1.0,56.70214642920581
6.5760000000000005,1.0,56.544435940703245
6.584,1.0,56.38670233079238
6.592,1.0,56.228945585005306
6.6,0.9999999999999999,56.07116568892161
6.608,1.0,55.91336262816954
6.616,1.0,55.75553638842724
6.624,0.9999999999999999,55.597686955423974
6.632,1.0,55.43981431494145
6.64,0.9999999999999999,55.28191845281491
6.648,0.9999999999999999,55.1239993549345
6.656,0.9999999999999999,54.96605700724651
6.664,0.9999999999999999,54.80809139575457
6.672,1.0,54.650102506520945
6.68,1.0,54.49209032566784
6.688,1.0,54.3340548393786
6.696,1.0,54.17599603389902
6.704,1.0,54.01791389553862
6.712,1.0,53.859808410671974
6.72,0.9999999999999998,53.701679565739894
6.728,1.0,53.54352734725083
6.736,1.0,53.385351741782145
6.744,0.9999999999999999,53.227152735981356
6.752,0.9999999999999999,53.06893031656753
6.76,1.0,52.91068447033253
6.768,1.0,52.75241518414239
6.776,0.9999999999999998,52.59412244493866
6.784,0.9999996433372756,52.43580623973963
6.792,0.9999991408877235,52.277466555641766
6.8,0.9999986388953622,52.119103379821055
6.808,0.9999981376245859,51.96071669953428
6.816,0.9999976373353903,51.802306502120466
6.824,0.9999971382833769,51.64387277500218
6.832,0.9999966407197588,51.48541550568692
6.84,0.9999961448913657,51.326934681768485
6.848,0.9999956510406491,51.16843029092839
6.856,0.9999951594056886,51.00990232093718
6.864,0.9999946702201953,50.85135075965591
6.872,0.9999941837135203,50.692775595037496
6.88,0.9999937001106587,50.53417681512811
6.888,0.9999932196322558,50.37555440806866
6.896,0.9999927424946146,50.2169083620961
6.904,0.9999922689096985,50.058238665544984
6.912,0.9999917990851421,49.89954530684884
6.92,0.9999913332242549,49.74082827454159
6.928,0.9999908715260282,49.582087557259044
6.936,0.9999904141851438,49.42332314374028
6.944,0.999989961391978,49.26453502282926
6.952,0.9999895133326104,49.10572318347617
6.96,0.9999890701888321,48.946887614738905
6.968,0.9999886321381506,48.78802830578462
6.976,0.9999881993537999,48.62914524589115
6.984,0.999987772004747,48.470238424448624
6.992,0.999987350255699,48.31130783096083
7.0,0.9999869342671135,48.15235345504685
7.008,0.9999865241952055,47.9933752864425
7.016,0.9999861201919544,47.83437331500196
7.024,0.9999857224051165,47.675347530699185
7.032,0.99998533097823,47.516297923629615
7.04,0.9999849460506265,47.35722448401157
7.048,0.9999845677574382,47.1981272021879
7.056,0.9999841962296097,47.03900606862758
7.064,0.9999838315939067,46.87986107392725
7.072,0.999983473972925,46.72069220881278
7.08,0.9999831234851012,46.56149946414092
7.088,0.9999827802447242,46.402282830900916
7.096,0.9999824443619422,46.24304230021606
7.104,0.9999821159427791,46.08377786334538
7.112,0.9999817950891402,45.92448951168519
7.12,0.9999814818988276,45.76517723677083
7.128,0.9999811764655471,45.605841030278235
7.136,0.9999808788789245,45.446480884025654
7.144,0.9999805892245164,45.28709678997523
7.152,0.9999803075838187,45.127688740234795
7.16,0.9999800340342868,44.9682567270594
7.168,0.9999797686493401,44.80880074285312
7.176,0.9999795114983809,44.649320780170775
7.184,0.9999792626468055,44.489816831719466
7.192,0.999979022156019,44.330288890360485
7.2,0.9999787900834478,44.17073694911094
7.208,0.9999785664825548,44.01116100114551
7.216,0.9999783514028533,43.85156103979815
7.224,0.9999781448899251,43.69193705856388
7.232,0.9999779469854302,43.53228905110054
7.24,0.9999777577271295,43.37261701123047
7.248,0.9999775771488919,43.212920932942446
7.256,0.9999774052807185,43.05320081039332
7.264,0.9999772421487568,42.893456637909786
7.272,0.9999770877753139,42.73368840999039
7.28,0.9999769421788809,42.573896121307
7.288,0.9999768053741438,42.41407976670695
7.296,0.9999766773720079,42.254239341214536
7.304,0.9999765581796087,42.09437484003316
7.312,0.9999764478003397,41.93448625854688
7.32,0.999976346233865,41.77457359232244
7.328,0.9999762534761402,41.61463683711102
7.336,0.9999761695194369,41.45467598885004
7.344,0.999976094352356,41.29469104366522
7.352,0.9999760279598561,41.13468199787218
7.36,0.9999759703232705,40.97464884797842
7.368,0.9999759214203294,40.81459159068532
7.376,0.9999758812251831,40.65451022288981
7.384,0.9999758497084266,40.494404741686324
7.392,0.9999758268371198,40.33427514436871
7.4,0.9999758125748117,40.17412142843218
7.4079999999999995,0.999975806881567,40.013943591575135
7.416,0.999975809713989,39.85374163170096
7.4239999999999995,0.9999758210252455,39.693515546920146
7.432,0.9999758407650945,39.533265335551995
7.4399999999999995,0.99997586887991,39.37299099612677
7.448,0.9999759053127101,39.21269252738729
7.4559999999999995,0.9999759500031837,39.052369928291114
7.464,0.9999760028877182,38.892023198012296
7.4719999999999995,0.9999760638994266,38.731652335943465
7.48,0.9999761329681819,38.57125734169747
7.4879999999999995,0.9999762100206407,38.41083821510958
7.496,0.9999762949802755,38.250394956239255
7.504,0.9999763877674086,38.08992756537209
7.5120000000000005,0.9999764882992371,37.92943604302175
7.52,0.9999765964898717,37.76892038993182
7.5280000000000005,0.9999767122503667,37.6083806070778
7.536,0.9999768354887499,37.44781669566899
7.5440000000000005,0.9999769661100631,37.28722865715037
7.552,0.9999771040163917,37.12661649320449
7.5600000000000005,0.9999772491069017,36.965980205753354
7.568,0.9999774012778753,36.80531979696057
7.5760000000000005,0.9999775604227472,36.64463526923274
7.584,0.9999777264321448,36.48392662522175
7.5920000000000005,0.9999778991939202,36.32319386782648
7.6,0.9999780785931941,36.16243700019485
7.6080000000000005,0.9999782645123934,36.00165602572525
7.616,0.9999784568312895,35.840850948068926
7.6240000000000006,0.9999786554270436,35.68002177113135
7.632,0.999978860174242,35.51916849907445
7.640000000000001,0.9999790709449441,35.358291136318044
7.648,0.9999792876087209,35.19738968754204
7.656000000000001,0.9999795100327022,35.03646415768775
7.664,0.9999797380816187,34.87551455196018
7.672,0.9999799716178485,34.71454087582933
7.68,0.9999802105014617,34.55354313503231
7.688,0.9999804545902691,34.39252133557478
7.696,0.9999807037398677,34.23147548373282
7.704,0.9999809578036906,34.07040558605461
7.712,0.9999812166330543,33.90931164936207
7.72,0.9999814800772115,33.74819368075244
7.728,0.9999817479833992,33.58705168759999
7.736,0.9999820201968902,33.42588567755766
7.744,0.9999822965610474,33.26469565855851
7.752,0.9999825769173745,33.10348163881742
7.76,0.9999828611055719,32.94224362683247
7.768,0.9999831489635906,32.780981631386524
7.776,0.9999834403276868,32.61969566154876
7.784,0.9999837350324805,32.458385726675914
7.792,0.9999840329110101,32.29705183641393
7.8,0.999984333794793,32.1356940006991
7.808,0.9999846375138817,31.974312229759565
7.816,0.9999849438969253,31.81290653411665
7.824,0.9999852527712301,31.65147692458589
7.832,0.99998556396282,31.49002341227859
7.84,0.9999858772964988,31.328546008602718
7.848,0.999986192595913,31.167044725264294
7.856,0.9999865096836162,31.005519574268323
7.864,0.9999868283811335,30.843970567919964
7.872,0.9999871485090254,30.682397718825534
7.88,0.9999874698869569,30.52080103989339
7.888,0.9999877923337613,30.359180544334972
7.896,0.9999881156675108,30.19753624566565
7.904,0.9999884397055829,30.03586815770548
7.912,0.9999887642647305,29.874176294580092
7.92,0.9999890891611525,29.712460670721246
7.928,0.9999894142105644,29.550721300867668
7.936,0.9999897392282694,29.388958200065527
7.944,0.9999900640292312,29.227171383669063
7.952,0.9999903884281476,29.06536086734098
7.96,0.9999907122395232,28.90352666705299
7.968,0.9999910352777454,28.74166879908605
7.976,0.999991357357158,28.579787280030743
7.984,0.999991678292139,28.417882126787458
7.992,0.9999919978971753,28.25595335656657
8.0,0.9999923159869414,28.09400098688852
8.008,0.9999926323763766,27.932025035583848
8.016,0.9999929468807638,27.770025520793062
8.024000000000001,0.999993259315808,27.60800246096663
8.032,0.999993569497717,27.445955874864726
8.04,0.9999938772432814,27.283885781556847
8.048,0.999994182369954,27.121792200421517
8.056000000000001,0.999994484695933,26.959675151145905
8.064,0.9999947840402426,26.797534653725265
8.072,0.9999950802228157,26.63537072846216
8.08,0.9999953730645763,26.47318339596595
8.088000000000001,0.9999956623875235,26.31097267715195
8.096,0.9999959480148131,26.148738593240566
8.104,0.9999962297708431,25.986481165756246
8.112,0.9999965074813378,25.824200416526367
8.120000000000001,0.9999967809734314,25.66189636768037
8.128,0.9999970500757523,25.499569041648265
8.136,0.99999731461851,25.33721846115922
8.144,0.9999975744335784,25.174844649240278
8.152000000000001,0.9999978293545816,25.01244762921478
8.16,0.9999980792169801,24.850027424700762
8.168,0.9999983238581549,24.687584059608945
8.176,0.9999985631174937,24.525117558141215
8.184000000000001,0.9999987968364767,24.362627944788475
8.192,0.9999990248587617,24.200115244328707
8.2,0.9999992470302698,24.037579481824615
8.208,0.9999994631992704,23.875020682621432
8.216000000000001,0.9999996732164658,23.71243887234468
8.224,0.999999876935078,23.549834076897476
8.232,0.9999999999999999,23.38720632245797
8.24,1.0,23.22455563547668
8.248000000000001,1.0,23.061882042673606
8.256,1.0,22.899185571035343
8.264,1.0,22.736466247811993
8.272,0.9999999999999999,22.573724100513843
8.280000000000001,0.9999999999999999,22.41095915690835
8.288,0.9999999999999999,22.248171445016673
8.296,0.9999999999999999,22.085360993109816
8.304,1.0,21.922527829705473
8.312,0.9999999999999999,21.759671983564058
8.32,1.0,21.59679348368468
8.328,0.9999999999999998,21.433892359301492
8.336,0.9999999999999999,21.27096863987926
8.344,1.0,21.108022355109384
8.352,0.9999999999999999,20.945053534905448
8.36,1.0,20.78206220939888
8.368,0.9999999999999999,20.619048408934166
8.376,1.0,20.456012164064447
8.384,0.9999999999999999,20.292953505546443
8.392,0.9999999999999999,20.129872464335985
8.4,1.0,19.966769071582416
8.408,0.9999999999999999,19.803643358623965
8.416,1.0000000000000002,19.640495356982143
8.424,0.9999999999999999,19.477325098356665
8.432,1.0,19.314132614620004
8.44,1.0,19.150917937811556
8.448,0.9999999999999999,18.98768110013209
8.456,1.0,18.824422133938302
8.464,0.9999999999999999,18.661141071736395
8.472,0.9999999999999999,18.497837946176688
8.48,1.0,18.334512790046983
8.488,0.9999999999999999,18.17116563626703
8.496,0.9999999999999999,18.007796517881513
8.504,1.0,17.84440546805458
8.512,0.9999999999999999,17.680992520062723
8.52,1.0,17.51755770728853
8.528,1.0,17.354101063214404
8.536,1.0,17.19062262141505
8.544,1.0,17.027122415551688
8.552,0.9999999999999999,16.86360047936477
8.56,0.9999999999999999,16.700056846667064
8.568,0.9999999999999999,16.536491551336553
8.576,1.0,16.372904627310092
8.584,1.0,16.209296108575646
8.592,1.0,16.045666029165364
8.6,1.0,15.882014423148448
8.608,1.0,15.718341324624179
8.616,0.9999999960584106,15.554646767713978
8.624,0.9999997760185722,15.390930786554996
8.632,0.9999995472690602,15.227193415292025
8.64,0.9999993098871905,15.063434688070458
8.648,0.9999990639555371,14.899654639028858
8.656,0.9999988095619262,14.735853302291673
8.664,0.9999985467994157,14.572030711961483
8.672,0.9999982757662877,14.40818690211188
8.68,0.999997996566024,14.244321906779943
8.688,0.9999977093072842,14.080435759958721
8.696,0.9999974141038807,13.9165284955899
8.704,0.9999971110747494,13.752600147556171
8.712,0.9999968003439152,13.58865074967421
8.72,0.9999964820404615,13.424680335686869
8.728,0.9999961562984836,13.260688939256067
8.736,0.9999958232570537,13.096676593955294
8.744,0.9999954830601704,12.932643333262558
8.752,0.9999951358567108,12.76858919055282
8.76,0.9999947818003784,12.604514199090952
8.768,0.9999944210496489,12.440418392024604
8.776,0.9999940537677086,12.276301802377276
8.784,0.9999936801223936,12.11216446304065
8.792,0.9999933002861249,11.948006406768554
8.8,0.9999929144358375,11.783827666169172
8.808,0.9999925227529108,11.619628273698957
8.815999999999999,0.9999921254230908,11.455408261655533
8.824,0.9999917226364162,11.291167662171253
8.832,0.9999913145871289,11.1269065072062
8.84,0.9999909014735989,10.962624828542815
8.847999999999999,0.9999904834982304,10.798322657778291
8.856,0.999990060867371,10.634000026319368
8.864,0.9999896337912209,10.469656965375798
8.872,0.999989202483735,10.305293505954383
8.879999999999999,0.9999887671625236,10.140909678853694
8.888,0.9999883280487475,9.976505514657195
8.896,0.9999878853670185,9.81208104372936
8.904,0.9999874393452842,9.647636296208692
8.911999999999999,0.9999869902147234,9.483171302003313
8.92,0.9999865382096302,9.318686090785985
8.928,0.9999860835673001,9.154180691988632
8.936,0.9999856265279111,8.989655134798245
8.943999999999999,0.9999851673344011,8.825109448151338
8.952,0.9999847062323519,8.660543660730557
8.96,0.9999842434698535,8.495957800959694
8.968,0.9999837792973894,8.331351897000117
8.975999999999999,0.9999833139676986,8.166725976746566
8.984,0.99998284773565,8.002080067823742
8.992,0.9999823808581069,7.837414197582427
9.0,0.9999819135937937,7.672728393096607
9.008,0.9999814462031579,7.508022681160209
9.016,0.999980978948234,7.343297088283816
9.024000000000001,0.9999805120925086,7.178551640693092
9.032,0.9999800459007718,7.013786364325167
9.04,0.9999795806389808,6.849001284826663
9.048,0.9999791165741151,6.684196427552029
9.056000000000001,0.9999786539740354,6.519371817561314
9.064,0.9999781931073365,6.354527479618829
9.072,0.9999777342432015,6.18966343819166
9.08,0.9999772776512579,6.024779717448307
9.088000000000001,0.9999768236014249,5.85987634125768
9.096,0.999976372363779,5.694953333189317
9.104,0.9999759242083917,5.530010716511447
9.112,0.9999754794051885,5.365048514191496
9.120000000000001,0.9999750382238052,5.200066748896376
9.128,0.999974600933429,5.035065442991901
9.136,0.9999741678026646,4.870044618543543
9.144,0.9999737390993729,4.7050042973171315
9.152000000000001,0.9999733150905338,4.53994450077967
9.16,0.9999728960420945,4.374865250100201
9.168,0.9999724822188246,4.209766566151444
9.176,0.9999720738841711,4.044648469510991
9.184000000000001,0.9999716713001164,3.879510980463498
9.192,0.9999712747270246,3.7143541190019476
9.2,0.9999708844235135,3.5491779048305983
9.208,0.9999705006463006,3.3839823573668633
9.216000000000001,0.9999701236500708,3.2187674957442973
9.224,0.9999697536873315,3.053533338814916
9.232,0.9999693910082804,2.8882799051528645
9.24,0.9999690358606655,2.7230072130569885
9.248000000000001,0.9999686884896548,2.5577152805549517
9.256,0.9999683491377004,2.3924041254064163
9.264,0.9999680180444105,2.227073765107074
9.272,0.9999676954464203,2.0617242168925367
9.280000000000001,0.9999673815772642,1.8963554977427752
9.288,0.9999670766672515,1.7309676243862813
9.296,0.9999667809433492,1.5655606133049487
9.304,0.999966494629056,1.4001344807385605
9.312000000000001,0.9999662179442881,1.2346892426898257
9.32,0.9999659511052641,1.0692249149297508
9.328,0.9999656943243936,0.903741513002382
9.336,0.9999654478101665,0.7382390522306916
9.344,0.9999652117670479,0.5727175477219987
9.352,0.9999649863953717,0.4071770143736734
9.36,0.9999647718912446,0.24161746687915173
9.368,0.9999645684464391,0.07603891973369846
9.376,0.999964376248309,-0.0895586127590941
9.384,0.9999641954796925,-0.25517511648139435
9.392,0.9999640263188192,-0.4208105774944376
9.4,0.9999638689392346,-0.5864649820320517
9.408,0.9999637235097064,-0.7521383164943526
9.416,0.9999635901941536,-0.9178305674404735
9.424,0.9999634691515648,-1.0835417215823173
9.432,0.9999633605359344,-1.2492717657770296
9.44,0.9999632644961827,-1.4150206870204793
9.448,0.999963181176095,-1.5807884724400387
9.456,0.9999631107142615,-1.7465751092871664
9.464,0.9999630532440144,-1.9123805849305915
9.472,0.9999630088933784,-2.0782048868484577
9.48,0.9999629777850093,-2.2440480026217426
9.488,0.9999629600361538,-2.4099099199259992
9.496,0.999962955758602,-2.575790626524599
9.504,0.9999629650586453,-2.741690110260744
9.512,0.9999629880370399,-2.9076083590502297
9.52,0.9999630247889693,-3.0735453608738204
9.528,0.999963075404017,-3.2395011037697516
9.536,0.9999631399661406,-3.4054755758258
9.544,0.99996321855364,-3.5714687651722334
9.552,0.9999633112391472,-3.7374806599736767
9.56,0.9999634180895999,-3.9035112484219536
9.568,0.9999635391662366,-4.069560518728106
9.576,0.9999636745245792,-4.235628459115164
9.584,0.9999638242144316,-4.401715057810274
9.592,0.9999639882798732,-4.567820303037403
9.6,0.9999641667592606,-4.733944183009659
9.608,0.9999643596852299,-4.900086685921994
9.616,0.9999645670847024,-5.066247799943532
9.624,0.9999647889788978,-5.2324275132104185
9.632,0.9999650253833433,-5.398625813818296
9.64,0.9999652763078902,-5.564842689815148
9.648,0.9999655417567365,-5.731078129193957
9.656,0.9999658217284462,-5.897332119885618
9.664,0.9999661162159704,-6.063604649751806
9.672,0.9999664252066865,-6.2298957065780005
9.68,0.9999667486824168,-6.396205278066377
9.688,0.9999670866194708,-6.562533351829195
9.696,0.9999674389886773,-6.7288799153817145
9.704,0.9999678057554248,-6.895244956135808
9.712,0.9999681868797061,-7.061628461392949
9.72,0.999968582316156,-7.228030418338214
9.728,0.9999689920141062,-7.394450814033313
9.736,0.9999694159176287,-7.560889635410783
9.744,0.9999698539655894,-7.727346869267324
9.752,0.9999703060917039,-7.8938225022580975
9.76,0.9999707722245909,-8.060316520890357
9.768,0.999971252287833,-8.226828911517924
9.776,0.9999717462000374,-8.393359660335019
9.784,0.9999722538748946,-8.559908753371078
9.792,0.9999727752212485,-8.726476176484741
9.8,0.9999733101431585,-8.89306191535886
9.808,0.999973858539971,-9.059665955494825
