freq,mag,phase
6.0,0.9999996494668189,137.6368510025173
6.008,0.9999997597389289,137.57880630442548
6.016,0.9999998674078048,137.52075599920977
6.024,0.9999999724960037,137.46270007275413
6.032,0.9999999999999999,137.40463851096104
6.04,1.0,137.34657129975156
6.048,0.9999999999999999,137.28849842506528
6.056,1.0,137.23041987286032
6.064,1.0,137.1723356291132
6.072,1.0,137.11424567981902
6.08,1.0,137.05615001099116
6.088,1.0,136.99804860866152
6.096,1.0,136.93994145888027
6.104,1.0,136.88182854771597
6.112,1.0,136.8237098612555
6.12,1.0,136.765585385604
6.128,1.0,136.70745510688482
6.136,0.9999999999999999,136.6493190112396
6.144,1.0,136.59117708482813
6.152,1.0,136.53302931382842
6.16,1.0,136.4748756844365
6.168,1.0,136.41671618286657
6.176,1.0,136.35855079535088
6.184,0.9999999999999999,136.30037950813968
6.192,1.0,136.24220230750126
6.2,0.9999999999999999,136.1840191797219
6.208,1.0,136.1258301111057
6.216,0.9999999999999999,136.06763508797476
6.224,1.0,136.009434096669
6.232,1.0,135.95122712354618
6.24,1.0,135.89301415498176
6.248,0.9999999999999999,135.83479517736916
6.256,1.0,135.77657017711928
6.264,1.0,135.71833914066087
6.272,0.9999999999999999,135.6601020544403
6.28,0.9999999999999999,135.6018589049214
6.288,0.9999999999999999,135.54360967858582
6.296,1.0000000000000002,135.4853543619325
6.304,0.9999999999999999,135.42709294147807
6.312,1.0,135.3688254037564
6.32,1.0,135.31055173531897
6.328,0.9999999999999999,135.25227192273454
6.336,0.9999999999999999,135.19398595258923
6.344,0.9999999999999999,135.13569381148636
6.352,0.9999999999999998,135.0773954860467
6.36,1.0,135.01909096290802
6.368,1.0,134.9607802287254
6.376,1.0,134.90246327017093
6.384,1.0,134.84414007393386
6.392,0.9999999999999999,134.7858106267205
6.4,0.9999999999999999,134.72747491525408
6.408,1.0,134.6691329262748
6.416,1.0,134.61078464653986
6.424,1.0,134.55243006282313
6.432,1.0,134.4940691619155
6.44,1.0,134.4357019306245
6.448,1.0,134.37732835577444
6.456,1.0,134.31894842420633
6.464,0.9999999999999999,134.26056212277774
6.472,1.0,134.2021694383629
6.48,1.0,134.14377035785247
6.4879999999999995,0.9999999999999999,134.0853648681538
6.496,0.9999999999999999,134.02695295619043
6.504,1.0,133.96853460890247
6.5120000000000005,0.9999999999999999,133.91010981324635
6.52,1.0,133.8516785561947
6.5280000000000005,1.0,133.79324082473653
6.536,1.0000000000000002,133.73479660587697
6.5440000000000005,0.9999999999999998,133.67634588663725
6.552,1.0,133.6178886540548
6.5600000000000005,1.0,133.559424895183
6.568,0.9999999999999999,133.5009545970913
6.5760000000000005,1.0,133.44247774686502
6.584,1.0,133.3839943316054
6.592,0.9999999999999999,133.32550433842954
6.6,1.0,133.26700775447026
6.608,1.0,133.20850456687612
6.616,1.0000000000000002,133.14999476281142
6.624,1.0,133.091478329456
6.632,0.9999999999999999,133.03295525400537
6.64,1.0,132.97442552367042
6.648,0.9999999999999999,132.91588912567764
6.656,1.0,132.85734604726878
6.664,0.9999999999999999,132.79879627570102
6.672,1.0,132.74023979824682
6.68,1.0,132.68167660219387
6.688,1.0,132.6231066748451
6.696,1.0,132.56453000351843
6.704,1.0,132.50594657554697
6.712,1.0,132.44735637827876
6.72,0.9999999999999999,132.38875939907686
6.728,1.0,132.33015562531915
6.736,0.9999999999999999,132.27154504439844
6.744,1.0,132.21292764372222
6.752,1.0,132.15430341071277
6.76,1.0,132.09567233280706
6.768,1.0,132.03703439745655
6.776,1.0,131.97838959212731
6.784,1.0,131.9197379043
6.792,1.0,131.8610793214695
6.8,0.9999999999999999,131.8024138311452
6.808,1.0,131.74374142085085
6.816,1.0000000000000002,131.6850620781243
6.824,1.0,131.62637579051767
6.832,1.0,131.56768254559725
6.84,1.0,131.50898233094333
6.848,1.0,131.45027513415022
6.856,0.9999999999999999,131.39156094282626
6.864,1.0,131.33283974459363
6.872,0.9999999815414464,131.27411152708834
6.88,0.9999999014272797,131.2153762779602
6.888,0.9999998201657789,131.15663398487274
6.896,0.9999997377649021,131.09788463550305
6.904,0.9999996542325953,131.039128217542
6.912,0.9999995695767931,130.9803647186938
6.92,0.9999994838054237,130.92159412667635
6.928,0.9999993969264105,130.8628164292208
6.936,0.9999993089476757,130.8040316140717
6.944,0.9999992198771425,130.74523966898693
6.952,0.9999991297227393,130.6864405817376
6.96,0.9999990384924002,130.62763434010805
6.968,0.9999989461940714,130.56882093189566
6.976,0.9999988528357115,130.51000034491096
6.984,0.999998758425296,130.4511725669775
6.992,0.9999986629708196,130.39233758593173
7.0,0.9999985664802997,130.33349538962295
7.008,0.99999846896178,130.27464596591346
7.016,0.9999983704233333,130.21578930267827
7.024,0.9999982708730639,130.1569253878051
7.032,0.999998170319113,130.09805420919437
7.04,0.9999980687696594,130.03917575475913
7.048,0.9999979662329247,129.98029001242497
7.056,0.9999978627171769,129.9213969701301
7.064,0.9999977582307314,129.86249661582505
7.072,0.9999976527819577,129.80358893747285
7.08,0.9999975463792808,129.74467392304888
7.088,0.9999974390311851,129.68575156054087
7.096,0.9999973307462183,129.6268218379488
7.104,0.9999972215329946,129.56788474328476
7.112,0.9999971114001993,129.5089402645732
7.12,0.9999970003565914,129.44998838985055
7.128,0.9999968884110078,129.3910291071654
7.136,0.9999967755723671,129.33206240457832
7.144,0.9999966618496736,129.27308827016188
7.152,0.9999965472520211,129.21410669200063
7.16,0.9999964317885968,129.15511765819105
7.168,0.9999963154686846,129.0961211568414
7.176,0.9999961983016712,129.03711717607192
7.184,0.9999960802970469,128.9781057040145
7.192,0.9999959614644133,128.91908672881283
7.2,0.9999958418134844,128.8600602386224
7.208,0.9999957213540935,128.80102622161033
7.216,0.999995600096195,128.7419846659555
7.224,0.9999954780498709,128.68293555984826
7.232,0.9999953552253331,128.6238788914908
7.24,0.9999952316329301,128.5648146490967
7.248,0.99999510728315,128.50574282089121
7.256,0.9999949821866244,128.44666339511116
7.264,0.9999948563541358,128.38757636000486
7.272,0.9999947297966187,128.3284817038321
7.28,0.9999946025251675,128.2693794148643
7.288,0.9999944745510387,128.21026948138424
7.296,0.999994345885658,128.15115189168628
7.304,0.9999942165406235,128.09202663407623
7.312,0.9999940865277113,128.03289369687138
7.32,0.9999939558588808,127.97375306840054
7.328,0.9999938245462794,127.91460473700393
7.336,0.9999936926022477,127.85544869103335
7.344,0.9999935600393246,127.79628491885205
7.352,0.9999934268702532,127.73711340883482
7.36,0.9999932931079855,127.67793414936796
7.368,0.9999931587656876,127.61874712884939
7.376,0.9999930238567468,127.55955233568855
7.384,0.9999928883947747,127.50034975830657
7.392,0.999992752393615,127.4411393851361
7.4,0.9999926158673474,127.38192120462158
7.4079999999999995,0.9999924788302952,127.32269520521912
7.416,0.9999923412970295,127.26346137539664
7.4239999999999995,0.9999922032823755,127.20421970363387
7.432,0.9999920648014196,127.14497017842241
7.4399999999999995,0.9999919258695139,127.0857127882658
7.448,0.9999917865022833,127.02644752167954
7.4559999999999995,0.9999916467156312,126.96717436719133
7.464,0.999991506525746,126.90789331334092
7.4719999999999995,0.9999913659491074,126.84860434868031
7.48,0.9999912250024925,126.78930746177383
7.4879999999999995,0.9999910837029828,126.73000264119828
7.496,0.9999909420679708,126.67068987554288
7.504,0.9999908001151653,126.61136915340961
7.5120000000000005,0.9999906578626002,126.55204046341309
7.52,0.9999905153286397,126.49270379418085
7.5280000000000005,0.9999903725319859,126.43335913435342
7.536,0.9999902294916853,126.37400647258444
7.5440000000000005,0.9999900862271357,126.31464579754086
7.552,0.9999899427580944,126.255277097903
7.5600000000000005,0.9999897991046839,126.19590036236482
7.568,0.9999896552873999,126.13651557963406
7.5760000000000005,0.9999895113271183,126.0771227384323
7.584,0.9999893672451027,126.01772182749531
7.5920000000000005,0.9999892230630122,125.95831283557318
7.6,0.9999890788029083,125.89889575143052
7.6080000000000005,0.9999889344872628,125.83947056384662
7.616,0.9999887901389655,125.78003726161582
7.6240000000000006,0.9999886457813312,125.72059583354759
7.632,0.9999885014381095,125.66114626846691
7.640000000000001,0.9999883571334897,125.60168855521432
7.648,0.9999882128921109,125.54222268264655
7.656000000000001,0.9999880687390698,125.48274863963637
7.664,0.9999879246999281,125.42326641507324
7.672,0.99998778080072,125.36377599786339
7.68,0.9999876370679628,125.30427737693022
7.688,0.9999874935286618,125.24477054121466
7.696,0.9999873502103211,125.18525547967549
7.704,0.9999872071409514,125.12573218128964
7.712,0.9999870643490772,125.06620063505264
7.72,0.9999869218637469,125.00666082997896
7.728,0.9999867797145399,124.94711275510245
7.736,0.9999866379315756,124.88755639947678
7.744,0.9999864965455223,124.8279917521757
7.752,0.9999863555876051,124.76841880229378
7.76,0.9999862150896148,124.70883753894661
7.768,0.9999860750839168,124.64924795127136
7.776,0.9999859356034587,124.58965002842747
7.784,0.9999857966817809,124.53004375959686
7.792,0.9999856583530224,124.47042913398464
7.8,0.9999855206519321,124.41080614081974
7.808,0.999985383613877,124.35117476935525
7.816,0.9999852472748482,124.29153500886926
7.824,0.9999851116714734,124.23188684866528
7.832,0.9999849768410228,124.17223027807307
7.84,0.9999848428214186,124.11256528644911
7.848,0.9999847096512435,124.05289186317741
7.856,0.9999845773697495,123.99320999767012
7.864,0.9999844460168652,123.93351967936833
7.872,0.9999843156332054,123.8738208977428
7.88,0.9999841862600789,123.81411364229471
7.888,0.9999840579394967,123.75439790255643
7.896,0.9999839307141798,123.6946736680924
7.904,0.9999838046275679,123.6349409285
7.912,0.9999836797238272,123.5751996734103
7.92,0.9999835560478574,123.51544989248906
7.928,0.9999834336453003,123.45569157543764
7.936,0.9999833125625467,123.39592471199396
7.944,0.9999831928467441,123.3361492919334
7.952,0.9999830745458035,123.27636530506989
7.96,0.9999829577084067,123.216572741257
7.968,0.9999828423840126,123.15677159038884
7.976,0.9999827286228649,123.0969618424013
7.984,0.9999826164759963,123.03714348727314
7.992,0.9999825059952366,122.9773165150271
8.0,0.9999823972332176,122.91748091573116
8.008,0.9999822902433785,122.85763667949973
8.016,0.9999821850799709,122.7977837964949
8.024000000000001,0.9999820817980649,122.73792225692773
8.032,0.9999819804535517,122.67805205105957
8.04,0.9999818811031488,122.6181731692034
8.048,0.9999817838044041,122.55828560172529
8.056000000000001,0.9999816886156976,122.49838933904569
8.064,0.9999815955962471,122.438484371641
8.072,0.9999815048061071,122.378570690045
8.08,0.9999814163061737,122.3186482848504
8.088000000000001,0.9999813301581841,122.25871714671044
8.096,0.999981246424718,122.19877726634037
8.104,0.9999811651691987,122.13882863451919
8.112,0.9999810864558913,122.07887124209128
8.120000000000001,0.9999810103499029,122.01890507996809
8.128,0.9999809369171804,121.95893013912999
8.136,0.9999808662245091,121.89894641062783
8.144,0.9999807983395078,121.83895388558493
8.152000000000001,0.9999807333306269,121.77895255519883
8.16,0.999980671267143,121.71894241074337
8.168,0.9999806122191535,121.65892344357029
8.176,0.9999805562575705,121.5988956451114
8.184000000000001,0.9999805034541135,121.53885900688057
8.192,0.9999804538813011,121.4788135204757
8.2,0.9999804076124422,121.41875917758075
8.208,0.9999803647216261,121.3586959699679
8.216000000000001,0.999980325283711,121.29862388949961
8.224,0.9999802893743112,121.2385429281309
8.232,0.999980257069785,121.17845307791133
8.24,0.9999802284472193,121.11835433098743
8.248000000000001,0.999980203584413,121.05824667960484
8.256,0.9999801825598619,120.99813011611059
8.264,0.9999801654527382,120.93800463295545
8.272,0.9999801523428723,120.87787022269619
8.280000000000001,0.9999801433107312,120.81772687799803
8.288,0.9999801384373944,120.75757459163691
8.296,0.9999801378045324,120.69741335650195
8.304,0.9999801414943791,120.63724316559788
8.312,0.9999801495897043,120.57706401204746
8.32,0.9999801621737867,120.51687588909385
8.328,0.999980179330381,120.45667879010323
8.336,0.999980201143687,120.39647270856706
8.344,0.999980227698315,120.33625763810487
8.352,0.9999802590792494,120.27603357246637
8.36,0.999980295371811,120.21580050553425
8.368,0.9999803366616178,120.15555843132641
8.376,0.9999803830345422,120.09530734399873
8.384,0.9999804345766675,120.03504723784722
8.392,0.9999804913742422,119.97477810731077
8.4,0.9999805535136317,119.9144999469734
8.408,0.999980621081268,119.85421275156673
8.416,0.9999806941635971,119.79391651597244
8.424,0.999980772847025,119.73361123522464
8.432,0.9999808572178599,119.67329690451209
8.44,0.999980947362253,119.61297351918066
8.448,0.9999810433661375,119.55264107473548
8.456,0.9999811453151638,119.49229956684322
8.464,0.9999812532946335,119.43194899133412
8.472,0.9999813673894298,119.37158934420437
8.48,0.9999814876839465,119.31122062161774
8.488,0.9999816142620142,119.25084281990787
8.496,0.9999817472068232,119.19045593558002
8.504,0.9999818866008453,119.13005996531287
8.512,0.9999820325257517,119.06965490596022
8.52,0.9999821850623286,119.00924075455261
8.528,0.9999823442903915,118.9488175082988
8.536,0.9999825102886948,118.88838516458725
8.544,0.9999826831348408,118.82794372098716
8.552,0.9999828629051857,118.76749317524991
8.56,0.9999830496747412,118.70703352530974
8.568,0.9999832435170766,118.64656476928491
8.576,0.9999834445042175,118.58608690547811
8.584,0.9999836527065397,118.52559993237722
8.592,0.999983868192663,118.46510384865556
8.6,0.9999840910293449,118.40459865317212
8.608,0.999984321281366,118.34408434497145
8.616,0.9999845590114186,118.28356092328367
8.624,0.9999848042799906,118.22302838752391
8.632,0.9999850571452479,118.16248673729164
8.64,0.9999853176629155,118.10193597237001
8.648,0.9999855858861567,118.04137609272455
8.656,0.9999858618654471,117.98080709850205
8.664,0.9999861456484546,117.92022899002886
8.672,0.9999864372799093,117.85964176780905
8.68,0.9999867368014789,117.79904543252238
8.688,0.999987044251638,117.73843998502183
8.696,0.9999873596655399,117.67782542633103
8.704,0.9999876830748861,117.6172017576412
8.712,0.9999880145077937,117.55656898030793
8.72,0.9999883539886669,117.49592709584756
8.728,0.9999887015380623,117.43527610593341
8.736,0.9999890571725576,117.3746160123913
8.744,0.9999894209046214,117.31394681719532
8.752,0.9999897927424812,117.25326852246265
8.76,0.9999901726899924,117.1925811304485
8.768,0.9999905607465083,117.13188464354047
8.776,0.999990956906754,117.07117906425258
8.784,0.9999913611606965,117.01046439521903
8.792,0.9999917734934217,116.9497406391875
8.8,0.9999921938850099,116.88900779901212
8.808,0.999992622310416,116.82826587764617
8.815999999999999,0.9999930587393511,116.76751487813415
8.824,0.9999935031361669,116.70675480360386
8.832,0.999993955459745,116.64598565725773
8.84,0.9999944156633871,116.58520744236415
8.847999999999999,0.9999948836947136,116.52442016224803
8.856,0.9999953594955603,116.46362382028144
8.864,0.999995843001887,116.40281841987361
8.872,0.9999963341436842,116.3420039644605
8.879999999999999,0.99999683284489,116.2811804574945
8.888,0.9999973390233122,116.22034790243308
8.896,0.999997852590553,116.15950630272788
8.904,0.9999983734519442,116.0986556618129
8.911999999999999,0.9999989015064875,116.03779598309265
8.92,0.9999994366468015,115.97692726992999
8.928,0.9999999787590774,115.91604952563362
8.936,0.9999999999999999,115.85516275344544
8.943999999999999,0.9999999999999999,115.7942669565275
8.952,0.9999999999999999,115.73336213794882
8.96,1.0,115.67244830067197
8.968,0.9999999999999999,115.61152544753962
8.975999999999999,1.0,115.55059358126059
8.984,1.0,115.48965270439597
8.992,1.0,115.42870281934522
9.0,1.0,115.36774392833203
9.008,0.9999999999999999,115.30677603339002
9.016,0.9999999999999999,115.24579913634855
9.024000000000001,1.0,115.18481323881852
9.032,0.9999999999999999,115.12381834217817
9.04,1.0,115.06281444755872
9.048,0.9999999999999998,115.00180155583043
9.056000000000001,0.9999999999999999,114.94077966758849
9.064,1.0,114.87974878313918
9.072,1.0000000000000002,114.8187089024861
9.08,0.9999999999999999,114.7576600253167
9.088000000000001,0.9999999999999998,114.69660215098904
9.096,0.9999999999999998,114.6355352785186
9.104,0.9999999999999999,114.57445940656577
9.112,1.0,114.51337453342326
9.120000000000001,1.0,114.45228065700422
9.128,1.0,114.39117777483054
9.136,0.9999999999999999,114.33006588402155
9.144,1.0,114.26894498128335
9.152000000000001,1.0,114.20781506289852
9.16,1.0,114.14667612471635
9.168,0.9999999999999999,114.08552816214358
9.176,0.9999999999999999,114.02437117013577
9.184000000000001,1.0,113.9632051431893
9.192,0.9999999999999999,113.9020300753339
9.2,0.9999999999999999,113.8408459601258
9.208,1.0,113.77965279064172
9.216000000000001,1.0,113.71845055947335
9.224,0.9999999999999999,113.65723925872273
9.232,1.0,113.59601887999807
9.24,1.0,113.53478941441065
9.248000000000001,0.9999999999999999,113.47355085257226
9.256,0.9999999999999999,113.4123031845934
9.264,1.0,113.3510464000823
9.272,1.0,113.28978048814474
9.280000000000001,1.0,113.22850543738465
9.288,0.9999999999999999,113.1672212359054
9.296,0.9999999999999999,113.10592787131192
9.304,1.0,113.04462533071367
9.312000000000001,0.9999999999999999,112.98331360072831
9.32,1.0,112.92199266748618
9.328,1.0,112.86066251663546
9.336,1.0,112.79932313334812
9.344,0.9999999999999999,112.73797450232678
9.352,0.9999999999999999,112.67661660781185
9.36,1.0,112.61524943358992
9.368,0.9999999999999999,112.55387296300236
9.376,1.0,112.49248717895483
9.384,1.0,112.43109206392745
9.392,0.9999999999999999,112.36968759998538
9.4,1.0,112.30827376879017
9.408,0.9999999999999999,112.24685055161156
9.416,0.9999999999999999,112.1854179293399
9.424,0.9999999999999999,112.12397588249897
9.432,1.0,112.06252439125927
9.44,0.9999999999999999,112.00106343545188
9.448,1.0,111.93959299458251
9.456,0.9999999999999999,111.87811304784606
9.464,1.0,111.81662357414136
9.472,1.0,111.75512455208654
9.48,0.9999999999999999,111.69361596003414
9.488,0.9999999999999999,111.63209777608687
9.496,1.0,111.57056997811335
9.504,1.0,111.5090325437641
9.512,1.0,111.4474854504875
9.52,1.0,111.38592867554596
9.528,1.0,111.32436219603208
9.536,0.9999999999999998,111.26278598888486
9.544,1.0,111.20120003090568
9.552,1.0000000000000002,111.13960429877463
9.56,0.9999999999999998,111.07799876906628
9.568,1.0,111.01638341826565
9.576,1.0,110.95475822278387
9.584,1.0,110.89312315897375
9.592,0.9999999999999999,110.83147820314507
9.6,0.9999999999999998,110.76982333157962
9.608,1.0,110.70815852054608
9.616,0.9999999999999999,110.64648374631453
9.624,0.9999999999999999,110.5847989851706
9.632,0.9999999999999999,110.52310421342946
9.64,1.0,110.46139940744926
9.648,1.0,110.39968454364441
9.656,1.0,110.3379595984982
9.664,0.9999999999999998,110.27622454857543
9.672,1.0,110.21447937053406
9.68,1.0,110.15272404113715
9.688,0.9999999999999999,110.09095853726356
9.696,0.9999999999999999,110.02918283591903
9.704,0.9999999999999999,109.96739691424601
9.712,0.9999999999999999,109.90560074953376
9.72,1.0,109.84379431922737
9.728,0.9999999999999999,109.78197760093684
9.736,0.9999999999999999,109.72015057244523
9.744,1.0000000000000002,109.65831321171669
9.752,0.9999999999999999,109.59646549690386
9.76,1.0,109.5346074063548
9.768,1.0,109.47273891861946
9.776,1.0,109.41086001245584
9.784,1.0,109.3489706668354
9.792,1.0,109.28707086094835
9.8,1.0,109.22516057420813
9.808,1.0,109.1632397862559
9.816,0.9999999999999999,109.10130847696415
9.824,1.0,109.03936662644018
9.832,1.0,108.9774142150291
9.84,0.9999999999999999,108.91545122331635
9.847999999999999,1.0,108.85347763212994
9.856,1.0,108.79149342254223
9.864,0.9999999999999999,108.72949857587136
9.872,1.0,108.66749307368244
9.879999999999999,1.0,108.6054768977881
9.888,1.0,108.543450030249
9.896,1.0,108.48141245337396
9.904,1.0,108.41936414971968
9.911999999999999,0.9999999999999999,108.35730510209017
9.92,1.0,108.29523529353597
9.928,1.0,108.23315470735318
9.936,0.9999999999999999,108.17106332708201
