freq,mag,phase
6.0,0.9998789332497943,-156.59643568313004
6.002286592,0.9998865891370683,-156.74197715338306
6.004572672,0.9999017650747465,-156.88766784310238
6.006859264,0.9999235921874982,-157.03360807587936
6.009145344,0.9999506529436767,-157.17987018275062
6.011431936,0.9999814281410415,-157.32654307111665
6.013718016,1.0000136876294647,-157.47370109968898
6.016004608,1.000045540686308,-157.62126697543744
6.018290688,1.000075042323548,-157.76930562882663
6.02057728,1.00010015427645,-157.91768908699535
6.022863872,1.0001193743983439,-158.06642132581612
6.025149952,1.0001315323233535,-158.21533095874207
6.027436544,1.000135742403668,-158.36436838790888
6.029722624,1.000131786482112,-158.51338606122587
6.032009216,1.0001199648900254,-158.66225977214117
6.034295296,1.00010100994672,-158.81093016334702
6.036581888,1.0000760644821112,-158.9592460997014
6.03886848,1.0000466296597244,-159.1071701781616
6.04115456,1.0000147017996535,-159.25460741521988
6.043441152,0.9999823522069053,-159.40162230387375
6.045727232,0.9999514878013962,-159.54811943082066
6.048013824,0.9999241030672635,-159.69418289731402
6.050299904,0.9999019541008449,-159.83987574711205
6.052586496,0.999886447165655,-159.98522701364826
6.054872576,0.9998785280981645,-160.13048951102522
6.057159168,0.9998787586044414,-160.27563999939952
6.05944576,0.9998871271196865,-160.42082818867192
6.06173184,0.9999030404573913,-160.56618967423344
6.064018432,0.9999255626161534,-160.71178607818837
6.066304512,0.9999532634484303,-160.8577942303399
6.068591104,0.9999843015441015,-161.00417173957783
6.070877184,1.0000168504243463,-161.15100043003213
6.073163776,1.0000487737320178,-161.2983010148745
6.075450368,1.000078016900865,-161.4460285382954
6.077736448,1.0001027153156596,-161.5941376627916
6.08002304,1.0001214723759704,-161.74250149599408
6.08230912,1.0001328638371727,-161.89113762822547
6.084595712,1.0001363565335069,-162.03981897193395
6.086881792,1.0001315971294946,-162.18849142061694
6.089168384,1.000118894930199,-162.33703630543283
6.091454464,1.0000991954902536,-162.48532875932003
6.093741056,1.0000735422687874,-162.6332669642009
6.096027648,1.0000437555431811,-162.7808090544445
6.098313728,1.000011537771917,-162.92785117725984
6.10060032,0.9999790711857534,-163.0744292153267
6.1028864,0.9999482686109515,-163.2205355321309
6.105172992,0.9999211821693844,-163.36619406097947
6.107459072,0.9998995977475131,-163.5114799311264
6.109745664,0.9998846544142277,-163.6565113065433
6.112032256,0.9998775910195097,-163.80134120247112
6.114318336,0.9998786204484603,-163.94614167422222
6.116604928,0.9998878211733936,-164.09096830351027
6.118891008,0.9999045347958532,-164.23599052569205
6.1211776,0.9999277294593062,-164.38127060333974
6.12346368,0.9999559101787542,-164.52693119435364
6.125750272,0.9999873971345873,-164.67299695234303
6.128036352,1.0000200969378135,-164.81949055062677
6.130322944,1.0000518956904758,-164.96649385775692
6.132609536,1.0000809488788214,-165.1138889291999
6.134895616,1.0001052515536832,-165.2616698371473
6.137182208,1.000123408566006,-165.40972453457488
6.139468288,1.0001342058220488,-165.5579791865094
6.14175488,1.0001368048983714,-165.7063285036665
6.14404096,1.0001312205011843,-165.8546230846463
6.146327552,1.0001178310633718,-166.00277893301487
6.148614144,1.0000973443122156,-166.15067448363268
6.150900224,1.0000710856080663,-166.29822478598015
6.153186816,1.0000408367544897,-166.4453339108475
6.155472896,1.0000082942863797,-166.59196535580477
6.157759488,0.9999756974861196,-166.73811181825567
6.160045568,0.9999450567054109,-166.88379055543263
6.16233216,0.9999183532782249,-167.02904087160022
6.16461824,0.9998972354813446,-167.1739096110792
6.166904832,0.9998830035298001,-167.31853346330428
6.169191424,0.9998765813454752,-167.4629627871265
6.171477504,0.9998785674855892,-167.60736646561628
6.173764096,0.9998884946619601,-167.75179978918214
6.176050176,0.9999059926918583,-167.8964416412779
6.178336768,0.9999299391432562,-168.04138652490204
6.180622848,0.9999586356536301,-168.18670851803108
6.18290944,0.9999904248911283,-168.33239059287473
6.18519552,1.0000233000312533,-168.47858255208314
6.187482112,1.0000551078123994,-168.62519039891163
6.189768704,1.0000839070403948,-168.77226590209096
6.192054784,1.0001078065156115,-168.9196902041983
6.194341376,1.0001253497515519,-169.06737238694313
6.196627456,1.000135303542205,-169.21525980075907
6.198914048,1.0001372299838196,-169.36322148285635
6.201200128,1.0001308707597372,-169.51115755437274
6.20348672,1.0001165658182307,-169.65888882829486
6.205773312,1.0000952960552474,-169.806368610466
6.208059392,1.0000685231636746,-169.95346960797679
6.210345984,1.0000377028935177,-170.10013747004126
6.212632064,1.0000050170547063,-170.2463337366017
6.214918656,0.9999724120396726,-170.39203461121073
6.217204736,0.9999418790888236,-170.53726061922606
6.219491328,0.9999155230423261,-170.682077142221
6.221777408,0.9998949177263948,-170.8265052597972
6.224064,0.9998813626296186,-170.97066549217473
6.226350592,0.9998757733425234,-171.11467138849184
6.228636672,0.9998785282779946,-171.258663887829
6.230923264,0.9998892381439263,-171.4027414311497
6.233209344,0.9999075465467557,-171.54699676324057
6.235495936,0.9999321088845036,-171.6915152779915
6.237782016,0.9999614919829142,-171.8364486964671
6.240068608,0.9999936759385992,-171.9818075040861
6.2423552,1.0000266348820253,-172.12760674924758
6.24464128,1.0000583688965077,-172.27387835898324
6.246927872,1.0000869446634675,-172.42057753601628
6.249213952,1.0001104049324834,-172.56761489999303
6.251500544,1.000127312867341,-172.71493114417575
6.253786624,1.0001365084383045,-172.86241871129104
6.256073216,1.0001375738881524,-173.00997954522728
6.258359296,1.0001303883305308,-173.15748018377298
6.260645888,1.0001152740324302,-173.30479338856182
6.26293248,1.000093290264816,-173.45183151697051
6.26521856,1.0000658262879631,-173.59848273077816
6.267505152,1.0000346577657955,-173.74470388729486
6.269791232,1.0000016286817335,-173.89041002628505
6.272077824,0.9999689687673218,-174.03562392561327
6.274363904,0.9999386622162008,-174.18040635812847
6.276650496,0.9999126933972401,-174.32471948942032
6.278937088,0.9998926594615705,-174.46867877586828
6.281223168,0.9998797374902225,-174.61241181336098
6.28350976,0.9998750014072024,-174.7559745492682
6.28579584,0.9998785832116526,-174.8995340346695
6.288082432,0.9998902509448325,-175.04316143194953
6.290368512,0.9999092971094253,-175.18701607445297
6.292655104,0.9999346060489455,-175.33114427380548
6.294941184,0.9999642800095773,-175.47568917273387
6.297227776,0.9999969208877707,-175.62066392133354
6.299514368,1.0000300131737778,-175.76607045838844
6.301800448,1.0000617086801844,-175.91195258819468
6.30408704,1.0000899892255912,-176.05825481228132
6.30637312,1.0001128956938494,-176.20491497967586
6.308659712,1.0001290709534378,-176.35180421908908
6.310945792,1.0001376723654039,-176.49890606165863
6.313232384,1.0001378457906374,-176.64603756360157
6.315518464,1.0001297222415237,-176.79307386021264
6.317805056,1.000113854123564,-176.93992577572809
6.320091648,1.0000912144826928,-177.08648220256853
6.322377728,1.000063141676045,-177.23266968366318
6.32466432,1.000031443233947,-177.37840752234808
6.3269504,0.9999982566647803,-177.5236318789811
6.329236992,0.9999656037816602,-177.66834063085864
6.331523072,0.9999355544617621,-177.81263694926136
6.333809664,0.9999098718203656,-177.95647433207097
6.336096256,0.9998904072495585,-178.09994810997074
6.338382336,0.9998783348835378,-178.2432239464538
6.340668928,0.9998742887013731,-178.38629069374122
6.342955008,0.9998787775710648,-178.52941234132618
6.3452416,0.9998912086755415,-178.6725952472333
6.34752768,0.9999111057494905,-178.81602270850098
6.349814272,0.9999369904311928,-178.95975635990692
6.352100352,0.9999673362144649,-179.1038574500316
6.354386944,1.000000140500798,-179.24843304158517
6.356673536,1.0000335086437622,-179.39343360822684
6.358959616,1.000065046906243,-179.53890864578318
6.361246208,1.0000929772276475,-179.68479829132298
6.363532288,1.0001153325334555,-179.83103696019253
6.36581888,1.0001308495719559,-179.97751971078222
6.36810496,1.0001387238065478,179.87583713768595
6.370391552,1.000138133836261,179.7291367230994
6.372678144,1.0001290652153754,179.58255065589614
6.374964224,1.000112440600477,179.4361666852063
6.377250816,1.000088917747209,179.29012144527204
6.379536896,1.0000602335280042,179.14443422281664
6.381823488,1.0000282750230292,178.999207310292
6.384109568,0.999994872935604,178.85448271050635
6.38639616,0.9999622224087529,178.7102676452195
6.38868224,0.9999322992440837,178.56652413510602
6.390968832,0.9999071553493801,178.4231952758274
6.393255424,0.9998882075480042,178.280204904366
6.395541504,0.9998768487650415,178.13743851135615
6.397828096,0.9998735665634301,177.99483296319352
6.400114176,0.9998788780842912,177.8522062440439
6.402400768,0.9998922644289301,177.7094537754771
6.404686848,0.9999129143013696,177.56648766960438
6.40697344,0.9999394412662992,177.4232120802962
6.409260032,0.9999703694240218,177.27951491854287
6.411546112,1.0000034517748575,177.1353690420367
6.413832704,1.0000368423534651,176.9907698563657
6.416118784,1.0000683108913604,176.84573996664855
6.418405376,1.0000958806314486,176.7002822706654
6.420691456,1.0001178644281228,176.5544634188712
6.422978048,1.0001327752895566,176.4084280690097
6.425264128,1.0001396805620826,176.2622301835831
6.42755072,1.0001381921754386,176.11600980990124
6.429837312,1.0001283653528121,175.96991442537265
6.432123392,1.0001107818551431,175.8240326596234
6.434409984,1.0000865831699954,175.6784701195218
6.436696064,1.000057445732159,175.53332145531732
6.438982656,1.0000250048737107,175.3886145479555
6.441268736,0.999991327833278,175.24440689531448
6.443555328,0.9999586817470929,175.1007368249501
6.44584192,0.9999289886224381,174.95751413415357
6.448128,0.9999042823317292,174.81470252389212
6.450414592,0.9998860319457338,174.6722500857423
6.452700672,0.9998753728569628,174.52998849329867
6.454987264,0.9998731348433975,174.3878755898302
6.457273344,0.9998792380749573,174.24570991759765
6.459559936,0.9998934720884113,174.10348171665802
6.461846016,0.9999148933165789,173.9609624296939
6.464132608,0.9999421689624627,173.81815006043257
6.4664192,0.9999734297302054,173.67488553362256
6.46870528,1.000006856182969,173.53120992733838
6.470991872,1.0000403765624577,173.38701766885907
6.473277952,1.0000716513156507,173.242456662529
6.475564544,1.0000988899294503,173.09742974640568
6.477850624,1.0001202993533516,172.95209833982236
6.480137216,1.000134499914784,172.8064766861783
6.482423296,1.0001405409375848,172.66076041260777
6.484709888,1.0001382306517732,172.5150343079671
6.48699648,1.0001274095056405,172.36943982353978
6.48928256,1.0001091087399259,172.22406235883724
6.491569152,1.0000842660832532,172.07902006308223
6.493855232,1.0000543580550394,171.9343999913403
6.496141824,1.000021637165935,171.7902388367499
6.498427904,0.9999876942170627,171.64657169789928
6.500714496,0.9999550896563891,171.50345332599235
6.503001088,0.99992569881177,171.3607855335524
6.505287168,0.9999014658872065,171.2185191824171
6.50757376,0.9998837989106774,171.07658491735413
6.50985984,0.999873985854978,170.9348533080628
6.512146432,0.9998726027229838,170.79326322217574
6.514432512,0.9998795584344329,170.65163236468527
6.516719104,0.999894650792352,170.50986879759702
6.519005184,0.9999169280621162,170.36781240849774
6.521291776,0.9999447559904187,170.22545843486057
6.523578368,0.9999765672027886,170.08268049822087
6.525864448,1.0000102747231918,169.9394481504574
6.52815104,1.0000437977994112,169.79574883333675
6.53043712,1.000075028697367,169.65157801682753
6.532723712,1.0001017814027966,169.50701070413584
6.535009792,1.0001226018002525,169.3621338267907
6.537296384,1.000136056596048,169.21704078673812
6.539582976,1.0001413242050725,169.07179977773077
6.541869056,1.000137997518936,168.92660245267095
6.544155648,1.000126455125025,168.78149114446765
6.546441728,1.000107255471285,168.63664554012186
6.54872832,1.0000816202541527,168.4921527231066
6.5510144,1.0000512894251932,168.34805364794462
6.553300992,1.0000179805877152,168.2045113550553
6.555587072,0.9999840534862219,168.06139260872249
6.557873664,0.9999514186455964,167.91882255786362
6.560160256,0.9999224420676943,167.77670449611355
6.562446336,0.9998986500647432,167.63500747945778
6.564732928,0.999881648331117,167.49361927947302
6.567019008,0.9998726696391848,167.3524664061277
6.5693056,0.999872105138797,167.21136775676385
6.57159168,0.9998800801222478,167.07024717885372
6.573878272,0.9998959971396366,166.92898373979236
6.576164864,0.9999190101494948,166.787447292086
6.578450944,0.9999475083981612,166.64557900558214
6.580737536,0.9999798591997603,166.5032537236139
6.583023616,1.0000137422277802,166.3604839821915
6.585310208,1.00004732572164,166.2172667750859
6.587596288,1.000078289810805,166.07356909742472
6.58988288,1.0001046770346234,165.92948580410106
6.59216896,1.0001249331946385,165.78509906337285
6.594455552,1.0001376530760708,165.64048105540982
6.596742144,1.0001419953189141,165.49573900281942
6.599028224,1.0001378848816014,165.35105050091562
6.601314816,1.0001252345415155,165.20650863031005
6.603600896,1.0001052956904843,165.06219357344776
6.605887488,1.0000788889611103,164.9182222674549
6.608173568,1.000048009069896,164.77474671141823
6.61046016,1.0000144482409217,164.6317119062693
6.612746752,0.999980347047468,164.48921105665482
6.615032832,0.9999479095368774,164.3472210787438
6.617319424,0.9999191295806894,164.20568828595177
6.619605504,0.9998959122579794,164.06455496597772
6.621892096,0.9998795772980192,163.92371021652784
6.624178176,0.9998713867492248,163.78308349880558
6.626464768,0.9998717633591537,163.64254082377752
6.628750848,0.9998806620308757,163.50194723366477
6.63103744,0.9998974112010466,163.36122079117152
6.633324032,0.9999212530250919,163.22019183809945
6.635610112,0.9999504861809992,163.07876795260336
6.637896704,0.9999830719004443,162.93695671511728
6.640182784,1.0000174031171418,162.7946613944604
6.642469376,1.000050960241875,162.65190903117656
6.644755456,1.0000817246780813,162.50871284846852
6.647042048,1.0001076448219024,162.36511299186563
6.649328128,1.0001271971260368,162.22123173665133
6.65161472,1.0001391449586916,162.07711361721144
6.653901312,1.0001426234856983,161.93291189254256
6.656187392,1.0001375009565188,161.78873432115728
6.658473984,1.000124183451967,161.64473335052512
6.660760064,1.000103249997321,161.50095208460377
6.663046656,1.0000762318299308,161.3576020991371
6.665332736,1.0000447420279788,161.21466374918415
6.667619328,1.0000108011854492,161.07225083500518
6.66990592,0.9999765715138357,160.9303261631149
6.672192,0.9999442554506652,160.78891051743815
6.674478592,0.9999159181390749,160.64796533204856
6.676764672,0.9998931030025519,160.5074261856155
6.679051264,0.9998776730378023,160.36715967276808
6.681337344,0.9998701845894463,160.22710403505386
6.683623936,0.9998714930308713,160.08710209020668
6.685910016,0.9998813232962191,159.9470692812263
6.688196608,0.999899074210603,159.80683547961192
6.6904832,0.999923544390481,159.6663079291085
6.69276928,0.9999533922949594,159.52541720844843
6.695055872,0.9999865838490675,159.38410350089538
6.697341952,1.0000210111170353,159.242318618348
6.699628544,1.0000545317391258,159.10005792482852
6.701914624,1.000085017235111,158.95732314835408
6.704201216,1.0001105229655927,158.8142104182139
6.706487808,1.0001294653783643,158.67082499578493
6.708773888,1.0001407161250564,158.52724885105883
6.71106048,1.0001432655931783,158.3835718169768
6.71334656,1.0001371512154258,158.2399239848219
6.715633152,1.0001229063818866,158.0964713434037
6.717919232,1.0001011280438699,157.95332157055992
6.720205824,1.0000733072497567,157.81053582479163
6.722491904,1.0000414317106292,157.66818624572582
6.724778496,1.000007102343301,157.5263354222311
6.727065088,0.9999728422771462,157.3850340068424
6.729351168,0.9999406776909939,157.24422422375343
6.73163776,0.9999125173200296,157.10386675235122
6.73392384,0.9998904379422384,156.96393655225313
6.736210432,0.9998757018875235,156.82425033042605
6.738496512,0.9998692142320331,156.68477210235972
6.740783104,0.9998713425395503,156.5453151073799
6.743069696,0.9998821071822681,156.40581934463054
6.745355776,0.9999007212737856,156.2661277428517
6.747642368,0.9999261417416251,156.12612791611966
6.749928448,0.9999565216021968,155.98572888857578
6.75221504,0.9999901214380476,155.84492710064882
6.75450112,1.000024752183609,155.70362579646783
6.756787712,1.000058254294983,155.56184922006847
6.759073792,1.0000885029320807,155.41964015593953
6.761360384,1.0001134703672665,155.2770598202961
6.763646976,1.0001316801538334,155.1341718676856
6.765933056,1.0001420139214396,154.9911148837899
6.768219648,1.0001437628640282,154.8479818744969
6.770505728,1.0001367366661764,154.7049044604784
6.77279232,1.0001215878617153,154.56201317705055
6.7750784,1.000098900427209,154.4194206643451
6.777364992,1.0000705264581473,154.27722051047823
6.779651584,1.0000378985464211,154.13549240005767
6.781937664,1.00000337362076,153.9942689938356
6.784224256,0.9999691021089819,153.85357676065885
6.786510336,0.9999369714862395,153.7133808517985
6.788796928,0.9999093412081801,153.57363214901616
6.791083008,0.9998878595969656,153.43428896537867
6.7933696,0.9998738131700642,153.2952157768452
6.79565568,0.9998682316589999,153.15627922006723
6.797942272,0.9998713717699117,153.01742101940707
6.800228864,0.9998830966424973,152.87844839605356
6.802514944,0.9999025281924,152.73929934137865
6.804801536,0.9999287499996233,152.59984258622393
6.807087616,0.9999596874076434,152.45997271494008
6.809374208,0.999993669165469,152.3196660850971
6.811660288,1.0000286095955375,152.1788777293123
6.81394688,1.0000620784395373,152.03760683754635
6.81623296,1.0000918170393767,151.89591257827428
6.818519552,1.000116349699195,151.7538403903418
6.820806144,1.0001338683982615,151.61149078090074
6.823092224,1.0001433371166413,151.46895863447872
6.825378816,1.0001441827557997,151.32638049022972
6.827664896,1.0001361372242434,151.18387953369358
6.829951488,1.0001199516744301,151.04154155373323
6.832237568,1.000096583361169,150.8995634033954
6.83452416,1.00006746244724,150.7579787580498
6.836810752,1.000034383214647,150.61682623597258
6.839096832,0.99999951557605,150.4762246264908
6.841383424,0.9999650575263493,150.33615799634927
6.843669504,0.9999332257223216,150.19655511073148
6.845956096,0.9999060429101871,150.0574554467578
6.848242176,0.9998851460642326,149.9187054582378
6.850528768,0.9998719739107267,149.78022208631725
6.852814848,0.9998672042909134,149.6418772573905
6.85510144,0.9998713427987785,149.50361599999664
6.857388032,0.9998840490931683,149.36521169121693
6.859674112,0.9999045000474662,149.22661453382165
6.861960704,0.9999313171694878,149.08765540933985
6.864246784,0.9999630143388198,148.94830325897487
6.866533376,0.9999973233503361,148.8085348052993
6.868819456,1.00003236552289,148.6682629747627
6.871106048,1.0000657701917455,148.5275059753301
6.87339264,1.0000952691821698,148.38631645112054
6.87567872,1.0001192128867225,148.24477199864756
6.877965312,1.0001360203950456,148.10294815028976
6.880251392,1.0001446214486205,147.96097454425023
6.882537984,1.000144449739084,147.81893865405084
6.884824064,1.0001354528168482,147.67700741864982
6.887110656,1.000118257481732,147.53529667729413
6.889396736,1.0000940202736681,147.3938860518513
6.891683328,1.0000643205611317,147.25288006166923
6.89396992,1.0000306548407574,147.11238988746862
6.896256,0.9999955976448881,146.97239330352878
6.898542592,0.999961257441072,146.83292947122553
6.900828672,0.9999295354877537,146.694018935315
6.903115264,0.9999028274694096,146.55548520861004
6.905401344,0.9998825577252157,146.4173692134254
6.907687936,0.9998702450739223,146.27950709970085
6.909974528,0.9998664267443271,146.14175462642578
6.912260608,0.9998715736609378,146.0040549741827
6.9145472,0.9998851086757833,145.86622796477164
6.91683328,0.9999064607704452,145.72813762839246
