freq,mag,phase
6.0,1.0007656610071665,0.0614613813501888
6.005903872,1.0007449828396002,-0.14085842322668102
6.011808256,1.0006810507457868,-0.3426014149695691
6.017712128,1.0005779627946005,-0.5432680379866122
6.023616,1.0004414662028123,-0.7422918408753513
6.029520384,1.0002792591698106,-0.9393201060497646
6.035424256,1.0001010607019327,-1.1340462944795853
6.04132864,0.9999168044163967,-1.3262705075372228
6.047232512,0.9997373448319217,-1.516063516780635
6.053136384,0.9995730803616991,-1.7034868499505265
6.059040768,0.9994333742172871,-1.888834206718108
6.06494464,0.9993263248051109,-2.072543292498884
6.070848512,0.9992581524865287,-2.255115783830926
6.076752896,0.9992329837062771,-2.4369666379687964
6.082656768,0.9992521437384289,-2.618916716570834
6.08856064,0.9993147525967905,-2.801433067743096
6.094465024,0.9994169178922834,-2.985163136654913
6.100368896,0.9995529545335852,-3.170539418702352
6.10627328,0.9997150819149381,-3.3580675505627866
6.112177152,0.9998937126066535,-3.5480216811725214
6.118081024,1.0000788738048563,-3.7405451643179255
6.123985408,1.0002594483965757,-3.9356477325924373
6.12988928,1.0004253498676277,-4.133162778783001
6.135793152,1.0005668491909057,-4.33286688218673
6.141697536,1.0006758874702215,-4.534362567272512
6.147601408,1.000746024770582,-4.7371632231668865
6.15350528,1.000773171645442,-4.940681211197883
6.159409664,1.0007557548020103,-5.144314179854917
6.165313536,1.0006949405056658,-5.347472661092193
6.17121792,1.0005939747194053,-5.549538643938453
6.177121792,1.0004586266950086,-5.750051392442653
6.183025664,1.0002969437096554,-5.948509193980776
6.188930048,1.0001177918534403,-6.144679884453619
6.19483392,0.9999321167902528,-6.338372044601078
6.200737792,0.9997499708609454,-6.529589476605904
6.206642176,0.9995822796440225,-6.718399672032131
6.212546048,0.9994386661425032,-6.905059537600122
6.218450432,0.9993273667873709,-7.0900364480067495
6.224354304,0.9992550833751278,-7.273782131620725
6.230258176,0.9992258200677698,-7.4568590934863055
6.23616256,0.9992413197271607,-7.639910989985443
6.242066432,0.9993005840723315,-7.823480021497507
6.247970304,0.9994005875681096,-8.008213374979816
6.253874688,0.9995353046214033,-8.194609083068523
6.25977856,0.9996971006199521,-8.383130202843475
6.265682432,0.9998765155273883,-8.5740812637717
6.271586816,1.0000631172138628,-8.767630030578717
6.277490688,1.0002464909879756,-8.963744231842163
6.283395072,1.0004157687650799,-9.16236783719163
6.289298944,1.0005612071884837,-9.36319666177525
6.295202816,1.0006744713648525,-9.565903418031837
6.3011072,1.0007489587028016,-9.769965993122058
6.307011072,1.000780405387513,-9.974785408821365
6.312914944,1.000766785965773,-10.17979491115253
6.318819328,1.0007091568934627,-10.38437747740397
6.3247232,1.0006103917113989,-10.58790693786319
6.330627072,1.000476574087454,-10.789891292962869
6.336531456,1.000315172671245,-10.989865783754109
6.342435328,1.0001354399218092,-11.187591549764523
6.348339712,0.9999479245038768,-11.38275658685832
6.354243584,0.9997632320011562,-11.575382063736358
6.360147456,0.9995921610952723,-11.76568189735995
6.36605184,0.9994445550946679,-11.953687290811928
6.371955712,0.9993289811231899,-12.139988627939799
6.377859584,0.9992521661462651,-12.324971242937576
6.383763968,0.999218585850798,-12.509278404121241
6.38966784,0.9992301733232162,-12.69340986145709
6.395571712,0.9992863485312524,-12.878078945466859
6.401476096,0.9993838905874315,-13.063911042049249
6.407379968,0.999517142906917,-13.251322593578251
6.413284352,0.9996784342401849,-13.440873405749317
6.419188224,0.9998584938134047,-13.632834516400615
6.425092096,1.0000469781028463,-13.827389061285603
6.43099648,1.0002329228520634,-14.02458811209106
6.436900352,1.0004055955268363,-14.224344923086406
6.442804224,1.0005551589105892,-14.426332184775237
6.448708608,1.000672769342846,-14.630290161016374
6.45461248,1.0007517579599081,-14.835624160273175
6.460516352,1.000787443902786,-15.041806419806829
6.466420736,1.0007779511692891,-15.248217207400256
6.472324608,1.0007235986411953,-15.454264982664002
6.478228992,1.0006275475932764,-15.659286697210502
6.484132864,1.0004951027221027,-15.862807497209385
6.490036736,1.0003341668403314,-16.064332963407974
6.49594112,1.0001539331000004,-16.263565600259497
6.501844992,0.9999646788645825,-16.460303257516987
6.507748864,0.9997772999852917,-16.65448606031122
6.513653248,0.999602672428983,-16.846184824647413
6.51955712,0.9994511074941659,-17.03566711105612
6.525461504,0.9993310203009992,-17.2233029490896
6.531365376,0.999249565963938,-17.40955230419706
6.537269248,0.9992113835301297,-17.595107914506563
6.543173632,0.999219041355973,-17.780406000229487
6.549077504,0.9992716060656799,-17.966229935549737
6.554981376,0.9993666021039412,-18.15311718731126
6.56088576,0.9994983523888988,-18.3416285021311
6.566789632,0.9996590659514916,-18.532180554847944
6.572693504,0.9998398078107572,-18.725165550213443
6.578597888,1.0000299350518316,-18.920806426124514
6.58450176,1.0002185031845923,-19.11908667863252
6.590406144,1.0003947806053728,-19.31997093100465
6.596310016,1.0005484270774325,-19.523169479785604
6.602213888,1.0006705259824107,-19.72835656615572
6.608118272,1.0007542796852338,-19.935010900202432
6.614022144,1.0007946256985236,-20.142561955699072
6.619926016,1.0007891666483082,-20.350446072615792
6.6258304,1.0007383238918008,-20.557961596885956
6.631734272,1.0006449007767335,-20.76456244296325
6.637638144,1.0005142030570455,-20.969665550071795
6.643542528,1.0003539496011498,-21.17277796541275
6.6494464,1.0001731021848348,-21.373627599726003
6.655350784,0.9999821312370758,-21.571911731656172
6.661254656,0.9997920880558685,-21.767605469450405
6.667158528,0.9996139323773785,-21.960853940007098
6.673062912,0.9994581537536583,-22.151785444838744
6.678966784,0.9993334339235376,-22.340820660158112
6.684870656,0.9992471925106964,-22.528462022813876
6.69077504,0.9992044108250434,-22.715245920712842
6.696678912,0.9992077162278362,-22.901772741699517
6.702582784,0.9992568237165472,-23.088735982639058
6.708487168,0.9993488760004839,-23.276758894358732
6.71439104,0.9994787301192292,-23.46629974033457
6.720295424,0.999638948688272,-23.657973812809402
6.726199296,0.9998202595940201,-23.852025954122286
6.732103168,1.0000118773254207,-24.048748192628086
6.738007552,1.0002032745974847,-24.248147765718965
6.743911424,1.0003830011828596,-24.450155966225072
6.749815296,1.0005409004855115,-24.654581792072875
6.75571968,1.0006679212626053,-24.86103589956669
6.761623552,1.0007564659643524,-25.06904482818013
6.767527424,1.000801540073997,-25.27803268335126
6.773431808,1.000800483455358,-25.4873775283991
6.77933568,1.0007533880978994,-25.696428847949143
6.785240064,1.000662841000271,-25.90460792503046
6.791143936,1.0005339727045683,-26.11132250350029
6.797047808,1.0003742853736277,-26.31609819319112
6.802952192,1.0001929866473742,-26.518579000541013
6.808856064,1.000000441780897,-26.71848914920517
6.814759936,0.9998077000209356,-26.915801880933508
6.82066432,0.9996259689649557,-27.110559280965376
6.826568192,0.9994656676379747,-27.303010726273456
6.832472576,0.9993362732576476,-27.49351642605485
6.838376448,0.999245064962004,-27.682525532203133
6.84428032,0.9991973929751699,-27.87059021708341
6.850184704,0.9991961143770877,-28.058383612222357
6.856088576,0.9992414846869291,-28.246527885562998
6.861992448,0.9993305593559185,-28.435670970400672
6.867896832,0.9994586147531301,-28.626338140816717
6.873800704,0.9996179581627819,-28.819075421074597
6.879704576,0.9997996325230799,-29.014240320182815
6.88560896,0.9999930109628041,-29.21203029515088
6.891512832,1.000187129825054,-29.41258330862426
6.897417216,1.0003705893779022,-29.61579073149816
6.903321088,1.0005327959983088,-29.82145763661704
6.90922496,1.0006645985013178,-30.029225059110626
6.915129344,1.0007582262937669,-30.23857488545495
6.921033216,1.0008083218165051,-30.449001654276664
6.926937088,1.000811897151109,-30.659878436243584
6.932841472,1.000768736783979,-30.87047662907123
6.938745344,1.000681151099826,-31.080292752932973
6.944649216,1.0005544102158639,-31.288665498492115
6.9505536,1.000395547701694,-31.495128866879824
6.956457472,1.0002138269992698,-31.699239605224793
6.962361856,1.000019701760955,-31.90083365746422
6.968265728,0.999824229395082,-32.099815783252446
6.9741696,0.9996388742523977,-32.296171286557694
6.980073984,0.9994740855563196,-32.49017277307915
6.985977856,0.9993396192191326,-32.68214960601595
6.991881728,0.9992432812477582,-32.87255221161059
6.997786112,0.9991907421372953,-33.061978567789325
7.003689984,0.9991848037353992,-33.2510336515098
7.009593856,0.9992257919625994,-33.44040317244735
7.01549824,0.9993118476049717,-33.63070592859378
7.021402112,0.9994377530407943,-33.82254418726235
7.027306496,0.9995962414641849,-34.016398325680136
7.033210368,0.9997782631154922,-34.21264201034879
7.03911424,0.9999731941475043,-34.41157620047849
7.045018624,1.0001700267611413,-34.61326699817286
7.050922496,1.0003571971465448,-34.81768781109889
7.056826368,1.0005240239583864,-35.02459053771443
7.062730752,1.0006607942008572,-35.23366584268973
7.068634624,1.0007597130151609,-35.444444039604434
7.074538496,1.0008148904892828,-35.656308224579824
7.08044288,1.0008232297200879,-35.86873536865664
7.086346752,1.0007842084900387,-36.08097819757142
7.092251136,1.0006999447111316,-36.29242458970845
7.098155008,1.0005752292581747,-36.50248451839674
7.10405888,1.0004175320323945,-36.71065523131605
7.109963264,1.0002355787712098,-36.916521150078886
7.115867136,1.000039711394346,-37.11984543272409
7.121771008,0.9998416757686641,-37.320503154880505
7.127675392,0.9996524123043441,-37.51851450952669
7.133579264,0.9994832338797457,-37.714090862385596
7.139483648,0.9993436034570702,-37.907589329991005
7.14538752,0.9992418634245658,-38.09947094276661
7.151291392,0.9991839325688295,-38.29022715198294
7.157195776,0.9991730482082378,-38.48064308866174
7.163099648,0.9992099789538519,-38.67122932781666
7.16900352,0.9992926977639733,-38.86274025292873
7.174907904,0.9994162950463218,-39.055704161001536
7.180811776,0.9995736118213152,-39.25068015828012
7.186715648,0.9997559726589369,-39.448084730101215
7.192620032,0.9999525461254775,-39.64811991444847
7.198523904,1.0001519781843657,-39.85098831041675
7.204428288,1.0003430225133771,-40.0566450500169
7.21033216,1.0005144275006732,-40.264822331445366
7.216236032,1.00065628286123,-40.475256622925386
7.222140416,1.0007606570244263,-40.68742640658084
7.228044288,1.000821265358183,-40.900846777413754
7.23394816,1.0008345829165766,-41.11481303815524
7.239852544,1.0008000550939524,-41.32863306192457
7.245756416,1.0007192929715405,-41.541828809947795
7.251660288,1.0005971432076348,-41.75359309466671
7.257564672,1.0004404357801016,-41.963524240913834
7.263468544,1.0002581233193577,-42.171176901843324
7.269372928,1.0000609636855882,-42.37623303561733
7.2752768,0.9998601273490035,-42.57861766709293
7.281180672,0.9996670397789912,-42.778348528842216
7.287085056,0.9994931962553726,-42.975543005587056
7.292988928,0.9993484080508139,-43.170594080448744
7.2988928,0.9992412521355997,-43.36394088111657
7.304797184,0.9991776040879978,-43.55617422249255
7.310701056,0.9991616259638767,-43.74788324796067
7.316604928,0.9991939943046259,-43.93978798314784
7.322509312,0.9992729371973113,-44.132472597986464
7.328413184,0.9993941489501509,-44.32661471894236
7.334317568,0.9995503471331707,-44.5227603264204
7.34022144,0.9997327136007131,-44.72130056877016
7.346125312,0.9999307652113567,-44.922502506297896
7.352029696,1.000133077822505,-45.12655450369966
7.357933568,1.0003277531580443,-45.333417752322084
7.36383744,1.0005039198455945,-45.54291097213613
7.369741824,1.0006512179501845,-45.75469322021338
7.375645696,1.0007612395010517,-45.96833219085035
7.381549568,1.0008273790319042,-46.183215467373785
7.387453952,1.0008460472125544,-46.39877358699203
7.393357824,1.0008161461251723,-46.61433010748584
7.399262208,1.0007391327980468,-46.829202175022694
7.40516608,1.0006195710837822,-47.042773507259504
7.411069952,1.0004640366188224,-47.254519854258135
7.416974336,1.0002818897754915,-47.46398072851073
7.422878208,1.0000832579008043,-47.67083929584117
7.42878208,0.9998795165924869,-47.87498102512664
7.434686464,0.9996827647984531,-48.07640272983649
7.440590336,0.9995040024271995,-48.27529578977461
7.44649472,0.999353869419583,-48.4719315631677
7.452398592,0.9992408622267526,-48.66682123362287
7.458302464,0.9991715240603273,-48.860497229373934
7.464206848,0.9991500107324673,-49.053570177576596
7.47011072,0.9991777376154516,-49.2467350911684
7.476014592,0.9992528476066752,-49.440705954943674
7.481918976,0.999371201180769,-49.6360467930711
7.487822848,0.9995259944456585,-49.83334518769307
7.49372672,0.9997084115552076,-50.03302728745125
7.499631104,0.9999077319083436,-50.23542957229744
7.505534976,1.0001126912153389,-50.44066740270765
7.51143936,1.000311435260363,-50.64879611591801
7.517343232,1.0004923793954728,-50.859593369770955
7.523247104,1.0006451443584492,-51.07274733720764
7.529151488,1.0007609615183692,-51.287818934434085
7.53505536,1.0008331784021083,-51.50428275468927
7.540959232,1.0008573195612225,-51.72144631852862
7.546863616,1.000832237299624,-51.938696669024665
7.552767488,1.0007592876266338,-52.155303046589076
7.55867136,1.0006423701319338,-52.370692989641405
7.564575744,1.0004885033711053,-52.58425296734318
7.570479616,1.0003063610831,-52.795553045940274
7.576384,1.000106470658667,-53.00424414597838
7.582287872,0.9999000675911329,-53.21024899906964
7.588191744,0.9996994155565866,-53.41340587387571
7.594096128,0.9995157671140861,-53.61402774775257
7.6,0.9993600648541348,-53.812304896163305
7.605903872,0.9992409762281024,-54.00876577284339
7.611808256,0.9991657378312775,-54.203893138253406
7.617712128,0.9991386525366728,-54.39837963301027
7.623616,0.9991611413880239,-54.592895284788526
7.629520384,0.9992322007918099,-54.7880879406214
7.635424256,0.9993476932664285,-54.98464893527568
7.64132864,0.9995008281760935,-55.18316386721437
7.647232512,0.9996831250946635,-55.38399675307307
7.653136384,0.999883890121664,-55.587572097167296
7.659040768,1.000091464171739,-55.79403695099578
7.66494464,1.0002942161356443,-56.00339070216868
7.670848512,1.0004800313273012,-56.215512969973
7.676752896,1.0006385642568305,-56.4300469164384
7.682656768,1.000760436094867,-56.64661570221815
7.68856064,1.0008386602167045,-56.8646143947292
7.694465024,1.000868699805817,-57.083440073326535
7.700368896,1.000848718340575,-57.302396793596
7.70627328,1.0007799442412804,-57.5207835844533
7.712177152,1.0006663328233862,-57.737991504308205
7.718081024,1.0005140814940041,-57.95342542954722
7.723985408,1.0003320932011954,-58.16663412084916
7.72988928,1.0001308914848033,-58.377211145427665
7.735793152,0.999921826825973,-58.58505299112561
7.741697536,0.9997171770101885,-58.790075160902276
7.747601408,0.9995286299380827,-58.992390210247166
7.75350528,0.9993671241853189,-59.19237686181588
7.759409664,0.9992419176047193,-59.390396704076196
7.765313536,0.9991604008861587,-59.58706340803983
7.77121792,0.9991273401731849,-59.78295976964065
7.777121792,0.9991444811858454,-59.978828701287405
7.783025664,0.9992110616192766,-60.17530953440214
7.788930048,0.9993233952933975,-60.37311050092758
7.79483392,0.9994747964749996,-60.57275710837881
7.800737792,0.9996566332259899,-60.774810726529076
7.806642176,0.9998586390720084,-60.9795441127141
7.812546048,1.0000689884476153,-61.187231285923424
7.818450432,1.0002755154057907,-61.39786470826123
7.824354304,1.0004664508516985,-61.61129835521241
7.830258176,1.000630697908595,-61.827242180875814
7.83616256,1.0007588060652914,-62.04529676622169
7.842066432,1.0008434935356656,-62.26486840455193
7.847970304,1.000879687872921,-62.48533927147933
7.853874688,1.0008653257450708,-62.70601188957971
7.85977856,1.0008009636569088,-62.92628073570554
7.865682432,1.0006905260912886,-63.145351386217406
7.871586816,1.0005402749913161,-63.36267435329981
7.877490688,1.0003587402960852,-63.57776836457841
7.883395072,1.0001563820434,-63.79029893478768
7.889298944,0.9999446308476118,-64.00000834923966
7.895202816,0.9997359818876641,-64.20687988569966
7.9011072,0.9995423624783911,-64.4109861069086
7.907011072,0.9993749349357454,-64.61267661682488
7.912914944,0.9992433207933654,-64.81233894608212
7.918819328,0.999155349267293,-65.01052149770558
7.9247232,0.9991158683367428,-65.20786878199452
7.930627072,0.9991274632288494,-65.40511982615436
7.936531456,0.9991894702555066,-65.60290738800879
7.942435328,0.9992983153358365,-65.80192221800091
7.948339712,0.9994476680289837,-66.00278074671516
7.954243584,0.9996291169145746,-66.20601362522515
7.960147456,0.9998321893392569,-66.41196839608219
7.96605184,1.000045080369534,-66.6208630356003
7.971955712,1.0002557001966326,-66.8327290449347
7.977859584,1.0004517460441604,-67.04750822279978
7.983763968,1.0006221594527798,-67.26484113242967
7.98966784,1.0007567535250712,-67.48438866830898
7.995571712,1.0008480595885183,-67.7055646948189
8.001476096,1.0008905942984503,-67.92770590703371
8.007379968,1.0008819352802012,-68.1501498828905
8.013284352,1.0008225293821364,-68.37220311673752
8.019188224,1.0007157296589617,-68.5931677862282
8.025092096,1.0005674645862221,-68.81246254968967
8.03099648,1.0003866632083143,-69.02951455627102
8.036900352,1.000183137197045,-69.24400020051135
8.042804224,0.99996887672013,-69.45564975983592
8.048708608,0.9997561543444459,-69.66436491369217
8.05461248,0.9995574357457253,-69.87032136750028
8.060516352,0.9993838640550402,-70.07374147625183
8.066420736,0.9992456366984657,-70.27510125760494
8.072324608,0.9991508334391026,-70.47483248699541
8.078228992,0.9991048715457252,-70.67368004271376
8.084132864,0.9991105215523202,-70.87226879588069
8.090036736,0.9991673674023743,-71.07137978016056
8.09594112,0.9992725321650708,-71.27164684361139
8.101844992,0.9994196223946041,-71.47371068467727
8.107748864,0.9996005017505959,-71.6781334757374
8.113653248,0.9998044558723261,-71.88526866523927
8.11955712,1.000020031568945,-72.09537103894785
8.125461504,1.0002346398032524,-72.30851774783078
8.131365376,1.0004359221420216,-72.52461251797726
8.137269248,1.0006124329206447,-72.74337592165381
8.143173632,1.0007538041016881,-72.9644184592774
8.149077504,1.0008519561672913,-73.18717926482614
8.154981376,1.0009012746198447,-73.41099710187856
8.16088576,1.0008987845051531,-73.63523541269049
8.166789632,1.0008443361318098,-73.85914518956396
8.172693504,1.0007415336112448,-74.08204037284736
8.178597888,1.000595691823049,-74.30325999965179
8.18450176,1.000415595458477,-74.52230349429185
8.190406144,1.000211228004034,-74.73877095812044
8.196310016,0.9999944539943552,-74.95238252425644
8.202213888,0.9997778471547389,-75.16303947851027
8.208118272,0.9995736711547625,-75.37084491258858
8.214022144,0.9993938121059286,-75.57603823904795
8.219926016,0.999248828594334,-75.77903976214577
8.2258304,0.9991468931647838,-75.98038357102162
8.231734272,0.9990939610623133,-76.1807457228987
8.237638144,0.9990933323863148,-76.38075507421146
8.243542528,0.999144983476935,-76.58115282134492
8.2494464,0.9992461197190903,-76.78268401701455
8.255350784,0.9993905950455841,-76.98600204729087
8.261254656,0.9995705748713744,-77.19158533352433
8.267158528,0.9997754074736087,-77.399905698664
8.273062912,0.9999934258869597,-77.61121636901682
8.278966784,1.0002121036934486,-77.82562361631122
8.284870656,1.000418750578461,-78.04306846737886
8.29077504,1.000601527700209,-78.26319990639286
8.296678912,1.0007499449159702,-78.48575327856437
8.302582784,1.0008552189686388,-78.71010470126807
8.308487168,1.0009115575534129,-78.93562063928367
8.31439104,1.0009154794437112,-79.16165558993326
8.320295424,1.0008666475331776,-79.38740362304485
8.326199296,1.0007679637725004,-79.612244581436
8.332103168,1.000624880816052,-79.83545839097549
8.338007552,1.0004456859421504,-80.0565143343473
8.343911424,1.000240649478088,-80.27499127089935
8.349815296,1.000021392104076,-80.49059940263437
8.35571968,0.999800728314905,-80.7032083596868
8.361623552,0.9995911938427015,-80.91289640563048
