freq,mag,phase
6.0,1.0,120.06431820792427
6.008,0.9999999999999998,119.98211495529452
6.016,1.0,119.89990297643712
6.024,0.9999999999999999,119.81768225663295
6.032,1.0,119.73545278117928
6.04,1.0,119.65321453538992
6.048,0.9999999999999999,119.57096750459505
6.056,1.0,119.48871167414136
6.064,1.0,119.40644702939194
6.072,0.9999999999999998,119.32417355572633
6.08,1.0,119.24189123854042
6.088,1.0,119.15960006324657
6.096,1.0,119.07730001527352
6.104,0.9999999999999999,118.99499108006633
6.112,0.999999935878709,118.91267324308653
6.12,0.9999998233048047,118.83034648981189
6.128,0.9999997132404327,118.7480108057366
6.136,0.9999996056726114,118.66566617637116
6.144,0.9999995005882609,118.58331258724238
6.152,0.9999993979742043,118.5009500238934
6.16,0.9999992978171676,118.41857847188362
6.168,0.9999992001037822,118.33619791678878
6.176,0.9999991048205844,118.25380834420079
6.184,0.9999990119540183,118.17140973972793
6.192,0.9999989214904358,118.08900208899468
6.2,0.9999988334160975,118.0065853776417
6.208,0.9999987477171739,117.92415959132596
6.216,0.9999986643797477,117.8417247157205
6.224,0.9999985833898124,117.75928073651471
6.232,0.9999985047332761,117.67682763941401
6.24,0.9999984283959601,117.5943654101401
6.248,0.9999983543636022,117.51189403443072
6.256,0.9999982826218559,117.42941349803982
6.264,0.9999982131562924,117.3469237867374
6.272,0.9999981459524016,117.26442488630964
6.28,0.9999980809955927,117.18191678255872
6.288,0.999998018271196,117.09939946130298
6.296,0.9999979577644632,117.01687290837674
6.304,0.9999978994605686,116.93433710963039
6.312,0.9999978433446108,116.85179205093031
6.32,0.9999977894016124,116.76923771815899
6.328,0.9999977376165231,116.68667409721482
6.336,0.999997687974218,116.60410117401214
6.344,0.9999976404595012,116.52151893448134
6.352,0.9999975950571052,116.4389273645687
6.36,0.9999975517516924,116.35632645023644
6.368,0.9999975105278568,116.27371617746265
6.376,0.9999974713701237,116.19109653224133
6.384,0.9999974342629516,116.10846750058244
6.392,0.9999973991907332,116.02582906851164
6.4,0.9999973661377961,115.94318122207055
6.408,0.9999973350884042,115.86052394731657
6.416,0.9999973060267577,115.77785723032284
6.424,0.9999972789369956,115.69518105717844
6.432,0.9999972538031958,115.61249541398803
6.44,0.9999972306093761,115.52980028687215
6.448,0.9999972093394952,115.44709566196703
6.456,0.9999971899774541,115.36438152542452
6.464,0.9999971725070969,115.28165786341235
6.472,0.9999971569122116,115.19892466211373
6.48,0.9999971431765304,115.11618190772761
6.4879999999999995,0.999997131283733,115.0334295864686
6.496,0.9999971212174447,114.95066768456681
6.504,0.9999971129612397,114.86789618826808
6.5120000000000005,0.9999971064986404,114.7851150838337
6.52,0.9999971018131192,114.7023243575406
6.5280000000000005,0.9999970988880997,114.61952399568113
6.536,0.999997097706957,114.53671398456329
6.5440000000000005,0.999997098253019,114.45389431051045
6.552,0.9999971005095672,114.37106495986153
6.5600000000000005,0.999997104459838,114.2882259189708
6.568,0.9999971100870232,114.20537717420807
6.5760000000000005,0.9999971173742715,114.1225187119584
6.584,0.9999971263046888,114.03965051862242
6.592,0.9999971368613394,113.95677258061598
6.6,0.9999971490272473,113.87388488437028
6.608,0.9999971627853969,113.79098741633186
6.616,0.9999971781187332,113.70808016296257
6.624,0.9999971950101643,113.62516311073949
6.632,0.999997213442561,113.54223624615496
6.64,0.9999972333987576,113.45929955571654
6.648,0.9999972548615547,113.37635302594698
6.656,0.9999972778137176,113.29339664338423
6.664,0.9999973022379789,113.21043039458135
6.672,0.9999973281170389,113.12745426610657
6.68,0.9999973554335666,113.04446824454322
6.688,0.9999973841702001,112.96147231648965
6.696,0.9999974143095488,112.87846646855934
6.704,0.9999974458341924,112.79545068738076
6.712,0.9999974787266835,112.71242495959741
6.72,0.9999975129695478,112.62938927186772
6.728,0.999997548545285,112.54634361086516
6.736,0.9999975854363692,112.46328796327803
6.744,0.9999976236252508,112.38022231580959
6.752,0.999997663094357,112.29714665517801
6.76,0.9999977038260921,112.21406096811623
6.768,0.9999977458028385,112.1309652413721
6.776,0.9999977890069589,112.04785946170821
6.784,0.9999978334207954,111.96474361590197
6.792,0.9999978790266714,111.8816176907455
6.8,0.999997925806892,111.79848167304564
6.808,0.9999979737437447,111.71533554962399
6.816,0.999998022819501,111.6321793073167
6.824,0.9999980730164171,111.54901293297468
6.832,0.9999981243167334,111.46583641346339
6.84,0.9999981767026777,111.38264973566287
6.848,0.9999982301564636,111.29945288646773
6.856,0.9999982846602928,111.21624585278711
6.864,0.999998340196356,111.13302862154467
6.872,0.9999983967468329,111.0498011796785
6.88,0.9999984542938932,110.96656351414113
6.888,0.9999985128196983,110.88331561189956
6.896,0.9999985723064009,110.80005745993513
6.904,0.9999986327361463,110.71678904524356
6.912,0.9999986940910738,110.63351035483487
6.92,0.9999987563533164,110.55022137573339
6.928,0.9999988195050027,110.4669220949777
6.936,0.9999988835282562,110.38361249962068
6.944,0.9999989484051979,110.30029257672935
6.952,0.9999990141179463,110.21696231338493
6.96,0.9999990806486172,110.13362169668277
6.968,0.999999147979326,110.05027071373236
6.976,0.9999992160921878,109.96690935165726
6.984,0.9999992849693179,109.8835375975951
6.992,0.9999993545928333,109.8001554386975
7.0,0.9999994249448524,109.71676286213008
7.008,0.9999994960074969,109.63335985507246
7.016,0.9999995677628916,109.54994640471814
7.024,0.9999996401931658,109.4665224982745
7.032,0.9999997132804539,109.38308812296283
7.04,0.9999997870068955,109.29964326601824
7.048,0.9999998613546371,109.21618791468961
7.056,0.9999999363058323,109.13272205623959
7.064,0.9999999999999999,109.04924567794458
7.072,0.9999999999999999,108.96575876709466
7.08,1.0,108.88226131099358
7.088,1.0000000000000002,108.79875329695872
7.096,1.0,108.71523471232103
7.104,1.0,108.6317055444251
7.112,0.9999999999999999,108.54816578062892
7.12,1.0,108.46461540830408
7.128,0.9999999999999999,108.3810544148356
7.136,0.9999999999999999,108.2974827876219
7.144,0.9999999999999999,108.2139005140748
7.152,0.9999999999999999,108.13030758161946
7.16,1.0,108.04670397769438
7.168,1.0,107.96308968975133
7.176,1.0,107.87946470525529
7.184,0.9999999999999999,107.79582901168452
7.192,1.0,107.71218259653037
7.2,1.0,107.62852544729738
7.208,0.9999999999999999,107.54485755150316
7.216,0.9999999999999999,107.46117889667839
7.224,0.9999999999999999,107.37748947036675
7.232,0.9999999999999999,107.29378926012494
7.24,0.9999999999999999,107.21007825352257
7.248,1.0,107.12635643814221
7.256,0.9999999999999999,107.04262380157921
7.264,0.9999999999999999,106.95888033144185
7.272,1.0,106.87512601535114
7.28,1.0,106.79136084094084
7.288,1.0,106.70758479585747
7.296,1.0,106.62379786776016
7.304,0.9999999999999999,106.54000004432072
7.312,0.9999999999999999,106.45619131322357
7.32,1.0,106.37237166216559
7.328,1.0,106.28854107885627
7.336,1.0,106.20469955101753
7.344,1.0,106.12084706638372
7.352,0.9999999999999999,106.03698361270156
7.36,1.0,105.95310917773016
7.368,1.0,105.86922374924092
7.376,1.0,105.78532731501744
7.384,1.0,105.70141986285564
7.392,1.0,105.61750138056355
7.4,1.0,105.53357185596136
7.4079999999999995,1.0,105.44963127688133
7.416,0.9999999999999999,105.36567963116775
7.4239999999999995,0.9999999999999998,105.28171690667699
7.432,0.9999999999999998,105.19774309127726
7.4399999999999995,1.0,105.11375817284883
7.448,0.9999999999999999,105.02976213928368
7.4559999999999995,1.0,104.94575497848572
7.464,1.0,104.86173667837059
7.4719999999999995,1.0,104.77770722686572
7.48,1.0,104.69366661191012
7.4879999999999995,0.9999999999999999,104.60961482145456
7.496,1.0,104.5255518434613
7.504,1.0,104.4414776659042
7.5120000000000005,1.0,104.3573922767686
7.52,1.0,104.27329566405135
7.5280000000000005,0.9999999999999999,104.18918781576058
7.536,0.9999999999999999,104.10506871991586
7.5440000000000005,1.0,104.02093836454806
7.552,1.0,103.93679673769928
7.5600000000000005,1.0,103.85264382742282
7.568,1.0,103.7684796217832
7.5760000000000005,1.0,103.68430410885593
7.584,1.0,103.6001172767277
7.5920000000000005,0.9999999999999999,103.51591911349612
7.6,0.9999999999999999,103.4317096072698
7.6080000000000005,1.0,103.3474887461682
7.616,0.9999999999999999,103.26325651832167
7.6240000000000006,1.0,103.17901291187133
7.632,1.0,103.0947579149691
7.640000000000001,1.0,103.01049151577749
7.648,1.0,102.92621370246975
7.656000000000001,1.0,102.84192446322963
7.664,1.0,102.75762378625147
7.672,1.0,102.67331165974002
7.68,1.0,102.58898807191052
7.688,1.0,102.50465301098848
7.696,1.0,102.42030646520976
7.704,1.0,102.3359484228205
7.712,0.9999999999999999,102.25157887207698
7.72,1.0,102.16719780124562
7.728,0.9999999999999999,102.08280519860293
7.736,0.9999999999999998,101.9984010524354
7.744,0.9999999999999999,101.91398535103949
7.752,1.0,101.82955808272156
7.76,0.9999999999999999,101.74511923579782
7.768,1.0,101.66066879859422
7.776,1.0,101.57620675944639
7.784,0.9999999999999999,101.49173310669971
7.792,1.0,101.40724782870903
7.8,1.0,101.32275091383877
7.808,1.0,101.23824235046284
7.816,1.0,101.15372212696448
7.824,1.0,101.0691902317363
7.832,1.0,100.98464665318012
7.84,0.9999999999999999,100.90009137970702
7.848,1.0,100.81552439973714
7.856,0.9999999999999999,100.73094570169975
7.864,1.0,100.64635527403303
7.872,1.0,100.56175310518412
7.88,0.9999999999999999,100.47713918360901
7.888,1.0,100.39251349777246
7.896,1.0,100.30787603614793
7.904,1.0,100.22322678721751
7.912,0.9999999999999999,100.13856573947189
7.92,1.0,100.05389288141015
7.928,0.9999999999999999,99.9692082015399
7.936,1.0,99.88451168837699
7.944,0.9999999999999999,99.79980333044556
7.952,1.0,99.71508311627792
7.96,1.0,99.6303510344145
7.968,1.0,99.54560707340374
7.976,1.0,99.460851221802
7.984,1.0,99.3760834681735
7.992,0.9999999999999999,99.29130380109025
8.0,0.9999999999999999,99.20651220913194
8.008,0.9999999999999999,99.12170868088587
8.016,1.0,99.03689320494685
8.024000000000001,0.9999999999999999,98.95206576991713
8.032,0.9999999999999999,98.86722636440629
8.04,0.9999999999999999,98.78237497703118
8.048,1.0,98.69751159641577
8.056000000000001,1.0,98.61263621119113
8.064,0.9999999999999999,98.52774880999536
8.072,1.0,98.44284938147335
8.08,1.0,98.35793791427677
8.088000000000001,0.9999999999999998,98.27301439706406
8.096,0.9999999999999999,98.1880788185002
8.104,1.0,98.10313116725666
8.112,1.0,98.01817143201126
8.120000000000001,1.0,97.93319960144814
8.128,1.0,97.84821566425764
8.136,0.9999999999999998,97.76321960913609
8.144,1.0,97.67821142478583
8.152000000000001,0.9999999999999999,97.59319109991503
8.16,0.9999999999999998,97.50815862323765
8.168,0.9999999999999999,97.4231139834732
8.176,1.0,97.33805716934667
8.184000000000001,0.9999999999999999,97.25298816958852
8.192,1.0,97.16790697293445
8.2,1.0,97.08281356812526
8.208,0.9999999999999999,96.9977079439068
8.216000000000001,0.9999999999999999,96.91259008902982
8.224,1.0,96.82745999224984
8.232,0.9999999999999999,96.74231764232695
8.24,0.9999999999999999,96.65716302802576
8.248000000000001,1.0,96.57199613811528
8.256,0.9999999999999999,96.48681696136872
8.264,1.0,96.40162548656333
8.272,0.9999999999999999,96.31642170248031
8.280000000000001,1.0,96.23120559790466
8.288,1.0,96.14597716162504
8.296,1.0,96.06073638243352
8.304,0.9999999999999999,95.9754832491255
8.312,1.0,95.89021775049963
8.32,0.9999999999999998,95.80493987535745
8.328,1.0,95.71964961250339
8.336,1.0,95.63434695074451
8.344,1.0,95.5490318788904
8.352,1.0,95.46370438575292
8.36,1.0,95.37836446014607
8.368,0.9999999999999999,95.29301209088577
8.376,0.9999999999999998,95.20764726678972
8.384,1.0,95.12226997667713
8.392,1.0,95.03688020936862
8.4,0.9999999999999999,94.95147795368588
8.408,1.0,94.86606319845163
8.416,1.0,94.78063593248925
8.424,0.9999999999999999,94.69519614462264
8.432,0.9999999999999999,94.609743823676
8.44,1.0,94.52427895847357
8.448,0.9999999999999999,94.43880153783937
8.456,1.0,94.35331155059706
8.464,1.0,94.26780898556954
8.472,0.9999999999999999,94.18229383157887
8.48,1.0,94.09676607744584
8.488,1.0,94.0112257119898
8.496,1.0,93.92567272402836
8.504,1.0,93.84010710237716
8.512,0.9999999999999999,93.75452883584943
8.52,1.0,93.66893791325587
8.528,1.0,93.58333432340423
8.536,1.0,93.49771805509901
8.544,1.0,93.41208909714119
8.552,1.0,93.32644743832785
8.56,1.0,93.24079306745175
8.568,1.0,93.1551259733012
8.576,1.0,93.06944614465941
8.584,1.0,92.9837535703044
8.592,1.0,92.89804823900836
8.6,0.9999999999999999,92.81233013953742
8.608,0.9999999999999999,92.72659926065118
8.616,1.0,92.64085559110231
8.624,1.0,92.55509911963601
8.632,1.0,92.4693298349898
8.64,0.9999999999999999,92.38354772589273
8.648,1.0,92.29775278106524
8.656,1.0,92.21194498921838
8.664,0.9999999999999998,92.12612433905353
8.672,1.0,92.04029081926166
8.68,1.0,91.95444441852298
8.688,1.0,91.86858512550623
8.696,1.0,91.78271292886824
8.704,1.0,91.69682781725315
8.712,1.0,91.61092977929201
8.72,1.0,91.52501880360194
8.728,0.9999999999999999,91.4390948787856
8.736,1.0,91.3531579934304
8.744,1.0,91.26720813610793
8.752,1.0,91.18124529537305
8.76,0.9999999999999999,91.09526945976326
8.768,1.0,91.0092806177979
8.776,1.0,90.9232787579773
8.784,1.0,90.83726386878189
8.792,1.0,90.75123593867141
8.8,1.0,90.66519495608398
8.808,1.0,90.57914090943515
8.815999999999999,1.0,90.49307378711687
8.824,0.9999999999999999,90.40699357749656
8.832,1.0,90.32090026891603
8.84,1.0,90.23479384969042
8.847999999999999,1.0,90.14867430810695
8.856,0.9999999999999999,90.06254163242386
8.864,0.9999999999999999,89.9763958108692
8.872,1.0,89.89023683163951
8.879999999999999,0.9999998102205359,89.80406468289848
8.888,0.999999589394561,89.71787935277564
8.896,0.9999993647702106,89.63168082936491
8.904,0.9999991362876577,89.54546910072318
8.911999999999999,0.9999989038849546,89.45924415486867
8.92,0.9999986674979338,89.37300597977939
8.928,0.9999984270600975,89.28675456339157
8.936,0.9999981825025062,89.20048989359778
8.943999999999999,0.9999979337536596,89.1142119582452
8.952,0.9999976807393691,89.02792074513381
8.96,0.999997423382627,88.94161624201439
8.968,0.9999971616034625,88.85529843658651
8.975999999999999,0.9999968953187958,88.76896731649647
8.984,0.9999966244422779,88.68262286933502
8.992,0.999996348884125,88.59626508263526
9.0,0.999996068550941,88.50989394387008
9.008,0.9999957833455302,88.42350944044986
9.016,0.999995493166699,88.33711155971983
9.024000000000001,0.9999951979090425,88.25070028895746
9.032,0.9999948974627224,88.16427561536966
9.04,0.9999945917132291,88.07783752608992
9.048,0.9999942805411265,87.99138600817533
9.056000000000001,0.9999939638217846,87.90492104860348
9.064,0.9999936414250913,87.81844263426927
9.072,0.9999933132151482,87.73195075198151
9.08,0.9999929790499437,87.64544538845936
9.088000000000001,0.9999926387810077,87.558926530329
9.096,0.99999229225304,87.47239416411963
9.104,0.9999919393035147,87.38584827625975
9.112,0.999991579762258,87.299288853073
9.120000000000001,0.999991213450996,87.21271588077423
9.128,0.9999908401828708,87.12612934546507
9.136,0.9999904597619212,87.0395292331296
9.144,0.9999900719825304,86.9529155296296
9.152000000000001,0.9999896766288265,86.86628822070026
9.16,0.9999892734740456,86.77964729194503
9.168,0.9999888622798442,86.69299272883082
9.176,0.9999884427955598,86.60632451668297
9.184000000000001,0.9999880147574162,86.51964264068027
9.192,0.9999875778876681,86.43294708584958
9.2,0.9999871318936775,86.3462378370607
9.208,0.9999866764669171,86.2595148790211
9.216000000000001,0.9999862112818951,86.17277819627068
9.224,0.9999857359949939,86.08602777317662
9.232,0.9999852502432085,85.9992635939282
9.24,0.9999847536427874,85.91248564253193
9.248000000000001,0.9999842457877536,85.82569390280696
9.256,0.9999837262483001,85.73888835838059
9.264,0.999983194569049,85.65206899268446
9.272,0.9999826502671567,85.56523578895107
9.280000000000001,0.999982092830249,85.47838873021136
9.288,0.999981521714172,85.39152779929283
9.296,0.9999809363405386,85.304652978819
9.304,0.999980336094045,85.21776425121007
9.312000000000001,0.9999797203195357,85.13086159868554
9.32,0.999979088318789,85.0439450032687
9.328,0.9999784393469918,84.95701444679361
9.336,0.9999777726088661,84.87006991091516
9.344,0.9999770872544104,84.78311137712303
9.352,0.9999763823742113,84.69613882675954
9.36,0.9999756569942683,84.60915224104342
9.368,0.9999749100702834,84.5221516010996
9.376,0.9999741404813424,84.43513688799683
9.384,0.9999733470229119,84.34810808279474
9.392,0.9999725283990765,84.26106516660168
9.4,0.999971683213903,84.17400812064632
9.408,0.9999708099618347,84.08693692636533
9.416,0.9999699070169755,83.99985156551023
9.424,0.9999689726211197,83.91275202027809
9.432,0.9999680048703635,83.82563827347025
9.44,0.9999670017000865,83.73851030868519
9.448,0.9999659608680931,83.651368110553
9.456,0.9999648799356355,83.56421166501993
9.464,0.999963756246021,83.47704095969398
9.472,0.9999625869004454,83.38985598426461
9.48,0.9999613687306341,83.30265673101326
9.488,0.9999600982678136,83.21544319543472
9.496,0.9999587717074414,83.12821537699423
9.504,0.9999573848690337,83.04097328005243
9.512,0.9999559331503163,82.95371691499584
9.52,0.9999544114747765,82.86644629962355
9.528,0.9999528142315608,82.77916146085026
9.536,0.9999511352064415,82.69186243680477
9.544,0.9999493675023782,82.60454927942199
9.552,0.9999475034479389,82.51722205765583
9.56,0.9999455344915352,82.42988086147251
9.568,0.9999434510790893,82.34252580683369
9.576,0.9999412425123705,82.25515704193664
9.584,0.9999388967847945,82.1677747550599
9.592,0.9999364003910493,82.08037918446847
9.6,0.9999337381064586,81.99297063097406
9.608,0.9999308927316363,81.90554947393491
9.616,0.9999278447978119,81.81811619173362
9.624,0.9999245722284064,81.73067138811417
9.632,0.9999210499534027,81.64321582622487
9.64,0.99991724947529,81.55575047284222
9.648,0.9999131383899355,81.46827655611095
9.656,0.9999086798742008,81.38079564129491
9.664,0.9999038321672994,81.29330973061181
9.672,0.9998985480992971,81.20582139533028
9.68,0.9998927747653873,81.11833395109136
9.688,0.9998864535212884,81.03085169096727
9.696,0.9998795206038452,80.94338019506134
9.704,0.9998719088951736,80.85592674003331
9.712,0.9998635517010299,80.76850083541055
9.72,0.9998543899831333,80.68111491233425
9.728,0.9998443853771095,80.59378517633571
9.736,0.9998335426529795,80.50653259149486
9.744,0.9998219470479545,80.41938385464718
9.752,0.9998098237384788,80.33237198375271
9.76,0.9997976270922647,80.24553569198673
9.768,0.9997861620859543,80.15891596482058
9.776,0.9997767206290489,80.07254730460588
9.784,0.9997711690027253,79.98644072360565
9.792,0.9997718474436754,79.90055790103891
9.8,0.9997810909350343,79.81478414383655
9.808,0.9998002993236054,79.72892119051342
9.816,0.9998289026329055,79.642725507514
9.824,0.9998640100461834,79.55599148287361
9.832,0.9999012822068427,79.46863161244954
9.84,0.9999365414326146,79.38069585019615
9.847999999999999,0.9999670073324368,79.29232451002035
9.856,0.9999915696978159,79.20368016738259
9.864,1.0,79.1149005773382
9.872,1.0,79.02608213958212
9.879999999999999,0.9999999999999999,78.9372830207809
9.888,1.0,78.84853331846759
9.896,0.9999999999999999,78.75984512923539
9.904,1.0,78.671220106345
9.911999999999999,1.0,78.58265441448856
9.92,1.0000000000000002,78.4941417157603
9.928,1.0,78.40567485576832
9.936,0.9999999999999999,78.31724675462041
9.943999999999999,1.0,78.22885083584698
9.952,1.0,78.1404811980273
9.96,0.9999999999999999,78.05213264963395
9.968,0.9999999999999999,77.96380067580668
9.975999999999999,1.0,77.87548137511858
9.984,1.0,77.7871713867198
9.992,0.9999999999999998,77.69886781825386
10.0,1.0,77.61056817940674
10.008,0.9999999999999999,77.52227032296051
10.016,0.9999999999999999,77.43397239366914
10.024000000000001,1.0,77.34567278451732
10.032,1.0,77.25737009960011
10.04,0.9999999999999999,77.1690631227681
10.048,1.0,77.08075079120486
10.056000000000001,1.0,76.9924321731775
