freq,mag,phase
6.0,0.9999945952090804,64.11702294215777
6.008,0.999994453987244,63.929385650150316
6.016,0.9999943074828825,63.74164262633347
6.024,0.999994155864483,63.553793970881124
6.032,0.9999939992986395,63.36583978538793
6.04,0.9999938379500611,63.17778017287238
6.048,0.9999936719815793,62.9896152377798
6.056,0.9999935015541538,62.801345085985275
6.064,0.9999933268268811,62.61296982479674
6.072,0.999993147957,62.424489562957774
6.08,0.9999929650998994,62.23590441065049
6.088,0.9999927784091254,62.04721447949853
6.096,0.9999925880363882,61.85841988256971
6.104,0.9999923941315704,61.66952073437903
6.112,0.9999921968427316,61.480517150891174
6.12,0.9999919963161187,61.291409249523525
6.128,0.9999917926961719,61.102197149148694
6.136,0.999991586125531,60.912880970097234
6.144,0.9999913767450443,60.723460834160306
6.152,0.9999911646937754,60.53393686459223
6.16,0.9999909501090106,60.344309186113136
6.168,0.9999907331262665,60.15457792491145
6.176,0.9999905138792972,59.9647432086464
6.184,0.9999902925001021,59.77480516645049
6.192,0.9999900691189335,59.58476392893197
6.2,0.9999898438643039,59.394619628177246
6.208,0.9999896168629944,59.20437239775319
6.216,0.9999893882400606,59.01402237270949
6.224,0.9999891581188428,58.82356968958101
6.232,0.9999889266209716,58.63301448639
6.24,0.9999886938663768,58.44235690264831
6.248,0.9999884599732947,58.25159707935964
6.256,0.9999882250582759,58.06073515902165
6.264,0.9999879892361939,57.869771285628055
6.272,0.9999877526202522,57.6787056046708
6.28,0.9999875153219923,57.48753826314201
6.288,0.9999872774513019,57.29626940953604
6.296,0.9999870391164231,57.104899193851416
6.304,0.9999868004239593,56.91342776759283
6.312,0.9999865614788852,56.721855283772975
6.32,0.9999863223845528,56.53018189691439
6.328,0.9999860832427011,56.338407763051286
6.336,0.9999858441534635,56.1465330397314
6.344,0.9999856052153753,55.9545578860176
6.352,0.9999853665253841,55.76248246248968
6.36,0.9999851281788551,55.57030693124599
6.368,0.9999848902695819,55.378031455904996
6.376,0.9999846528897935,55.18565620160698
6.384,0.9999844161301625,54.99318133501547
6.392,0.9999841800798142,54.800607024318744
6.4,0.9999839448263345,54.60793343923133
6.408,0.9999837104557782,54.4151607509954
6.416,0.9999834770526779,54.22228913238213
6.424,0.9999832447000525,54.029318757693
6.432,0.9999830134794143,53.83624980276118
6.44,0.9999827834707801,53.64308244495265
6.448,0.9999825547526764,53.449816863167435
6.456,0.9999823274021516,53.25645323784082
6.464,0.9999821014947816,53.06299175094445
6.472,0.99998187710468,52.86943258598731
6.48,0.999981654304507,52.675775928016854
6.4879999999999995,0.9999814331654764,52.482021963619964
6.496,0.9999812137573661,52.28817088092378
6.504,0.9999809961485255,52.09422286959683
6.5120000000000005,0.9999807804058851,51.90017812084958
6.52,0.9999805665949657,51.70603682743557
6.5280000000000005,0.9999803547798852,51.511799183651775
6.536,0.9999801450233697,51.317465385339744
6.5440000000000005,0.9999799373867609,51.123035629885884
6.552,0.999979731930026,50.92851011622238
6.5600000000000005,0.9999795287117654,50.733889044827556
6.568,0.9999793277892228,50.539172617726564
6.5760000000000005,0.9999791292182931,50.34436103849168
6.584,0.9999789330535327,50.14945451224298
6.592,0.9999787393481664,49.95445324564849
6.6,0.9999785481540991,49.75935744692466
6.608,0.9999783595219224,49.56416732583663
6.616,0.999978173500925,49.36888309369848
6.624,0.9999779901391013,49.17350496337335
6.632,0.9999778094831612,48.97803314927371
6.64,0.9999776315785378,48.7824678673614
6.648,0.9999774564693977,48.58680933514763
6.656,0.99997728419865,48.391057771693006
6.664,0.9999771148079553,48.19521339760759
6.672,0.9999769483377344,47.99927643505064
6.68,0.9999767848271786,47.80324710773056
6.688,0.9999766243142578,47.607125640904655
6.696,0.9999764668357306,47.410912261378954
6.704,0.9999763124271531,47.214607197507775
6.712,0.9999761611228886,47.018210679193565
6.72,0.9999760129561157,46.82172293788632
6.728,0.9999758679588396,46.62514420658323
6.736,0.9999757261618999,46.42847471982819
6.744,0.9999755875949798,46.23171471371118
6.752,0.9999754522866171,46.03486442586773
6.76,0.999975320264212,45.83792409547821
6.768,0.9999751915540365,45.64089396326715
6.776,0.9999750661812451,45.443774271502484
6.784,0.9999749441698832,45.24656526399472
6.792,0.9999748255428963,45.04926718609608
6.8,0.99997471032214,44.8518802846996
6.808,0.9999745985283902,44.65440480823812
6.816,0.9999744901813505,44.456841006683355
6.824,0.9999743852996635,44.25918913154467
6.832,0.9999742839009199,44.06144943586807
6.84,0.9999741860016672,43.86362217423502
6.848,0.9999740916174197,43.66570760276111
6.856,0.9999740007626688,43.46770597909486
6.864,0.9999739134508909,43.26961756241634
6.872,0.999973829694559,43.07144261343578
6.88,0.9999737495051502,42.873181394392084
6.888,0.9999736728931563,42.674834169051394
6.896,0.9999735998680932,42.47640120270547
6.904,0.9999735304385108,42.277882762170094
6.912,0.999973464612002,42.0792791157834
6.92,0.9999734023952126,41.88059053340417
6.928,0.9999733437938508,41.68181728640999
6.936,0.9999732888126969,41.48295964769551
6.944,0.9999732374556127,41.28401789167042
6.952,0.9999731897255514,41.084992294257724
6.96,0.9999731456245666,40.88588313289148
6.968,0.9999731051538231,40.68669068651491
6.976,0.9999730683136053,40.487415235578226
6.984,0.9999730351033268,40.2880570620365
6.992,0.9999730055215416,40.088616449347406
7.0,0.9999729795659514,39.88909368246896
7.008,0.9999729572334174,39.68948904785713
7.016,0.9999729385199688,39.489802833463564
7.024,0.9999729234208118,39.29003532873298
7.032,0.9999729119303411,39.09018682460082
7.04,0.9999729040421474,38.89025761349053
7.048,0.999972899749029,38.69024798931112
7.056,0.9999728990429998,38.49015824745429
7.064,0.9999729019152998,38.28998868479187
7.072,0.9999729083564044,38.0897395996729
7.08,0.9999729183560344,37.889411291920915
7.088,0.9999729319031652,37.68900406283089
7.096,0.9999729489860362,37.48851821516641
7.104,0.9999729695921609,37.287954053156575
7.112,0.9999729937083368,37.08731188249297
7.12,0.9999730213206537,36.886592010326474
7.128,0.9999730524145048,36.685794745264175
7.136,0.9999730869745951,36.48492039736598
7.144,0.9999731249849519,36.28396927814147
7.152,0.9999731664289332,36.08294170054637
7.16,0.9999732112892384,35.8818379789793
7.168,0.9999732595479176,35.68065842927814
7.176,0.9999733111863806,35.47940336871661
7.184,0.9999733661854067,35.27807311600066
7.192,0.9999734245251545,35.076667991264785
7.2,0.9999734861851711,34.87518831606828
7.208,0.9999735511444018,34.67363441339161
7.216,0.9999736193811992,34.47200660763248
7.224,0.9999736908733331,34.27030522460193
7.232,0.9999737655979997,34.068530591520535
7.24,0.999973843531831,33.86668303701427
7.248,0.9999739246509051,33.664762891110506
7.256,0.9999740089307537,33.462770485233975
7.264,0.9999740963463732,33.26070615220245
7.272,0.9999741868722339,33.058570226222656
7.28,0.999974280482289,32.856363042885924
7.288,0.9999743771499833,32.654084939163845
7.296,0.9999744768482636,32.45173625340391
7.304,0.9999745795495877,32.24931732532503
7.312,0.9999746852259336,32.04682849601301
7.32,0.9999747938488089,31.844270107916028
7.328,0.9999749053892596,31.64164250483995
7.336,0.9999750198178805,31.43894603194368
7.344,0.9999751371048223,31.236181035734422
7.352,0.9999752572198036,31.03334786406285
7.36,0.9999753801321174,30.830446866118248
7.368,0.9999755058106424,30.62747839242372
7.376,0.9999756342238506,30.424442794830973
7.384,0.9999757653398172,30.22134042651557
7.392,0.9999758991262296,30.018171641971627
7.4,0.9999760355503962,29.81493679700678
7.4079999999999995,0.9999761745792557,29.611636248737017
7.416,0.9999763161793861,29.408270355581255
7.4239999999999995,0.9999764603170133,29.204839477256314
7.432,0.9999766069580206,29.001343974771203
7.4399999999999995,0.9999767560679574,28.79778421042207
7.448,0.999976907612048,28.594160547786327
7.4559999999999995,0.9999770615552007,28.39047335171755
7.464,0.9999772178620169,28.186722988339408
7.4719999999999995,0.9999773764967983,27.982909825040522
7.48,0.9999775374235584,27.779034230468266
7.4879999999999995,0.9999777006060293,27.575096574523478
7.496,0.9999778660076707,27.371097228354223
7.504,0.9999780335916789,27.167036564350305
7.5120000000000005,0.9999782033209959,26.962914956136952
7.52,0.9999783751583168,26.75873277856928
7.5280000000000005,0.9999785490661001,26.5544904077258
7.536,0.9999787250065741,26.35018822090276
7.5440000000000005,0.9999789029417482,26.14582659660761
7.552,0.9999790828334184,25.941405914553183
7.5600000000000005,0.9999792646431783,25.736926555651074
7.568,0.999979448332426,25.53238890200567
7.5760000000000005,0.999979633862373,25.3277933369075
7.584,0.9999798211940527,25.123140244827102
7.5920000000000005,0.9999800102883286,24.918430011408258
7.6,0.9999802011059018,24.713663023461816
7.6080000000000005,0.9999803936073212,24.508839668958718
7.616,0.99998058775299,24.303960337023813
7.6240000000000006,0.9999807835031739,24.099025417928747
7.632,0.9999809808180101,23.89403530308565
7.640000000000001,0.9999811796575157,23.68899038503994
7.648,0.9999813799815934,23.483891057463904
7.656000000000001,0.9999815817500429,23.27873771514936
7.664,0.9999817849225658,23.073530754001236
7.672,0.999981989458776,22.86827057103007
7.68,0.9999821953182054,22.662957564345323
7.688,0.9999824024603136,22.457592133148157
7.696,0.9999826108444944,22.252174677724284
7.704,0.9999828204300841,22.046705599436823
7.712,0.9999830311763697,21.841185300719
7.72,0.9999832430425949,21.635614185066924
7.728,0.99998345598797,21.42999265703215
7.736,0.9999836699716776,21.2243211222144
7.744,0.999983884952881,21.01859998725402
7.752,0.999984100890732,20.812829659824573
7.76,0.9999843177443768,20.607010548625244
7.768,0.9999845354729652,20.40114306337328
7.776,0.9999847540356571,20.195227614796334
7.784,0.99998497339163,19.98926461462481
7.792,0.9999851935000853,19.783254475584126
7.8,0.9999854143202572,19.577197611386907
7.808,0.9999856358114186,19.371094436725212
7.816,0.9999858579328884,19.164945367262618
7.824,0.9999860806440387,18.95875081962634
7.832,0.9999863039043019,18.75251121139922
7.84,0.9999865276731771,18.546226961111785
7.848,0.9999867519102379,18.339898488234116
7.856,0.9999869765751378,18.133526213167837
7.864,0.9999872016276191,17.92711055723788
7.872,0.9999874270275173,17.720651942684377
7.88,0.9999876527347693,17.514150792654362
7.888,0.9999878787094197,17.307607531193547
7.896,0.9999881049116267,17.101022583237988
7.904,0.9999883313016699,16.89439637460569
7.912,0.9999885578399552,16.68772933198825
7.92,0.9999887844870221,16.481021882942393
7.928,0.9999890112035507,16.274274455881457
7.936,0.9999892379503662,16.06748748006692
7.944,0.9999894646884464,15.860661385599764
7.952,0.9999896913789279,15.653796603411914
7.96,0.9999899179831115,15.446893565257549
7.968,0.9999901444624686,15.239952703704429
7.976,0.9999903707786476,15.032974452125158
7.984,0.9999905968934789,14.825959244688399
7.992,0.9999908227689818,14.61890751635009
8.0,0.9999910483673695,14.41181970284457
8.008,0.9999912736510553,14.20469624067572
8.016,0.9999914985826581,13.997537567107928
8.024000000000001,0.9999917231250085,13.790344120157323
8.032,0.9999919472411531,13.583116338582675
8.04,0.9999921708943618,13.375854661876248
8.048,0.9999923940481313,13.168559530254822
8.056000000000001,0.9999926166661925,12.9612313846507
8.064,0.9999928387125145,12.753870666702433
8.072,0.9999930601513097,12.54647781874558
8.08,0.9999932809470404,12.339053283803564
8.088000000000001,0.9999935010644214,12.131597505578544
8.096,0.9999937204684289,11.924110928442005
8.104,0.9999939391243017,11.71659399742538
8.112,0.9999941569975476,11.50904715821078
8.120000000000001,0.999994374053949,11.301470857121716
8.128,0.9999945902595678,11.093865541113576
8.136,0.9999948055807477,10.886231657764117
8.144,0.9999950199841223,10.678569655264058
8.152000000000001,0.9999952334366172,10.470879982407672
8.16,0.999995445905455,10.263163088583175
8.168,0.9999956573581613,10.055419423763036
8.176,0.9999958677625672,9.847649438494518
8.184000000000001,0.9999960770868145,9.639853583890105
8.192,0.9999962852993605,9.432032311617778
8.2,0.9999964923689807,9.224186073891246
8.208,0.9999966982647751,9.016315323460322
8.216000000000001,0.9999969029561698,8.808420513601293
8.224,0.9999971064129237,8.600502098107038
8.232,0.9999973086051296,8.392560531277194
8.24,0.999997509503221,8.1845962679084
8.248000000000001,0.9999977090779733,7.976609763284571
8.256,0.999997907300509,7.768601473166929
8.264,0.9999981041423016,7.5605718537840305
8.272,0.999998299575178,7.352521361821964
8.280000000000001,0.9999984935713232,7.1444504544144944
8.288,0.9999986861032826,6.936359589133009
8.296,0.9999988771439676,6.728249223976458
8.304,0.9999990666666561,6.520119817361453
8.312,0.9999992546449968,6.311971828112378
8.32,0.9999994410530141,6.103805715451025
8.328,0.9999996258651088,5.8956219389868965
8.336,0.9999998090560626,5.687420958706761
8.344,0.9999999906010404,5.479203234964938
8.352,1.0,5.270969228472775
8.36,0.9999999999999999,5.062719400288912
8.368,1.0,4.854454211808744
8.376,1.0,4.646174124754608
8.384,1.0,4.437879601165255
8.392,1.0,4.229571103385985
8.4,1.0,4.021249094058068
8.408,1.0,3.812914036108891
8.416,1.0,3.604566392741311
8.424,1.0,3.3962066274237945
8.432,0.9999999999999999,3.187835203879734
8.44,0.9999999999999999,2.979452586077562
8.448,0.9999999999999999,2.771059238220057
8.456,0.9999999999999998,2.5626556247343997
8.464,0.9999999999999999,2.3542422102614866
8.472,0.9999999999999999,2.145819459645954
8.48,1.0,1.9373878379254614
8.488,1.0,1.728947810320711
8.496,1.0,1.5204998422247005
8.504,1.0,1.3120443991927244
8.512,1.0,1.1035819469316157
8.52,1.0,0.8951129512897306
8.528,0.9999999999999999,0.6866378782461688
8.536,0.9999999999999999,0.4781571939007452
8.544,0.9999999999999999,0.2696713644632123
8.552,1.0,0.06118085624320056
8.56,0.9999999999999998,-0.14731386436056598
8.568,1.0,-0.3558123308703295
8.576,1.0,-0.5643140767400999
8.584,0.9999999999999999,-0.7728186353657156
8.592,1.0,-0.981325540095659
8.6,0.9999999999999998,-1.189834324241121
8.608,1.0,-1.398344521086813
8.616,1.0,-1.6068556639010467
8.624,0.9999999999999999,-1.8153672859465373
8.632,0.9999999999999999,-2.0238789204904863
8.64,1.0,-2.2323901008153983
8.648,0.9999999999999999,-2.440900360229148
8.656,1.0,-2.649409232075791
8.664,1.0,-2.857916249745647
8.672,0.9999999999999998,-3.0664209466860894
8.68,0.9999999999999999,-3.274922856411627
8.688,1.0,-3.4834215125146955
8.696,1.0,-3.69191644867572
8.704,1.0,-3.900407198673906
8.712,1.0,-4.108893296397293
8.72,0.9999999999999999,-4.317374275853521
8.728,1.0,-4.525849671179894
8.736,1.0,-4.73431901665412
8.744,1.0,-4.942781846704356
8.752,1.0,-5.151237695919956
8.76,0.9999999999999999,-5.359686099061474
8.768,1.0,-5.568126591071399
8.776,1.0,-5.776558707084162
8.784,1.0,-5.9849819824368335
8.792,1.0,-6.1933959526791025
8.8,1.0,-6.401800153583971
8.808,1.0,-6.610194121157707
8.815999999999999,1.0,-6.8185773916504635
8.824,1.0,-7.026949501566434
8.832,1.0,-7.2353099876740465
8.84,1.0,-7.443658387016311
8.847999999999999,1.0,-7.651994236921166
8.856,0.9999999999999999,-7.860317075011635
8.864,1.0,-8.068626439215933
8.872,1.0,-8.276921867777792
8.879999999999999,1.0,-8.485202899266728
8.888,1.0,-8.693469072588115
8.896,1.0,-8.901719926993268
8.904,1.0,-9.10995500208967
8.911999999999999,0.9999999999999999,-9.31817383785118
8.92,1.0,-9.526375974628035
8.928,1.0,-9.734560953156867
8.936,0.9999999999999999,-9.942728314570836
8.943999999999999,1.0,-10.150877600409776
8.952,1.0,-10.35900835263012
8.96,1.0,-10.56712011361483
8.968,1.0,-10.775212426183431
8.975999999999999,1.0,-10.983284833602106
8.984,1.0,-11.191336879593505
8.992,0.9999999999999999,-11.399368108346597
9.0,0.9999999999999999,-11.60737806452662
9.008,1.0,-11.815366293285065
9.016,0.9999999999999999,-12.023332340269402
9.024000000000001,1.0,-12.231275751632838
9.032,0.9999999999999999,-12.439196074044158
9.04,1.0,-12.647092854697615
9.048,1.0,-12.854965641322558
9.056000000000001,1.0,-13.062813982193068
9.064,0.9999999999999999,-13.27063742613771
9.072,0.9999999999999999,-13.478435522549319
9.08,0.9999999999999999,-13.686207821394493
9.088000000000001,1.0,-13.893953873223136
9.096,1.0,-14.10167322917811
9.104,1.0,-14.309365441004857
9.112,1.0,-14.517030061060835
9.120000000000001,1.0,-14.724666642324891
9.128,1.0,-14.932274738406823
9.136,1.0,-15.139853903556874
9.144,1.0,-15.347403692675037
9.152000000000001,0.9999999999999999,-15.554923661320299
9.16,0.9999999999999999,-15.762413365720102
9.168,1.0,-15.969872362779638
9.176,1.0,-16.177300210091133
9.184000000000001,1.0,-16.384696465942845
9.192,1.0,-16.59206068932844
9.2,1.0,-16.799392439956222
9.208,1.0,-17.006691278258106
9.216000000000001,0.9999999999999999,-17.213956765398667
9.224,1.0,-17.421188463284228
9.232,0.9999999999999999,-17.62838593457202
9.24,1.0,-17.83554874267901
9.248000000000001,0.9999999999999999,-18.042676451790772
9.256,1.0,-18.249768626870466
9.264,0.9999999999999999,-18.456824833667792
9.272,0.9999999999999998,-18.66384463872774
9.280000000000001,0.9999999999999999,-18.870827609399225
9.288,0.9999999999999999,-19.077773313844013
9.296,1.0,-19.28468132104541
9.304,0.9999999999999999,-19.491551200816936
9.312000000000001,0.9999999999999999,-19.698382523810785
9.32,0.9999999999999999,-19.905174861526543
9.328,1.0,-20.111927786319793
9.336,1.0,-20.31864087141055
9.344,1.0,-20.525313690891572
9.352,1.0,-20.731945819737092
9.36,1.0,-20.938536833810847
9.368,1.0,-21.145086309874763
9.376,0.9999999999999999,-21.35159382559687
9.384,1.0,-21.558058959559943
9.392,1.0,-21.764481291269288
9.4,1.0000000000000002,-21.970860401161374
9.408,1.0,-22.17719587061142
9.416,0.9999999999999999,-22.383487281941985
9.424,1.0,-22.589734218430543
9.432,0.9999999999999999,-22.795936264317834
9.44,0.9999999999999999,-23.00209300481547
9.448,0.9999999999999999,-23.208204026114146
9.456,0.9999999999999999,-23.414268915391165
9.464,0.9999999999999999,-23.62028726081852
9.472,0.9999999999999999,-23.826258651570374
9.48,0.9999999999999999,-24.032182677831077
9.488,1.0,-24.238058930802442
9.496,0.9999999999999999,-24.44388700271175
9.504,0.9999999999999999,-24.64966648681892
9.512,0.9999999999999999,-24.8553969774244
9.52,1.0,-25.06107806987626
9.528,0.9999999999999999,-25.26670936057797
9.536,0.9999999999999999,-25.472290446995377
9.544,0.9999999999999999,-25.677820927664456
9.552,1.0,-25.883300402198127
9.56,1.0,-26.088728471293877
9.568,0.9999999999999999,-26.29410473674057
9.576,0.9999999999999999,-26.49942880142592
9.584,1.0,-26.704700269343157
9.592,1.0,-26.909918745598482
9.6,0.9999999999999999,-27.115083836417607
9.608,0.9999999999999998,-27.320195149153033
9.616,1.0,-27.52525229229059
9.624,1.0,-27.73025487545657
9.632,0.9999999999999999,-27.935202509424144
9.64,1.0,-28.140094806120427
9.648,1.0000000000000002,-28.34493137863277
9.656,1.0,-28.54971184121574
9.664,0.9999999999999999,-28.75443580929728
9.672,1.0,-28.959102899485554
9.68,1.0,-29.163712729575124
9.688,0.9999999999999999,-29.36826491855356
9.696,0.9999999999999999,-29.57275908660758
9.704,1.0,-29.777194855129526
9.712,1.0,-29.981571846723362
9.72,1.0,-30.18588968521116
9.728,1.0,-30.39014799563889
9.736,1.0,-30.594346404282806
9.744,1.0,-30.79848453865513
9.752,1.0,-31.00256202751036
9.76,1.0,-31.206578500850895
9.768,1.0000000000000002,-31.410533589933067
9.776,1.0,-31.6144269272728
9.784,1.0,-31.818258146651516
9.792,0.9999999999999999,-32.022026883121626
9.8,0.9999999090230491,-32.225732773012375
9.808,0.9999997929963063,-32.4293754539352
9.816,0.9999996772172236,-32.63295456478949
9.824,0.9999995617164608,-32.83646974576775
9.832,0.9999994465246325,-33.03992063836141
9.84,0.9999993316723028,-33.24330688536571
9.847999999999999,0.9999992171899807,-33.44662813088544
9.856,0.9999991031081148,-33.64988402033999
9.864,0.9999989894570882,-33.8530742004684
9.872,0.999998876267214,-34.05619831933467
