freq,mag,phase
6.0,0.9999920980078972,-61.28183122749979
6.008,0.9999934085639097,-61.650669002725536
6.016,0.9999946470147157,-62.01893005599841
6.024,0.9999958152367356,-62.38661322350032
6.032,0.99999691507803,-62.75371737758163
6.04,0.999997948358464,-63.12024142655774
6.048,0.9999989168698754,-63.486184314502744
6.056,0.9999998223762471,-63.851545021040614
6.064,0.9999999999999999,-64.21632256113354
6.072,1.0,-64.5805159848679
6.08,1.0,-64.94412437723761
6.088,1.0,-65.30714685792529
6.096,1.0,-65.6695825810809
6.104,1.0,-66.03143073509843
6.112,1.0000000000000002,-66.3926905423901
6.12,1.0,-66.75336125915886
6.128,1.0,-67.11344217516864
6.136,1.0,-67.47293261351273
6.144,0.9999999999999999,-67.83183193038053
6.152,0.9999999999999999,-68.1901395148221
6.16,1.0,-68.54785478851159
6.168,0.9999999999999998,-68.90497720550853
6.176,0.9999999999999999,-69.26150625201788
6.184,1.0,-69.61744144614853
6.192,1.0,-69.97278233767041
6.2,0.9999999999999999,-70.32752850777024
6.208,1.0,-70.68167956880599
6.216,1.0,-71.0352351640603
6.224,0.9999999999999999,-71.38819496749258
6.232,1.0,-71.74055868349016
6.24,1.0,-72.09232604661851
6.248,1.0,-72.44349682137035
6.256,0.9999999999999999,-72.79407080191399
6.264,1.0,-73.14404781184108
6.272,0.9999999999999999,-73.4934277039132
6.28,0.9999999999999999,-73.84221035980819
6.288,1.0,-74.19039568986564
6.296,0.9999999999999998,-74.5379836328318
6.304,1.0,-74.8849741556042
6.312,1.0,-75.2313672529757
6.32,0.9999999999999999,-75.57716294737811
6.328,0.9999999999999999,-75.9223612886257
6.336,1.0,-76.26696235365817
6.344,1.0,-76.61096624628365
6.352,1.0,-76.95437309692144
6.36,0.9999999999999999,-77.29718306234469
6.368,1.0,-77.63939632542291
6.376,1.0,-77.98101309486472
6.384,0.9999999999999999,-78.32203360496042
6.392,0.9999999999999999,-78.6624581153248
6.4,0.9999999408899768,-79.00228691064002
6.408,0.9999994330686182,-79.34152030039881
6.416,0.9999989160834677,-79.6801586186478
6.424,0.9999983906436652,-80.01820222373108
6.432,0.9999978574407948,-80.3556514980344
6.44,0.9999973171491173,-80.69250684772939
6.448,0.9999967704258038,-81.0287687025184
6.456,0.9999962179111646,-81.36443751537986
6.464,0.999995660228881,-81.69951376231393
6.472,0.9999950979862361,-82.03399794208886
6.48,0.9999945317743417,-82.36789057598807
6.4879999999999995,0.9999939621683679,-82.70119220755737
6.496,0.9999933897277704,-83.03390340235363
6.504,0.9999928149965158,-83.36602474769313
6.5120000000000005,0.9999922385033091,-83.69755685240185
6.52,0.999991660761816,-84.0285003465652
6.5280000000000005,0.9999910822708875,-84.35885588127998
6.536,0.9999905035147819,-84.68862412840576
6.5440000000000005,0.9999899249633865,-85.01780578031851
6.552,0.999989347072436,-85.3464015496638
6.5600000000000005,0.9999887702837333,-85.6744121691122
6.568,0.9999881950253664,-86.00183839111452
6.5760000000000005,0.9999876217119238,-86.3286809876591
6.584,0.9999870507447108,-86.65494075002903
6.592,0.9999864825119629,-86.98061848856153
6.6,0.9999859173890568,-87.30571503240753
6.608,0.9999853557387238,-87.63023122929283
6.616,0.9999847979112572,-87.9541679452803
6.624,0.9999842442447208,-88.27752606453313
6.632,0.9999836950651565,-88.60030648907939
6.64,0.9999831506867882,-88.92251013857774
6.648,0.9999826114122264,-89.2441379500844
6.656,0.9999820775326693,-89.5651908778213
6.664,0.9999815493281035,-89.88566989294559
6.672,0.9999810270675038,-90.2055759833204
6.68,0.9999805110090292,-90.52491015328685
6.688,0.9999800014002191,-90.84367342343756
6.696,0.999979498478188,-91.16186683039136
6.704,0.9999790024698164,-91.47949142656931
6.712,0.9999785135919429,-91.79654827997237
6.72,0.9999780320515522,-92.11303847396024
6.728,0.9999775580459631,-92.42896310703162
6.736,0.9999770917630134,-92.74432329260603
6.744,0.9999766333812441,-93.05912015880699
6.752,0.9999761830700822,-93.37335484824668
6.76,0.9999757409900201,-93.68702851781207
6.768,0.9999753072927937,-94.00014233845249
6.776,0.9999748821215608,-94.31269749496883
6.784,0.9999744656110751,-94.62469518580409
6.792,0.9999740578878595,-94.93613662283552
6.8,0.9999736590703776,-95.24702303116831
6.808,0.9999732692692048,-95.55735564893085
6.816,0.9999728885871929,-95.86713572707133
6.824,0.9999725171196394,-96.17636452915622
6.832,0.99997215495445,-96.48504333117008
6.84,0.9999718021723021,-96.79317342131696
6.848,0.9999714588468036,-97.10075609982356
6.856,0.9999711250446532,-97.4077926787437
6.864,0.9999708008257979,-97.71428448176465
6.872,0.9999704862435859,-98.02023284401484
6.88,0.999970181344922,-98.32563911187336
6.888,0.9999698861704178,-98.6305046427809
6.896,0.9999696007545424,-98.93483080505246
6.904,0.9999693251257685,-99.23861897769152
6.912,0.9999690593067206,-99.54187055020594
6.92,0.9999688033143178,-99.84458692242548
6.928,0.999968557159916,-100.14676950432084
6.936,0.9999683208494492,-100.44841971582447
6.944,0.9999680943835689,-100.74953898665294
6.952,0.9999678777577775,-101.0501287561308
6.96,0.9999676709625692,-101.35019047301644
6.968,0.9999674739835578,-101.64972559532914
6.976,0.9999672868016117,-101.94873559017807
6.984,0.9999671093929828,-102.24722193359277
6.992,0.999966941729433,-102.54518611035536
7.0,0.9999667837783631,-102.8426296138342
7.008,0.9999666355029353,-103.13955394581946
7.016,0.9999664968621956,-103.43596061635999
7.024,0.9999663678111976,-103.73185114360213
7.032,0.9999662483011176,-104.02722705362989
7.04,0.9999661382793755,-104.32208988030688
7.048,0.999966037689749,-104.61644116511988
7.056,0.9999659464724876,-104.91028245702388
7.064,0.9999658645644255,-105.20361531228897
7.072,0.9999657918990923,-105.49644129434849
7.08,0.9999657284068205,-105.78876197364917
7.088,0.9999656740148556,-106.08057892750261
7.096,0.9999656286474584,-106.37189373993847
7.104,0.9999655922260121,-106.6627080015591
7.112,0.9999655646691221,-106.95302330939599
7.12,0.9999655458927185,-107.24284126676763
7.128,0.9999655358101533,-107.53216348313903
7.136,0.9999655343323005,-107.82099157398265
7.144,0.9999655413676501,-108.10932716064119
7.152,0.9999655568224014,-108.3971718701916
7.16,0.9999655806005585,-108.68452733531093
7.168,0.9999656126040198,-108.97139519414348
7.176,0.9999656527326671,-109.25777709016972
7.184,0.9999657008844555,-109.54367467207656
7.192,0.9999657569554976,-109.8290895936292
7.2,0.9999658208401505,-110.1140235135446
7.208,0.9999658924310982,-110.39847809536626
7.216,0.9999659716194347,-110.68245500734068
7.224,0.9999660582947432,-110.96595592229524
7.232,0.999966152345176,-111.24898251751756
7.24,0.9999662536575322,-111.53153647463643
7.248,0.9999663621173341,-111.81361947950401
7.256,0.9999664776089019,-112.09523322207971
7.264,0.9999666000154256,-112.37637939631549
7.272,0.9999667292190397,-112.65705970004242
7.28,0.9999668651008924,-112.93727583485894
7.288,0.9999670075412144,-113.21702950602037
7.296,0.999967156419388,-113.49632242232985
7.304,0.9999673116140129,-113.77515629603096
7.312,0.9999674730029717,-114.0535328427012
7.32,0.9999676404634936,-114.33145378114747
7.328,0.9999678138722178,-114.6089208333025
7.336,0.9999679931052539,-114.8859357241229
7.344,0.9999681780382431,-115.16250018148843
7.352,0.9999683685464157,-115.43861593610278
7.36,0.99996856450465,-115.71428472139552
7.368,0.9999687657875278,-115.98950827342551
7.376,0.9999689722693909,-116.26428833078573
7.384,0.9999691838243926,-116.53862663450904
7.392,0.9999694003265532,-116.81252492797586
7.4,0.9999696216498101,-117.08598495682259
7.4079999999999995,0.9999698476680686,-117.3590084688516
7.416,0.9999700782552513,-117.63159721394254
7.4239999999999995,0.999970313285346,-117.9037529439647
7.432,0.9999705526324533,-118.17547741269097
7.4399999999999995,0.9999707961708323,-118.44677237571256
7.448,0.9999710437749456,-118.71763959035555
7.4559999999999995,0.9999712953195021,-118.98808081559821
7.464,0.9999715506795019,-119.2580978119898
7.4719999999999995,0.9999718097302762,-119.52769234157039
7.48,0.999972072347528,-119.79686616779223
7.4879999999999995,0.9999723384073737,-120.06562105544167
7.496,0.999972607786378,-120.33395877056321
7.504,0.9999728803615966,-120.60188108038359
7.5120000000000005,0.9999731560106077,-120.86938975323831
7.52,0.9999734346115517,-121.1364865584979
7.5280000000000005,0.9999737160431638,-121.4031732664967
7.536,0.9999740001848084,-121.66945164846183
7.5440000000000005,0.9999742869165116,-121.93532347644363
7.552,0.9999745761189935,-122.20079052324718
7.5600000000000005,0.9999748676737004,-122.46585456236515
7.568,0.9999751614628319,-122.73051736791105
7.5760000000000005,0.9999754573693732,-122.99478071455464
7.584,0.9999757552771223,-123.25864637745723
7.5920000000000005,0.9999760550707174,-123.52211613220906
7.6,0.9999763566356641,-123.7851917547671
7.6080000000000005,0.9999766598583605,-124.0478750213942
7.616,0.9999769646261232,-124.31016770859895
7.6240000000000006,0.9999772708272112,-124.57207159307723
7.632,0.9999775783508493,-124.83358845165378
7.640000000000001,0.9999778870872505,-125.0947200612259
7.648,0.9999781969276392,-125.35546819870702
7.656000000000001,0.99997850776427,-125.6158346409724
7.664,0.9999788194904511,-125.8758211648046
7.672,0.9999791320005609,-126.13542954684117
7.68,0.9999794451900699,-126.39466156352219
7.688,0.9999797589555569,-126.65351899103946
7.696,0.9999800731947269,-126.91200360528634
7.704,0.9999803878064292,-127.17011718180868
7.712,0.9999807026906716,-127.42786149575639
7.72,0.999981017748638,-127.68523832183635
7.728,0.9999813328827016,-127.94224943426578
7.736,0.9999816479964398,-128.19889660672678
7.744,0.9999819629946484,-128.45518161232175
7.752,0.9999822777833528,-128.71110622352938
7.76,0.9999825922698228,-128.96667221216208
7.768,0.9999829063625817,-129.22188134932352
7.776,0.9999832199714198,-129.47673540536775
7.784,0.9999835330074037,-129.73123614985866
7.792,0.9999838453828855,-129.98538535153043
7.8,0.9999841570115149,-130.23918477824884
7.808,0.9999844678082452,-130.4926361969734
7.816,0.9999847776893436,-130.74574137372008
7.824,0.9999850865723976,-130.9985020735251
7.832,0.9999853943763234,-131.25092006040938
7.84,0.999985701021372,-131.50299709734384
7.848,0.9999860064291358,-131.75473494621514
7.856,0.9999863105225537,-132.0061353677928
7.864,0.999986613225918,-132.25720012169646
7.872,0.9999869144648765,-132.5079309663642
7.88,0.9999872141664398,-132.75832965902157
7.888,0.9999875122589825,-133.00839795565122
7.896,0.9999878086722489,-133.25813761096342
7.904,0.9999881033373547,-133.50755037836714
7.912,0.999988396186789,-133.7566380099419
7.92,0.9999886871544178,-134.00540225641026
7.928,0.9999889761754845,-134.25384486711113
7.936,0.9999892631866129,-134.50196758997362
7.944,0.9999895481258052,-134.74977217149143
7.952,0.999989830932445,-134.99726035669838
7.96,0.9999901115472967,-135.24443388914406
7.968,0.9999903899125044,-135.49129451087043
7.976,0.9999906659715924,-135.73784396238892
7.984,0.9999909396694634,-135.9840839826583
7.992,0.9999912109523975,-136.23001630906302
8.0,0.99999147976805,-136.4756426773922
8.008,0.9999917460654498,-136.7209648218193
8.016,0.9999920097949972,-136.96598447488262
8.024000000000001,0.9999922709084601,-137.21070336746553
8.032,0.9999925293589724,-137.45512322877832
8.04,0.9999927851010296,-137.69924578634016
8.048,0.9999930380904853,-137.9430727659616
8.056000000000001,0.9999932882845471,-138.18660589172757
8.064,0.9999935356417733,-138.4298468859812
8.072,0.999993780122067,-138.67279746930802
8.08,0.9999940216866723,-138.9154593605209
8.088000000000001,0.9999942602981687,-139.157834276645
8.096,0.9999944959204656,-139.3999239329038
8.104,0.9999947285187972,-139.64173004270563
8.112,0.9999949580597159,-139.88325431763042
8.120000000000001,0.999995184511087,-140.12449846741694
8.128,0.9999954078420821,-140.3654641999509
8.136,0.9999956280231711,-140.60615322125332
8.144,0.9999958450261179,-140.84656723546945
8.152000000000001,0.9999960588239714,-141.08670794485792
8.16,0.9999962693910581,-141.32657704978078
8.168,0.9999964767029769,-141.56617624869392
8.176,0.9999966807365881,-141.80550723813766
8.184000000000001,0.9999968814700075,-142.0445717127281
8.192,0.9999970788825987,-142.2833713651487
8.2,0.9999972729549634,-142.52190788614263
8.208,0.9999974636689333,-142.76018296450533
8.216000000000001,0.999997651007562,-142.99819828707737
8.224,0.9999978349551154,-143.23595553873795
8.232,0.9999980154970635,-143.4734564023991
8.24,0.9999981926200703,-143.71070255899969
8.248000000000001,0.9999983663119849,-143.94769568750007
8.256,0.9999985365618324,-144.1844374648774
8.264,0.999998703359803,-144.42092956612126
8.272,0.9999988666972437,-144.65717366422942
8.280000000000001,0.9999990265666471,-144.8931714302041
8.288,0.9999991829616417,-145.12892453304877
8.296,0.9999993358769821,-145.36443463976542
8.304,0.9999994853085379,-145.59970341535177
8.312,0.9999996312532836,-145.83473252279913
8.32,0.999999773709288,-146.06952362309087
8.328,0.9999999126757034,-146.30407837520056
8.336,1.0,-146.53839843609143
8.344,0.9999999999999999,-146.77248546071505
8.352,0.9999999999999999,-147.00634110201142
8.36,1.0,-147.23996701090877
8.368,1.0,-147.4733648363239
8.376,1.0,-147.70653622516258
8.384,1.0000000000000002,-147.939482822321
8.392,1.0,-148.17220627068642
8.4,1.0,-148.40470821113945
8.408,0.9999999999999998,-148.63699028255542
8.416,0.9999999999999999,-148.8690541218069
8.424,1.0,-149.10090136376607
8.432,1.0,-149.33253364130778
8.44,1.0,-149.56395258531228
8.448,0.9999999999999999,-149.7951598246692
8.456,1.0,-150.02615698628068
8.464,0.9999999999999999,-150.25694569506584
8.472,1.0,-150.48752757396468
8.48,1.0,-150.71790424394285
8.488,0.9999999999999998,-150.94807732399642
8.496,1.0,-151.178048431157
8.504,1.0,-151.4078191804969
8.512,1.0,-151.6373911851351
8.52,1.0,-151.86676605624268
8.528,0.9999999999999999,-152.09594540304934
8.536,1.0,-152.32493083284945
8.544,1.0,-152.553723951009
8.552,1.0,-152.78232636097198
8.56,1.0,-153.01073966426802
8.568,1.0,-153.23896546051924
8.576,1.0,-153.4670053474481
8.584,0.9999999999999999,-153.69486092088505
8.592,1.0,-153.92253377477664
8.6,1.0,-154.15002550119354
8.608,1.0,-154.37733769033932
8.616,1.0,-154.60447193055867
8.624,1.0,-154.83142980834674
8.632,1.0,-155.05821290835775
8.64,1.0,-155.2848228134147
8.648,1.0,-155.51126110451847
8.656,0.9999999999999999,-155.73752936085776
8.664,1.0,-155.96362915981877
8.672,0.9999999999999999,-156.18956207699551
8.68,1.0,-156.41532968619964
8.688,1.0,-156.64093355947145
8.696,1.0,-156.8663752670899
8.704,0.9999999999999999,-157.09165637758383
8.712,1.0,-157.31677845774277
8.72,0.9999999999999999,-157.54174307262815
8.728,0.9999999999999999,-157.76655178558448
8.736,0.9999999999999999,-157.99120615825098
8.744,0.9999999999999999,-158.21570775057313
8.752,1.0,-158.44005812081463
8.76,0.9999999999999999,-158.66425882556914
8.768,1.0,-158.8883114197727
8.776,0.9999999999999999,-159.1122174567156
8.784,1.0,-159.3359784880554
8.792,0.9999999999999999,-159.55959606382885
8.8,0.9999999999999999,-159.78307173246526
8.808,1.0,-160.0064070407988
8.815999999999999,1.0,-160.229603534082
8.824,1.0,-160.4526627559987
8.832,0.9999999999999999,-160.67558624867718
8.84,1.0,-160.8983755527039
8.847999999999999,0.9999999999999999,-161.12103220713698
8.856,0.9999999999999999,-161.3435577495198
8.864,1.0,-161.56595371589475
8.872,1.0,-161.78822164081745
8.879999999999999,1.0,-162.01036305737063
8.888,1.0,-162.2323794971784
8.896,1.0,-162.45427249042055
8.904,0.9999999999999998,-162.6760435658468
8.911999999999999,1.0,-162.89769425079177
8.92,0.9999999999999999,-163.11922607118922
8.928,0.9999999999999999,-163.340640551587
8.936,1.0,-163.56193921516194
8.943999999999999,1.0,-163.7831235837348
8.952,1.0,-164.0041951777855
8.96,0.9999999999999999,-164.22515551646796
8.968,0.9999999999999999,-164.44600611762576
8.975999999999999,1.0,-164.6667484978074
8.984,1.0,-164.8873841722818
8.992,0.9999999999999999,-165.10791465505386
9.0,1.0,-165.32834145888006
9.008,1.0,-165.54866609528455
9.016,1.0,-165.7688900745746
9.024000000000001,1.0,-165.98901490585695
9.032,1.0,-166.20904209705336
9.04,0.9999999999999998,-166.42897315491723
9.048,1.0,-166.64880958504958
9.056000000000001,1.0,-166.8685528919153
9.064,1.0,-167.08820457885946
9.072,1.0,-167.30776614812402
9.08,1.0,-167.5272391008642
9.088000000000001,1.0,-167.7466249371649
9.096,1.0,-167.96592515605752
9.104,0.9999999756945441,-168.1851412555369
9.112,0.9999998945653452,-168.40427473257776
9.120000000000001,0.9999998132006515,-168.6233270831518
9.128,0.9999997316463157,-168.84229980224444
9.136,0.9999996499480612,-169.06119438387225
9.144,0.99999956815147,-169.28001232109955
9.152000000000001,0.9999994863019753,-169.49875510605574
9.16,0.9999994044448488,-169.7174242299525
9.168,0.9999993226251929,-169.9360211831011
9.176,0.999999240887929,-170.1545474549296
9.184000000000001,0.9999991592777898,-170.3730045340002
9.192,0.999999077839307,-170.5913939080267
9.2,0.9999989966168041,-170.8097170638921
9.208,0.9999989156543849,-171.027975487666
9.216000000000001,0.9999988349959253,-171.24617066462213
9.224,0.9999987546850638,-171.46430407925598
9.232,0.9999986747651911,-171.6823772153027
9.24,0.9999985952794413,-171.90039155575454
9.248000000000001,0.9999985162706843,-172.11834858287878
9.256,0.9999984377815136,-172.33624977823533
9.264,0.9999983598542406,-172.55409662269497
9.272,0.999998282530883,-172.77189059645693
9.280000000000001,0.9999982058531574,-172.98963317906683
9.288,0.9999981298624699,-173.2073258494347
9.296,0.9999980545999081,-173.42497008585318
9.304,0.9999979801062321,-173.6425673660153
9.312000000000001,0.9999979064218656,-173.86011916703262
9.32,0.9999978335868873,-174.0776269654534
9.328,0.9999977616410243,-174.29509223728076
9.336,0.9999976906236409,-174.51251645799087
9.344,0.9999976205737341,-174.72990110255097
9.352,0.9999975515299214,-174.9472476454379
9.36,0.9999974835304358,-175.16455756065602
9.368,0.9999974166131176,-175.38183232175592
9.376,0.9999973508154048,-175.5990734018523
9.384,0.9999972861743261,-175.81628227364268
9.392,0.999997222726495,-176.0334604094254
9.4,0.9999971605080995,-176.2506092811184
9.408,0.9999970995548965,-176.46773036027722
9.416,0.9999970399022036,-176.68482511811382
9.424,0.9999969815848918,-176.9018950255146
9.432,0.9999969246373785,-177.1189415530593
9.44,0.9999968690936206,-177.33596617103908
9.448,0.9999968149871068,-177.55297034947532
9.456,0.999996762350851,-177.7699555581378
9.464,0.9999967112173852,-177.98692326656365
9.472,0.9999966616187541,-178.20387494407535
9.48,0.999996613586506,-178.42081205979977
9.488,0.9999965671516876,-178.63773608268627
9.496,0.9999965223448384,-178.8546484815257
9.504,0.999996479195982,-179.07155072496846
9.512,0.9999964377346223,-179.2884442815436
9.52,0.9999963979897352,-179.50533061967693
9.528,0.9999963599897637,-179.7222112077099
9.536,0.9999963237626116,-179.93908751391794
9.544,0.999996289335637,179.8440389934707
9.552,0.9999962567356474,179.6271668462566
9.56,0.9999962259888938,179.4102945762505
9.568,0.9999961971210638,179.1934207152547
9.576,0.9999961701572782,178.97654379504448
9.584,0.9999961451220831,178.75966234734972
9.592,0.999996122039447,178.54277490383598
9.6,0.9999961009327532,178.32587999608634
9.608,0.9999960818247964,178.10897615558252
9.616,0.9999960647377772,177.89206191368658
9.624,0.9999960496932964,177.6751358016222
9.632,0.9999960367123509,177.45819635045632
9.64,0.9999960258153285,177.2412420910805
9.648,0.9999960170220042,177.02427155419258
9.656,0.9999960103515336,176.807283270278
9.664,0.9999960058224502,176.5902757695915
9.672,0.9999960034526607,176.37324758213853
9.68,0.9999960032594404,176.1561972376571
9.688,0.9999960052594289,175.93912326559882
9.696,0.9999960094686268,175.72202419511123
9.704,0.9999960159023902,175.50489855501874
9.712,0.9999960245754285,175.28774487380474
9.72,0.9999960355018003,175.07056167959306
9.728,0.9999960486949084,174.85334750012981
9.736,0.999996064167498,174.63610086276483
9.744,0.9999960819316518,174.41882029443386
9.752,0.9999961019987876,174.2015043216398
