freq,mag,phase
6.0,0.9999980419269873,104.87095740741731
6.008,0.9999983531913638,104.76643983060497
6.016,0.9999986541413219,104.66190539325187
6.024,0.9999989449185895,104.55735407293734
6.032,0.9999992256640609,104.45278584723971
6.04,0.9999994965177984,104.34820069373644
6.048,0.9999997576190335,104.2435985900044
6.056,1.0,104.13897951361983
6.064,1.0,104.03434344215852
6.072,0.9999999999999999,103.92969035319595
6.08,1.0,103.82502022430741
6.088,1.0,103.72033303306807
6.096,1.0,103.61562875705323
6.104,0.9999999999999999,103.51090737383825
6.112,1.0,103.40616886099882
6.12,1.0,103.30141319611106
6.128,0.9999999999999998,103.19664035675154
6.136,1.0,103.09185032049758
6.144,0.9999999999999999,102.98704306492714
6.152,1.0,102.88221856761912
6.16,0.9999999999999999,102.7773768061534
6.168,0.9999999999999999,102.67251775811097
6.176,1.0,102.56764140107404
6.184,0.9999999999999999,102.46274771262617
6.192,0.9999999999999999,102.35783667035233
6.2,0.9999999999999999,102.25290825183912
6.208,1.0,102.14796243467474
6.216,1.0,102.04299919644926
6.224,1.0,101.93801851475457
6.232,1.0,101.83302036718466
6.24,1.0,101.72800473133556
6.248,0.9999999999999998,101.6229715848056
6.256,0.9999999999999999,101.51792090519537
6.264,0.9999999999999999,101.41285267010798
6.272,0.9999999999999999,101.30776685714906
6.28,1.0,101.2026634439269
6.288,0.9999999999999999,101.09754240805256
6.296,0.9999999999999999,100.99240372713997
6.304,0.9999999999999999,100.88724737880607
6.312,0.9999999999999999,100.78207334067079
6.32,1.0,100.67688159035734
6.328,0.9999999999999998,100.57167210549213
6.336,1.0,100.46644486370501
6.344,0.9999999999999999,100.36119984262929
6.352,1.0,100.25593701990185
6.36,1.0,100.15065637316327
6.368,1.0,100.0453578800579
6.376,1.0,99.94004151823397
6.384,0.9999999999999999,99.83470726534368
6.392,1.0,99.72935509904327
6.4,0.9999999999999999,99.62398499699316
6.408,1.0,99.51859693685802
6.416,1.0,99.41319089630687
6.424,1.0,99.30776685301313
6.432,1.0,99.20232478465482
6.44,0.9999999999999999,99.09686466891446
6.448,1.0,98.99138648347936
6.456,1.0,98.8858902060416
6.464,0.9999999999999998,98.7803758142981
6.472,1.0,98.67484328595077
6.48,1.0,98.56929259870658
6.4879999999999995,0.9999999999999999,98.46372373027758
6.496,1.0,98.35813665838104
6.504,1.0,98.25253136073954
6.5120000000000005,0.9999999999999999,98.146907815081
6.52,0.9999999999999998,98.04126599913882
6.5280000000000005,1.0,97.93560589065184
6.536,1.0,97.82992746736466
6.5440000000000005,1.0,97.72423070702732
6.552,0.9999999999999998,97.61851558739582
6.5600000000000005,1.0,97.51278208623185
6.568,1.0,97.40703018130306
6.5760000000000005,1.0,97.30125985038299
6.584,1.0,97.19547107125128
6.592,0.9999999999999999,97.08966382169356
6.6,1.0,96.98383807950172
6.608,1.0,96.87799382247383
6.616,1.0000000000000002,96.77213102841421
6.624,1.0,96.66624967513357
6.632,1.0,96.56034974044904
6.64,1.0,96.45443120218413
6.648,1.0,96.34849403816892
6.656,0.9999999999999999,96.24253822624009
6.664,0.9999999999999999,96.13656374424087
6.672,1.0,96.03057057002124
6.68,0.9999999999999999,95.92455868143786
6.688,0.9999999086491058,95.81852805635417
6.696,0.9999997694797387,95.71247867264043
6.704,0.9999996293301536,95.60641050817378
6.712,0.9999994882775133,95.50032354083827
6.72,0.999999346398326,95.39421774852484
6.728,0.9999992037684476,95.28809310913147
6.736,0.9999990604630857,95.18194960056316
6.744,0.999998916556799,95.07578720073194
6.752,0.9999987721235032,94.96960588755695
6.76,0.9999986272364711,94.86340563896445
6.768,0.9999984819683364,94.75718643288782
6.776,0.9999983363910957,94.65094824726764
6.784,0.999998190576111,94.54469106005169
6.792,0.9999980445941118,94.43841484919496
6.8,0.9999978985151987,94.33211959265968
6.808,0.9999977524088451,94.22580526841533
6.816,0.9999976063439003,94.11947185443866
6.824,0.9999974603885913,94.01311932871371
6.832,0.9999973146105258,93.90674766923186
6.84,0.9999971690766948,93.80035685399167
6.848,0.9999970238534752,93.6939468609991
6.856,0.9999968790066315,93.58751766826741
6.864,0.9999967346013207,93.48106925381711
6.872,0.9999965907020915,93.37460159567604
6.88,0.9999964473728891,93.26811467187935
6.888,0.9999963046770579,93.16160846046944
6.896,0.999996162677343,93.05508293949599
6.904,0.9999960214358933,92.94853808701595
6.912,0.9999958810142634,92.84197388109345
6.92,0.9999957414734182,92.7353902997999
6.928,0.9999956028737322,92.62878732121386
6.936,0.9999954652749954,92.52216492342104
6.944,0.9999953287364146,92.41552308451425
6.952,0.9999951933166139,92.30886178259345
6.96,0.9999950590736408,92.20218099576559
6.968,0.9999949260649668,92.09548070214461
6.976,0.9999947943474898,91.98876087985148
6.984,0.9999946639775374,91.88202150701396
6.992,0.9999945350108693,91.77526256176675
7.0,0.9999944075026796,91.66848402225128
7.008,0.9999942815075996,91.56168586661572
7.016,0.9999941570797002,91.45486807301488
7.024,0.9999940342724941,91.34803061961013
7.032,0.999993913138939,91.2411734845694
7.04,0.9999937937314395,91.13429664606694
7.048,0.9999936761018503,91.02740008228344
7.056,0.9999935603014777,90.92048377140573
7.064,0.9999934463810825,90.81354769162681
7.072,0.9999933343908833,90.70659182114575
7.08,0.9999932243805578,90.5996161381675
7.088,0.999993116399245,90.49262062090284
7.096,0.9999930104955488,90.38560524756826
7.104,0.9999929067175399,90.27856999638578
7.112,0.9999928051127572,90.1715148455829
7.12,0.9999927057282121,90.06443977339238
7.128,0.9999926086103885,89.95734475805216
7.136,0.9999925138052467,89.85022977780523
7.144,0.9999924213582253,89.74309481089931
7.152,0.999992331314243,89.63593983558694
7.16,0.9999922437177011,89.5287648301251
7.168,0.999992158612486,89.42156977277516
7.176,0.9999920760419695,89.31435464180257
7.184,0.9999919960490138,89.20711941547682
7.192,0.9999919186759709,89.09986407207117
7.2,0.999991843964686,88.99258858986238
7.208,0.9999917719564991,88.88529294713058
7.216,0.999991702692246,88.77797712215903
7.224,0.999991636212262,88.67064109323385
7.232,0.9999915725563814,88.56328483864388
7.24,0.999991511763941,88.45590833668025
7.248,0.9999914538737804,88.34851156563633
7.256,0.9999913989242448,88.24109450380726
7.264,0.9999913469531851,88.13365712948988
7.272,0.9999912979979606,88.02619942098224
7.28,0.9999912520954386,87.91872135658348
7.288,0.9999912092819977,87.81122291459337
7.296,0.9999911695935272,87.70370407331211
7.304,0.9999911330654292,87.59616481103993
7.312,0.9999910997326188,87.48860510607673
7.32,0.9999910696295253,87.38102493672186
7.328,0.9999910427900925,87.27342428127359
7.336,0.9999910192477799,87.16580311802882
7.344,0.9999909990355619,87.05816142528272
7.352,0.9999909821859296,86.9504991813282
7.36,0.9999909687308899,86.84281636445564
7.368,0.999990958701966,86.73511295295243
7.376,0.9999909521301968,86.62738892510245
7.384,0.9999909490461367,86.51964425918567
7.392,0.9999909494798551,86.4118789334777
7.4,0.9999909534609362,86.30409292624927
7.4079999999999995,0.9999909610184772,86.19628621576577
7.416,0.999990972181087,86.08845878028662
7.4239999999999995,0.9999909869768859,85.98061059806493
7.432,0.999991005433504,85.87274164734677
7.4399999999999995,0.9999910275780781,85.76485190637075
7.448,0.9999910534372504,85.65694135336729
7.4559999999999995,0.9999910830371668,85.54900996655822
7.464,0.9999911164034728,85.4410577241559
7.4719999999999995,0.9999911535613121,85.33308460436288
7.48,0.9999911945353216,85.225090585371
7.4879999999999995,0.9999912393496301,85.11707564536088
7.496,0.9999912880278518,85.00903976250113
7.504,0.9999913405930839,84.90098291494775
7.5120000000000005,0.9999913970679019,84.79290508084318
7.52,0.9999914574743526,84.6848062383159
7.5280000000000005,0.9999915218339505,84.57668636547929
7.536,0.9999915901676714,84.46854544043111
7.5440000000000005,0.9999916624959458,84.36038344125248
7.552,0.999991738838652,84.25220034600726
7.5600000000000005,0.9999918192151083,84.14399613274095
7.568,0.9999919036440654,84.03577077948006
7.5760000000000005,0.9999919921436985,83.92752426423094
7.584,0.9999920847315964,83.81925656497911
7.5920000000000005,0.9999921814247543,83.7109676596881
7.6,0.9999922822395605,83.60265752629861
7.6080000000000005,0.999992387191787,83.4943261427274
7.616,0.9999924962965775,83.38597348686643
7.6240000000000006,0.9999926095684349,83.27759953658158
7.632,0.999992727021207,83.1692042697118
7.640000000000001,0.9999928486680731,83.06078766406782
7.648,0.9999929745215282,82.9523496974312
7.656000000000001,0.999993104593368,82.84389034755303
7.664,0.9999932388946704,82.73540959215286
7.672,0.9999933774357784,82.62690740891742
7.68,0.9999935202262814,82.51838377549949
7.688,0.9999936672749934,82.4098386695165
7.696,0.9999938185899332,82.30127206854941
7.704,0.9999939741783006,82.19268395014134
7.712,0.9999941340464535,82.08407429179624
7.72,0.9999942981998815,81.97544307097753
7.728,0.9999944666431805,81.86679026510679
7.736,0.9999946393800229,81.75811585156228
7.744,0.9999948164131288,81.64941980767759
7.752,0.999994997744235,81.54070211074018
7.76,0.9999951833740619,81.43196273799
7.768,0.9999953733022766,81.32320166661782
7.776,0.9999955675274599,81.21441887376396
7.784,0.9999957660470634,81.10561433651671
7.792,0.9999959688573725,80.99678803191073
7.8,0.9999961759534607,80.88793993692563
7.808,0.9999963873291471,80.77907002848443
7.816,0.9999966029769459,80.6701782834519
7.824,0.9999968228880195,80.5612646786332
7.832,0.9999970470521244,80.45232919077216
7.84,0.9999972754575555,80.34337179654985
7.848,0.9999975080910906,80.234392472583
7.856,0.9999977449379273,80.1253911954225
7.864,0.9999979859816199,80.01636794155186
7.872,0.9999982312040133,79.90732268738581
7.88,0.9999984805851715,79.79825540926876
7.888,0.999998734103304,79.68916608347338
7.896,0.9999989917346894,79.58005468619932
7.904,0.9999992534535941,79.47092119357173
7.912,0.9999995192321866,79.36176558164013
7.92,0.9999997890404496,79.25258782637711
7.928,0.9999999999999998,79.14338790367718
7.936,0.9999999999999999,79.03416578935582
7.944,1.0,78.9249214591484
7.952,1.0,78.81565488870939
7.96,1.0,78.70636605361167
7.968,1.0,78.59705492934586
7.976,0.9999999999999999,78.48772149131986
7.984,0.9999999999999999,78.37836571485872
7.992,0.9999999999999999,78.26898757520433
8.0,0.9999999999999999,78.15958704751574
8.008,0.9999999999999999,78.0501641068693
8.016,1.0,77.94071872825933
8.024000000000001,1.0,77.83125088659897
8.032,1.0,77.7217605567213
8.04,0.9999999999999999,77.61224771338073
8.048,1.0,77.50271233125483
8.056000000000001,0.9999999999999999,77.39315438494653
8.064,1.0,77.28357384898676
8.072,1.0,77.17397069783732
8.08,0.9999999999999999,77.06434490589443
8.088000000000001,1.0,76.95469644749292
8.096,1.0,76.84502529691065
8.104,1.0,76.73533142837368
8.112,1.0,76.62561481606228
8.120000000000001,0.9999999999999998,76.51587543411733
8.128,1.0,76.40611325664766
8.136,0.9999999999999999,76.29632825773814
8.144,1.0,76.18652041145862
8.152000000000001,1.0,76.07668969187385
8.16,0.9999999999999999,75.96683607305441
8.168,1.0,75.85695952908834
8.176,0.9999999999999999,75.74706003409449
8.184000000000001,1.0,75.63713756223656
8.192,1.0,75.5271920877386
8.2,1.0000000000000002,75.4172235849018
8.208,1.0,75.3072320281227
8.216000000000001,1.0,75.19721739191287
8.224,1.0,75.08717965092029
8.232,1.0,74.97711877995202
8.24,0.9999999999999998,74.86703475399905
8.248000000000001,0.9999999999999999,74.7569275482627
8.256,1.0,74.64679713818293
8.264,1.0,74.53664349946868
8.272,0.9999999999999999,74.42646660813018
8.280000000000001,1.0,74.31626644051356
8.288,1.0,74.20604297333747
8.296,0.9999999999999999,74.09579618373202
8.304,0.9999999999999998,73.98552604928001
8.312,1.0,73.8752325480607
8.32,1.0,73.76491565869574
8.328,0.9999999999999999,73.6545753603977
8.336,0.9999999999999999,73.54421163302102
8.344,1.0,73.4338244571154
8.352,1.0,73.32341381398165
8.36,1.0,73.21297968572988
8.368,1.0,73.10252205534013
8.376,1.0,72.99204090672521
8.384,0.9999999999999999,72.88153622479552
8.392,0.9999999999999998,72.77100799552622
8.4,1.0,72.66045620602573
8.408,0.9999999999999999,72.5498808446063
8.416,1.0,72.43928190085552
8.424,1.0,72.32865936570909
8.432,0.9999999999999999,72.21801323152413
8.44,1.0,72.10734349215286
8.448,0.9999999999999999,71.99665014301605
8.456,0.9999999999999999,71.88593318117584
8.464,0.9999999999999999,71.77519260540711
8.472,1.0,71.66442841626744
8.48,0.9999999999999999,71.55364061616399
8.488,0.9999999999999999,71.44282920941752
8.496,1.0,71.33199420232216
8.504,1.0,71.22113560320047
8.512,0.9999999999999999,71.11025342245237
8.52,1.0,70.99934767259789
8.528,1.0,70.8884183683116
8.536,0.9999999999999999,70.77746552644902
8.544,0.9999999999999999,70.66648916606273
8.552,1.0,70.55548930840817
8.56,0.9999999999999999,70.44446597693731
8.568,0.9999999999999999,70.33341919727988
8.576,1.0,70.22234899721042
8.584,0.9999999999999999,70.11125540660102
8.592,0.9999999999999999,70.00013845735808
8.6,1.0,69.88899818334305
8.608,1.0,69.77783462027588
8.616,1.0,69.66664780562108
8.624,0.9999999999999999,69.55543777845563
8.632,1.0,69.44420457931894
8.64,1.0,69.33294825004438
8.648,1.0,69.22166883357303
8.656,1.0,69.11036637374961
8.664,1.0,68.9990409151017
8.672,0.9999999999999999,68.88769250260272
8.68,1.0,68.77632118142037
8.688,0.9999999999999999,68.66492699665123
8.696,1.0,68.55350999304413
8.704,1.0,68.44207021471328
8.712,1.0,68.33060770484423
8.72,1.0,68.21912250539421
8.728,1.0,68.1076146567902
8.736,1.0,67.99608419762694
8.744,0.9999999999999998,67.884531164368
8.752,0.9999999999999999,67.77295559105279
8.76,1.0,67.66135750901262
8.768,0.9999999999999999,67.54973694659841
8.776,1.0,67.43809392892385
8.784,1.0,67.32642847762547
8.792,0.9999999999999999,67.21474061064382
8.8,1.0,67.1030303420269
8.808,1.0,66.99129768175898
8.815999999999999,1.0,66.87954263561605
8.824,1.0,66.76776520505001
8.832,0.9999999999999999,66.65596538710257
8.84,1.0,66.54414317434963
8.847999999999999,1.0,66.43229855487665
8.856,0.9999999999999999,66.32043151228545
8.864,1.0,66.20854202573136
8.872,0.9999999999999999,66.09663006999078
8.879999999999999,0.9999999999999999,65.98469561555733
8.888,0.9999999999999998,65.87273862876565
8.896,0.9999999999999999,65.76075907194105
8.904,1.0,65.64875690357266
8.911999999999999,1.0,65.53673207850808
8.92,1.0,65.42468454816704
8.928,1.0,65.31261426077147
8.936,0.9999999999999998,65.20052116158915
8.943999999999999,1.0,65.08840519318834
8.952,0.9999999999999999,64.97626629570047
8.96,0.9999999999999999,64.8641044070886
8.968,0.9999999999999999,64.75191946341836
8.975999999999999,0.9999999999999999,64.63971139912914
8.984,0.9999999999999999,64.5274801473035
8.992,1.0,64.41522563993199
9.0,1.0,64.30294780817168
9.008,0.9999999999999999,64.19064658259644
9.016,0.9999999999999999,64.07832189343752
9.024000000000001,0.9999999999999998,63.96597367081301
9.032,0.9999998233307579,63.853601844944805
9.04,0.9999995334007747,63.741206346362304
9.048,0.9999992622592396,63.62878710609225
9.056000000000001,0.9999990100234235,63.51634405583399
9.064,0.9999987767621524,63.40387712811988
9.072,0.999998562498129,63.29138625646065
9.08,0.9999983672103476,63.17887137547594
9.088000000000001,0.9999981908365873,63.06633242101007
9.096,0.9999980332759497,62.95376933023322
9.104,0.9999978943914267,62.84118204172857
9.112,0.999997774012469,62.72857049556607
9.120000000000001,0.9999976719375426,62.61593463336314
9.128,0.9999975879366558,62.50327439833322
9.136,0.9999975217538367,62.390589735322536
9.144,0.9999974731095536,62.27788059083646
9.152000000000001,0.9999974417030649,62.165146913055516
9.16,0.9999974272146884,62.05238865184241
9.168,0.9999974293079823,61.939605758740356
9.176,0.999997447631832,61.826798186963956
9.184000000000001,0.9999974818224399,61.71396589138322
9.192,0.99999753150521,61.60110882850128
9.2,0.999997596296529,61.488226956426686
9.208,0.9999976758054421,61.37532023484107
9.216000000000001,0.999997769635223,61.2623886249627
9.224,0.9999978773848363,61.149432089506526
9.232,0.9999979986502999,61.03645059264114
9.24,0.9999981330259434,60.92344409994366
9.248000000000001,0.9999982801055673,60.81041257835258
9.256,0.9999984394835082,60.69735599611921
9.264,0.9999986107556101,60.584274322757935
9.272,0.999998793520108,60.47116752899611
9.280000000000001,0.9999989873784267,60.358035586723524
9.288,0.9999991919358983,60.244878468941685
9.296,0.9999994068024058,60.13169614971365
9.304,0.9999996315929526,60.01848860411404
9.312000000000001,0.9999998659281644,59.90525580818012
9.32,0.9999999999999999,59.79199773886343
9.328,1.0,59.6787143739825
9.336,1.0000000000000002,59.565405692176796
9.344,1.0,59.452071672862104
9.352,1.0,59.33871229618667
9.36,1.0,59.225327542989476
9.368,1.0,59.111917394759416
9.376,0.9999999999999999,58.99848183359629
9.384,0.9999999999999999,58.88502084217307
9.392,1.0,58.771534403700066
9.4,1.0,58.65802250189017
9.408,0.9999999999999999,58.544485120925984
9.416,1.0,58.43092224542823
9.424,1.0,58.317333860425876
9.432,1.0,58.20371995132739
9.44,0.9999999999999999,58.090080503893944
9.448,1.0,57.976415504213286
9.456,1.0,57.862724938675754
9.464,1.0,57.74900879395096
9.472,0.9999999999999999,57.63526705696624
9.48,1.0,57.52149971488584
9.488,1.0,57.407706755091816
9.496,1.0,57.2938881651655
9.504,1.0,57.18004393287068
9.512,1.0,57.066174046137135
9.52,1.0,56.952278493045846
9.528,0.9999999999999999,56.838357261814544
9.536,1.0,56.72441034078463
9.544,1.0,56.61043771840862
9.552,0.9999999999999999,56.49643938323874
9.56,1.0,56.38241532391585
9.568,1.0,56.268365529159674
9.576,0.9999999999999999,56.15428998775907
9.584,1.0,56.04018868856364
9.592,0.9999999999999999,55.92606162047533
9.6,1.0,55.81190877244114
9.608,1.0,55.69773013344598
9.616,1.0,55.58352569250637
9.624,1.0,55.46929543866436
9.632,0.9999999999999999,55.35503936098219
9.64,1.0,55.240757448537025
9.648,0.9999999999999999,55.126449690416564
9.656,1.0,55.01211607571452
9.664,0.9999999999999999,54.89775659352694
9.672,1.0000000000000002,54.78337123294841
9.68,1.0,54.66895998306904
9.688,1.0,54.554522832971244
9.696,1.0,54.4400597717273
9.704,1.0,54.325570788396696
9.712,1.0,54.21105587202417
9.72,1.0,54.096515011637464
9.728,1.0,53.981948196245845
9.736,1.0,53.8673554148383
9.744,1.0,53.752736656382346
9.752,0.9999999999999999,53.63809190982264
9.76,1.0000000000000002,53.52342116408004
9.768,1.0,53.40872440805058
9.776,1.0,53.294001630604804
9.784,1.0,53.17925282058694
9.792,1.0,53.064477966814515
9.8,0.9999999999999999,52.94967705807777
9.808,0.9999999999999999,52.834850083139436
9.816,0.9999999999999999,52.7199970307343
9.824,1.0,52.60511788956924
9.832,1.0000000000000002,52.49021264832295
9.84,1.0,52.375281295646005
9.847999999999999,1.0,52.26032382016081
9.856,1.0,52.145340210461704
9.864,0.9999999999999999,52.030330455115234
9.872,0.9999999999999999,51.91529454266015
9.879999999999999,1.0,51.800232461607735
9.888,1.0,51.685144200442004
9.896,0.9999999999999999,51.57002974762014
9.904,1.0,51.45488909157274
9.911999999999999,1.0,51.33972222070413
9.92,0.9999999999999999,51.22452912339285
9.928,1.0,51.10930978799202
9.936,0.9999999999999999,50.994064202829854
9.943999999999999,1.0,50.87879235620993
9.952,0.9999999999999999,50.76349423641181
9.96,0.9999999999999999,50.6481698316915
9.968,1.0,50.53281913028193
9.975999999999999,1.0,50.41744212039334
9.984,0.9999999999999999,50.30203879021397
9.992,1.0,50.18660912791041
10.0,1.0,50.07115312162831
10.008,1.0,49.95567075949263
10.016,0.9999999999999999,49.84016202960838
10.024000000000001,1.0,49.7246269200611
10.032,1.0,49.609065418917304
10.04,1.0,49.493477514225084
10.048,0.9999999999999999,49.377863194014566
10.056000000000001,0.9999999999999999,49.26222244629848
10.064,1.0,49.14655525907269
10.072,0.9999999999999999,49.0308616203166
10.08,0.9999999999999998,48.91514151799374
10.088000000000001,1.0,48.799394940052295
10.096,1.0,48.68362187442554
10.104,0.9999999999999999,48.567822309032316
10.112,1.0,48.45199623177757
10.120000000000001,1.0,48.336143630552804
10.128,1.0,48.2202644932366
