freq,mag,phase
6.0,0.9999945908818456,-136.31339888346807
6.008,0.999993346984834,-136.7096294338507
6.016,0.9999921388217197,-137.10547717097947
6.024,0.9999909658102881,-137.50094426744138
6.032,0.9999898273740777,-137.8960329113196
6.04,0.9999887229423677,-138.29074530596282
6.048,0.9999876519501598,-138.68508366975723
6.056,0.9999866138381664,-139.07905023590047
6.064,0.9999856080527896,-139.47264725217764
6.072,0.9999846340461077,-139.86587698073953
6.08,0.999983691275856,-140.25874169788298
6.088,0.9999827792054061,-140.65124369383324
6.096,0.9999818973037502,-141.0433852725287
6.104,0.9999810450454764,-141.43516875140762
6.112,0.999980221910754,-141.82659646119686
6.12,0.9999794273853077,-142.2176707457029
6.128,0.9999786609603958,-142.608393961605
6.136,0.9999779221327919,-142.99876847825055
6.144,0.9999772104047573,-143.38879667745215
6.152,0.9999765252840195,-143.7784809532873
6.16,0.9999758662837479,-144.1678237118999
6.168,0.9999752329225317,-144.55682737130397
6.176,0.9999746247243501,-144.94549436118936
6.184,0.9999740412185502,-145.33382712272984
6.192,0.99997348193982,-145.72182810839283
6.2,0.999972946428163,-146.1094997817515
6.208,0.9999724342288674,-146.49684461729927
6.216,0.9999719448924881,-146.88386510026538
6.224,0.9999714779748069,-147.27056372643372
6.232,0.9999710330368139,-147.65694300196287
6.24,0.9999706096446745,-148.04300544320853
6.248,0.9999702073697017,-148.42875357654808
6.256,0.9999698257883286,-148.8141899382065
6.264,0.9999694644820761,-149.1993170740855
6.272,0.9999691230375252,-149.58413753959343
6.28,0.9999688010462864,-149.96865389947806
6.288,0.9999684981049695,-150.35286872766088
6.296,0.9999682138151527,-150.73678460707345
6.304,0.9999679477833513,-151.12040412949585
6.312,0.9999676996209887,-151.50372989539707
6.32,0.9999674689443626,-151.88676451377722
6.328,0.9999672553746143,-152.26951060201168
6.336,0.9999670585376983,-152.65197078569707
6.344,0.9999668780643454,-153.0341476984998
6.352,0.9999667135900387,-153.41604398200533
6.36,0.9999665647549739,-153.79766228557045
6.368,0.9999664312040304,-154.17900526617657
6.376,0.9999663125867381,-154.56007558828554
6.384,0.9999662085572419,-154.94087592369678
6.392,0.9999661187742751,-155.3214089514065
6.4,0.9999660429011173,-155.70167735746872
6.408,0.9999659806055698,-156.08168383485804
6.416,0.9999659315599179,-156.4614310833341
6.424,0.9999658954408953,-156.84092180930807
6.432,0.9999658719296574,-157.22015872571058
6.44,0.9999658607117404,-157.59914455186157
6.448,0.9999658614770321,-157.9778820133419
6.456,0.9999658739197373,-158.3563738418665
6.464,0.9999658977383431,-158.73462277515944
6.472,0.9999659326355839,-159.1126315568302
6.48,0.9999659783184129,-159.49040293625245
6.4879999999999995,0.9999660344979604,-159.8679396684435
6.496,0.9999661008895057,-160.2452445139464
6.504,0.9999661772124421,-160.62232023871218
6.5120000000000005,0.9999662631902378,-160.9991696139858
6.52,0.9999663585504122,-161.37579541619138
6.5280000000000005,0.9999664630244922,-161.75220042682088
6.536,0.9999665763479818,-162.12838743232305
6.5440000000000005,0.9999666982603278,-162.50435922399495
6.552,0.9999668285048895,-162.88011859787363
6.5600000000000005,0.9999669668288975,-163.2556683546311
6.568,0.9999671129834272,-163.63101129946895
6.5760000000000005,0.9999672667233583,-164.00615024201602
6.584,0.9999674278073478,-164.38108799622603
6.592,0.9999675959977904,-164.75582738027816
6.6,0.9999677710607882,-165.13037121647776
6.608,0.9999679527661152,-165.5047223311592
6.616,0.999968140887186,-165.8788835545898
6.624,0.9999683352010206,-166.25285772087534
6.632,0.9999685354882103,-166.62664766786656
6.64,0.9999687415328873,-167.00025623706745
6.648,0.9999689531226877,-167.37368627354442
6.656,0.9999691700487222,-167.74694062583708
6.664,0.9999693921055398,-168.12002214587022
6.672,0.9999696190910969,-168.49293368886669
6.68,0.999969850806724,-168.86567811326228
6.688,0.9999700870570923,-169.238258280621
6.696,0.9999703276501826,-169.6106770555522
6.704,0.9999705723972497,-169.9829373056285
6.712,0.999970821112794,-170.355041901305
6.72,0.9999710736145279,-170.7269937158398
6.728,0.9999713297233407,-171.0987956252153
6.736,0.9999715892632713,-171.47045050806113
6.744,0.9999718520614731,-171.8419612455776
6.752,0.9999721179481841,-172.21333072146078
6.76,0.9999723867566924,-172.58456182182812
6.768,0.9999726583233095,-172.95565743514575
6.776,0.9999729324873347,-173.32662045215608
6.784,0.9999732090910257,-173.69745376580707
6.792,0.9999734879795683,-174.0681602711822
6.8,0.999973769001044,-174.4387428654312
6.808,0.9999740520063994,-174.80920444770234
6.816,0.9999743368494175,-175.17954791907493
6.824,0.9999746233866852,-175.54977618249356
6.832,0.9999749114775645,-175.91989214270242
6.84,0.9999752009841609,-176.28989870618108
6.848,0.9999754917712954,-176.65979878108107
6.856,0.9999757837064734,-177.0295952771631
6.864,0.9999760766598551,-177.39929110573524
6.872,0.9999763705042273,-177.7688891795921
6.88,0.9999766651149727,-178.13839241295437
6.888,0.9999769603700414,-178.50780372140972
6.896,0.9999772561499226,-178.8771260218539
6.904,0.9999775523376144,-179.24636223243326
6.912,0.9999778488185974,-179.6155152724872
6.92,0.999978145480805,-179.98458806249195
6.928,0.9999784422145939,179.646416475995
6.936,0.9999787389127187,179.27749542039012
6.944,0.9999790354703026,178.9086458471381
6.952,0.9999793317848101,178.5398648317655
6.96,0.9999796277560191,178.1711494489339
6.968,0.9999799232859939,177.80249677249228
6.976,0.9999802182790585,177.4339038755289
6.984,0.9999805126417683,177.06536783042247
6.992,0.9999808062828857,176.69688570889295
7.0,0.9999810991133508,176.32845458205156
7.008,0.9999813910462566,175.9600715204505
7.016,0.9999816819968226,175.59173359413197
7.024,0.9999819718823689,175.22343787267678
7.032,0.9999822606222903,174.85518142525234
7.04,0.9999825481380291,174.48696132066055
7.048,0.999982834353053,174.11877462738468
7.056,0.9999831191928253,173.75061841363637
7.064,0.9999834025847852,173.38248974740176
7.072,0.999983684458318,173.01438569648764
7.08,0.9999839647447323,172.64630332856674
7.088,0.9999842433772363,172.27823971122314
7.096,0.9999845202909128,171.91019191199706
7.104,0.9999847954226937,171.54215699842922
7.112,0.9999850687113383,171.17413203810509
7.12,0.9999853400974076,170.806114098699
7.128,0.9999856095232412,170.43810024801726
7.136,0.9999858769329353,170.07008755404195
7.144,0.9999861422723164,169.7020730849737
7.152,0.9999864054889211,169.3340539092747
7.16,0.9999866665319724,168.9660270957112
7.168,0.9999869253523562,168.59798971339598
7.176,0.9999871819025984,168.22993883183054
7.184,0.9999874361368448,167.86187152094732
7.192,0.9999876880108365,167.4937848511513
7.2,0.9999879374818891,167.12567589336206
7.208,0.9999881845088712,166.75754171905524
7.216,0.9999884290521819,166.38937940030416
7.224,0.9999886710737291,166.02118600982126
7.232,0.9999889105369097,165.65295862099939
7.24,0.9999891474065873,165.28469430795323
7.248,0.9999893816490708,164.91639014556054
7.256,0.9999896132320959,164.5480432095033
7.264,0.9999898421248007,164.17965057630914
7.272,0.99999006829771,163.81120932339232
7.28,0.9999902917227109,163.44271652909524
7.288,0.9999905123730356,163.07416927272956
7.296,0.9999907302232393,162.70556463461773
7.304,0.9999909452491829,162.33689969613417
7.312,0.9999911574280103,161.96817153974698
7.32,0.9999913667381326,161.59937724905944
7.328,0.9999915731592061,161.23051390885178
7.336,0.9999917766721136,160.861578605123
7.344,0.9999919772589477,160.49256842513287
7.352,0.9999921749029893,160.12348045744415
7.36,0.9999923695886905,159.75431179196482
7.368,0.9999925613016566,159.38505951999076
7.376,0.9999927500286254,159.0157207342483
7.384,0.9999929357574534,158.64629252893747
7.392,0.9999931184770933,158.27677199977492
7.4,0.9999932981775792,157.90715624403762
7.4079999999999995,0.9999934748500086,157.53744236060643
7.416,0.9999936484865234,157.1676274500102
7.4239999999999995,0.9999938190802944,156.79770861447025
7.432,0.9999939866255035,156.42768295794463
7.4399999999999995,0.9999941511173265,156.05754758617368
7.448,0.9999943125519166,155.6872996067247
7.4559999999999995,0.9999944709263877,155.3169361290384
7.464,0.9999946262387978,154.94645426447403
7.4719999999999995,0.999994778488131,154.575851126357
7.48,0.9999949276742864,154.2051238300247
7.4879999999999995,0.9999950737980551,153.8342694928746
7.496,0.9999952168611095,153.46328523441142
7.504,0.999995356865985,153.0921681762959
7.5120000000000005,0.999995493816065,152.72091544239288
7.52,0.9999956277155659,152.3495241588212
7.5280000000000005,0.9999957585695217,151.97799145400248
7.536,0.9999958863837668,151.60631445871226
7.5440000000000005,0.9999960111649239,151.23449030612986
7.552,0.9999961329203869,150.8625161318905
7.5600000000000005,0.9999962516583076,150.4903890741362
7.568,0.9999963673875799,150.11810627356917
7.5760000000000005,0.9999964801178256,149.74566487350398
7.584,0.9999965898593806,149.3730620199218
7.5920000000000005,0.9999966966232792,149.00029486152417
7.6,0.9999968004212422,148.62736054978834
7.6080000000000005,0.9999969012656602,148.25425623902228
7.616,0.9999969991695824,147.8809790864214
7.6240000000000006,0.999997094146701,147.50752625212505
7.632,0.9999971862113385,147.1338948992744
7.640000000000001,0.999997275378434,146.76008219407032
7.648,0.9999973616635289,146.38608530583306
7.656000000000001,0.9999974450827567,146.01190140706126
7.664,0.9999975256528254,145.63752767349314
7.672,0.9999976033910083,145.26296128416723
7.68,0.9999976783151294,144.88819942148504
7.688,0.9999977504435511,144.5132392712734
7.696,0.9999978197951614,144.13807802284848
7.704,0.9999978863893617,143.76271286908022
7.712,0.9999979502460539,143.3871410064578
7.72,0.9999980113856286,143.01135963515586
7.728,0.9999980698289532,142.63536595910134
7.736,0.9999981255973591,142.25915718604193
7.744,0.9999981787126302,141.88273052761463
7.752,0.999998229196991,141.50608319941577
7.76,0.9999982770730957,141.12921242107168
7.768,0.999998322364015,140.75211541631037
7.776,0.9999983650932259,140.37478941303425
7.784,0.9999984052846002,139.99723164339366
7.792,0.9999984429623927,139.6194393438617
7.8,0.9999984781512308,139.24140975530963
7.808,0.9999985108761024,138.86314012308364
7.816,0.9999985411623462,138.48462769708246
7.824,0.99999856903564,138.10586973183615
7.832,0.9999985945219904,137.72686348658576
7.84,0.9999986176477218,137.3476062253643
7.848,0.9999986384394665,136.9680952170785
7.856,0.9999986569241536,136.58832773559215
7.864,0.999998673128999,136.20830105980977
7.872,0.9999986870814956,135.82801247376233
7.88,0.999998698809402,135.4474592666934
7.888,0.9999987083407335,135.06663873314668
7.896,0.9999987157037522,134.6855481730549
7.904,0.9999987209269565,134.30418489182964
7.912,0.9999987240390719,133.92254620045225
7.92,0.9999987250690409,133.5406294155664
7.928,0.9999987240460138,133.15843185957135
7.936,0.9999987209993396,132.77595086071696
7.944,0.9999987159585555,132.3931837531993
7.952,0.9999987089533788,132.01012787725824
7.96,0.9999987000136971,131.62678057927573
7.968,0.9999986891695596,131.24313921187556
7.976,0.999998676451167,130.85920113402454
7.984,0.9999986618888641,130.47496371113485
7.992,0.9999986455131306,130.09042431516755
8.0,0.9999986273545711,129.70558032473775
8.008,0.9999986074439081,129.320429125221
8.016,0.9999985858119725,128.9349681088606
8.024000000000001,0.9999985624896952,128.5491946748772
8.032,0.9999985375080989,128.1631062295788
8.04,0.9999985108982897,127.77670018647265
8.048,0.9999984826914492,127.38997396637835
8.056000000000001,0.9999984529188252,127.00292499754268
8.064,0.9999984216117251,126.61555071575549
8.072,0.9999983888015073,126.22784856446688
8.08,0.9999983545195725,125.8398159949063
8.088000000000001,0.9999983187973575,125.45145046620287
8.096,0.9999982816663258,125.06274944550708
8.104,0.9999982431579612,124.67371040811376
8.112,0.999998203303759,124.28433083758694
8.120000000000001,0.9999981621352202,123.89460822588626
8.128,0.9999981196838421,123.50454007349421
8.136,0.9999980759811121,123.11412388954534
8.144,0.9999980310585005,122.72335719195695
8.152000000000001,0.9999979849474521,122.3322375075614
8.16,0.999997937679381,121.94076237223966
8.168,0.999997889285662,121.54892933105629
8.176,0.9999978397976234,121.15673593839638
8.184000000000001,0.9999977892465418,120.76417975810396
8.192,0.9999977376636334,120.37125836362175
8.2,0.9999976850800488,119.9779693381322
8.208,0.9999976315268648,119.58431027470068
8.216000000000001,0.9999975770350793,119.19027877642026
8.224,0.9999975216356028,118.79587245655738
8.232,0.9999974653592546,118.40108893869959
8.24,0.9999974082367539,118.00592585690474
8.248000000000001,0.9999973502987147,117.61038085585211
8.256,0.9999972915756393,117.2144515909947
8.264,0.9999972320979126,116.8181357287128
8.272,0.9999971718957946,116.42143094647008
8.280000000000001,0.9999971109994161,116.02433493297086
8.288,0.9999970494387713,115.62684538831863
8.296,0.9999969872437129,115.22896002417656
8.304,0.9999969244439453,114.83067656392946
8.312,0.99999686106902,114.43199274284778
8.32,0.9999967971483289,114.03290630825234
8.328,0.9999967327110987,113.63341501968182
8.336,0.9999966677863863,113.23351664906052
8.344,0.9999966024030723,112.83320898086922
8.352,0.9999965365898563,112.43248981231619
8.36,0.9999964703752504,112.03135695351128
8.368,0.9999964037875759,111.62980822763998
8.376,0.9999963368549553,111.22784147114093
8.384,0.9999962696053103,110.82545453388316
8.392,0.9999962020663544,110.42264527934675
8.4,0.9999961342655884,110.01941158480335
8.408,0.9999960662302965,109.61575134149997
8.416,0.9999959979875397,109.21166245484282
8.424,0.9999959295641528,108.80714284458422
8.432,0.999995860986738,108.40219044500952
8.44,0.9999957922816609,107.99680320512732
8.448,0.9999957234750473,107.59097908885957
8.456,0.9999956545927758,107.18471607523476
8.464,0.9999955856604764,106.77801215858133
8.472,0.9999955167035225,106.37086534872388
8.48,0.999995447747031,105.96327367117973
8.488,0.9999953788158539,105.55523516735819
8.496,0.9999953099345776,105.14674789476015
8.504,0.9999952411275155,104.73780992718049
8.512,0.999995172418706,104.32841935491061
8.52,0.9999951038319086,103.91857428494389
8.528,0.9999950353905994,103.50827284118115
8.536,0.999994967117967,103.09751316463921
8.544,0.9999948990369089,102.6862934136591
8.552,0.9999948311700282,102.27461176411757
8.56,0.9999947635396293,101.86246640963832
8.568,0.9999946961677156,101.44985556180613
8.576,0.9999946290759845,101.03677745038111
8.584,0.9999945622858247,100.62323032351554
8.592,0.999994495818313,100.20921244797078
8.6,0.9999944296942106,99.79472210933699
8.608,0.99999436393396,99.37975761225259
8.616,0.9999942985576822,98.96431728062667
8.624,0.9999942335851736,98.54839945786111
8.632,0.9999941690359025,98.13200250707543
8.64,0.9999941049290065,97.71512481133153
8.648,0.99999404128329,97.29776477386096
8.656,0.9999939781172202,96.87992081829213
8.664,0.9999939154489267,96.46159138887998
8.672,0.9999938532961967,96.04277495073538
8.68,0.9999937916764731,95.62346999005729
8.688,0.9999937306068526,95.20367501436434
8.696,0.9999936701040829,94.783388552729
8.704,0.9999936101845602,94.36260915601149
8.712,0.9999935508643268,93.941335397096
8.72,0.9999934921590701,93.51956587112647
8.728,0.9999934340841188,93.09729919574487
8.736,0.9999933766544425,92.67453401132889
8.744,0.9999933198846491,92.25126898123197
8.752,0.9999932637889818,91.82750279202278
8.76,0.99999320838132,91.40323415372697
8.768,0.9999931536751754,90.97846180006829
8.776,0.9999930996836903,90.55318448871182
8.784,0.9999930464196379,90.12740100150658
8.792,0.9999929938954192,89.70111014473034
8.8,0.9999929421230621,89.27431074933332
8.808,0.9999928911142203,88.84700167118442
8.815999999999999,0.9999928408801727,88.41918179131618
8.824,0.9999927914318203,87.99085001617152
8.832,0.9999927427796874,87.56200527785072
8.84,0.999992694933919,87.13264653435851
8.847999999999999,0.9999926479042811,86.70277276985158
8.856,0.9999926017001591,86.27238299488674
8.864,0.9999925563305578,85.84147624666956
8.872,0.9999925118041,85.41005158930267
8.879999999999999,0.9999924681290261,84.97810811403443
8.888,0.9999924253131944,84.54564493950814
8.896,0.9999923833640803,84.1126612120113
8.904,0.9999923422887753,83.67915610572464
8.911999999999999,0.9999923020939885,83.24512882297105
8.92,0.9999922627860443,82.81057859446499
8.928,0.9999922243708842,82.37550467956169
8.936,0.9999921868540667,81.939906366506
8.943999999999999,0.9999921502407659,81.50378297268077
8.952,0.9999921145357741,81.06713384485566
8.96,0.9999920797434996,80.62995835943539
8.968,0.9999920458679692,80.19225592270746
8.975999999999999,0.9999920129128287,79.75402597108919
8.984,0.9999919808813412,79.31526797137495
8.992,0.9999919497763905,78.87598142098254
9.0,0.9999919196004805,78.43616584819891
9.008,0.9999918903557364,77.99582081242484
9.016,0.9999918620439058,77.5549459044196
9.024000000000001,0.9999918346663595,77.11354074654466
9.032,0.999991808224093,76.67160499300608
9.04,0.9999917827177273,76.22913833009616
9.048,0.9999917581475111,75.78614047643434
9.056000000000001,0.9999917345133214,75.34261118320704
9.064,0.9999917118146654,74.89855023440609
9.072,0.9999916900506818,74.45395744706586
9.08,0.9999916692201433,74.0088326714995
9.088000000000001,0.9999916493214577,73.56317579153394
9.096,0.9999916303526704,73.11698672474294
9.104,0.9999916123114659,72.67026542267887
9.112,0.99999159519517,72.223011871103
9.120000000000001,0.9999915790007525,71.77522609021447
9.128,0.9999915637248283,71.32690813487706
9.136,0.9999915493636623,70.87805809484402
9.144,0.9999915359131686,70.42867609498167
9.152000000000001,0.9999915233689155,69.97876229549087
9.16,0.9999915117261273,69.52831689212624
9.168,0.9999915009796874,69.07734011641315
9.176,0.9999914911241408,68.62583223586302
9.184000000000001,0.9999914821536967,68.17379355418629
9.192,0.9999914740622338,67.72122441150279
9.2,0.9999914668432994,67.26812518454953
9.208,0.9999914604901178,66.81449628688647
9.216000000000001,0.9999914549955884,66.36033816909982
9.224,0.9999914503522933,65.90565131900208
9.232,0.9999914465524984,65.45043626182938
9.24,0.9999914435881582,64.99469356043663
9.248000000000001,0.9999914414509191,64.5384238154894
9.256,0.9999914401321229,64.08162766565259
9.264,0.9999914396228119,63.624305787776166
9.272,0.9999914399137317,63.16645889707775
9.280000000000001,0.9999914409953351,62.708087747322324
9.288,0.9999914428577881,62.249193130998
9.296,0.9999914454909721,61.78977587948842
9.304,0.9999914488844895,61.32983686324203
9.312000000000001,0.999991453027668,60.86937699193784
9.32,0.9999914579095642,60.40839721464689
9.328,0.99999146351897,59.94689851999023
9.336,0.9999914698444159,59.48488193629324
9.344,0.9999914768741761,59.022348531736114
9.352,0.9999914845962735,58.55929941449945
9.36,0.9999914929984856,58.09573573290708
9.368,0.9999915020683474,57.631658675563195
9.376,0.9999915117931591,57.16706947148661
9.384,0.9999915221599892,56.701969390239356
9.392,0.9999915331556812,56.236359742052024
9.4,0.9999915447668586,55.77024187794328
9.408,0.9999915569799298,55.303617189836146
9.416,0.9999915697810948,54.83648711066806
9.424,0.9999915831563494,54.368853114497625
9.432,0.9999915970914928,53.900716716604926
9.44,0.9999916115721309,53.43207947358852
9.448,0.9999916265836851,52.96294298345561
9.456,0.9999916421113955,52.493308885708764
9.464,0.9999916581403283,52.02317886142581
9.472,0.9999916746553822,51.55255463333601
9.48,0.9999916916412933,51.08143796588906
9.488,0.9999917090826425,50.60983066532056
9.496,0.9999917269638607,50.13773457971
9.504,0.9999917452692363,49.665151599034765
9.512,0.9999917639829202,49.192083655216976
9.52,0.9999917830889343,48.71853272216597
9.528,0.9999918025711756,48.24450081581327
9.536,0.9999918224134245,47.76998999414342
9.544,0.9999918425993501,47.295002357216866
9.552,0.9999918631125188,46.81954004718867
9.56,0.9999918839363987,46.343605248319065
