freq,mag,phase
6.0,0.9999854219080777,96.5608554582485
6.008,0.9999862598608239,96.43902629618032
6.016,0.9999870817941651,96.31715773910148
6.024,0.9999878878671769,96.1952497701872
6.032,0.9999886782381686,96.07330237273256
6.04,0.9999894530646836,95.95131553015285
6.048,0.9999902125035012,95.82928922598425
6.056,0.9999909567106365,95.70722344388425
6.064,0.9999916858413417,95.58511816763213
6.072,0.9999924000501057,95.46297338112954
6.08,0.9999930994906568,95.34078906840098
6.088,0.9999937843159621,95.21856521359426
6.096,0.9999944546782279,95.09630180098108
6.104,0.9999951107289012,94.97399881495745
6.112,0.9999957526186714,94.85165624004435
6.12,0.9999963804974685,94.72927406088803
6.128,0.9999969945144668,94.60685226226069
6.136,0.9999975948180833,94.48439082906087
6.144,0.9999981815559799,94.36188974631405
6.152,0.9999987548750638,94.23934899917306
6.16,0.9999993149214886,94.11676857291869
6.168,0.9999998618406545,93.99414845296012
6.176,1.0,93.87148862483541
6.184,0.9999999999999999,93.7487890742121
6.192,1.0,93.62604978688765
6.2,0.9999999999999998,93.50327074878992
6.208,1.0,93.38045194597773
6.216,1.0,93.25759336464134
6.224,1.0,93.13469499110296
6.232,0.9999999999999999,93.01175681181725
6.24,1.0,92.88877881337183
6.248,0.9999999999999999,92.76576098248776
6.256,1.0,92.64270330602012
6.264,0.9999999999999999,92.51960577095839
6.272,1.0,92.39646836442705
6.28,1.0,92.27329107368605
6.288,1.0,92.15007388613135
6.296,0.9999999999999999,92.02681678929532
6.304,1.0,91.90351977084737
6.312,1.0,91.78018281859437
6.32,0.9999999999999999,91.65680592048118
6.328,1.0,91.53338906459112
6.336,1.0,91.40993223914656
6.344,1.0,91.2864354325093
6.352,1.0,91.16289863318114
6.36,0.9999999999999999,91.03932182980438
6.368,0.9999999999999999,90.9157050111623
6.376,0.9999999999999999,90.79204816617968
6.384,1.0,90.66835128392331
6.392,1.0,90.54461435360238
6.4,0.9999999999999999,90.42083736456915
6.408,1.0,90.29702030631933
6.416,1.0,90.1731631684926
6.424,0.9999999999999999,90.04926594087314
6.432,1.0,89.9253286133901
6.44,1.0,89.80135117611809
6.448,1.0,89.67733361927766
6.456,0.9999999999999999,89.55327593323591
6.464,1.0,89.4291781085068
6.472,1.0,89.30504013575181
6.48,1.0000000000000002,89.18086200578033
6.4879999999999995,1.0,89.0566437095502
6.496,1.0,88.93238523816818
6.504,1.0,88.80808658289052
6.5120000000000005,0.9999999999999999,88.68374773512329
6.52,1.0,88.55936868642308
6.5280000000000005,1.0,88.43494942849729
6.536,1.0,88.3104899532048
6.5440000000000005,0.9999999999999999,88.18599025255627
6.552,0.9999999999999999,88.06145031871485
6.5600000000000005,1.0,87.93687014399647
6.568,0.9999999999999999,87.81224972087048
6.5760000000000005,1.0000000000000002,87.68758904196
6.584,0.9999999999999998,87.56288810004256
6.592,1.0,87.43814688805045
6.6,0.9999999999999999,87.31336539907127
6.608,0.9999999999999999,87.18854362634845
6.616,1.0,87.06368156328166
6.624,0.9999999999999999,86.93877920342733
6.632,1.0,86.81383654049918
6.64,0.9999999999999999,86.68885356836863
6.648,1.0000000000000002,86.56383028106531
6.656,0.9999999999999999,86.43876667277755
6.664,1.0,86.31366273785287
6.672,0.9999999999999999,86.18851847079843
6.68,1.0,86.06333386628157
6.688,0.9999999999999999,85.93810891913019
6.696,1.0,85.81284362433337
6.704,0.9999999999999999,85.6875379770417
6.712,0.9999999999999999,85.56219197256787
6.72,1.0,85.43680560638711
6.728,1.0,85.3113788741376
6.736,0.9999999999999999,85.1859117716211
6.744,1.0,85.06040429480326
6.752,0.9999999999999999,84.93485643981421
6.76,1.0,84.80926820294899
6.768,1.0,84.68363958066801
6.776,0.9999999999999999,84.55797056959754
6.784,1.0,84.43226116653021
6.792,1.0,84.30651136842542
6.8,0.9999999999999999,84.18072117240986
6.808,1.0,84.05489057577795
6.816,0.9999999999999999,83.92901957599234
6.824,1.0,83.80310817068434
6.832,0.9999999999999999,83.67715635765441
6.84,1.0,83.55116413487265
6.848,1.0,83.42513150047921
6.856,1.0,83.29905845278476
6.864,0.9999999999999999,83.17294499027108
6.872,0.9999999999999999,83.04679111159128
6.88,1.0000000000000002,82.92059681557052
6.888,1.0,82.7943621012063
6.896,1.0,82.66808696766898
6.904,0.9999999999999999,82.54177141430229
6.912,1.0,82.41541544062363
6.92,0.9999999999999999,82.28901904632477
6.928,0.9999999999999999,82.16258223127204
6.936,0.9999999999999999,82.036104995507
6.944,1.0,81.90958733924681
6.952,0.9999999999999999,81.78302926288464
6.96,0.9999999999999999,81.65643076699025
6.968,1.0,81.52979185231031
6.976,1.0,81.40311251976891
6.984,1.0,81.27639277046804
6.992,0.9999999999999999,81.14963260568801
7.0,1.0,81.02283202688787
7.008,0.9999999999999999,80.89599103570593
7.016,1.0,80.76910963396014
7.024,0.9999999999999998,80.64218782364858
7.032,0.9999999999999999,80.5152256069499
7.04,1.0,80.38822298622371
7.048,1.0,80.26117996401113
7.056,1.0,80.13409654303516
7.064,1.0,80.0069727262011
7.072,1.0,79.8798085165971
7.08,1.0,79.75260391749443
7.088,1.0,79.62535893234813
7.096,1.0,79.49807356479727
7.104,1.0,79.37074781866546
7.112,1.0,79.24338169796131
7.12,0.9999999999999999,79.11597520687886
7.128,0.9999999999999999,78.9885283497979
7.136,1.0,78.86104113128462
7.144,1.0,78.73351355609184
7.152,0.9999999999999999,78.60594562915956
7.16,1.0,78.47833735561535
7.168,0.9999999999999999,78.35068874077481
7.176,1.0,78.22299979014197
7.184,1.0,78.09527050940967
7.192,1.0,77.96750090446015
7.2,1.0,77.8396909813653
7.208,0.9999999999999999,77.71184074638718
7.216,1.0,77.58395020597843
7.224,0.9999999999999999,77.45601936678267
7.232,1.0,77.32804823563501
7.24,1.0,77.20003681956233
7.248,1.0,77.07198512578378
7.256,0.9999999999999999,76.94389316171132
7.264,1.0000000000000002,76.81576093494986
7.272,1.0,76.68758845329795
7.28,0.9999999999999999,76.55937572474805
7.288,1.0,76.431122757487
7.296,0.9999999999999999,76.30282955989647
7.304,0.9999999999999999,76.17449614055323
7.312,0.9999999999999999,76.04612250822976
7.32,0.9999999999999999,75.91770867189454
7.328,0.9999999999999999,75.78925464071254
7.336,1.0,75.66076042404552
7.344,1.0,75.5322260314526
7.352,0.9999999999999998,75.40365147269053
7.36,0.9999999999999999,75.27503675771416
7.368,1.0,75.14638189667693
7.376,0.9999999999999999,75.01768689993114
7.384,0.9999999999999999,74.8889517780284
7.392,1.0,74.76017654172013
7.4,0.9999999999999998,74.63136120195789
7.4079999999999995,0.9999998464122324,74.50250576989377
7.416,0.999999664748877,74.37361025688084
7.4239999999999995,0.9999994840800748,74.2446746744736
7.432,0.9999993044443856,74.11569903442825
7.4399999999999995,0.9999991258797581,73.98668334870327
7.448,0.9999989484235322,73.85762762945966
7.4559999999999995,0.9999987721124357,73.72853188906149
7.464,0.9999985969825881,73.59939614007621
7.4719999999999995,0.9999984230694983,73.47022039527512
7.48,0.9999982504080661,73.34100466763368
7.4879999999999995,0.9999980790325816,73.21174897033207
7.496,0.999997908976725,73.0824533167554
7.504,0.9999977402735682,72.95311772049435
7.5120000000000005,0.9999975729555728,72.82374219534528
7.52,0.9999974070545916,72.69432675531097
7.5280000000000005,0.9999972426018673,72.56487141460072
7.536,0.9999970796280343,72.43537618763098
7.5440000000000005,0.9999969181631162,72.3058410890256
7.552,0.9999967582365278,72.17626613361641
7.5600000000000005,0.9999965998770738,72.04665133644335
7.568,0.9999964431129488,71.9169967127552
7.5760000000000005,0.9999962879717377,71.78730227800972
7.584,0.9999961344804147,71.65756804787428
7.5920000000000005,0.9999959826653435,71.52779403822602
7.6,0.9999958325522765,71.39798026515253
7.6080000000000005,0.9999956841663555,71.26812674495197
7.616,0.9999955375321106,71.13823349413377
7.6240000000000006,0.9999953926734593,71.00830052941879
7.632,0.9999952496137076,70.87832786773997
7.640000000000001,0.9999951083755483,70.74831552624242
7.648,0.999994968981061,70.61826352228422
7.656000000000001,0.9999948314517116,70.4881718734365
7.664,0.9999946958083521,70.35804059748405
7.672,0.9999945620712194,70.22786971242567
7.68,0.9999944302599348,70.09765923647457
7.688,0.9999943003935041,69.96740918805882
7.696,0.9999941724903161,69.83711958582178
7.704,0.9999940465681424,69.70679044862246
7.712,0.9999939226441371,69.57642179553602
7.72,0.9999938007348349,69.44601364585412
7.728,0.9999936808561515,69.31556601908541
7.736,0.999993563023382,69.18507893495594
7.744,0.9999934472512005,69.05455241340952
7.752,0.9999933335536597,68.92398647460827
7.76,0.9999932219441886,68.79338113893296
7.768,0.9999931124355934,68.66273642698347
7.776,0.9999930050400547,68.53205235957925
7.784,0.9999928997691288,68.40132895775979
7.792,0.999992796633744,68.27056624278491
7.8,0.9999926956442021,68.13976423613543
7.808,0.9999925968101759,68.00892295951346
7.816,0.9999925001407091,67.87804243484285
7.824,0.9999924056442132,67.74712268426977
7.832,0.9999923133284696,67.61616373016302
7.84,0.9999922232006258,67.48516559511461
7.848,0.999992135267195,67.35412830194012
7.856,0.9999920495340558,67.22305187367928
7.864,0.9999919660064499,67.09193633359632
7.872,0.9999918846889815,66.96078170518052
7.88,0.9999918055856157,66.82958801214674
7.888,0.9999917286996779,66.69835527843576
7.896,0.9999916540338518,66.56708352821487
7.904,0.9999915815901786,66.43577278587834
7.912,0.9999915113700554,66.30442307604794
7.92,0.9999914433742343,66.17303442357337
7.928,0.9999913776028214,66.04160685353284
7.936,0.9999913140552744,65.91014039123355
7.944,0.9999912527304018,65.77863506221222
7.952,0.9999911936263628,65.64709089223552
7.96,0.999991136740664,65.5155079073008
7.968,0.9999910820701594,65.38388613363641
7.976,0.9999910296110496,65.25222559770235
7.984,0.9999909793588784,65.1205263261908
7.992,0.9999909313085337,64.98878834602661
8.0,0.9999908854542459,64.85701168436798
8.008,0.9999908417895851,64.72519636860689
8.016,0.9999908003074619,64.59334242636974
8.024000000000001,0.9999907610001254,64.46144988551791
8.032,0.9999907238591612,64.32951877414838
8.04,0.9999906888754921,64.19754912059423
8.048,0.9999906560393755,64.0655409534253
8.056000000000001,0.999990625340403,63.9334943014488
8.064,0.9999905967674991,63.80140919370994
8.072,0.9999905703089208,63.669285659492424
8.08,0.9999905459522566,63.53712372831922
8.088000000000001,0.9999905236844243,63.40492342995316
8.096,0.9999905034916727,63.272684794397584
8.104,0.9999904853595788,63.14040785189689
8.112,0.999990469273048,63.0080926329373
8.120000000000001,0.9999904552163138,62.875739168247556
8.128,0.9999904431729362,62.74334748879954
8.136,0.9999904331258036,62.61091762580894
8.144,0.9999904250571294,62.47844961073591
8.152000000000001,0.9999904189484548,62.34594347528595
8.16,0.9999904147806464,62.213399251410486
8.168,0.9999904125338984,62.08081697130752
8.176,0.9999904121877304,61.94819666742251
8.184000000000001,0.9999904137209901,61.81553837244908
8.192,0.9999904171118517,61.68284211932974
8.2,0.9999904223378178,61.55010794125659
8.208,0.9999904293757197,61.41733587167217
8.216000000000001,0.9999904382017184,61.28452594427029
8.224,0.999990448791306,61.15167819299674
8.232,0.9999904611193055,61.01879265205001
8.24,0.9999904751598746,60.88586935588226
8.248000000000001,0.999990490886505,60.752908339200076
8.256,0.9999905082720264,60.619909636965325
8.264,0.9999905272886068,60.486873284395934
8.272,0.9999905479077557,60.35379931696669
8.280000000000001,0.999990570100326,60.22068777041036
8.288,0.9999905938365187,60.08753868071827
8.296,0.9999906190858827,59.95435208414134
8.304,0.9999906458173211,59.82112801719085
8.312,0.9999906739990932,59.687866516639566
8.32,0.9999907035988188,59.55456761952239
8.328,0.9999907345834824,59.42123136313745
8.336,0.9999907669194378,59.287857785046896
8.344,0.9999908005724132,59.15444692307804
8.352,0.9999908355075152,59.020998815324006
8.36,0.9999908716892357,58.88751350014496
8.368,0.9999909090814573,58.7539910161689
8.376,0.9999909476474593,58.620431402292745
8.384,0.999990987349925,58.486834697683115
8.392,0.999991028150948,58.35320094177759
8.4,0.9999910700120405,58.21953017428543
8.408,0.9999911128941403,58.08582243518879
8.416,0.9999911567576203,57.952077764743535
8.424,0.9999912015622967,57.81829620348042
8.432,0.9999912472674375,57.6844777922059
8.44,0.9999912938317742,57.550622572003405
8.448,0.9999913412135105,57.41673058423408
8.456,0.9999913893703342,57.28280187053804
8.464,0.9999914382594269,57.1488364728352
8.472,0.999991487837478,57.01483443332646
8.48,0.9999915380606959,56.88079579449464
8.488,0.9999915888848208,56.74672059910552
8.496,0.9999916402651391,56.61260889020881
8.504,0.9999916921564973,56.47846071113939
8.512,0.9999917445133157,56.34427610551798
8.52,0.9999917972896071,56.21005511725245
8.528,0.999991850438988,56.07579779053866
8.536,0.999991903914699,55.9415041698616
8.544,0.9999919576696215,55.807174299996184
8.552,0.9999920116562939,55.67280822600848
8.56,0.9999920658269332,55.53840599325643
8.568,0.9999921201334521,55.40396764739107
8.576,0.9999921745274792,55.26949323435723
8.584,0.9999922289603822,55.134982800394724
8.592,0.9999922833832859,55.00043639203899
8.6,0.9999923377470975,54.8658540561223
8.608,0.9999923920025275,54.731235839774335
8.616,0.999992446100115,54.59658179042336
8.624,0.999992499990251,54.46189195579672
8.632,0.9999925536232042,54.327166383922034
8.64,0.9999926069491472,54.19240512312762
8.648,0.9999926599181822,54.057608222043584
8.656,0.9999927124803701,53.92277572960228
8.664,0.9999927645857574,53.78790769503925
8.672,0.9999928161844053,53.653004167893656
8.68,0.9999928672264207,53.518065198009126
8.688,0.9999929176619851,53.38309083553422
8.696,0.9999929674413871,53.24808113092306
8.704,0.9999930165150541,53.11303613493569
8.712,0.9999930648335837,52.97795589863886
8.72,0.9999931123477798,52.84284047340605
8.728,0.9999931590086845,52.7076899109182
8.736,0.9999932047676136,52.57250426316375
8.744,0.9999932495761924,52.43728358243917
8.752,0.9999932933863924,52.30202792134891
8.76,0.999993336150566,52.16673733280579
8.768,0.9999933778214866,52.031411870030944
8.776,0.999993418352385,51.89605158655393
8.784,0.9999934576969889,51.760656536212664
8.792,0.9999934958095612,51.62522677315335
8.8,0.9999935326449404,51.48976235183029
8.808,0.9999935681585804,51.354263327005654
8.815999999999999,0.9999936023065912,51.21872975374918
8.824,0.9999936350457805,51.08316168743773
8.832,0.9999936663336939,50.94755918375493
8.84,0.9999936961286574,50.8119222986906
8.847999999999999,0.9999937243898199,50.676251088539956
8.856,0.9999937510771943,50.54054560990312
8.864,0.9999937761517012,50.40480591968422
8.872,0.9999937995752102,50.26903207509056
8.879999999999999,0.9999938213105837,50.13322413363152
8.888,0.9999938413217193,49.99738215311758
8.896,0.9999938595735922,49.861506191659174
8.904,0.9999938760322981,49.72559630766549
8.911999999999999,0.9999938906650963,49.58965255984289
8.92,0.9999939034404506,49.45367500719364
8.928,0.9999939143280724,49.31766370901442
8.936,0.9999939232989623,49.18161872489462
8.943999999999999,0.9999939303254509,49.04554011471442
8.952,0.9999939353812404,48.90942793864321
8.96,0.9999939384414431,48.773282257137545
8.968,0.9999939394826236,48.637103130939096
8.975999999999999,0.9999939384828358,48.50089062107247
8.984,0.9999939354216613,48.364644788843
8.992,0.9999939302802467,48.22836569583445
9.0,0.9999939230413415,48.092053403906526
9.008,0.9999939136893302,47.9557079751923
9.016,0.9999939022102702,47.81932947209558
9.024000000000001,0.9999938885919216,47.68291795728825
9.032,0.9999938728237815,47.54647349370744
9.04,0.9999938548971127,47.409996144552416
9.048,0.9999938348049725,47.27348597328178
9.056000000000001,0.9999938125422434,47.1369430436103
9.064,0.9999937881056543,47.00036741950572
9.072,0.9999937614938085,46.86375916518542
9.08,0.9999937327072044,46.72711834511313
9.088000000000001,0.9999937017482563,46.5904450239955
9.096,0.9999936686213146,46.45373926677864
9.104,0.9999936333326804,46.31700113864445
9.112,0.9999935958906222,46.18023070500694
9.120000000000001,0.999993556305388,46.04342803150871
9.128,0.9999935145892155,45.90659318401709
9.136,0.999993470756341,45.769726228620215
9.144,0.9999934248230049,45.63282723162338
9.152000000000001,0.9999933768074558,45.49589625954494
9.16,0.9999933267299516,45.35893337911257
9.168,0.9999932746127587,45.22193865725907
9.176,0.9999932204801478,45.084912161118474
9.184000000000001,0.999993164358388,44.94785395802208
9.192,0.999993106275738,44.8107641154944
9.2,0.999993046262436,44.67364270124897
9.208,0.9999929843506832,44.53648978318446
9.216000000000001,0.9999929205746299,44.399305429380604
9.224,0.9999928549703552,44.26208970809422
9.232,0.9999927875758443,44.124842687755034
9.24,0.9999927184309663,43.98756443696183
9.248000000000001,0.999992647577445,43.85025502447853
9.256,0.9999925750588294,43.71291451923017
9.264,0.9999925009204628,43.57554299029906
9.272,0.9999924252094456,43.438140506921
9.280000000000001,0.9999923479746003,43.30070713848155
9.288,0.9999922692664293,43.16324295451227
9.296,0.9999921891370727,43.02574802468713
9.304,0.9999921076402644,42.8882224188189
9.312000000000001,0.9999920248312832,42.750666206855875
9.32,0.9999919407669047,42.61307945887839
9.328,0.999991855505347,42.4754622450955
9.336,0.9999917691062189,42.33781463584193
9.344,0.9999916816304616,42.20013670157503
9.352,0.9999915931402914,42.062428512871705
9.36,0.9999915036991393,41.924690140425874
9.368,0.9999914133715878,41.786921655045475
9.376,0.9999913222233086,41.64912312765016
9.384,0.999991230320995,41.5112946292687
9.392,0.9999911377322966,41.37343623103693
9.4,0.9999910445257493,41.23554800419539
9.408,0.9999909507707059,41.097630020087536
9.416,0.9999908565372649,40.959682350157784
9.424,0.999990761896198,40.821705065950006
9.432,0.9999906669188778,40.68369823910584
9.44,0.9999905716772024,40.54566194136346
9.448,0.9999904762435217,40.40759624455636
9.456,0.9999903806905615,40.2695012206124
9.464,0.999990285091348,40.13137694155283
9.472,0.999990189519132,39.99322347949175
9.48,0.9999900940473115,39.85504090663547
9.488,0.9999899987493578,39.71682929528234
9.496,0.9999899036987361,39.578588717822285
9.504,0.9999898089688319,39.440319246737175
9.512,0.9999897146328753,39.302020954600586
9.52,0.9999896207638644,39.163693914078465
9.528,0.999989527434492,39.02533819792937
9.536,0.999989434717072,38.88695387900526
9.544,0.9999893426834655,38.748541030252156
9.552,0.9999892514050104,38.61009972471134
9.56,0.9999891609524485,38.47163003552012
9.568,0.9999890713958581,38.333132035913465
9.576,0.9999889828045851,38.1946057992251
9.584,0.9999888952471754,38.056051398889224
9.592,0.999988808791311,37.917468908442075
9.6,0.9999887235037451,37.77885840152392
9.608,0.999988639450242,37.64021995188075
9.616,0.9999885566955149,37.501553633366576
9.624,0.9999884753031705,37.36285951994535
9.632,0.99998839533565,37.22413768569355
9.64,0.9999883168541774,37.08538820480225
9.648,0.9999882399187064,36.946611151579894
9.656,0.9999881645878714,36.80780660045462
9.664,0.999988090918939,36.66897462597718
9.672,0.9999880189677641,36.53011530282338
9.68,0.9999879487887464,36.39122870579724
9.688,0.9999878804347895,36.25231490983356
9.696,0.9999878139572639,36.11337399000112
9.704,0.9999877494059711,35.97440602150545
9.712,0.9999876868291095,35.83541107969212
9.72,0.9999876262732452,35.69638924004954
9.728,0.9999875677832823,35.55734057821241
9.736,0.9999875114024384,35.41826516996453
9.744,0.9999874571722204,35.27916309124225
9.752,0.9999874051324047,35.14003441813746
9.76,0.9999873553210176,35.00087922690093
9.768,0.9999873077743208,34.86169759394535
9.776,0.9999872625267967,34.7224895958487
9.784,0.9999872196111378,34.58325530935727
9.792,0.9999871790582383,34.443994811389
9.8,0.9999871408971874,34.30470817903642
9.808,0.9999871051552645,34.16539548957002
9.816,0.9999870718579386,34.02605682044113
9.824,0.999987041028867,33.88669224928513
9.832,0.9999870126899,33.74730185392436
9.84,0.9999869868610827,33.60788571237122
9.847999999999999,0.9999869635606629,33.46844390283097
9.856,0.9999869428051003,33.32897650370466
9.864,0.9999869246090749,33.189483593592
