freq,mag,phase
6.0,0.9999383691801863,-166.23250440990645
6.02247168,0.9999177555901753,-167.55893439661338
6.044943872,0.9998999500707928,-168.88504007349476
6.067415552,0.9998852282703747,-170.21076727655083
6.089887744,0.9998739373246535,-171.53619331229152
6.112359424,0.9998665335215208,-172.8613282406634
6.134831616,0.9998631767705957,-174.18623372428655
6.157303296,0.9998641117919453,-175.51091193370667
6.179775488,0.99986909528221,-176.8354043011251
6.202247168,0.9998781941017834,-178.15979204658535
6.224718848,0.9998909924289406,-179.48405046284907
6.24719104,0.9999071460177228,179.1917391166073
6.26966272,0.9999262844097782,177.86759071205637
6.292134912,0.9999478067796842,176.5434529930584
6.314606592,0.9999709957179309,175.219342176194
6.337078784,0.9999951758890094,173.8952136729246
6.359550464,1.0000198005995393,172.57108249943423
6.382022656,1.0000438762311659,171.24696770674845
6.404494336,1.000066958030687,169.922858058775
6.426966528,1.0000881750882031,168.59874956870127
6.449438208,1.0001069942125438,167.27472397456347
6.471909888,1.0001227784979156,165.95075824031744
6.49438208,1.0001351028625618,164.62689563455262
6.51685376,1.0001437106696722,163.3032293187756
6.539325952,1.000148256142214,161.97976560016895
6.561797632,1.000148361186493,160.65650524710026
6.584269824,1.0001444236198846,159.3335449179158
6.606741504,1.0001362671605845,158.01093620259002
6.629213696,1.0001241858323893,156.68868583529917
6.651685376,1.0001086296143542,155.3668672774823
6.674157056,1.000090015964334,154.04546483839147
6.696629248,1.0000688143804397,152.72457895410113
6.719100928,1.0000457711837474,151.40418618249743
6.74157312,1.0000213457472689,150.08432601881415
6.7640448,0.9999965334800037,148.76499022052172
6.786516992,0.9999719613524203,147.44619161004928
6.808988672,0.9999482341973351,146.12792935103255
6.831460864,0.9999261926264574,144.8102004986411
6.853932544,0.9999064260169147,143.49300005093696
6.876404736,0.9998896000372874,142.17625163165744
6.898876416,0.9998761790683512,140.85997357428516
6.921348096,0.9998665568172398,139.54410882160835
6.943820288,0.9998608941173659,138.2286324617979
6.966291968,0.9998596220258911,136.91350562337414
6.98876416,0.9998625897374478,135.5986997462749
7.01123584,0.9998697781451539,134.28412818972896
7.033708032,0.9998810672497912,132.96980132050942
7.056179712,0.9998959225551879,131.65565343316766
7.078651904,0.99991400720959,130.3416928991924
7.101123584,0.9999348787849176,129.02780818394817
7.123595264,0.9999579098700387,127.71406239965557
7.146067456,0.9999823344993592,126.40041172889715
7.168539136,1.0000074227114262,125.08681529419434
7.191011328,1.000032505599916,123.77331221990185
7.213483008,1.0000567843437973,122.45987328630363
7.2359552,1.0000796240088805,121.14653481615271
7.25842688,1.0001002229353577,119.83329801528653
7.280899072,1.0001181006866673,118.52020864266926
7.303370752,1.000132586387539,117.20726806899565
7.325842944,1.000143387038742,115.89455214627343
7.348314624,1.000150060544669,114.58206043359438
7.370786304,1.0001524515000975,113.26985776525973
7.393258496,1.0001505198854104,111.9579705447358
7.415730176,1.0001442269152987,110.6464562399864
7.438202368,1.0001338449792383,109.33535117094115
7.460674048,1.0001195433653833,108.02470331703515
7.48314624,1.0001019518810543,106.7145175802793
7.50561792,1.0000813533940363,105.40486924428325
7.528090112,1.0000585353286708,104.09574875120039
7.550561792,1.0000340037967932,102.78719475128004
7.573033472,1.0000086565992565,101.47919914406887
7.595505664,0.9999831073976543,100.17181188433212
7.617977344,0.9999581271617374,98.86496508948923
7.640449536,0.9999345295413563,97.5586859483101
7.662921216,0.9999129332005241,96.25297482628608
7.685393408,0.9998940864699714,94.94778262801098
7.707865088,0.9998784900117096,93.64306428007056
7.73033728,0.9998665497998724,92.3388285366764
7.75280896,0.9998587277705413,91.03499771336232
7.775281152,0.9998552286291925,89.73153793332938
7.797752832,0.999856110929507,88.42842458163214
7.820224512,0.9998613226914435,87.12558189963305
7.842696704,0.9998709705916935,85.82298607249615
7.865168384,0.999884508751529,84.52058840652813
7.887640576,0.9999016149491085,83.21834751528084
7.910112256,0.9999218787237736,81.91622821891994
7.932584448,0.9999446504717063,80.61422767896154
7.955056128,0.999969156864051,79.31228205901921
7.97752832,0.9999948187271828,78.01039292701442
8.0,1.0000207462671364,76.70855497704747
8.02247168,1.0000462990210484,75.40675549133343
8.044943872,1.0000706826330488,74.10502191667949
8.067415552,1.0000931708544893,72.80332997559766
8.089887744,1.000112979670604,71.50172910337884
8.112359424,1.0001297841348906,70.20024616484679
8.134831616,1.0001427435262245,68.89890691416903
8.157303296,1.000151716319651,67.59775257912206
8.179775488,1.0001563415759998,66.29678166670784
8.202247168,1.0001564044262603,64.99609233269382
8.224718848,1.000152021321827,63.69569258581502
8.24719104,1.000143249345921,62.3956540510384
8.26966272,1.0001302966021477,61.0959782146085
8.292134912,1.0001137039770662,59.79671621596483
8.314606592,1.0000938053077935,58.49792775582879
8.337078784,1.0000711058100318,57.19960141237325
8.359550464,1.0000464769441015,55.90176782505619
8.382022656,1.000020529476465,54.604440278193564
8.404494336,0.9999940842509334,53.307648991944205
8.426966528,0.9999677736613586,52.01137005987295
8.449438208,0.9999426150402372,50.71559496131697
8.471909888,0.9999191884745268,49.42030771572078
8.49438208,0.9998982119955441,48.12548788072154
8.51685376,0.9998804288501477,46.83111434723424
8.539325952,0.9998662704427316,45.53713209889757
8.561797632,0.9998561258777906,44.243506157167374
8.584269824,0.9998503640852512,42.95019485864095
8.606741504,0.9998492358559322,41.6571785223418
8.629213184,0.9998526218688952,40.364339044987815
8.651685888,0.9998606288792828,39.07168119202806
8.674157568,0.9998727830809196,37.779146922720514
8.696629248,0.999889026623102,36.48670255824781
8.719100928,0.999908636274619,35.19425771304824
8.741572608,0.9999312078990688,33.901858053845615
8.764045312,0.9999558974939732,32.60940890644365
8.786516992,0.9999821306983824,31.31691782228236
8.808988672,1.0000090973212497,30.024363928779906
8.831460352,1.0000359912410468,28.731737658507395
8.853933056,1.0000620207663191,27.4390302472223
8.876404736,1.000086356253861,26.146282950819607
8.898876416,1.0001082906702088,24.8534652422175
8.921348096,1.0001272481384835,23.56063030988148
8.943819776,1.0001425115272444,22.267811398426797
8.96629248,1.0001537332742796,20.975025738080006
8.98876416,1.0001605676412015,19.682305506833146
9.01123584,1.0001626951073217,18.38974038183232
9.03370752,1.0001601499373869,17.097293521423904
9.056180224,1.0001531049258001,15.80507492505833
9.078651904,1.0001414655010052,14.513084814370503
9.101123584,1.000125665812919,13.221398970189364
9.123595264,1.0001062716108267,11.930022725295318
9.146066944,1.0000838742633442,10.638983903714823
9.168539648,1.0000588587107977,9.348329960688142
9.191011328,1.0000322866032447,8.058060186367651
9.213483008,1.0000048608981547,6.768193008185385
9.235954688,0.999977216722724,5.4787060555418465
9.258427392,0.9999503522209934,4.189620361777668
9.280899072,0.99992499067508,2.9009140851072663
9.303370752,0.9999019236303338,1.6125510374337724
9.325842432,0.9998818685933719,0.3245246965649526
9.348314112,0.9998653181228397,-0.9632168237504232
9.370786816,0.9998528901152577,-2.250711805426851
9.393258496,0.9998450354065123,-3.5380119847362677
9.415730176,0.9998417373685862,-4.825162221996633
9.438201856,0.9998432867941457,-6.112206652218825
9.46067456,0.9998497284182499,-7.399208391346529
9.48314624,0.9998607684690415,-8.686224308734287
9.50561792,0.9998759992093087,-9.973285563449206
9.5280896,0.999895094961778,-11.260434713773133
9.550562304,0.9999175330289821,-12.547726661431227
9.573033984,0.9999425315417098,-13.835195839926126
9.595505664,0.9999694903116696,-15.122855707297267
9.617977344,0.9999975507379192,-16.410717484278212
9.640449024,1.0000258438625085,-17.698848743369123
9.662921728,1.0000535662606687,-18.987168784420415
9.685393408,1.000079928336474,-20.27573269038396
9.707865088,1.0001039778255514,-21.56450891582543
9.730336768,1.000125189268919,-22.853484248053924
9.752809472,1.0001428926433722,-24.142625461346118
9.775281152,1.000156481827706,-25.43188626349137
9.797752832,1.0001654921839558,-26.721226224865696
9.820224512,1.0001697933264058,-28.01063650276039
9.842696192,1.0001691637631747,-29.30005280153834
9.865168896,1.000163540337424,-30.58943071620474
9.887640576,1.0001531803534842,-31.87869732493629
9.910112256,1.0001383047131418,-33.16786585097002
9.932583936,1.0001194426493092,-34.4568625447538
9.95505664,1.0000970600202619,-35.74567796959728
9.97752832,1.0000718014675727,-37.034250474738855
10.0,1.0000444060342233,-38.32258150148488
10.02247168,1.0000158150675107,-39.610668644150074
10.04494336,0.9999867270117554,-40.89848524658892
10.067416064,0.999958107201283,-42.18602670969677
10.089887744,0.9999307221399075,-43.47332198728235
10.112359424,0.9999054670354399,-44.7603862281126
10.134831104,0.9998830639396777,-46.04727079831512
10.157303808,0.9998641094033571,-47.33396506701936
10.179775488,0.9998494745391487,-48.62055991255841
10.202247168,0.999839203142591,-49.907053104118766
10.224718848,0.9998338073256821,-51.19352793251028
10.247190528,0.999833480660791,-52.48003028665012
10.269663232,0.9998382845160186,-53.76660281015098
10.292134912,0.9998479819748963,-55.05331675587051
10.314606592,0.9998624410495733,-56.340225462795985
10.337078272,0.9998810442425231,-57.6273436538423
10.359550976,0.9999034569131354,-58.91475553825343
10.382022656,0.9999288447345638,-60.202484272985515
10.404494336,0.9999565245027494,-61.49054274169923
10.426966016,0.999985784215675,-62.77897203064015
10.449437696,1.0000156427449418,-64.06778195755254
10.4719104,1.0000451680328721,-65.35697035337942
10.49438208,1.0000735867853705,-66.64655570964504
10.51685376,1.0001000591589142,-67.93650344529557
10.53932544,1.0001237146374962,-69.22680055102651
10.561798144,1.0001438713059656,-70.51741548760756
10.584269824,1.00015983624803,-71.80833496607262
10.606741504,1.0001712523333852,-73.09949225882221
10.629213184,1.0001777112527912,-74.39085952383188
10.651685888,1.0001790088693765,-75.68239278282682
10.674157568,1.0001750857265754,-76.97402103703799
10.696629248,1.000166076447819,-78.26571664390072
10.719100928,1.0001521218653058,-79.55742704710957
10.741572608,1.0001338327027591,-80.84910665622314
10.764045312,1.0001114944874985,-82.14072401106763
10.786516992,1.000085870339975,-83.4322374179147
10.808988672,1.000057788266007,-84.72361242190135
10.831460352,1.0000279991079475,-86.01485396998653
10.853933056,0.9999973068557834,-87.30594705842437
10.876404736,0.999966765522157,-88.59687039506073
10.898876416,0.999937251573182,-89.88764374982911
10.921348096,0.999909592018974,-91.17827905905735
10.943819776,0.999884634196123,-92.46880833504613
10.96629248,0.9998631922959115,-93.75925063491388
10.98876416,0.9998458769363221,-95.0496704909948
11.01123584,0.9998331713545572,-96.340108055318
11.03370752,0.999825564740873,-97.63057891968617
11.056180224,0.9998231877880477,-98.9211779992431
11.078651904,0.9998262123042767,-100.21194627618934
11.101123584,0.9998345299865444,-101.50292994008508
11.123595264,0.9998478793232998,-102.79419591290453
11.146066944,0.9998659352253455,-104.08577392941001
11.168539648,0.9998882050483887,-105.37775402779937
11.191011328,0.9999138968708511,-106.67010894397652
11.213483008,0.9999423932745666,-107.96295429734958
11.235954688,0.999972929973076,-109.2562313912724
11.258427392,1.0000043318993854,-110.55001327358241
11.280899072,1.0000358960910227,-111.84429350409148
11.303370752,1.0000665762417666,-113.13906978188948
11.325842432,1.0000954426857236,-114.43432080588813
11.348314112,1.0001217486401566,-115.73004196191239
11.370786816,1.0001445650555694,-117.0262072071514
11.393258496,1.0001633387849849,-118.3227551060379
11.415730176,1.0001773617549017,-119.61967145913367
11.438201856,1.0001862805062347,-120.91690351529131
11.46067456,1.000189815031721,-122.2143967847508
11.48314624,1.0001877857084605,-123.51208446243314
11.50561792,1.0001802668335285,-124.80993092932003
11.5280896,1.0001674652232115,-126.10788618295004
11.550562304,1.0001497384782325,-127.40588235854031
11.573033984,1.0001276909211037,-128.7038961219591
11.595505664,1.0001017317918668,-130.00187818625992
11.617977344,1.0000728964634091,-131.2997694289534
11.640449024,1.000041864041024,-132.59760265534666
11.662921728,1.0000095498407024,-133.89530169467278
11.685393408,0.9999769479045594,-135.1928947092687
11.707865088,0.9999449774657544,-136.49036116303373
11.730336768,0.9999147870596324,-137.78774952509062
11.752809472,0.9998870033345197,-139.08503604567255
11.775281152,0.9998625415717604,-140.38226614390095
11.797752832,0.999842366359632,-141.67949131658662
11.820224512,0.9998268419913658,-142.97673991731313
11.842696192,0.9998165421536087,-144.27406445630248
11.865168896,0.9998117736906444,-145.57152354658882
11.887640576,0.9998126700245585,-146.86915795657123
11.910112256,0.9998192673248293,-148.16703988420934
11.932583936,0.999831447277144,-149.46521784906201
11.95505664,0.9998487904544223,-150.76374199182925
11.97752832,0.9998707226669986,-152.06267228320692
12.0,0.9998967724033173,-153.36204435925535
12.02247168,0.9999261148348924,-154.66189383569466
12.04494336,0.9999577806549372,-155.96225641909632
12.067416064,0.9999910348755223,-157.26314276391463
12.089887744,1.0000247155277386,-158.56456910868818
12.112359424,1.0000579946642774,-159.86654108176856
12.134831104,1.0000897289521635,-161.16903918575656
12.157303808,1.0001190266998283,-162.472021105003
12.179775488,1.00014504789253,-163.77550968079913
12.202247168,1.0001670038919044,-165.07943278864238
12.224718848,1.0001840266369502,-166.3837528966916
12.247190528,1.0001959051408627,-167.68843415800046
12.269663232,1.0002021341667258,-168.99339482566302
12.292134912,1.0002023486473617,-170.29859523771609
12.314606592,1.0001968022242873,-171.60397470275595
12.337078272,1.0001853442806126,-172.90948208186308
12.359550976,1.000168558251665,-174.21502113335683
12.382022656,1.0001466931703467,-175.52059058460955
12.404494336,1.0001206293195755,-176.82610223276117
12.426966016,1.0000908954445118,-178.13154221505494
12.449437696,1.0000584331692934,-179.43687869024484
12.4719104,1.0000242068493588,179.2579356368595
12.49438208,0.999989275279703,177.9529030429085
12.51685376,0.9999545985255132,176.6480295392615
12.53932544,0.9999211278868929,175.3433021170292
12.561798144,0.9998901487546792,174.03872175207064
12.584269824,0.9998623828547397,172.73423980176165
12.606741504,0.999838569411635,171.42984908715394
12.629213184,0.9998195981090319,170.1254944944911
12.651685888,0.9998060807758294,168.82112144029435
12.674157568,0.9997983102028115,167.51668577779202
12.696629248,0.9997967216101296,166.2121259431199
12.719100928,0.9998011860206498,164.9073905554994
12.741572608,0.999811673915107,163.60242306436263
12.764045312,0.9998279734414814,162.29714726847072
12.786516992,0.9998496001813147,160.99152955687424
12.808988672,0.9998757948137857,159.68550500579823
12.831460352,0.9999059413883927,158.37906290156778
12.853933056,0.9999391830574826,157.07213530259565
12.876404736,0.9999744365705814,155.7647244279211
12.898876416,1.0000107133698364,154.45681348865747
12.921348096,1.0000468965631926,153.14837369842581
12.943819776,1.0000820048876358,151.8394603288169
12.96629248,1.0001149282984565,150.53002837544108
12.98876416,1.0001446805036818,149.2201670126449
13.01123584,1.0001704237795068,147.90986725778032
13.03370752,1.0001913120184274,146.59922761531809
13.056180224,1.0002066692241174,145.2882353376751
13.078651904,1.0002161312049394,143.97698923906972
13.101123584,1.0002191751084812,142.6655624835153
13.123595264,1.0002159121787815,141.353992883508
13.146066944,1.000206264611895,140.04236993596754
13.168539648,1.0001904309492806,138.7307400572056
13.191011328,1.000169144857963,137.41917414816106
13.213483008,1.000142844659112,136.1077049713623
13.235954688,1.000112042119651,134.79642509711047
13.258427392,1.000077989150218,133.48534173289787
13.280899072,1.0000415063402877,132.17452139908212
13.303370752,1.000003642648377,130.863945397257
13.325842432,0.9999656714150854,129.55364458609324
13.348314112,0.9999285228396402,128.243622471335
13.370786816,0.9998934540176379,126.93386578116207
13.393258496,0.9998614015427988,125.62436255193585
13.415730176,0.9998333909555586,124.31505553721074
13.438201856,0.9998103141696829,123.00594049694348
13.46067456,0.9997928342822547,121.69694871624415
13.48314624,0.9997815264240415,120.38802089242023
13.50561792,0.9997765964797196,119.07910719007639
13.5280896,0.9997786401682591,117.77013180770922
13.550562304,0.9997872135155679,116.46107032194803
13.573033984,0.9998022436460522,115.15181345813319
13.595505664,0.9998233175646549,113.84232647223644
13.617977344,0.9998499097201234,112.53254701720404
13.640449024,0.9998812439856589,111.22246025918152
13.662921728,0.9999162495985772,109.9119652629641
13.685393408,0.9999540308079893,108.6010747923625
13.707865088,0.9999936114718176,107.28976266239162
13.730336768,1.000033565375854,105.97801175261034
13.752809472,1.0000729883965473,104.66584041999346
13.775281152,1.000110344743221,103.35325402398854
13.797752832,1.0001448983047647,102.04027637395673
13.820224512,1.0001754080667504,100.72694203442013
13.842696192,1.0002008880497997,99.41331457165765
13.865168896,1.0002207439335946,98.09942500404031
13.887640576,1.0002341679950382,96.78536045604312
13.910112256,1.0002407842074827,95.47118145580177
13.932583936,1.0002404154980717,94.15694052140633
13.95505664,1.0002329209233694,92.84275691950768
13.97752832,1.0002186325861617,91.52863806299078
14.0,1.0001978770255402,90.2147112499508
