freq,mag,phase
6.0,0.999998057658117,52.051792003184204
6.008,0.9999957151548621,51.814333551723045
6.016,0.9999934236863239,51.57665789019531
6.024,0.9999911826075526,51.33876540160681
6.032,0.999988991278141,51.10065647439004
6.04,0.9999868490622214,50.86233150241741
6.048,0.9999847553284636,50.623790885014266
6.056,0.9999827094500713,50.3850350269718
6.064,0.9999807108047782,50.14606433855946
6.072,0.9999787587748465,49.906879235537396
6.08,0.9999768527470598,49.66748013916847
6.088,0.9999749921127231,49.42786747623009
6.096,0.9999731762676559,49.18804167902577
6.104,0.9999714046121901,48.94800318539648
6.112,0.9999696765511644,48.70775243873157
6.12,0.9999679914939208,48.46728988797977
6.128,0.9999663488542997,48.22661598765954
6.136,0.9999647480506344,47.9857311978694
6.144,0.9999631885057473,47.74463598429796
6.152,0.9999616696469448,47.50333081823352
6.16,0.9999601909060104,47.26181617657363
6.168,0.9999587517192021,47.02009254183419
6.176,0.9999573515272439,46.778160402158406
6.184,0.9999559897753214,46.53602025132527
6.192,0.9999546659130779,46.29367258875797
6.2,0.9999533793946026,46.051117919531926
6.208,0.9999521296784318,45.808356754382395
6.216,0.9999509162275358,45.5653896097121
6.224,0.9999497385093172,45.32221700759818
6.232,0.9999485959956007,45.07883947579924
6.24,0.9999474881626281,44.83525754776165
6.248,0.9999464144910508,44.59147176262598
6.256,0.9999453744659225,44.347482665232846
6.264,0.9999443675766904,44.103290806128534
6.272,0.9999433933171902,43.85889674157028
6.28,0.9999424511856358,43.614301033531326
6.288,0.9999415406846136,43.36950424970552
6.296,0.999940661321071,43.12450696351173
6.304,0.9999398126063117,42.879309754097804
6.312,0.9999389940559851,42.633913206344324
6.32,0.9999382051900778,42.38831791086804
6.328,0.9999374455329051,42.14252446402471
6.336,0.9999367146131019,41.896533467912015
6.344,0.9999360119636134,41.650345530371915
6.352,0.9999353371216854,41.403961264992574
6.36,0.9999346896288545,41.15738129111016
6.368,0.9999340690309398,40.91060623381018
6.376,0.9999334748780306,40.66363672392845
6.384,0.9999329067244789,40.416473398051835
6.392,0.9999323641288858,40.16911689851852
6.4,0.9999318466540947,39.921567873418
6.408,0.9999313538671777,39.673826976590675
6.416,0.9999308853394253,39.42589486762711
6.424,0.9999304406463375,39.17777221186697
6.432,0.9999300193676093,38.929459680397535
6.44,0.9999296210871214,38.68095795005185
6.448,0.9999292453929277,38.43226770340659
6.456,0.9999288918772444,38.18338962877953
6.464,0.9999285601364366,37.93432442022652
6.472,0.9999282497710086,37.68507277753835
6.48,0.999927960385588,37.43563540623693
6.4879999999999995,0.999927691588916,37.18601301757146
6.496,0.9999274429938342,36.93620632851369
6.504,0.9999272142172709,36.68621606175359
6.5120000000000005,0.9999270048802282,36.436042945693764
6.52,0.9999268146077694,36.18568771444423
6.5280000000000005,0.9999266430290058,35.935151107816154
6.536,0.9999264897770807,35.684433871315974
6.5440000000000005,0.9999263544891592,35.43353675613819
6.552,0.9999262368064117,35.18246051915885
6.5600000000000005,0.999926136374,34.93120592292752
6.568,0.9999260528410643,34.67977373565984
6.5760000000000005,0.9999259858607067,34.42816473122898
6.584,0.9999259350899788,34.17637968915733
6.592,0.9999259001898648,33.924419394607
6.6,0.9999258808252676,33.67228463837077
6.608,0.9999258766649928,33.419976216862096
6.616,0.9999258873817346,33.16749493210487
6.624,0.9999259126520585,32.91484159172281
6.632,0.9999259521563867,32.66201700892846
6.64,0.9999260055789821,32.40902200251163
6.648,0.9999260726079318,32.15585739682772
6.656,0.9999261529351307,31.902524021785318
6.664,0.9999262462562654,31.6490227128337
6.672,0.9999263522707982,31.395354310949624
6.68,0.9999264706819484,31.141519662623963
6.688,0.9999266011966775,30.887519619847836
6.696,0.9999267435256703,30.633355040098227
6.704,0.9999268973833197,30.379026786323422
6.712,0.9999270624877062,30.124535726927835
6.72,0.9999272385605829,29.86988273575649
6.728,0.9999274253273566,29.615068692079117
6.736,0.9999276225170697,29.360094480573846
6.744,0.9999278298623833,29.104960991310396
6.752,0.9999280470995568,28.849669119732944
6.76,0.9999282739684311,28.594219766642563
6.768,0.9999285102124096,28.338613838179196
6.776,0.999928755578439,28.08285224580331
6.784,0.9999290098169905,27.826935906277
6.792,0.9999292726820415,27.570865741644806
6.8,0.9999295439310552,27.314642679214067
6.808,0.9999298233249616,27.058267651534834
6.816,0.9999301106281386,26.801741596379394
6.824,0.9999304056083915,26.545065456721407
6.832,0.9999307080369334,26.288240180714546
6.84,0.9999310176883646,26.031266721670832
6.848,0.9999313343406544,25.774146038038428
6.856,0.9999316577751184,25.51687909337915
6.864,0.999931987776399,25.259466856345476
6.872,0.999932324132446,25.00191030065715
6.88,0.9999326666344939,24.744210405077393
6.888,0.9999330150770422,24.486368153388714
6.896,0.9999333692578348,24.228384534368274
6.904,0.999933728977837,23.970260541762872
6.912,0.9999340940412168,23.711997174263452
6.92,0.9999344642553217,23.45359543547932
6.928,0.9999348394306573,23.19505633391184
6.936,0.999935219380867,22.936380882927722
6.944,0.9999356039227081,22.677570100732062
6.952,0.9999359928760323,22.418625010340705
6.96,0.9999363860637612,22.15954663955245
6.968,0.9999367833118668,21.900336020920737
6.976,0.9999371844493466,21.64099419172488
6.984,0.9999375893082034,21.381522193941038
6.992,0.9999379977234217,21.12192107421268
7.0,0.9999384095329452,20.862191883820625
7.008,0.9999388245776539,20.602335678652828
7.016,0.9999392427013425,20.34235351917356
7.024,0.9999396637506959,20.08224647039242
7.032,0.999940087575267,19.822015601832735
7.04,0.9999405140274537,19.561661987499733
7.048,0.9999409429624748,19.301186705848224
7.056,0.9999413742383488,19.040590839749957
7.064,0.9999418077158668,18.779875476460536
7.072,0.9999422432585738,18.51904170758595
7.08,0.9999426807327403,18.25809062904877
7.088,0.9999431200073422,17.997023341053975
7.096,0.9999435609540351,17.735840948054225
7.104,0.9999440034471311,17.474544558715053
7.112,0.9999444473635758,17.213135285879332
7.12,0.999944892582922,16.951614246531722
7.128,0.9999453389873078,16.689982561762445
7.136,0.9999457864614313,16.42824135673088
7.144,0.9999462348925273,16.166391760628695
7.152,0.9999466841703427,15.904434906642656
7.16,0.99994713418711,15.642371931917092
7.168,0.9999475848375272,15.380203977515876
7.176,0.9999480360187301,15.117932188384277
7.184,0.9999484876302688,14.855557713310217
7.192,0.9999489395740818,14.593081704885323
7.2,0.999949391754475,14.33050531946557
7.208,0.9999498440780926,14.0678297171316
7.216,0.9999502964538951,13.805056061648736
7.224,0.9999507487931345,13.542185520426504
7.232,0.9999512010093279,13.279219264478055
7.24,0.9999516530182343,13.016158468379004
7.248,0.9999521047378289,12.753004310226133
7.256,0.9999525560882785,12.489757971595633
7.264,0.999953006991917,12.226420637501095
7.272,0.9999534573732188,11.962993496351176
7.28,0.9999539071587757,11.699477739906895
7.288,0.9999543562772719,11.435874563238654
7.296,0.9999548046594569,11.172185164682936
7.304,0.9999552522381225,10.908410745798696
7.312,0.9999556989480785,10.644552511323452
7.32,0.9999561447261236,10.380611669129062
7.328,0.9999565895110258,10.116589430177187
7.336,0.9999570332434936,9.852487008474553
7.344,0.9999574758661511,9.58830562102775
7.352,0.9999579173235157,9.324046487797926
7.36,0.99995835756197,9.059710831655062
7.368,0.9999587965297382,8.795299878332063
7.376,0.9999592341768615,8.530814856378505
7.384,0.9999596704551721,8.26625699711416
7.392,0.9999601053182688,8.001627534582193
7.4,0.9999605387214918,7.736927705502158
7.4079999999999995,0.9999609706218981,7.4721587492227854
7.416,0.9999614009782364,7.207321907674185
7.4239999999999995,0.9999618297509226,6.9424184253204935
7.432,0.9999622569020137,6.677449549111297
7.4399999999999995,0.9999626823951846,6.412416528433874
7.448,0.9999631061957021,6.147320615064186
7.4559999999999995,0.9999635282704019,5.882163063118601
7.464,0.9999639485876615,5.616945129004413
7.4719999999999995,0.9999643671173771,5.351668071371154
7.48,0.9999647838309397,5.086333151060643
7.4879999999999995,0.9999651987012083,4.820941631057832
7.496,0.9999656117024879,4.555494776440463
7.504,0.9999660228105033,4.289993854329526
7.5120000000000005,0.9999664320023758,4.024440133838443
7.52,0.9999668392565985,3.7588348860231426
7.5280000000000005,0.9999672445530123,3.493179383830897
7.536,0.9999676478727817,3.2274749020499454
7.5440000000000005,0.9999680491983701,2.9617227172580187
7.552,0.9999684485135174,2.6959241077716025
7.5600000000000005,0.9999688458032142,2.430080353594058
7.568,0.99996924105368,2.1641927363645737
7.5760000000000005,0.999969634252337,1.8982625393059613
7.584,0.9999700253877887,1.6322910471732721
7.5920000000000005,0.9999704144497956,1.3662795462012771
7.6,0.9999708014292512,1.100229324052801
7.6080000000000005,0.9999711863181593,0.8341416697658963
7.616,0.9999715691096107,0.5680178737018738
7.6240000000000006,0.9999719497977596,0.30185922749223704
7.632,0.9999723283778008,0.035667023986425926
7.640000000000001,0.9999727048459467,-0.23055744280148147
7.648,0.999973079199405,-0.4968128777452691
7.656000000000001,0.9999734514363555,-0.7630979846601351
7.664,0.9999738215559271,-1.0294114663554144
7.672,0.9999741895581761,-1.2957520246882663
7.68,0.999974555444063,-1.5621183606167763
7.688,0.9999749192154314,-1.8285091742535737
7.696,0.9999752808749853,-2.0949231649193503
7.704,0.9999756404262664,-2.3613590311965345
7.712,0.9999759978736333,-2.627815470982972
7.72,0.99997635322224,-2.894291181545771
7.728,0.9999767064780125,-3.1607848595751316
7.736,0.9999770576476296,-3.427295201238279
7.744,0.9999774067385,-3.6938209022334387
7.752,0.9999777537587428,-3.960360657843862
7.76,0.9999780987171639,-4.226913162991911
7.768,0.9999784416232376,-4.493477112293158
7.776,0.9999787824870853,-4.760051200110541
7.784,0.9999791213194538,-5.026634120608528
7.792,0.999979458131696,-5.29322456780733
7.8,0.9999797929357509,-5.559821235637115
7.808,0.9999801257441225,-5.82642281799223
7.816,0.9999804565698607,-6.093028008785438
7.824,0.9999807854265406,-6.359635502002171
7.832,0.9999811123282442,-6.626243991754752
7.84,0.9999814372895401,-6.892852172336629
7.848,0.9999817603254648,-7.15945873827658
7.856,0.9999820814515029,-7.426062384392911
7.864,0.9999824006835683,-7.692661805847621
7.872,0.9999827180379864,-7.959255698200553
7.88,0.9999830335314748,-8.225842757463479
7.888,0.9999833471811251,-8.492421680154154
7.896,0.9999836590043839,-8.758991163350363
7.904,0.9999839690190367,-9.02554990474384
7.912,0.9999842772431882,-9.29209660269423
7.92,0.9999845836952456,-9.558629956282857
7.928,0.9999848883939009,-9.825148665366575
7.936,0.9999851913581134,-10.09165143063143
7.944,0.9999854926070938,-10.358136953646277
7.952,0.9999857921602853,-10.624603936916353
7.96,0.9999860900373495,-10.891051083936699
7.968,0.9999863862581468,-11.157477099245531
7.976,0.9999866808427235,-11.423880688477503
7.984,0.9999869738112926,-11.69026055841686
7.992,0.9999872651842208,-11.95661541705046
8.0,0.99998755498201,-12.222943973620739
8.008,0.9999878432252839,-12.48924493867847
8.016,0.9999881299347719,-12.755517024135601
8.024000000000001,0.9999884151312943,-13.021758943317547
8.032,0.999988698835747,-13.287969411015743
8.04,0.9999889810690873,-13.554147143540073
8.048,0.9999892618523192,-13.820290858770846
8.056000000000001,0.9999895412064794,-14.086399276210706
8.064,0.999989819152623,-14.35247111703653
8.072,0.9999900957118094,-14.618505104151266
8.08,0.9999903709050899,-14.884499962235271
8.088000000000001,0.999990644753493,-15.150454417797581
8.096,0.9999909172780116,-15.416367199227125
8.104,0.9999911884995905,-15.682237036843883
8.112,0.9999914584391129,-15.948062662949521
8.120000000000001,0.9999917271173887,-16.213842811877907
8.128,0.9999919945551415,-16.47957622004563
8.136,0.9999922607729969,-16.745261626002335
8.144,0.99999252579147,-17.010897770480597
8.152000000000001,0.999992789630955,-17.27648339644567
8.16,0.9999930523117123,-17.542017249145104
8.168,0.9999933138538584,-17.807498076158314
8.176,0.9999935742773537,-18.072924627445595
8.184000000000001,0.9999938336019933,-18.338295655396916
8.192,0.9999940918473951,-18.60360991488074
8.2,0.99999434903299,-18.86886616329263
8.208,0.9999946051780118,-19.134063160603347
8.216000000000001,0.9999948603014868,-19.399199669406663
8.224,0.9999951144222251,-19.66427445496732
8.232,0.9999953675588096,-19.929286285268518
8.24,0.999995619729589,-20.19423393105912
8.248000000000001,0.9999958709526662,-20.45911616590041
8.256,0.9999961212458914,-20.723931766213024
8.264,0.9999963706268526,-20.988679511323394
8.272,0.9999966191128679,-21.253358183509878
8.280000000000001,0.9999968667209759,-21.5179665680485
8.288,0.9999971134679303,-21.782503453258666
8.296,0.9999973593701899,-22.046967630548618
8.304,0.9999976044439115,-22.311357894460397
8.312,0.9999978487049438,-22.57567304271432
8.32,0.9999980921688192,-22.839911876253986
8.328,0.9999983348507477,-23.1040731992898
8.336,0.9999985767656094,-23.368155819343418
8.344,0.9999988179279492,-23.632158547290793
8.352,0.9999990583519697,-23.896080197405883
8.36,0.9999992980515253,-24.15991958740308
8.368,0.9999995370401178,-24.423675538480364
8.376,0.9999997753308888,-24.687346875361037
8.384,1.0,-24.950932426336273
8.392,1.0,-25.21443102330622
8.4,1.0,-25.477841501821782
8.408,1.0,-25.741162701125194
8.416,0.9999999999999999,-26.004393464191114
8.424,0.9999999999999999,-26.26753263776647
8.432,1.0,-26.530579072410912
8.44,1.0,-26.793531622535976
8.448,1.0,-27.056389146444833
8.456,0.9999999999999999,-27.31915050637078
8.464,0.9999999999999999,-27.581814568516247
8.472,1.0,-27.844380203090665
8.48,1.0,-28.106846284348677
8.488,0.9999999999999999,-28.3692116906273
8.496,0.9999999999999999,-28.631475304383475
8.504,1.0,-28.893636012230445
8.512,1.0,-29.155692704974626
8.52,1.0,-29.417644277651178
8.528,1.0,-29.679489629560216
8.536,1.0,-29.941227664301593
8.544,1.0,-30.20285728981036
8.552,1.0,-30.464377418390818
8.56,1.0,-30.72578696675119
8.568,0.9999999999999999,-30.987084856036994
8.576,1.0,-31.248270011864832
8.584,1.0,-31.50934136435507
8.592,1.0,-31.770297848164866
8.6,1.0,-32.031138402520035
8.608,0.9999999999999999,-32.29186197124733
8.616,1.0,-32.55246750280548
8.624,1.0,-32.81295395031676
8.632,0.9999999999999999,-33.07332027159718
8.64,1.0,-33.3335654291873
8.648,0.9999999999999999,-33.59368839038157
8.656,0.9999999999999999,-33.85368812725848
8.664,1.0,-34.113563616708966
8.672,1.0,-34.37331384046575
8.68,1.0,-34.632937785131126
8.688,1.0,-34.89243444220529
8.696,0.9999999999999999,-35.151802808113445
8.704,1.0,-35.411041884233285
8.712,1.0,-35.67015067692119
8.72,1.0,-35.92912819753914
8.728,0.9999999999999999,-36.18797346247993
8.736,1.0,-36.44668549319317
8.744,0.9999999999999999,-36.70526331620991
8.752,1.0,-36.96370596316773
8.76,1.0,-37.222012470834514
8.768,1.0,-37.48018188113269
8.776,1.0,-37.73821324116231
8.784,1.0,-37.99610560322443
8.792,0.9999999999999999,-38.2538580248432
8.8,0.9999999999999999,-38.51146956878865
8.808,1.0,-38.76893930309792
8.815999999999999,1.0,-39.02626630109705
8.824,0.9999999999999998,-39.28344964142171
8.832,1.0,-39.54048840803773
8.84,1.0,-39.79738169026124
8.847999999999999,1.0,-40.05412858277858
8.856,1.0,-40.310728185665475
8.864,1.0,-40.5671796044058
8.872,1.0,-40.82348194991019
8.879999999999999,1.0,-41.07963433853426
8.888,1.0,-41.33563589209615
8.896,1.0,-41.591485737893635
8.904,0.9999999999999999,-41.84718300872114
8.911999999999999,0.9999999999999999,-42.10272684288621
8.92,1.0,-42.35811638422562
8.928,0.9999999999999999,-42.613350782120655
8.936,0.9999999999999999,-42.86842919151259
8.943999999999999,0.9999999999999999,-43.1233507729176
8.952,1.0,-43.37811469244102
8.96,1.0,-43.63272012179127
8.968,1.0,-43.887166238293574
8.975999999999999,1.0,-44.141452224903254
8.984,1.0,-44.39557727021844
8.992,1.0,-44.649540568492306
9.0,0.9999999999999999,-44.903341319645286
9.008,1.0,-45.156978729276695
9.016,1.0,-45.410452008675854
9.024000000000001,1.0,-45.66376037483279
9.032,1.0,-45.91690305044875
9.04,1.0,-46.16987926394642
9.048,1.0,-46.42268824947928
9.056000000000001,1.0,-46.67532924694088
9.064,1.0,-46.92780150197375
9.072,0.9999999999999999,-47.180104265977945
9.08,1.0,-47.43223679611906
9.088000000000001,1.0,-47.68419835533582
9.096,1.0,-47.93598821234738
9.104,0.9999999999999998,-48.18760564166058
9.112,0.9999999999999999,-48.439049923576185
9.120000000000001,0.9999999999999999,-48.69032034419503
9.128,1.0,-48.941416195423905
9.136,0.9999999999999999,-49.19233677498113
9.144,1.0000000000000002,-49.4430813864014
9.152000000000001,1.0,-49.693649339040455
9.16,0.9999999999999998,-49.94403994807943
9.168,0.9999999999999999,-50.19425253452891
9.176,1.0,-50.44428642523241
9.184000000000001,0.9999999999999999,-50.69414095286948
9.192,1.0,-50.94381545595861
9.2,1.0,-51.193309278859935
9.208,1.0,-51.44262177177717
9.216000000000001,1.0,-51.691752290759275
9.224,1.0,-51.94070019770205
9.232,1.0,-52.18946486034927
9.24,0.9999999999999999,-52.438045652293326
9.248000000000001,1.0,-52.68644195297546
9.256,1.0,-52.93465314768593
9.264,1.0,-53.18267862756387
9.272,1.0,-53.43051778959638
9.280000000000001,1.0,-53.6781700366176
9.288,1.0,-53.925634777307366
9.296,1.0,-54.172911426189806
9.304,0.9999999999999999,-54.41999940363107
9.312000000000001,1.0000000000000002,-54.666898135837066
9.32,1.0,-54.91360705485085
9.328,0.9999999999999999,-55.16012559854981
9.336,1.0,-55.40645321064226
9.344,1.0,-55.65258934066365
9.352,1.0,-55.898533443973136
9.36,0.9999999999999998,-56.14428498174877
9.368,1.0,-56.38984342098354
9.376,0.9999999999999999,-56.63520823447998
9.384,1.0,-56.880378900845514
9.392,0.9999999999999999,-57.125354904486585
9.4,1.0,-57.3701357356033
9.408,1.0,-57.61472089018289
9.416,0.9999999999999999,-57.85910986999393
9.424,0.9999999999999999,-58.103302182579206
9.432,1.0,-58.34729734124919
9.44,1.0,-58.59109486507442
9.448,1.0,-58.83469427887848
9.456,1.0000000000000002,-59.07809511322971
9.464,0.9999999999999999,-59.32129690443363
9.472,0.9999999999999999,-59.56429919452421
9.48,0.9999999999999999,-59.80710153125561
9.488,1.0,-60.049703468092986
9.496,1.0,-60.29210456420365
9.504,1.0,-60.534304384447346
9.512,0.9999999999999999,-60.77630249936695
9.52,1.0,-61.018098485178164
9.528,0.9999999999999999,-61.25969192375971
9.536,1.0,-61.501082402642496
9.544,1.0,-61.74226951499935
9.552,1.0000000000000002,-61.98325285963367
9.56,0.9999999999999999,-62.2240320409687
9.568,1.0,-62.46460666903557
9.576,0.9999999999999998,-62.70497635946223
9.584,1.0,-62.94514073346103
9.592,1.0,-63.18509941781702
9.6,0.9999999999999999,-63.424852044875195
9.608,1.0,-63.664398252528315
9.616,0.9999999999999999,-63.90373768420367
9.624,0.9999999999999999,-64.14286998885056
9.632,1.0,-64.38179482092646
9.64,1.0,-64.62051184038414
9.648,1.0,-64.85902071265743
9.656,1.0,-65.09732110864789
9.664,1.0,-65.33541270471015
9.672,1.0,-65.57329518263816
9.68,1.0,-65.81096822965019
9.688,1.0,-66.04843153837456
9.696,0.9999999999999999,-66.2856848068344
9.704,1.0,-66.52272773843285
9.712,1.0,-66.75956004193748
9.72,0.9999999999999999,-66.99618143146522
9.728,1.0,-67.23259162646626
9.736,1.0,-67.46879035170863
9.744,0.9999999999999999,-67.70477733726187
9.752,1.0,-67.94055231848115
9.76,0.9999999999999999,-68.17611503599059
9.768,1.0,-68.41146523566702
9.776,1.0,-68.64660266862306
9.784,1.0,-68.88152709119058
9.792,0.9999999999999999,-69.11623826490317
9.8,1.0,-69.35073595647958
9.808,0.9999999999999999,-69.58501993780588
9.816,0.9999999999999999,-69.81908998591831
9.824,1.0,-70.05294588298537
9.832,0.9999999999999998,-70.28658741629037
9.84,1.0,-70.5200143782131
9.847999999999999,1.0,-70.75322656621222
9.856,0.9999999999999999,-70.9862237828067
9.864,1.0,-71.2190058355576
9.872,1.0,-71.45157253704953
9.879999999999999,1.0,-71.68392370487224
9.888,1.0,-71.91605916160174
9.896,1.0,-72.14797873478139
