freq,mag,phase
6.0,0.9999978397995102,165.74089951341435
6.008,0.9999976546671738,165.37882967313277
6.016,0.9999974782449681,165.01645134103143
6.024,0.9999973103337033,164.6537578058905
6.032,0.9999971507366271,164.29074233498292
6.04,0.999996999259409,163.92739817394667
6.048,0.9999968557101166,163.56371854665727
6.056,0.9999967198991995,163.1996966551007
6.064,0.9999965916394667,162.83532567924686
6.072,0.9999964707460692,162.4705987769236
6.08,0.9999963570364812,162.10550908369137
6.088,0.9999962503304778,161.7400497127188
6.096,0.9999961504501214,161.37421375465865
6.104,0.9999960572197382,161.00799427752554
6.112,0.9999959704659018,160.6413843265737
6.12,0.9999958900174137,160.2743769241765
6.128,0.9999958157052865,159.90696506970704
6.136,0.9999957473627256,159.53914173941993
6.144,0.9999956848251085,159.17089988633444
6.152,0.9999956279299711,158.8022324401194
6.16,0.9999955765169861,158.43313230697925
6.168,0.9999955304279508,158.0635923695423
6.176,0.9999954895067621,157.6936054867504
6.184,0.9999954535994057,157.32316449375062
6.192,0.999995422553937,156.95226220178913
6.2,0.9999953962204632,156.5808913981068
6.208,0.9999953744511301,156.20904484583755
6.216,0.9999953571001001,155.83671528390857
6.224,0.9999953440235394,155.46389542694334
6.232,0.9999953350796016,155.0905779651672
6.24,0.9999953301284106,154.7167555643153
6.248,0.9999953290320481,154.34242086554403
6.256,0.9999953316545308,153.96756648534466
6.264,0.9999953378618016,153.59218501546067
6.272,0.9999953475217109,153.21626902280804
6.28,0.9999953605040027,152.83981104939886
6.288,0.9999953766802988,152.46280361226877
6.296,0.9999953959240839,152.08523920340747
6.304,0.9999954181106908,151.7071102896935
6.312,0.9999954431172859,151.3284093128328
6.32,0.9999954708228571,150.94912868930143
6.328,0.9999955011081948,150.56926081029206
6.336,0.9999955338558809,150.18879804166565
6.344,0.9999955689502754,149.80773272390687
6.352,0.9999956062775015,149.42605717208485
6.36,0.9999956457254314,149.04376367581835
6.368,0.9999956871836729,148.66084449924617
6.376,0.9999957305435605,148.27729188100278
6.384,0.9999957756981352,147.89309803419937
6.392,0.9999958225421361,147.50825514641002
6.4,0.999995870971986,147.12275537966445
6.408,0.9999959208857806,146.73659087044572
6.416,0.9999959721832752,146.34975372969492
6.424,0.99999602476587,145.96223604282147
6.432,0.9999960785366009,145.57402986972036
6.44,0.9999961334001287,145.18512724479575
6.448,0.999996189262724,144.79552017699191
6.456,0.9999962460322556,144.40520064983065
6.464,0.9999963036181816,144.01416062145668
6.472,0.9999963619315372,143.62239202469024
6.48,0.9999964208849232,143.22988676708707
6.4879999999999995,0.9999964803924943,142.8366367310073
6.496,0.9999965403699487,142.4426337736913
6.504,0.999996600734519,142.0478697273454
6.5120000000000005,0.9999966614049601,141.65233639923463
6.52,0.9999967223015384,141.256025571786
6.5280000000000005,0.9999967833460239,140.85892900269954
6.536,0.9999968444616762,140.4610384250697
6.5440000000000005,0.9999969055732398,140.06234554751552
6.552,0.9999969666069295,139.662842054322
6.5600000000000005,0.9999970274904244,139.26251960558977
6.568,0.9999970881528563,138.86136983739712
6.5760000000000005,0.9999971485248009,138.45938436197113
6.584,0.9999972085382702,138.05655476787095
6.592,0.9999972681267003,137.65287262018134
6.6,0.999997327224947,137.24832946071857
6.608,0.9999973857692726,136.8429168082475
6.616,0.9999974436973398,136.43662615871128
6.624,0.9999975009482038,136.02944898547298
6.632,0.9999975574623029,135.6213767395701
6.64,0.9999976131814505,135.21240084998243
6.648,0.9999976680488266,134.80251272391263
6.656,0.9999977220089725,134.39170374708073
6.664,0.9999977750077796,133.9799652840329
6.672,0.9999978269924849,133.5672886784638
6.68,0.9999978779116615,133.15366525355438
6.688,0.9999979277152128,132.73908631232388
6.696,0.9999979763543636,132.32354313799746
6.704,0.9999980237816563,131.90702699438964
6.712,0.9999980699509394,131.48952912630338
6.72,0.999998114817365,131.07104075994565
6.728,0.9999981583373796,130.6515531033597
6.736,0.9999982004687198,130.23105734687454
6.744,0.9999982411704021,129.80954466357147
6.752,0.9999982804027221,129.38700620976888
6.76,0.9999983181272435,128.96343312552483
6.768,0.9999983543067942,128.5388165351584
6.776,0.999998388905461,128.1131475477901
6.784,0.9999984218885822,127.68641725790147
6.792,0.9999984532227434,127.25861674591424
6.8,0.9999984828757704,126.8297370787901
6.808,0.9999985108167259,126.39976931065071
6.816,0.9999985370159014,125.9687044834186
6.824,0.999998561444814,125.53653362747973
6.832,0.9999985840762011,125.10324776236754
6.84,0.9999986048840143,124.66883789746949
6.848,0.9999986238434149,124.23329503275593
6.856,0.9999986409307692,123.7966101595324
6.864,0.9999986561236436,123.35877426121499
6.872,0.9999986694008001,122.9197783141301
6.88,0.9999986807421908,122.47961328833813
6.888,0.9999986901289549,122.03827014848245
6.896,0.9999986975434122,121.59573985466307
6.904,0.9999987029690603,121.15201336333654
6.912,0.9999987063905701,120.7070816282417
6.92,0.9999987077937799,120.26093560135212
6.928,0.9999987071656935,119.81356623385561
6.936,0.9999987044944748,119.36496447716124
6.944,0.9999986997694434,118.9151212839343
6.952,0.9999986929810708,118.46402760915979
6.96,0.999998684120977,118.01167441123467
6.968,0.9999986731819254,117.55805265308958
6.976,0.9999986601578202,117.1031533033403
6.984,0.9999986450437007,116.6469673374695
6.992,0.9999986278357388,116.18948573903936
7.0,0.9999986085312351,115.73069950093505
7.008,0.9999985871286144,115.27059962664022
7.016,0.9999985636274222,114.8091771315446
7.024,0.9999985380283198,114.34642304428371
7.032,0.9999985103330827,113.88232840811226
7.04,0.9999984805445946,113.41688428231048
7.048,0.999998448666845,112.95008174362464
7.056,0.9999984147049235,112.48191188774197
7.064,0.9999983786650185,112.01236583080023
7.072,0.9999983405544104,111.5414347109326
7.08,0.9999983003814701,111.06910968984833
7.088,0.9999982581556542,110.59538195444942
7.096,0.9999982138874993,110.12024271848375
7.104,0.9999981675886206,109.64368322423537
7.112,0.9999981192717056,109.16569474425191
7.12,0.999998068950511,108.68626858310984
7.128,0.9999980166398582,108.20539607921793
7.136,0.9999979623556284,107.72306860665904
7.144,0.9999979061147592,107.23927757707102
7.152,0.9999978479352384,106.75401444156665
7.16,0.9999977878361009,106.26727069269332
7.168,0.9999977258374232,105.77903786643256
7.176,0.9999976619603181,105.28930754423993
7.184,0.9999975962269313,104.79807135512527
7.192,0.9999975286604333,104.30532097777396
7.2,0.9999974592850177,103.81104814270947
7.208,0.9999973881258933,103.31524463449696
7.216,0.9999973152092787,102.81790229398868
7.224,0.9999972405623967,102.31901302061146
7.232,0.9999971642134698,101.81856877469602
7.24,0.9999970861917126,101.31656157984848
7.248,0.9999970065273244,100.81298352536479
7.256,0.9999969252514845,100.3078267686872
7.264,0.9999968423963477,99.80108353790382
7.272,0.9999967579950303,99.29274613429081
7.28,0.9999966720816095,98.78280693489747
7.288,0.9999965846911146,98.27125839517447
7.296,0.9999964958595158,97.75809305164475
7.304,0.9999964056237214,97.24330352461764
7.312,0.9999963140215655,96.72688252094564
7.32,0.9999962210918018,96.20882283682431
7.328,0.9999961268740936,95.68911736063464
7.336,0.999996031409005,95.16775907582847
7.344,0.9999959347379932,94.64474106385578
7.352,0.9999958369033968,94.12005650713473
7.36,0.999995737948425,93.59369869206351
7.368,0.9999956379171504,93.06566101207387
7.376,0.9999955368544953,92.53593697072625
7.384,0.9999954348062221,92.00452018484582
7.392,0.9999953318189229,91.47140438769931
7.4,0.9999952279400046,90.93658343221196
7.4079999999999995,0.9999951232176798,90.40005129422443
7.416,0.9999950177009516,89.86180207578833
7.4239999999999995,0.9999949114396046,89.32183000850166
7.432,0.9999948044841855,88.7801294568804
7.4399999999999995,0.9999946968859961,88.23669492176957
7.448,0.9999945886970715,87.69152104378864
7.4559999999999995,0.9999944799701737,87.14460260681528
7.464,0.9999943707587686,86.59593454150146
7.4719999999999995,0.9999942611170178,86.04551192882624
7.48,0.9999941510997546,85.49333000367938
7.4879999999999995,0.9999940407624742,84.93938415847931
7.496,0.9999939301613135,84.38366994682035
7.504,0.9999938193530333,83.82618308715146
7.5120000000000005,0.9999937083950016,83.26691946648262
7.52,0.9999935973451736,82.70587514411993
7.5280000000000005,0.999993486262074,82.1430463554258
7.536,0.9999933752047766,81.57842951560549
7.5440000000000005,0.9999932642328841,81.01202122351577
7.552,0.9999931534065079,80.44381826549689
7.5600000000000005,0.9999930427862469,79.87381761922376
7.568,0.9999929324331635,79.30201645757731
7.5760000000000005,0.9999928224087647,78.72841215253166
7.584,0.9999927127749777,78.15300227905814
7.5920000000000005,0.9999926035941259,77.57578461904112
7.6,0.999992494928905,76.99675716520758
7.6080000000000005,0.9999923868423588,76.41591812506411
7.616,0.9999922793978546,75.83326592484387
7.6240000000000006,0.9999921726590548,75.24879921345685
7.632,0.9999920666898956,74.66251686644556
7.640000000000001,0.9999919615545536,74.07441798993989
7.648,0.9999918573174242,73.48450192461262
7.656000000000001,0.9999917540430897,72.89276824962936
7.664,0.9999916517962931,72.29921678659446
7.672,0.9999915506419053,71.70384760348605
7.68,0.9999914506449012,71.10666101858197
7.688,0.9999913518703231,70.50765760437007
7.696,0.9999912543832538,69.90683819144283
7.704,0.9999911582487839,69.30420387237201
7.712,0.9999910635319793,68.69975600556091
7.72,0.9999909702978507,68.09349621907148
7.728,0.9999908786113164,67.48542641442276
7.736,0.9999907885371733,66.87554877035792
7.744,0.9999907001400595,66.26386574657671
7.752,0.9999906134844219,65.65038008743
7.76,0.9999905286344793,65.03509482557301
7.768,0.9999904456541879,64.41801328557439
7.776,0.9999903646072046,63.79913908747699
7.784,0.9999902855568504,63.178476150307674
7.792,0.9999902085660746,62.55602869553203
7.8,0.9999901336974157,61.931801250450796
7.808,0.9999900610129658,61.30579865153426
7.816,0.9999899905743304,60.67802604769112
7.824,0.9999899224425904,60.04848890346777
7.832,0.999989856678264,59.41719300217481
7.84,0.9999897933412678,58.78414444893667
7.848,0.9999897324908759,58.1493496736604
7.856,0.9999896741856811,57.512815433920416
7.864,0.9999896184835554,56.8745488177547
7.872,0.9999895654416083,56.23455724636897
7.88,0.99998951511615,55.592848476744834
7.888,0.9999894675626463,54.949430604148056
7.896,0.9999894228356809,54.304312064532965
7.904,0.9999893809889148,53.65750163683928
7.912,0.9999893420750443,53.00900844517725
7.92,0.999989306145761,52.35884196089723
7.928,0.9999892732517117,51.707012004540154
7.936,0.9999892434424563,51.05352874766456
7.944,0.999989216766428,50.398402714546535
7.952,0.9999891932708945,49.74164478374906
7.96,0.999989173001914,49.083266189556376
7.968,0.9999891560042988,48.42327852327025
7.976,0.9999891423215735,47.76169373436409
7.984,0.9999891319959365,47.09852413149127
7.992,0.99998912506822,46.433782383344415
8.0,0.9999891215778521,45.76748151936171
8.008,0.9999891215628174,45.09963493027722
8.016,0.9999891250596202,44.430256368511024
8.024000000000001,0.9999891321032462,43.75935994839781
8.032,0.9999891427271266,43.08696014624804
8.04,0.999989156963101,42.413071800240466
8.048,0.9999891748413827,41.73771011014265
8.056000000000001,0.9999891963905226,41.060890636856975
8.064,0.9999892216373764,40.38262930178804
8.072,0.9999892506070709,39.702942386029505
8.08,0.9999892833229709,39.021846529369114
8.088000000000001,0.9999893198066482,38.33935872910788
8.096,0.9999893600778506,37.65549633869158
8.104,0.9999894041544725,36.97027706615236
8.112,0.9999894520525261,36.28371897235955
8.120000000000001,0.9999895037861136,35.59584046907712
8.128,0.9999895593674003,34.90666031682562
8.136,0.9999896188065914,34.216197622547696
8.144,0.999989682111905,33.524471837076675
8.152000000000001,0.9999897492895508,32.831502752406344
8.16,0.9999898203437082,32.13731049876065
8.168,0.9999898952765064,31.4419155414629
8.176,0.9999899740880057,30.745338677604984
8.184000000000001,0.9999900567761779,30.047601032515338
8.192,0.9999901433368937,29.348724056025038
8.2,0.9999902337639054,28.64872951853297
8.208,0.9999903280488353,27.947639506870598
8.216000000000001,0.9999904261811637,27.24547641996666
8.224,0.9999905281482194,26.542262964311654
8.232,0.9999906339351715,25.838022149223725
8.24,0.9999907435250222,25.132777281918052
8.248000000000001,0.9999908568986023,24.426551962380078
8.256,0.9999909740345687,23.719370078043966
8.264,0.9999910949094012,23.011255798278736
8.272,0.9999912194974051,22.30223356868451
8.280000000000001,0.9999913477707109,21.59232810520114
8.288,0.9999914796992798,20.8815643880304
8.296,0.9999916152509091,20.16996765537592
8.304,0.999991754391238,19.457563397003916
8.312,0.9999918970837606,18.744377347627857
8.32,0.9999920432898308,18.030435480118555
8.328,0.9999921929686832,17.315763998547443
8.336,0.9999923460774414,16.60038933106198
8.344,0.9999925025711369,15.884338122602456
8.352,0.999992662402728,15.167637227459235
8.36,0.9999928255231196,14.450313701680413
8.368,0.9999929918811851,13.732394795329068
8.376,0.9999931614237906,13.013907944600582
8.384,0.9999933340958206,12.294880763799839
8.392,0.9999935098402046,11.575341037188647
8.4,0.999993688597948,10.855316710703985
8.408,0.9999938703081616,10.134835883557756
8.416,0.9999940549080947,9.413926799718652
8.424,0.9999942423331702,8.692617839287445
8.432,0.9999944325170199,7.970937509766693
8.44,0.9999946253915214,7.24891443723614
8.448,0.9999948208868386,6.526577357435311
8.456,0.9999950189314634,5.803955106764787
8.464,0.9999952194522543,5.081076613207996
8.472,0.999995422374485,4.357970887185125
8.48,0.9999956276218853,3.634667012341111
8.488,0.9999958351166915,2.9111941362797884
8.496,0.9999960447796907,2.187581461246123
8.504,0.9999962565302734,1.4638582347687534
8.512,0.9999964702864805,0.7400537402649919
8.52,0.9999966859650588,0.01619728762054728
8.528,0.9999969034815104,-0.7076817962537181
8.536,0.9999971227501484,-1.4315541768757527
8.544,0.9999973436841512,-2.155390521654551
8.552,0.9999975661956179,-2.8791615093483864
8.56,0.9999977901956257,-3.602837839516803
8.568,0.9999980155942865,-4.326390241953719
8.576,0.9999982423008063,-5.049789486099787
8.584,0.9999984702235425,-5.773006390421241
8.592,0.9999986992700653,-6.496011831753503
8.6,0.9999989293472156,-7.218776754596907
8.608,0.9999991603611679,-7.941272180362865
8.616,0.9999993922174892,-8.66346921655802
8.624,0.9999996248212025,-9.385339065904843
8.632,0.9999998580768462,-10.10685303538654
8.64,1.0,-10.827982545214615
8.648,1.0,-11.5486991377075
8.656,1.0,-12.268974486078642
8.664,1.0,-12.988780403122812
8.672,1.0,-13.708088849799257
8.68,0.9999999999999999,-14.426871943700633
8.688,1.0,-15.145101967406893
8.696,0.9999999999999999,-15.862751376713229
8.704,1.0,-16.579792808731572
8.712,1.0,-17.29619908985509
8.72,1.0,-18.011943243585634
8.728,1.0,-18.72699849821394
8.736,1.0,-19.441338294352768
8.744,0.9999999999999999,-20.154936292313348
8.752,0.9999999999999999,-20.867766379325698
8.76,1.0,-21.579802676593502
8.768,1.0,-22.29101954618462
8.776,1.0,-23.00139159774833
8.784,1.0,-23.710893695060786
8.792,0.9999999999999999,-24.419500962390273
8.8,1.0,-25.127188790684187
8.808,1.0,-25.83393284356968
8.815999999999999,1.0,-26.539709063170296
8.824,1.0,-27.244493675732112
8.832,1.0,-27.948263197058953
8.84,1.0,-28.650994437755017
8.847999999999999,1.0,-29.35266450827261
8.856,1.0,-30.0532508237629
8.864,0.9999999999999999,-30.75273110872868
8.872,1.0000000000000002,-31.45108340147903
8.879999999999999,1.0,-32.148286058384144
8.888,1.0,-32.84431775792907
8.896,1.0,-33.53915750456663
8.904,0.9999999999999999,-34.23278463236983
8.911999999999999,1.0,-34.925178808483096
8.92,1.0,-35.616320036372045
8.928,1.0,-36.30618865887267
8.936,0.9999999999999999,-36.994765361041125
8.943999999999999,1.0,-37.68203117280445
8.952,0.9999999999999999,-38.36796747141241
8.96,0.9999999999999999,-39.05255598369222
8.968,0.9999999999999999,-39.735778788108426
8.975999999999999,1.0,-40.4176183166283
8.984,0.9999999999999999,-41.0980573563943
8.992,0.9999999999999999,-41.777079051205845
9.0,1.0,-42.454666902812924
9.008,1.0,-43.130804772023325
9.016,1.0,-43.8054768796249
9.024000000000001,1.0,-44.478667807126236
9.032,1.0,-45.15036249731848
9.04,0.9999999999999999,-45.82054625466079
9.048,1.0000000000000002,-46.48920474549145
9.056000000000001,0.9999999999999999,-47.15632399806814
9.064,0.9999999999999999,-47.82189040244117
9.072,0.9999999999999999,-48.485890710161954
9.08,1.0,-49.14831203382954
9.088000000000001,1.0,-49.80914184647909
9.096,1.0000000000000002,-50.46836798081635
9.104,1.0,-51.12597862830064
9.112,1.0,-51.78196233807991
9.120000000000001,0.9999999999999999,-52.43630801578143
9.128,1.0,-53.089004922162964
9.136,1.0,-53.74004267162681
9.144,1.0,-54.389411230600764
9.152000000000001,0.9999999999999999,-55.03710091578958
9.16,0.9999999999999999,-55.68310239230174
9.168,1.0,-56.327406671654835
9.176,1.0,-56.970005109662544
9.184000000000001,0.9999999999999999,-57.61088940420805
9.192,0.9999999999999999,-58.25005159290804
9.2,1.0,-58.88748405067082
9.208,1.0,-59.52317948715173
9.216000000000001,1.0,-60.1571309441106
9.224,1.0,-60.7893317926751
9.232,1.0,-61.419775730514196
9.24,1.0,-62.048456778924134
9.248000000000001,0.9999999999999999,-62.675369279831884
9.256,0.9999999999999999,-63.3005078927201
9.264,1.0,-63.92386759147724
9.272,1.0,-64.54544366117553
9.280000000000001,1.0,-65.16523169478126
9.288,0.9999999999999999,-65.78322758980178
9.296,0.9999999999999999,-66.3994275448721
9.304,0.9999999999999999,-67.0138280562841
9.312000000000001,0.9999999999999999,-67.62642591446259
9.32,0.9999999999999999,-68.23721820039202
9.328,1.0,-68.84620228199704
9.336,0.9999999999999999,-69.45337581047939
9.344,0.9999999999999999,-70.0587367166151
9.352,1.0,-70.66228320701673
9.36,1.0,-71.2640137603602
9.368,1.0,-71.8639271235838
9.376,1.0,-72.46202230805821
9.384,0.9999999999999999,-73.05829858573448
9.392,1.0,-73.65275548526881
9.4,0.9999999999999999,-74.24539278813145
9.408,0.9999999999999998,-74.83621052469792
9.416,1.0,-75.42520897032969
9.424,0.9999999999999999,-76.01238864144284
9.432,0.9999999999999999,-76.59775029157132
9.44,1.0,-77.18129490742324
9.448,1.0,-77.7630237049367
9.456,1.0,-78.34293812533362
9.464,1.0,-78.92103983117761
9.472,0.9999999999999999,-79.49733070243452
9.48,1.0,-80.07181283254128
9.488,0.9999999999999999,-80.64448852448163
9.496,0.9999999999999999,-81.21536028687451
9.504,1.0,-81.78443083007303
9.512,0.9999999999999999,-82.35170306227997
9.52,1.0000000000000002,-82.91718008567751
9.528,1.0,-83.48086519257731
9.536,1.0,-84.04276186158782
9.544,0.9999999999999999,-84.60287375380531
9.552,1.0,-85.16120470902557
9.56,1.0,-85.71775874198192
9.568,0.9999999999999999,-86.27254003860693
9.576,0.9999999999999999,-86.82555295232325
9.584,1.0,-87.37680200036074
9.592,0.9999999999999999,-87.926291860105
9.6,0.9999999999999998,-88.47402736547481
9.608,1.0,-89.02001350333319
9.616,0.9999999999999999,-89.5642554099293
9.624,1.0,-90.10675836737614
9.632,1.0,-90.64752780016092
9.64,0.9999999999999998,-91.18656927169307
9.648,0.9999999999999999,-91.72388848088654
9.656,1.0,-92.2594912587813
9.664,0.9999999999999999,-92.79338356520061
9.672,1.0,-93.32557148544892
9.68,1.0,-93.85606122704662
9.688,0.9999999999999999,-94.3848591165068
9.696,1.0,-94.91197159614988
9.704,0.9999999999999999,-95.43740522096103
9.712,1.0,-95.9611666554867
9.72,1.0,-96.4832626707745
9.728,1.0,-97.00370014135285
9.736,1.0,-97.52248604225493
9.744,0.9999999999999999,-98.03962744608273
9.752,1.0,-98.55513152011585
9.76,1.0,-99.06900552346109
9.768,1.0,-99.58125680424676
9.776,1.0,-100.09189279685839
9.784,1.0,-100.60092101921911
9.792,1.0,-101.10834907011181
9.8,1.0,-101.61418462654586
9.808,0.9999999999999998,-102.11843544116573
