freq,mag,phase
6.0,1.0002177541290505,37.184836928251954
6.002287104,1.000248745230987,37.017721657536136
6.004574208,1.0002637618177779,36.85022710785231
6.006861312,1.0002620997272886,36.682559490341134
6.009147904,1.0002439127964278,36.514971252989845
6.011435008,1.0002102824631087,36.34769907328191
6.013722112,1.0001633956868345,36.18093202853578
6.016009216,1.0001061145788666,36.014864765541034
6.01829632,1.0000420718849394,35.849618261632976
6.020583424,0.9999753301179898,35.68524685016757
6.022870016,0.9999101699573824,35.521773072980594
6.02515712,0.999850469873714,35.35915474859374
6.027444224,0.9998001895625753,35.19725735387531
6.029731328,0.999762446465055,35.03592544230864
6.032018432,0.9997396587584332,34.8749514552611
6.034305536,0.999733174162715,34.71416935739081
6.036592128,0.9997434872657094,34.55324986836281
6.038879232,0.9997698846496494,34.39201749319698
6.041166336,0.9998108519826294,34.230238029598276
6.04345344,0.999863519297244,34.067697735445236
6.045740544,0.9999249010817658,33.904277730417895
6.048027648,0.9999910115594518,33.739843068619386
6.05031424,1.0000575237831633,33.57442191596862
6.052601344,1.000120444021772,33.4079572282033
6.054888448,1.0001757143063648,33.24058809746451
6.057175552,1.0002198832025782,33.072418971040335
6.059462656,1.000250199288323,32.90364712874771
6.06174976,1.0002647585614046,32.73448387466511
6.064036352,1.0002624500035544,32.56515712527466
6.066323456,1.000243650651752,32.395898827840306
6.06861056,1.0002094307843516,32.22698300748764
6.070897664,1.000161932552234,32.058575467588376
6.073184768,1.0001043553632303,31.890872982415157
6.075471872,1.0000399750445204,31.72396203695376
6.077758464,0.9999730023615652,31.557941959156075
6.080045568,0.9999077790419181,31.39281765908819
6.082332672,0.9998481394377896,31.228522700019443
6.084619776,0.999798206203152,31.064939838309957
6.08690688,0.999760828043969,30.901943300498097
6.089193984,0.999738437541746,30.739293050272618
6.091481088,0.999732458879367,30.57678242299467
6.09376768,0.9997434068101668,30.414146567009922
6.096054784,0.9997704033067345,30.25118909353277
6.098341888,0.9998118578180469,30.087659111981196
6.100628992,0.9998651028110436,29.923363641589834
6.102916096,0.9999268009629517,29.75814699992171
6.1052032,0.9999930959987101,29.5919478465477
6.107489792,1.0000598045911968,29.42470937393428
6.109776896,1.0001226836210113,29.256462346688284
6.112064,1.0001777658192377,29.08727057223682
6.114351104,1.0002216861775333,28.91730823925258
6.116638208,1.0002516228824954,28.74671529304068
6.118925312,1.000265632274162,28.575739346610845
6.121211904,1.0002628422710647,28.404609245781586
6.123499008,1.0002434621542036,28.233572695017394
6.125786112,1.000208704110268,28.062824033931008
6.128073216,1.000160716480997,27.89263508095998
6.13036032,1.0001025807173292,27.723100889040666
6.132647424,1.000037918827187,27.55440978433383
6.134934016,0.9999707913312006,27.386582710088188
6.13722112,0.9999054152197286,27.2196463545267
6.139508224,0.9998459866168429,27.05352334959821
6.141795328,0.9997961578602178,26.888136248042855
6.144082432,0.9997590723774045,26.723297045752272
6.146369536,0.9997371124364591,26.55879686195811
6.148656128,0.9997317554632162,26.394449588030042
6.150943232,0.9997431043393076,26.229936699777998
6.153230336,0.999770650010215,26.065093732034573
6.15551744,0.9998126468485802,25.89964508629356
6.157804544,0.999866332668651,25.733446101065894
6.160091648,0.999928395910569,25.566328368379157
6.162378752,0.9999949675238619,25.39817715066132
6.164665344,1.000061801584143,25.22901054692974
6.166952448,1.000124674193897,25.058790305427742
6.169239552,1.0001797093587812,24.88764690579008
6.171526656,1.0002232997575058,24.715728456759543
6.17381376,1.000252809217279,24.543199291124505
6.176100864,1.0002664540582553,24.370251257710148
6.178387456,1.0002632433226168,24.197139510593164
6.18067456,1.0002432637596943,24.024154972386686
6.182961664,1.0002079961591257,23.851473354881076
6.185248768,1.0001596298042115,23.679317939431467
6.187535872,1.0001010548018208,23.507840961646426
6.189822976,1.0000360550645107,23.33716455284442
6.192109568,0.9999688548695322,23.16738910306625
6.194396672,0.9999033964794427,22.998477758560462
6.196683776,0.9998439655903346,22.830406805382996
6.19897088,0.9997942901240883,22.663033797747886
6.201257984,0.999757548424676,22.49620108998756
6.203545088,0.9997359276356936,22.329718148952875
6.20583168,0.9997310042036367,22.163322528547873
6.208118784,0.9997429051469006,21.99678579502803
6.210405888,0.9997709858158543,21.82990946128294
6.212692992,0.9998133285825307,21.662425335310214
6.214980096,0.9998674756306501,21.49416373156256
6.2172672,0.9999298634761361,21.32496424491666
6.219553792,0.9999967280196805,21.15473340417962
6.221840896,1.0000636313953681,20.983452623921867
6.224128,1.0001265114940887,20.81115609624542
6.226415104,1.0001814543409198,20.637908289053325
6.228702208,1.000224823135454,20.463873977228932
6.230989312,1.0002540809287177,20.289203982764047
6.233275904,1.0002673049147046,20.11416820543914
6.235563008,1.0002636047731674,19.938967039970017
6.237850112,1.000243230524893,19.763837518537077
6.240137216,1.000207538834066,19.589040355014394
6.24242432,1.0001586668678124,19.414767874722436
6.244711424,1.0000998500137708,19.241173106040684
6.246998528,1.0000345898486158,19.068398277908567
6.24928512,0.9999670336117441,18.89650089255229
6.251572224,0.9999015558931782,18.725475428584907
6.253859328,0.9998421535346125,18.555254639371725
6.256146432,0.9997926309795137,18.385749155122387
6.258433536,0.9997561969415556,18.21676509920222
6.26072064,0.9997349132060528,18.04811135680849
6.263007232,0.9997303398999803,17.879568716658184
6.265294336,0.9997426209067465,17.710881229920684
6.26758144,0.9997710471227439,17.541798746142273
6.269868544,0.999813882960925,17.37211329749575
6.272155648,0.9998683808102732,17.201616662033768
6.274442752,0.999931099255719,17.0301939297805
6.276729344,0.9999980777347307,16.85774267421824
6.279016448,1.000065209935743,16.684208771841952
6.281303552,1.0001281379310634,16.50966435904848
6.283590656,1.0001829845685077,16.33414165765917
6.28587776,1.0002262386475045,16.15785406557641
6.288164864,1.0002552922948844,15.980941742342885
6.290451456,1.0002681348058393,15.803607224997153
6.29273856,1.0002640124068967,15.626140582302263
6.295025664,1.000243297824099,15.448757553921391
6.297312768,1.0002071995737296,15.271678029223578
6.299599872,1.000158040969885,15.095120747121953
6.301886976,1.0000987387648137,14.919271653458317
6.304173568,1.0000332539397834,14.744219520714283
6.306460672,0.9999655837668803,14.570041051086397
6.308747776,0.9998999363260419,14.396742834415448
6.31103488,0.9998405342774869,14.224226727805155
6.313321984,0.9997911156541379,14.052422368786242
6.315609088,0.9997547133704683,13.881137571539618
6.317896192,0.9997337147683357,13.71017949233724
6.320182784,0.9997294612113602,13.539302507110785
6.322469888,0.9997420558165139,13.368261049304035
6.324756992,0.9997709227156013,13.19685543826596
6.327044096,0.9998141038856077,13.024805490653312
6.3293312,0.9998689432991237,12.85194651694438
6.331618304,0.9999319878735866,12.678133291216733
6.333904896,0.9999992179100665,12.503315914722483
6.336192,1.0000664272232613,12.327357644488343
6.338479104,1.0001294941446541,12.150408888535294
6.340766208,1.0001842595544355,11.972500161283708
6.343053312,1.0002274388731882,11.793783540469203
6.345340416,1.0002561759105062,11.61443542842042
6.347627008,1.0002688872255585,11.434691489942223
6.349914112,1.0002645242682102,11.25479773645208
6.352201216,1.0002434201973087,11.074975442306245
6.35448832,1.0002069718834292,10.895470359659978
6.356775424,1.000157361445863,10.716489785143217
6.359062528,1.0000979432780581,10.538207109311866
6.36134912,1.000032146853645,10.360719795120975
6.363636224,0.9999642057533203,10.184082042139417
6.365923328,0.9998985716272624,10.00834706270409
6.368210432,0.9998391865824795,9.833386413687323
6.370497536,0.999789720655677,9.659136241734277
6.37278464,0.9997535337073776,9.485382505297233
6.375071232,0.9997326971247164,9.31195370466295
6.377358336,0.9997285976339016,9.138594725822788
6.37964544,0.9997415524852077,8.965081468967503
6.381932544,0.9997706713138774,8.791149365520804
6.384219648,0.9998141783483969,8.616587246138172
6.386506752,0.9998692783365749,8.441213410920751
6.388793344,0.9999325747350499,8.264876348362877
6.391080448,1.0000000234631903,8.087487247847747
6.393367552,1.0000674432803376,7.909013437674805
6.395654656,1.0001305034134909,7.729504873047239
6.39794176,1.00018535353929,7.549012332159762
6.400228864,1.0002285015257188,7.367720399311811
6.402515968,1.0002571648004637,7.185796958309719
6.40480256,1.000269575112211,7.003478167230339
6.407089664,1.0002649577305625,6.820982598008224
6.409376768,1.000243757905858,6.638591926816543
6.411663872,1.0002069869152974,6.456481853610042
6.413950976,1.0001571270641758,6.274928840860004
6.41623808,1.0000973553739394,6.094038354871485
6.418524672,1.0000313784122965,5.91395917735879
6.420811776,0.9999633331618788,5.734731225079835
6.42309888,0.9998975434725947,5.556371488140329
6.425385984,0.9998379549570738,5.378817632969538
6.427673088,0.999788537290451,5.201941062606999
6.429960192,0.9997524311688222,5.025564144867746
6.432246784,0.9997317863876599,4.849502734682693
6.434533888,0.9997278508323333,4.673500626176062
6.436820992,0.9997410211939521,4.4973387094243975
6.439108096,0.9997703800245011,4.32076254437747
6.4413952,0.9998141230516162,4.143527863491374
6.443682304,0.9998695244269504,3.9654718160841234
6.445968896,0.999933020084305,3.7864479610971715
6.448256,1.0000007229428294,3.6063633850013503
6.450543104,1.0000682433541959,3.4251919542496725
6.452830208,1.0001314821412608,3.2429493452006786
6.455117312,1.0001863794235564,3.0597568077251007
6.457404416,1.000229505430532,2.875732515735881
6.459691008,1.0002580617342272,2.6910662619940497
6.461978112,1.0002705106680048,2.506012213600334
6.464265216,1.0002656566343595,2.3207986632720576
6.46655232,1.0002442047082458,2.1356297922383862
6.468839424,1.0002072207042634,1.9507947038120346
6.471126528,1.0001571403331382,1.76648174409714
6.473413632,1.0000971712912539,1.5828405717765273
6.475700224,1.000030889033709,1.3999869832852663
6.477987328,0.9999627235703592,1.2180026594886122
6.480274432,0.9998966348835456,1.0368626810708774
6.482561536,0.9998370061709593,0.856545164500352
6.48484864,0.9997875402937183,0.6768856777042462
6.487135744,0.9997513839916327,0.4977438650569478
6.489422336,0.9997306924381653,0.31888220042642906
6.49170944,0.9997269000734925,0.14010208921025635
6.493996544,0.9997401154051326,-0.03887127005600636
6.496283648,0.9997696716958793,-0.2182885034064977
6.498570752,0.9998136377687183,-0.39832704200846314
6.500857856,0.9998691735693966,-0.5791924036114928
6.503144448,0.9999330023228875,-0.7610640705715978
6.505431552,1.0000008386763295,-0.9439971115466632
6.507718656,1.0000685240538458,-1.1280315230500926
6.51000576,1.0001319966084703,-1.3131283218866732
6.512292864,1.0001869817883933,-1.4991944580721515
6.514579968,1.000230126764244,-1.6861169361222375
6.51686656,1.0002588624060809,-1.8736360407965809
6.519153664,1.0002711020772528,-2.0615976374789327
6.521440768,1.0002663681665769,-2.2497256450110057
6.523727872,1.0002447925070224,-2.4377680637373533
6.526014976,1.0002076864266634,-2.6255291373046923
6.52830208,1.0001574582211017,-2.812753089986747
6.530588672,1.0000972414344755,-2.9993222211637383
6.532875776,1.0000307595766231,-3.18507594467874
6.53516288,0.9999623802421415,-3.3699902597071403
6.537449984,0.9998962404273081,-3.554050425036724
6.539737088,0.9998364399923693,-3.7373133918517136
6.542024192,0.9997868122216141,-3.9198988122751213
6.544310784,0.9997505277191827,-4.101992951559328
6.546597888,0.9997298578940569,-4.283791320729941
6.548884992,0.9997260321254522,-4.465524347925096
6.551172096,0.9997393923352976,-4.647476061348533
6.5534592,0.9997690458671077,-4.829820364731054
6.555746304,0.9998130425853745,-5.012835863097307
6.558033408,0.9998688035801927,-5.196705797349493
6.56032,0.9999327255575918,-5.381548961704044
6.562607104,1.0000007581999992,-5.5674890085449595
6.564894208,1.0000687084799904,-5.754520592073334
6.567181312,1.000132280399862,-5.942650763460763
6.569468416,1.0001875397394278,-6.1317297156831625
6.57175552,1.000230800331577,-6.32166351048066
6.574042112,1.000259583907564,-6.512255600549829
6.576329216,1.0002719582922317,-6.703249043641842
6.57861632,1.0002671721671874,-6.894436197429329
6.580903424,1.0002456065193053,-7.085545724998452
6.583190528,1.0002084402405305,-7.276369390704659
6.585477632,1.000158137655116,-7.466677221850921
6.587764224,1.0000976880131174,-7.656304736819545
6.590051328,1.0000311625630807,-7.845150774945203
6.592338432,0.999962534628549,-8.033129706084667
6.594625536,0.9998960121941025,-8.220277538918449
6.59691264,0.9998361459779247,-8.4066164884345
6.599199744,0.9997863184076924,-8.59231456548612
6.601486336,0.9997498619538365,-8.777504367006781
6.60377344,0.9997290208855157,-8.962391855988258
6.606060544,0.9997251249429777,-9.14724731396886
6.608347648,0.9997383990006167,-9.332291300958191
6.610634752,0.9997679013970997,-9.517761936848304
6.612921856,0.9998120614361662,-9.7038916920039
6.615208448,0.9998679962166389,-9.890882713133385
6.617495552,0.9999320709845787,-10.078896211775419
6.619782656,1.0000002353282813,-10.26795243279148
6.62206976,1.0000683737530058,-10.458146651609976
6.624356864,1.0001321949820638,-10.649405728693214
6.626643968,1.0001876795481592,-10.841691529805399
6.628931072,1.0002312837724678,-11.034808061070848
6.631217664,1.0002601340987631,-11.228558438738304
6.633504768,1.0002727453296503,-11.422758531043202
6.635791872,1.0002681097735537,-11.617150478658028
6.638078976,1.0002464654472503,-11.811468574878809
6.64036608,1.000209345495865,-12.005517635131506
6.642653184,1.0001590260561843,-12.199052145736443
6.644939776,1.0000985833507892,-12.391921428515841
6.64722688,1.000031830194617,-12.583982559410783
6.649513984,0.9999629301956414,-12.775217646924201
6.651801088,0.9998963745900834,-12.965596779267198
6.654088192,0.9998360991808202,-13.155192131709683
6.656375296,0.9997861301842706,-13.344120152591836
6.658661888,0.9997493754253105,-13.532542558261103
6.660948992,0.9997283438138375,-13.720689175804623
6.663236096,0.9997242348051587,-13.908799380794498
6.6655232,0.9997372985451152,-14.097092643343714
6.667810304,0.9997669045094226,-14.285841470397267
6.670097408,0.9998109220101674,-14.475244907175936
6.672384,0.9998668424283832,-14.665491391667796
6.674671104,0.9999310506518272,-14.856762212651278
6.676958208,0.9999994986126657,-15.049113455329527
6.679245312,1.0000678040293156,-15.242608899300638
6.681532416,1.000131915577948,-15.437188572766562
6.68381952,1.0001876001991161,-15.632761245206916
6.686106112,1.0002314481285932,-15.829209454634546
6.688393216,1.0002607883186896,-16.0262993870515
6.69068032,1.000273584155567,-16.223837750792203
6.692967424,1.0002691418531198,-16.421565010117625
6.695254528,1.0002477387172635,-16.619277590024733
6.697541632,1.0002107196486016,-16.816664957165873
6.699828224,1.0001603308040126,-17.013575081201726
6.702115328,1.000099823213249,-17.20983915287263
6.704402432,1.0000330357256608,-17.405263666901405
6.706689536,0.999963933833798,-17.599897857570554
6.70897664,0.9998970924052283,-17.793670996725755
6.711263744,0.9998366155855433,-17.986660839669373
6.713550848,0.9997861336132039,-18.178976393889325
6.71583744,0.9997490940192518,-18.370807039604607
6.718124544,0.999727735951103,-18.562340227989992
6.720411648,0.9997233793345657,-18.753832769233917
6.722698752,0.9997361692981899,-18.94553406192985
6.724985856,0.9997656057347672,-19.13766036545033
6.72727296,0.9998096319028147,-19.330475084222826
6.729559552,0.9998654782347608,-19.524148371119306
6.731846656,0.9999297727056636,-19.718820347203458
6.73413376,0.9999983030634682,-19.914595588899786
6.736420864,1.0000669625040501,-20.11151486072208
6.738707968,1.0001312956388464,-20.30953700154171
6.740995072,1.0001873901986846,-20.508572564764403
6.743281664,1.0002315529430832,-20.708446211904793
6.745568768,1.000261231739962,-20.90902926193282
6.747855872,1.000274459887772,-21.11004981994613
6.750142976,1.0002702702937805,-21.311281648510715
6.75243008,1.0002491590111968,-21.512459531148078
6.754717184,1.000212362235027,-21.713369283933297
6.757003776,1.0001620799367925,-21.913775910618444
6.75929088,1.0001015917193028,-22.113539535859474
6.761577984,1.0000346103198836,-22.312537927803454
6.763865088,0.9999653278383647,-22.510698386641156
6.766152192,0.9998982153280485,-22.707976561282386
6.768439296,0.9998372895367955,-22.904518799428992
6.770725888,0.9997865393701754,-23.100363993975826
6.773012992,0.9997490646346598,-23.295713277177622
6.775300096,0.9997271914331727,-23.490802620855355
6.7775872,0.9997224351390751,-23.685820859860883
6.779874304,0.9997349448687333,-23.881034431776563
6.782161408,0.9997640327809459,-24.076719609499268
6.784448512,0.999807852437078,-24.27305554474901
6.786735104,0.9998637459880734,-24.470246973911266
6.789022208,0.999927999745739,-24.668477169956567
6.791309312,0.9999967051314629,-24.8678050756974
6.793596416,1.0000656216573558,-25.068266278915125
6.79588352,1.0001303184823467,-25.269867489461152
6.798170624,1.0001867976794447,-25.472448505973013
6.800457216,1.0002314315197618,-25.675917035649697
6.80274432,1.000261644989223,-25.88007620906478
6.805031424,1.0002752550378042,-26.08472094025574
6.807318528,1.000271632958721,-26.28956451559774
6.809605632,1.0002508489242563,-26.49437888385079
6.811892736,1.0002143010646751,-26.698941865968944
6.814179328,1.0001641430091215,-26.903023710704936
6.816466432,1.0001037559681942,-27.106431826114477
6.818753536,1.0000366590677185,-27.309088217300832
6.82104064,0.9999671837308428,-27.510885177154503
6.823327744,0.9998997382323473,-27.711854888025286
6.825614848,0.9998384926981737,-27.912043073182627
6.82790144,0.9997872651929073,-28.11156905770498
6.830188544,0.9997491486772921,-28.31058406093291
6.832475648,0.9997267672499567,-28.50930509231769
6.834762752,0.9997214964572235,-28.70799573858337
6.837049856,0.9997336209785013,-28.90686920565922
6.83933696,0.999762318039673,-29.106173506013707
6.841623552,0.9998059363697366,-29.306178045402955
6.843910656,0.9998615325395843,-29.507036644620595
6.84619776,0.9999258179293341,-29.708908180639373
6.848484864,0.9999946324702333,-29.91189753946324
6.850771968,1.0000638261695973,-30.116022776842318
6.853059072,1.0001289051015139,-30.321291416580223
6.855345664,1.0001858353526638,-30.527584386847753
6.857632768,1.0002311229006107,-30.734760764320924
6.859919872,1.000261811047657,-30.942631173399338
6.862206976,1.0002760690481134,-31.150988142504204
6.86449408,1.0002729461371989,-31.359569269444915
6.866781184,1.0002525945797887,-31.56814393270112
6.869068288,1.0002164481140357,-31.77644985449682
6.87135488,1.00016661109267,-31.984297727345098
6.873641984,1.0001062258274713,-32.19150561554314
6.875929088,1.000039155138594,-32.39791354033711
6.878216192,0.9999695195531944,-32.60350537709928
6.880503296,0.9999016469743209,-32.80827402892501
6.8827904,0.9998399060670902,-33.0122438720021
6.885076992,0.9997881146172638,-33.21551784162223
6.887364096,0.9997495602008405,-33.4183273035707
6.8896512,0.9997265816500408,-33.62082036921639
6.891938304,0.9997205525609727,-33.82328456401321
6.894225408,0.9997320660637359,-34.025915619494754
6.896512512,0.999760306085965,-34.22898628837048
6.898799104,0.9998034453183087,-34.432746094440986
6.901086208,0.9998589371495116,-34.63736903052403
6.903373312,0.9999231097398347,-34.84299457197643
6.905660416,0.9999921371367416,-35.049743653173316
6.90794752,1.0000615684827352,-35.25764571004089
6.910234624,1.0001271228350972,-35.46666449186247
6.912521216,1.0001845658504211,-35.67674838519951
6.91480832,1.0002305105510843,-35.88772534282585
6.917095424,1.0002619241910657,-36.09940549342948
6.919382528,1.0002767754370634,-36.311591357637425
