freq,mag,phase
6.0,0.9999995883677423,147.73457504563382
6.008,0.9999996384060806,147.69005166781054
6.016,0.9999996869760808,147.6455217776406
6.024,0.9999997340914908,147.6009853690387
6.032,0.9999997797660081,147.55644243590837
6.04,0.9999998240132784,147.51189297214182
6.048,0.9999998668468977,147.4673369716203
6.056,0.9999999082804104,147.42277442821384
6.064,0.9999999483273101,147.37820533578125
6.072,0.99999998700104,147.33362968817028
6.08,0.9999999999999999,147.28904747921737
6.088,1.0,147.24445870274792
6.096,0.9999999999999999,147.1998633525761
6.104,1.0,147.15526142250496
6.112,0.9999999999999999,147.11065290632624
6.12,1.0,147.06603779782066
6.128,0.9999999999999999,147.02141609075764
6.136,1.0,146.97678777889547
6.144,1.0,146.9321528559812
6.152,1.0,146.8875113157508
6.16,1.0,146.84286315192892
6.168,0.9999999999999999,146.79820835822912
6.176,1.0,146.7535469283537
6.184,0.9999999999999999,146.70887885599373
6.192,0.9999999999999999,146.66420413482913
6.2,1.0,146.61952275852863
6.208,1.0,146.57483472074972
6.216,0.9999999999999999,146.53014001513873
6.224,1.0,146.48543863533064
6.232,1.0,146.4407305749494
6.24,1.0,146.39601582760764
6.248,1.0,146.3512943869068
6.256,1.0,146.3065662464371
6.264,1.0,146.2618313997775
6.272,1.0,146.21708984049576
6.28,0.9999999999999999,146.17234156214843
6.288,0.9999999999999999,146.12758655828085
6.296,1.0,146.08282482242709
6.304,1.0,146.03805634811002
6.312,1.0,145.99328112884123
6.32,1.0,145.9484991581211
6.328,1.0,145.90371042943886
6.336,1.0,145.85891493627233
6.344,0.9999999999999999,145.81411267208816
6.352,1.0,145.76930363034185
6.36,0.9999999999999999,145.72448780447758
6.368,1.0,145.6796651879282
6.376,1.0,145.6348357741155
6.384,1.0,145.58999955644984
6.392,1.0,145.54515652833047
6.4,1.0,145.50030668314528
6.408,1.0,145.45545001427098
6.416,1.0,145.410586515073
6.424,0.9999999999999999,145.3657161789055
6.432,1.0,145.3208389991114
6.44,1.0,145.27595496902237
6.448,1.0,145.23106408195878
6.456,0.9999999999999999,145.1861663312298
6.464,1.0,145.14126171013325
6.472,1.0,145.09635021195575
6.48,1.0,145.05143182997267
6.4879999999999995,1.0,145.00650655744803
6.496,0.9999999999999999,144.9615743876347
6.504,1.0,144.91663531377415
6.5120000000000005,1.0000000000000002,144.87168932909668
6.52,1.0,144.82673642682133
6.5280000000000005,1.0,144.7817766001557
6.536,1.0,144.73680984229637
6.5440000000000005,1.0,144.69183614642841
6.552,1.0,144.6468555057258
6.5600000000000005,1.0,144.6018679133511
6.568,1.0,144.5568733624557
6.5760000000000005,0.9999999999999999,144.51187184617964
6.584,1.0,144.46686335765173
6.592,1.0,144.42184788998946
6.6,0.9999999999999998,144.3768254362991
6.608,1.0,144.33179598967556
6.616,0.9999999999999999,144.2867595432025
6.624,0.9999999999999999,144.24171608995238
6.632,1.0,144.19666562298622
6.64,1.0,144.15160813535388
6.648,0.9999999731817697,144.10654362009393
6.656,0.9999999445412279,144.06147207023358
6.664,0.9999999153840258,144.0163934787888
6.672,0.9999998857199116,143.97130783876432
6.68,0.9999998555585865,143.92621514315348
6.688,0.9999998249097041,143.88111538493848
6.696,0.9999997937828704,143.83600855709005
6.704,0.9999997621876445,143.79089465256783
6.712,0.9999997301335389,143.74577366432004
6.72,0.9999996976300184,143.7006455852836
6.728,0.9999996646865006,143.6555104083843
6.736,0.999999631312357,143.61036812653646
6.744,0.9999995975169116,143.56521873264325
6.752,0.9999995633094413,143.52006221959647
6.76,0.9999995286991775,143.47489858027663
6.768,0.9999994936953035,143.42972780755306
6.776,0.9999994583069567,143.3845498942837
6.784,0.9999994225432283,143.3393648333152
6.792,0.9999993864131619,143.294172617483
6.8,0.9999993499257557,143.24897323961122
6.808,0.9999993130899613,143.20376669251266
6.816,0.999999275914684,143.15855296898891
6.824,0.9999992384087827,143.11333206183016
6.832,0.9999992005810702,143.06810396381545
6.84,0.9999991624403136,143.02286866771246
6.848,0.9999991239952336,142.97762616627756
6.856,0.9999990852545049,142.93237645225594
6.864,0.9999990462267572,142.8871195183814
6.872,0.9999990069205733,142.84185535737655
6.88,0.9999989673444906,142.79658396195262
6.888,0.9999989275070015,142.75130532480966
6.896,0.9999988874165519,142.7060194386364
6.904,0.9999988470815434,142.66072629611025
6.912,0.9999988065103309,142.61542588989744
6.92,0.9999987657112248,142.5701182126528
6.928,0.9999987246924897,142.52480325702
6.936,0.9999986834623459,142.4794810156314
6.944,0.9999986420289673,142.434151481108
6.952,0.9999986004004836,142.38881464605967
6.96,0.9999985585849799,142.34347050308494
6.968,0.9999985165904958,142.298119044771
6.976,0.9999984744250259,142.25276026369394
6.984,0.9999984320965206,142.20739415241843
6.992,0.9999983896128859,142.16202070349794
7.0,0.9999983469819826,142.11663990947466
7.008,0.9999983042116268,142.07125176287954
7.016,0.9999982613095918,142.02585625623226
7.024,0.9999982182836047,141.98045338204116
7.032,0.9999981751413496,141.9350431328035
7.04,0.9999981318904658,141.8896255010051
7.048,0.999998088538549,141.84420047912062
7.056,0.9999980450931508,141.79876805961345
7.064,0.9999980015617789,141.75332823493574
7.072,0.9999979579518973,141.70788099752832
7.08,0.999997914270926,141.6624263398209
7.088,0.9999978705262416,141.61696425423187
7.096,0.9999978267251777,141.57149473316832
7.104,0.9999977828750234,141.5260177690262
7.112,0.9999977389830252,141.4805333541902
7.12,0.9999976950563862,141.43504148103364
7.128,0.9999976511022665,141.38954214191884
7.136,0.9999976071277824,141.34403532919677
7.144,0.9999975631400086,141.29852103520705
7.152,0.9999975191459757,141.25299925227824
7.16,0.9999974751526719,141.20746997272764
7.168,0.9999974311670429,141.1619331888613
7.176,0.9999973871959916,141.116388892974
7.184,0.9999973432463783,141.0708370773494
7.192,0.9999972993250217,141.0252777342599
7.2,0.9999972554386968,140.97971085596672
7.208,0.9999972115941378,140.93413643471973
7.216,0.9999971677980357,140.8885544627578
7.224,0.9999971240570409,140.84296493230843
7.232,0.9999970803777601,140.79736783558806
7.24,0.99999703676676,140.7517631648018
7.248,0.9999969932305641,140.70615091214364
7.256,0.999996949775655,140.66053106979632
7.264,0.9999969064084744,140.61490362993152
7.272,0.9999968631354219,140.56926858470956
7.28,0.9999968199628555,140.52362592627966
7.288,0.9999967768970932,140.47797564677995
7.296,0.999996733944411,140.43231773833725
7.304,0.9999966911110442,140.38665219306725
7.312,0.9999966484031875,140.34097900307447
7.32,0.9999966058269949,140.2952981604523
7.328,0.9999965633885795,140.24960965728295
7.336,0.9999965210940142,140.20391348563743
7.344,0.9999964789493312,140.15820963757565
7.352,0.999996436960523,140.11249810514641
7.36,0.9999963951335415,140.06677888038723
7.368,0.9999963534742989,140.02105195532462
7.376,0.9999963119886669,139.9753173219739
7.384,0.9999962706824782,139.92957497233928
7.392,0.9999962295615251,139.88382489841376
7.4,0.9999961886315614,139.83806709217933
7.4079999999999995,0.9999961478983002,139.7923015456068
7.416,0.9999961073674166,139.74652825065587
7.4239999999999995,0.9999960670445455,139.70074719927516
7.432,0.999996026935283,139.6549583834021
7.4399999999999995,0.9999959870451867,139.60916179496317
7.448,0.999995947379775,139.56335742587353
7.4559999999999995,0.9999959079445281,139.5175452680375
7.464,0.9999958687448869,139.47172531334817
7.4719999999999995,0.999995829786255,139.42589755368758
7.48,0.9999957910739968,139.38006198092665
7.4879999999999995,0.9999957526134389,139.3342185869253
7.496,0.9999957144098697,139.2883673635323
7.504,0.9999956764685407,139.24250830258546
7.5120000000000005,0.9999956387946641,139.19664139591148
7.52,0.9999956013934161,139.15076663532605
7.5280000000000005,0.9999955642699344,139.10488401263373
7.536,0.9999955274293197,139.05899351962816
7.5440000000000005,0.9999954908766359,139.0130951480918
7.552,0.9999954546169093,138.96718888979623
7.5600000000000005,0.99999541865513,138.92127473650194
7.568,0.9999953829962509,138.8753526799584
7.5760000000000005,0.9999953476451879,138.82942271190413
7.584,0.9999953126068222,138.78348482406656
7.5920000000000005,0.9999952778859967,138.73753900816217
7.6,0.9999952434875196,138.69158525589648
7.6080000000000005,0.9999952094161625,138.64562355896405
7.616,0.9999951756766613,138.59965390904827
7.6240000000000006,0.9999951422737161,138.55367629782182
7.632,0.999995109211992,138.50769071694629
7.640000000000001,0.9999950764961186,138.4616971580723
7.648,0.9999950441306901,138.41569561283956
7.656000000000001,0.9999950121202658,138.36968607287682
7.664,0.9999949804693704,138.32366852980192
7.672,0.9999949491824938,138.2776429752217
7.68,0.9999949182640911,138.23160940073222
7.688,0.9999948877185835,138.18556779791854
7.696,0.9999948575503582,138.13951815835478
7.704,0.9999948277637679,138.09346047360418
7.712,0.999994798363132,138.0473947352192
7.72,0.9999947693527353,138.00132093474124
7.728,0.9999947407368308,137.95523906370104
7.736,0.9999947125196368,137.90914911361827
7.744,0.9999946847053391,137.8630510760018
7.752,0.9999946572980908,137.81694494234978
7.76,0.9999946303020122,137.7708307041494
7.768,0.9999946037211906,137.724708352877
7.776,0.9999945775596815,137.67857787999813
7.784,0.9999945518215083,137.63243927696763
7.792,0.999994526510662,137.58629253522932
7.8,0.9999945016311025,137.54013764621644
7.808,0.9999944771867577,137.49397460135134
7.816,0.9999944531815245,137.44780339204556
7.824,0.9999944296192681,137.40162400969996
7.832,0.9999944065038234,137.35543644570458
7.84,0.9999943838389947,137.30924069143873
7.848,0.9999943616285554,137.26303673827096
7.856,0.9999943398762488,137.21682457755915
7.864,0.9999943185857877,137.17060420065036
7.872,0.9999942977608557,137.12437559888107
7.88,0.9999942774051066,137.07813876357702
7.888,0.9999942575221646,137.03189368605317
7.896,0.9999942381156252,136.9856403576139
7.904,0.9999942191890544,136.93937876955292
7.912,0.99999420074599,136.8931089131532
7.92,0.9999941827899407,136.8468307796872
7.928,0.9999941653243879,136.8005443604166
7.936,0.9999941483527843,136.75424964659263
7.944,0.9999941318785551,136.7079466294557
7.952,0.9999941159050981,136.66163530023582
7.96,0.9999941004357836,136.61531565015227
7.968,0.9999940854739554,136.56898767041386
7.976,0.99999407102293,136.52265135221876
7.984,0.9999940570859979,136.47630668675458
7.992,0.999994043666423,136.4299536651985
8.0,0.9999940307674439,136.38359227871706
8.008,0.9999940183922728,136.33722251846635
8.016,0.9999940065440971,136.29084437559192
8.024000000000001,0.9999939952260788,136.24445784122886
8.032,0.9999939844413553,136.19806290650178
8.04,0.9999939741930393,136.15165956252486
8.048,0.9999939644842193,136.1052478004017
8.056000000000001,0.9999939553179598,136.0588276112257
8.064,0.9999939466973016,136.01239898607957
8.072,0.9999939386252625,135.9659619160359
8.08,0.9999939311048369,135.91951639215662
8.088000000000001,0.9999939241389969,135.8730624054935
8.096,0.9999939177306911,135.82659994708774
8.104,0.9999939118828477,135.78012900797043
8.112,0.9999939065983721,135.7336495791621
8.120000000000001,0.9999939018801475,135.6871616516731
8.128,0.999993897731038,135.6406652165035
8.136,0.9999938941538851,135.59416026464297
8.144,0.9999938911515109,135.54764678707093
8.152000000000001,0.9999938887267169,135.5011247747567
8.16,0.9999938868822853,135.45459421865917
8.168,0.9999938856209784,135.40805510972706
8.176,0.9999938849455403,135.361507438899
8.184000000000001,0.9999938848586952,135.31495119710326
8.192,0.9999938853631503,135.26838637525807
8.2,0.9999938864615948,135.22181296427146
8.208,0.9999938881566993,135.1752309550413
8.216000000000001,0.9999938904511182,135.12864033845537
8.224,0.9999938933474891,135.08204110539137
8.232,0.9999938968484334,135.03543324671685
8.24,0.9999939009565563,134.98881675328937
8.248000000000001,0.9999939056744475,134.94219161595638
8.256,0.9999939110046817,134.8955578255554
8.264,0.9999939169498192,134.8489153729138
8.272,0.999993923512406,134.80226424884913
8.280000000000001,0.9999939306949743,134.75560444416882
8.288,0.9999939385000434,134.70893594967046
8.296,0.9999939469301189,134.66225875614168
8.304,0.9999939559876945,134.61557285436012
8.312,0.9999939656752523,134.5688782350937
8.32,0.9999939759952629,134.52217488910034
8.328,0.9999939869501849,134.47546280712817
8.336,0.999993998542469,134.42874197991546
8.344,0.9999940107745526,134.38201239819074
8.352,0.9999940236488665,134.33527405267273
8.36,0.9999940371678312,134.28852693407038
8.368,0.9999940513338591,134.24177103308293
8.376,0.999994066149355,134.1950063403999
8.384,0.9999940816167164,134.1482328467011
8.392,0.9999940977383338,134.10145054265672
8.4,0.999994114516592,134.05465941892732
8.408,0.9999941319538697,134.00785946616372
8.416,0.999994150052541,133.96105067500736
8.424,0.9999941688149759,133.91423303608994
8.432,0.9999941882435399,133.86740654003367
8.44,0.9999942083405957,133.8205711774513
8.448,0.9999942291085041,133.77372693894603
8.456,0.9999942505496227,133.72687381511162
8.464,0.9999942726663094,133.68001179653237
8.472,0.9999942954609204,133.63314087378316
8.48,0.9999943189358128,133.58626103742958
8.488,0.999994343093344,133.53937227802783
8.496,0.9999943679358734,133.49247458612464
8.504,0.9999943934657624,133.44556795225768
8.512,0.999994419685375,133.3986523669552
8.52,0.9999944465970797,133.35172782073622
8.528,0.999994474203249,133.30479430411057
8.536,0.9999945025062611,133.25785180757896
8.544,0.9999945315084998,133.21090032163283
8.552,0.9999945612123559,133.16393983675462
8.56,0.999994591620228,133.11697034341756
8.568,0.9999946227345229,133.069991832086
8.576,0.9999946545576573,133.02300429321508
8.584,0.9999946870920581,132.97600771725104
8.592,0.9999947203401627,132.92900209463116
8.6,0.9999947543044211,132.8819874157838
8.608,0.9999947889872965,132.8349636711284
8.616,0.999994824391265,132.78793085107557
8.624,0.9999948605188183,132.74088894602704
8.632,0.9999948973724643,132.69383794637588
8.64,0.9999949349547267,132.64677784250625
8.648,0.999994973268148,132.59970862479375
8.656,0.9999950123152892,132.5526302836051
8.664,0.9999950520987311,132.50554280929865
8.672,0.999995092621076,132.4584461922239
8.68,0.9999951338849481,132.41134042272193
8.688,0.9999951758929947,132.3642254911252
8.696,0.9999952186478882,132.31710138775782
8.704,0.9999952621523259,132.26996810293522
8.712,0.9999953064090324,132.22282562696466
8.72,0.99999535142076,132.17567395014493
8.728,0.9999953971902906,132.12851306276644
8.736,0.9999954437204371,132.0813429551114
8.744,0.9999954910140434,132.03416361745377
8.752,0.9999955390739875,131.9869750400593
8.76,0.9999955879031812,131.9397772131855
8.768,0.9999956375045734,131.89257012708194
8.776,0.9999956878811496,131.84535377198995
8.784,0.9999957390359347,131.79812813814294
8.792,0.9999957909719939,131.75089321576635
8.8,0.9999958436924341,131.7036489950776
8.808,0.9999958972004067,131.65639546628634
8.815999999999999,0.9999959514991066,131.6091326195943
8.824,0.9999960065917771,131.56186044519546
8.832,0.9999960624817091,131.51457893327606
8.84,0.9999961191722442,131.46728807401468
8.847999999999999,0.9999961766667751,131.41998785758219
8.856,0.9999962349687488,131.37267827414192
8.864,0.9999962940816682,131.32535931384967
8.872,0.9999963540090929,131.27803096685375
8.879999999999999,0.9999964147546422,131.23069322329505
8.888,0.999996476321997,131.18334607330698
8.896,0.9999965387149009,131.13598950701584
8.904,0.9999966019371637,131.08862351454044
8.911999999999999,0.9999966659926623,131.04124808599255
8.92,0.9999967308853438,130.99386321147662
8.928,0.9999967966192262,130.9464688810902
8.936,0.9999968631984026,130.89906508492356
8.943999999999999,0.9999969306270422,130.8516518130602
8.952,0.9999969989093942,130.80422905557654
8.96,0.9999970680497876,130.75679680254225
8.968,0.9999971380526361,130.70935504402013
8.975999999999999,0.99999720892244,130.6619037700662
8.984,0.9999972806637883,130.61444297072998
8.992,0.999997353281362,130.56697263605406
9.0,0.9999974267799365,130.51949275607475
9.008,0.999997501164385,130.47200332082178
9.016,0.9999975764396806,130.42450432031842
9.024000000000001,0.9999976526109002,130.37699574458154
9.032,0.9999977296832263,130.32947758362187
9.04,0.9999978076619516,130.28194982744367
9.048,0.9999978865524813,130.23441246604526
9.056000000000001,0.9999979663603371,130.18686548941878
9.064,0.9999980470911589,130.13930888755027
9.072,0.9999981287507108,130.09174265041995
9.08,0.999998211344883,130.04416676800201
9.088000000000001,0.9999982948796958,129.99658123026492
9.096,0.9999983793613033,129.9489860271714
9.104,0.9999984647959981,129.9013811486784
9.112,0.9999985511902136,129.85376658473743
9.120000000000001,0.9999986385505301,129.80614232529427
9.128,0.9999987268836771,129.7585083602894
9.136,0.9999988161965392,129.71086467965785
9.144,0.999998906496159,129.66321127332932
9.152000000000001,0.9999989977897435,129.61554813122837
9.16,0.9999990900846669,129.56787524327433
9.168,0.9999991833884765,129.5201925993814
9.176,0.9999992777088973,129.47250018945886
9.184000000000001,0.9999993730538373,129.424798003411
9.192,0.9999994694313926,129.3770860311373
9.2,0.9999995668498521,129.3293642625325
9.208,0.9999996653177043,129.28163268748648
9.216000000000001,0.9999997648436422,129.23389129588466
9.224,0.9999998654365689,129.18614007760783
9.232,0.9999999671056041,129.13837902253232
9.24,1.0,129.0906081205301
9.248000000000001,0.9999999999999999,129.04282736146882
9.256,1.0,128.99503673521184
9.264,0.9999999999999999,128.9472362316184
9.272,0.9999999999999999,128.89942584054367
9.280000000000001,0.9999999999999999,128.85160555183873
9.288,1.0,128.8037753553509
9.296,0.9999999999999999,128.75593524092344
9.304,1.0,128.70808519839593
9.312000000000001,1.0,128.66022521760416
9.32,1.0,128.61235528838043
9.328,0.9999999999999999,128.56447540055333
9.336,1.0,128.51658554394797
9.344,0.9999999999999999,128.46868570838612
9.352,1.0,128.42077588368602
9.36,1.0,128.37285605966275
9.368,1.0,128.32492622612807
9.376,1.0,128.27698637289063
9.384,0.9999999999999999,128.2290364897559
9.392,1.0,128.1810765665263
9.4,0.9999999999999999,128.13310659300114
9.408,0.9999999999999999,128.085126558977
9.416,1.0,128.0371364542473
9.424,0.9999999999999999,127.98913626860268
9.432,1.0,127.94112599183092
9.44,0.9999999999999999,127.893105613717
9.448,1.0,127.84507512404313
9.456,0.9999999999999999,127.7970345125887
9.464,0.9999999999999999,127.7489837691304
9.472,0.9999999999999999,127.70092288344222
9.48,1.0,127.65285184529533
9.488,1.0,127.60477064445824
9.496,1.0,127.55667927069668
9.504,0.9999999999999999,127.50857771377368
9.512,1.0,127.46046596344937
9.52,1.0,127.41234400948115
9.528,1.0,127.36421184162351
9.536,0.9999999999999999,127.31606944962805
9.544,1.0,127.26791682324323
9.552,0.9999999999999999,127.21975395221463
9.56,1.0,127.17158082628445
9.568,0.9999999999999999,127.12339743519176
9.576,1.0,127.07520376867213
9.584,1.0,127.02699981645758
9.592,1.0,126.9787855682764
9.6,1.0,126.93056101385304
9.608,1.0,126.88232614290777
9.616,0.9999999999999999,126.83408094515666
9.624,1.0,126.78582541031108
9.632,1.0,126.7375595280777
9.64,1.0,126.689283288158
9.648,1.0,126.64099668024804
9.656,1.0,126.59269969403807
9.664,0.9999999999999998,126.54439231921225
9.672,1.0,126.49607454544805
9.68,0.9999999999999999,126.44774636241593
9.688,0.9999999999999999,126.39940775977881
9.696,0.9999999999999999,126.3510587271916
9.704,1.0,126.30269925430048
9.712,1.0,126.25432933074242
9.72,1.0,126.20594894614446
9.728,0.9999999999999999,126.15755809012293
9.736,1.0,126.10915675228274
9.744,1.0,126.06074492221654
9.752,1.0,126.01232258950373
9.76,0.9999999999999999,125.96388974370957
9.768,1.0,125.91544637438408
9.776,1.0,125.86699247106095
9.784,1.0,125.8185280232563
9.792,0.9999999999999999,125.77005302046743
9.8,0.9999999999999999,125.72156745217127
9.808,1.0,125.67307130782316
9.816,1.0,125.62456457685494
9.824,0.9999999999999999,125.57604724867358
9.832,1.0,125.5275193126589
9.84,1.0,125.4789807581621
