freq,mag,phase
6.0,0.9999993204615643,147.52795522688598
6.008,0.9999988509598027,147.10040802205623
6.016,0.9999983879789598,146.67218025098703
6.024,0.9999979314471653,146.24326497799223
6.032,0.999997481293194,145.81365524276487
6.04,0.9999970374464627,145.38334406061534
6.048,0.9999965998370328,144.952324422718
6.056,0.9999961683956106,144.52058929636578
6.064,0.9999957430535449,144.0881316252331
6.072,0.9999953237428318,143.65494432964803
6.08,0.9999949103961101,143.22102030687245
6.088,0.9999945029466647,142.78635243139198
6.096,0.9999941013284256,142.35093355521488
6.104,0.9999937054759691,141.91475650818043
6.112,0.9999933153245152,141.47781409827724
6.12,0.9999929308099299,141.0400991119711
6.128,0.9999925518687256,140.60160431454366
6.136,0.9999921784380604,140.16232245044063
6.144,0.9999918104557372,139.72224624363156
6.152,0.9999914478602058,139.2813683979798
6.16,0.9999910905905603,138.83968159762378
6.168,0.9999907385865422,138.39717850736977
6.176,0.9999903917885368,137.95385177309615
6.184,0.9999900501375762,137.5096940221694
6.192,0.9999897135753371,137.0646978638725
6.2,0.9999893820441433,136.61885588984532
6.208,0.999989055486961,136.17216067453774
6.216,0.9999887338474052,135.72460477567603
6.224,0.9999884170697324,135.2761807347417
6.232,0.9999881050988453,134.82688107746415
6.24,0.9999877978802926,134.37669831432706
6.248,0.9999874953602644,133.9256249410884
6.256,0.9999871974855975,133.47365343931486
6.264,0.9999869042037717,133.02077627693092
6.272,0.9999866154629101,132.56698590878213
6.28,0.9999863312117795,132.1122747772143
6.288,0.9999860513997905,131.65663531266708
6.296,0.9999857759769945,131.20005993428381
6.304,0.999985504894087,130.7425410505372
6.312,0.9999852381024055,130.2840710598707
6.32,0.9999849755539283,129.8246423513572
6.328,0.9999847172012757,129.36424730537368
6.336,0.9999844629977068,128.90287829429352
6.344,0.9999842128971239,128.44052768319585
6.352,0.9999839668540677,127.97718783059277
6.36,0.9999837248237213,127.51285108917446
6.368,0.9999834867618996,127.04750980657236
6.376,0.9999832526250632,126.58115632614157
6.384,0.9999830223703059,126.11378298776127
6.392,0.9999827959553609,125.64538212865511
6.4,0.9999825733385975,125.1759460842305
6.408,0.9999823544790222,124.70546718893804
6.416,0.9999821393362734,124.23393777715106
6.424,0.9999819278706262,123.76135018406522
6.432,0.999981720042991,123.28769674661955
6.44,0.9999815158149079,122.81296980443753
6.448,0.9999813151485516,122.33716170079039
6.456,0.9999811180067272,121.86026478358174
6.464,0.9999809243528719,121.38227140635391
6.472,0.9999807341510492,120.90317392931672
6.48,0.9999805473659544,120.42296472039921
6.4879999999999995,0.9999803639629095,119.94163615632347
6.496,0.9999801839078635,119.45918062370195
6.504,0.9999800071673892,118.97559052015895
6.5120000000000005,0.9999798337086858,118.49085825547418
6.52,0.9999796634995761,118.0049762527525
6.5280000000000005,0.9999794965085017,117.51793694961569
6.536,0.9999793327045294,117.02973279942134
6.5440000000000005,0.9999791720573421,116.54035627250406
6.552,0.9999790145372427,116.04979985744424
6.5600000000000005,0.9999788601151498,115.55805606236028
6.568,0.9999787087625981,115.0651174162283
6.5760000000000005,0.9999785604517352,114.57097647022614
6.584,0.999978415155321,114.07562579910538
6.592,0.9999782728467262,113.5790580025881
6.6,0.9999781334999297,113.08126570679198
6.608,0.9999779970895164,112.58224156568127
6.616,0.9999778635906786,112.08197826254565
6.624,0.9999777329792093,111.58046851150624
6.632,0.9999776052315037,111.07770505904945
6.64,0.9999774803245559,110.57368068558857
6.648,0.9999773582359563,110.0683882070537
6.656,0.9999772389438906,109.56182047650974
6.664,0.9999771224271357,109.05397038580298
6.672,0.9999770086650588,108.54483086723641
6.68,0.9999768976376141,108.03439489527364
6.688,0.99997678932534,107.52265548827192
6.696,0.999976683709358,107.00960571024436
6.704,0.9999765807713674,106.49523867265117
6.712,0.9999764804936436,105.9795475362204
6.72,0.9999763828590367,105.4625255127981
6.728,0.9999762878509645,104.94416586722797
6.736,0.9999761954534133,104.42446191926065
6.744,0.9999761056509321,103.90340704549271
6.752,0.99997601842863,103.3809946813353
6.76,0.9999759337721724,102.85721832301243
6.768,0.9999758516677769,102.33207152958926
6.776,0.9999757721022102,101.80554792502974
6.784,0.9999756950627843,101.27764120028432
6.792,0.999975620537351,100.74834511540696
6.8,0.9999755485142987,100.21765350170189
6.808,0.9999754789825485,99.68556026389992
6.816,0.9999754119315483,99.15205938236384
6.824,0.9999753473512695,98.61714491532337
6.832,0.9999752852322008,98.08081100113888
6.84,0.9999752255653448,97.54305186059435
6.848,0.9999751683422116,97.00386179921858
6.856,0.9999751135548135,96.46323520963529
6.864,0.9999750611956614,95.92116657394105
6.872,0.9999750112577561,95.3776504661114
6.88,0.9999749637345854,94.83268155443443
6.888,0.999974918620116,94.28625460397157
6.896,0.9999748759087895,93.73836447904549
6.904,0.9999748355955144,93.18900614575418
6.912,0.9999747976756587,92.6381746745115
6.92,0.9999747621450471,92.08586524261288
6.928,0.9999747289999498,91.5320731368266
6.936,0.9999746982370783,90.97679375600924
6.944,0.9999746698535762,90.4200226137455
6.952,0.9999746438470138,89.86175534101127
6.96,0.9999746202153788,89.30198768885964
6.968,0.9999745989570682,88.74071553112894
6.976,0.9999745800708834,88.17793486717241
6.984,0.9999745635560162,87.61364182460838
6.992,0.9999745494120472,87.04783266209067
7.0,0.9999745376389305,86.48050377209789
7.008,0.9999745282369905,85.91165168374118
7.016,0.9999745212069088,85.34127306558936
7.024,0.9999745165497168,84.76936472851044
7.032,0.9999745142667849,84.19592362852882
7.04,0.9999745143598145,83.6209468696968
7.048,0.999974516830826,83.04443170697975
7.056,0.999974521682151,82.46637554915343
7.064,0.9999745289164184,81.8867759617127
7.072,0.9999745385365475,81.30563066979012
7.08,0.9999745505457345,80.72293756108358
7.088,0.9999745649474421,80.13869468879129
7.096,0.9999745817453888,79.55290027455304
7.104,0.999974600943536,78.96555271139651
7.112,0.9999746225460777,78.37665056668689
7.12,0.9999746465574273,77.78619258507871
7.128,0.9999746729822062,77.19417769146804
7.136,0.9999747018252305,76.600604993944
7.144,0.999974733091498,76.00547378673744
7.152,0.9999747667861775,75.40878355316569
7.16,0.9999748029145928,74.8105339685713
7.168,0.9999748414822107,74.21072490325344
7.176,0.999974882494627,73.60935642538976
7.184,0.9999749259575546,73.0064288039475
7.192,0.9999749718768046,72.40194251158123
7.2,0.9999750202582779,71.7958982275162
7.208,0.9999750711079484,71.18829684041481
7.216,0.9999751244318449,70.57913945122418
7.224,0.9999751802360419,69.96842737600323
7.232,0.9999752385266413,69.35616214872707
7.24,0.9999752993097584,68.74234552406621
7.248,0.9999753625915047,68.12697948013907
7.256,0.9999754283779749,67.51006622123529
7.264,0.999975496675228,66.89160818050756
7.272,0.999975567489275,66.27160802263013
7.28,0.9999756408260582,65.65006864642103
7.288,0.999975716691441,65.02699318742675
7.296,0.9999757950911853,64.40238502046577
7.304,0.9999758760309384,63.776247762129636
7.312,0.9999759595162154,63.1485852732388
7.32,0.9999760455523848,62.519401661250434
7.328,0.9999761341446454,61.88870128261649
7.336,0.9999762252980162,61.256488745089065
7.344,0.9999763190173155,60.62276890997048
7.352,0.9999764153071438,59.98754689430613
7.36,0.9999765141718677,59.35082807301693
7.368,0.9999766156156024,58.712618080969335
7.376,0.9999767196421936,58.07292281497994
7.384,0.9999768262551987,57.43174843575249
7.392,0.999976935457875,56.78910136974454
7.4,0.9999770472531536,56.144988310961196
7.4079999999999995,0.9999771616436303,55.49941622267341
7.416,0.9999772786315416,54.85239233905805
7.4239999999999995,0.9999773982187508,54.20392416675808
7.432,0.9999775204067312,53.554019486358165
7.4399999999999995,0.9999776451965449,52.90268635377658
7.448,0.9999777725888287,52.24993310156656
7.4559999999999995,0.999977902583777,51.595768340129325
7.464,0.9999780351811222,50.94020095883135
7.4719999999999995,0.9999781703801199,50.283240127028435
7.48,0.9999783081795316,49.62489529498913
7.4879999999999995,0.9999784485776063,48.96517619471991
7.496,0.9999785915720664,48.30409284068518
7.504,0.9999787371600896,47.64165553042405
7.5120000000000005,0.9999788853382928,46.977874845057435
7.52,0.999979036102717,46.3127616496874
7.5280000000000005,0.9999791894488106,45.646327093682096
7.536,0.9999793453714144,44.97858261084892
7.5440000000000005,0.999979503864745,44.309539919488884
7.552,0.9999796649223828,43.63921102233488
7.5600000000000005,0.9999798285372534,42.96760820636743
7.568,0.9999799947016159,42.29474404251018
7.5760000000000005,0.9999801634070487,41.62063138519941
7.584,0.9999803346444333,40.94528337182942
7.5920000000000005,0.9999805084039441,40.26871342206847
7.6,0.9999806846750352,39.59093523704773
7.6080000000000005,0.9999808634464231,38.91196279841707
7.616,0.9999810447060816,38.2318103672714
7.6240000000000006,0.9999812284412243,37.5504924829408
7.632,0.9999814146382967,36.86802396164874
7.640000000000001,0.9999816032829641,36.18441989503179
7.648,0.9999817943601012,35.49969564852506
7.656000000000001,0.999981987853783,34.81386685960731
7.664,0.9999821837472734,34.12694943591002
7.672,0.9999823820230206,33.43895955318474
7.68,0.9999825826626444,32.74991365313253
7.688,0.9999827856469305,32.05982844109193
7.696,0.9999829909558242,31.368720883586427
7.704,0.9999831985684231,30.676608205731434
7.712,0.9999834084629698,29.98350788849961
7.72,0.9999836206168499,29.289437665845846
7.728,0.9999838350065829,28.59441552169089
7.736,0.9999840516078241,27.898459686764966
7.744,0.9999842703953553,27.201588635310888
7.752,0.9999844913430855,26.503821081647995
7.76,0.9999847144240486,25.805175976597067
7.768,0.9999849396104016,25.105672503767494
7.776,0.999985166873423,24.405330075707273
7.784,0.9999853961835157,23.704168329917415
7.792,0.9999856275102045,23.002207124731537
7.8,0.99998586082214,22.29946653506259
7.808,0.9999860960870997,21.595966848017717
7.816,0.9999863332719912,20.89172855838341
7.824,0.9999865723428559,20.186772363982513
7.832,0.9999868132648737,19.481119160905187
7.84,0.9999870560023681,18.774790038615897
7.848,0.9999873005188117,18.067806274938622
7.856,0.9999875467768329,17.360189330922882
7.864,0.9999877947382239,16.651960845592892
7.872,0.9999880443639478,15.943142630582596
7.88,0.9999882956141491,15.233756664659412
7.888,0.9999885484481615,14.523825088139589
7.896,0.9999888028245187,13.81337019719818
7.904,0.9999890587009663,13.10241443807688
7.912,0.9999893160344727,12.390980401193053
7.92,0.9999895747812413,11.679090815153241
7.928,0.9999898348967253,10.96676854067483
7.936,0.9999900963356395,10.254036564419456
7.944,0.9999903590519759,9.540917992741885
7.952,0.9999906229990184,8.827436045358334
7.96,0.9999908881293601,8.113614048937993
7.968,0.9999911543949178,7.399475430622059
7.976,0.99999142174695,6.685043711474189
7.984,0.999991690136075,5.970342499866787
7.992,0.999991959512289,5.255395484807281
8.0,0.9999922298249848,4.54022642920892
8.008,0.999992501022972,3.824859163110512
8.016,0.9999927730544959,3.1093175768491514
8.024000000000001,0.9999930458672592,2.3936256141920302
8.032,0.9999933194084428,1.6778072654298306
8.04,0.9999935936247274,0.9618865604374812
8.048,0.9999938684623151,0.2458875617076402
8.056000000000001,0.9999941438669526,-0.47016564263905436
8.064,0.999994419783954,-1.1862489458627221
8.072,0.9999946961582244,-1.902338229626603
8.08,0.9999949729342825,-2.6184093710275236
8.088000000000001,0.9999952500562866,-3.3344382496302805
8.096,0.999995527468057,-4.050400754501751
8.104,0.9999958051131033,-4.766272791239178
8.112,0.9999960829346461,-5.48203028898729
8.120000000000001,0.999996360875646,-6.197649207439894
8.128,0.999996638878826,-6.9131055438219535
8.136,0.9999969168866997,-7.628375339846603
8.144,0.9999971948415951,-8.343434688641771
8.152000000000001,0.9999974726856826,-9.058259741642376
8.16,0.9999977503610009,-9.772826715443983
8.168,0.999998027809482,-10.487111898612776
8.176,0.9999983049729785,-11.201091658446552
8.184000000000001,0.9999985817932909,-11.914742447683015
8.192,0.9999988582121934,-12.628040811151356
8.2,0.9999991341714596,-13.34096339236242
8.208,0.9999994096128899,-14.053486940032288
8.216000000000001,0.9999996844783392,-14.76558831453587
8.224,0.99999995870974,-15.477244494287001
8.232,0.9999999999999999,-16.188432582040356
8.24,0.9999999999999999,-16.899129811110697
8.248000000000001,1.0,-17.6093135515062
8.256,0.9999999999999998,-18.318961315972835
8.264,1.0,-19.028050765945615
8.272,1.0,-19.736559717402404
8.280000000000001,1.0,-20.4444661466179
8.288,1.0,-21.151748195814655
8.296,1.0,-21.858384178707976
8.304,0.9999999999999999,-22.564352585940618
8.312,1.0,-23.269632090405064
8.32,0.9999999999999998,-23.97420155245235
8.328,1.0,-24.67804002498095
8.336,1.0,-25.381126758408005
8.344,1.0,-26.083441205515665
8.352,1.0,-26.78496302617529
8.36,1.0,-27.485672091942448
8.368,1.0,-28.18554849052588
8.376,0.9999999999999999,-28.884572530123517
8.384,1.0,-29.582724743629
8.392,1.0,-30.27998589270231
8.4,1.0,-30.976336971708
8.408,0.9999999999999999,-31.671759211514708
8.416,0.9999999999999999,-32.366234083160386
8.424,1.0,-33.05974330137671
8.432,0.9999999999999999,-33.752268827977396
8.44,1.0,-34.443792875104215
8.448,1.0,-35.13429790833602
8.456,1.0,-35.82376664965436
8.464,1.0,-36.512182080271515
8.472,1.0,-37.19952744331494
8.48,1.0,-37.88578624637379
8.488,1.0,-38.570942263902275
8.496,1.0,-39.254979539485305
8.504,0.9999999999999999,-39.93788238796185
8.512,1.0,-40.61963539741138
8.52,0.9999999999999999,-41.30022343099922
8.528,1.0,-41.979631628686285
8.536,1.0,-42.657845408799574
8.544,1.0,-43.334850469468634
8.552,1.0,-44.010632789925005
8.56,1.0,-44.68517863166987
8.568,1.0,-45.358474539506965
8.576,1.0,-46.030507342446704
8.584,1.0,-46.70126415447809
8.592,1.0,-47.37073237521502
8.6,0.9999999999999999,-48.03889969041359
8.608,1.0,-48.70575407236703
8.616,1.0,-49.371283780175276
8.624,1.0,-50.03547735989582
8.632,0.9999999999999999,-50.69832364457299
8.64,1.0,-51.35981175415248
8.648,1.0,-52.01993109527841
8.656,0.9999999999999999,-52.678671360979706
8.664,0.9999999999999999,-53.336022530243476
8.672,1.0,-53.99197486748212
8.68,1.0,-54.64651892189189
8.688,1.0,-55.29964552670969
8.696,1.0,-55.9513457983662
8.704,1.0,-56.601611135541965
8.712,1.0,-57.25043321812453
8.72,1.0,-57.897804006073564
8.728,1.0,-58.54371573819187
8.736,1.0,-59.18816093080949
8.744,0.9999999999999999,-59.83113237637861
8.752,1.0,-60.47262314198676
8.76,1.0,-61.11262656778582
8.768,0.9999999999999999,-61.751136265344414
8.776,1.0,-62.388146115921444
8.784,1.0,-63.02365026866789
8.792,1.0,-63.65764313875506
8.8,0.9999999999999999,-64.29011940543617
8.808,0.9999999999999999,-64.92107401003966
8.815999999999999,0.9999999999999999,-65.5505021539007
8.824,1.0,-66.17839929623024
8.832,1.0,-66.80476115192572
8.84,0.9999999999999999,-67.42958368932611
8.847999999999999,1.0,-68.0528631279134
8.856,1.0,-68.6745959359626
8.864,0.9999999999999999,-69.29477882814288
8.872,1.0,-69.91340876307324
8.879999999999999,1.0,-70.53048294083433
8.888,1.0,-71.14599880043836
8.896,1.0,-71.75995401725991
8.904,1.0,-72.37234650043068
8.911999999999999,1.0,-72.98317439019968
8.92,0.9999999999999999,-73.59243605526085
8.928,1.0,-74.20013009005066
8.936,1.0,-74.80625531201858
8.943999999999999,1.0,-75.4108107588718
8.952,0.9999999999999999,-76.0137956857962
8.96,0.9999999999999999,-76.61520956265565
8.968,0.9999999999999999,-77.21505207117256
8.975999999999999,1.0,-77.81332310209126
8.984,0.9999999999999999,-78.41002275232499
8.992,1.0,-79.00515132208992
9.0,1.0,-79.59870931202754
9.008,0.9999999999999999,-80.19069742031763
9.016,0.9999999999999999,-80.78111653978252
9.024000000000001,1.0,-81.36996775498491
9.032,1.0,-81.95725233932191
9.04,1.0000000000000002,-82.54297175211586
9.048,1.0,-83.12712763570352
9.056000000000001,1.0,-83.70972181252516
9.064,1.0,-84.29075628221632
9.072,0.9999999999999999,-84.87023321870234
9.08,1.0,-85.4481549672973
9.088000000000001,1.0,-86.02452404180887
9.096,0.9999999999999999,-86.59934312165099
9.104,0.9999999999999999,-87.17261504896527
9.112,0.9999999999999999,-87.74434282575164
9.120000000000001,0.9999999999999999,-88.31452961101031
9.128,1.0,-88.88317871789636
9.136,0.9999999999999998,-89.45029361088761
9.144,1.0,-90.01587790296674
9.152000000000001,1.0,-90.5799353528187
9.16,0.9999999999999999,-91.14246986204512
9.168,0.9999999999999999,-91.70348547239637
9.176,0.9999999999999999,-92.2629863630211
9.184000000000001,0.9999999999999999,-92.82097684773555
9.192,1.0,-93.37746137231302
9.2,0.9999999999999999,-93.93244451179434
9.208,1.0,-94.48593096781953
9.216000000000001,0.9999999999999999,-95.03792556598187
9.224,1.0,-95.5884332532053
9.232,1.0,-96.1374590951458
9.24,1.0,-96.68500827361632
9.248000000000001,1.0,-97.2310860840368
9.256,1.0,-97.77569793291005
9.264,0.9999999999999998,-98.3188493353236
9.272,1.0,-98.86054591247743
9.280000000000001,0.9999999999999999,-99.40079338923873
9.288,1.0,-99.93959759172434
9.296,1.0,-100.47696444491086
9.304,1.0,-101.01289997027253
9.312000000000001,1.0,-101.54741028344726
9.32,1.0,-102.08050159193198
9.328,1.0,-102.61218019280693
9.336,0.9999999999999999,-103.14245247048866
9.344,0.9999999999999999,-103.67132489451242
9.352,1.0,-104.19880401734537
9.36,1.0,-104.72489647222775
9.368,1.0,-105.24960897104611
9.376,1.0,-105.77294830223448
9.384,0.9999999999999998,-106.29492132870797
9.392,0.9999999999999999,-106.81553498582454
9.4,1.0000000000000002,-107.33479627937909
9.408,1.0,-107.8527122836262
9.416,1.0,-108.36929013933499
9.424,1.0,-108.88453705187284
9.432,1.0,-109.39846028932105
9.44,1.0,-109.9110671806195
9.448,1.0,-110.42236511374318
9.456,1.0,-110.93236153390745
9.464,1.0,-111.44106394180523
9.472,1.0,-111.94847989187251
9.48,1.0,-112.45461699058608
9.488,0.9999999999999999,-112.9594828947889
9.496,1.0,-113.46308531004752
9.504,0.9999999999999999,-113.96543198903703
9.512,1.0,-114.46653072995778
9.52,1.0,-114.96638937497923
9.528,1.0,-115.46501580871511
9.536,0.9999999999999998,-115.96241795672563
9.544,1.0,-116.45860378405047
9.552,0.9999999999999999,-116.95358129376844
9.56,1.0,-117.4473585255874
9.568,0.9999999999999999,-117.93994355446077
9.576,1.0,-118.43134448923351
9.584,1.0,-118.92156947131427
9.592,0.9999999999999999,-119.41062667337674
9.6,1.0,-119.89852429808649
9.608,1.0,-120.38527057685671
9.616,1.0,-120.8708737686287
9.624,1.0,-121.35534215868086
9.632,1.0,-121.83868405746195
9.64,0.9999999999999999,-122.32090779945214
9.648,1.0000000000000002,-122.80202174204811
9.656,0.9999999999999999,-123.28203426447507
9.664,1.0,-123.76095376672227
9.672,0.9999999999999999,-124.23878866850504
9.68,1.0,-124.71554740824995
9.688,1.0,-125.1912384421052
9.696,1.0,-125.66587024297415
9.704,1.0,-126.13945129957361
9.712,1.0,-126.61199011551402
9.72,0.9999999999999999,-127.08349520840446
9.728,1.0,-127.55397510897852
9.736,0.9999999999999999,-128.02343836024465
9.744,1.0,-128.49189351665666
9.752,0.9999999999999999,-128.95934914330806
9.76,1.0,-129.4258138151462
9.768,0.9999999999999999,-129.89129611620916
9.776,1.0,-130.35580463888235
9.784,0.9999999999999999,-130.81934798317704
9.792,1.0,-131.28193475602794
9.8,1.0,-131.74357357061217
9.808,1.0,-132.20427304568665
9.816,1.0,-132.6640418049465
9.824,1.0,-133.12288847640093
9.832,0.9999999999999999,-133.58082169176961
9.84,1.0,-134.0378500858963
9.847999999999999,0.9999999999999999,-134.49398229618194
9.856,1.0,-134.9492269620348
9.864,1.0,-135.4035927243387
9.872,1.0,-135.8570882249388
9.879999999999999,0.9999999999999999,-136.3097221061447
9.888,1.0,-136.7615030102498
9.896,1.0000000000000002,-137.21243957906756
9.904,0.9999999999999999,-137.66254045348404
9.911999999999999,1.0,-138.11181427302702
9.92,1.0,-138.56026967544975
9.928,1.0,-139.00791529633094
9.936,1.0,-139.45475976868983
9.943999999999999,1.0,-139.90081172261645
