freq,mag,phase
6.0,0.9991910312183256,-22.03564535391898
6.013310976,0.9990799537866992,-22.49615560827352
6.026622464,0.9990108227514125,-22.955667192702222
6.03993344,0.9989868531917464,-23.414781990602027
6.053244416,0.9990090451606249,-23.874000031050187
6.066555904,0.9990764477685605,-24.333941211323157
6.07986688,0.9991861435656966,-24.795117181213513
6.093177856,0.9993330553255313,-25.258033823659638
6.106489344,0.9995106975870918,-25.72311305255499
6.11980032,0.9997105902460027,-26.190642811576
6.133111296,0.9999240567552137,-26.6608538755149
6.146422784,1.0001409681050017,-27.133927567544898
6.15973376,1.0003516058730095,-27.60973657348667
6.173044736,1.0005463846068292,-28.088260172983357
6.186356224,1.0007162036918291,-28.569106963314656
6.1996672,1.000853443083586,-29.052053321502807
6.212978176,1.0009516687541231,-29.536603763172415
6.226289664,1.0010062967537647,-30.022258684038633
6.23960064,1.0010149630273033,-30.5084925925859
6.252911616,1.0009770996584684,-30.994710137942988
6.266223104,1.0008941812199506,-31.480334574874615
6.27953408,1.0007702588593002,-31.964849870076975
6.292845056,1.0006107914242988,-32.447773402731265
6.306156544,1.0004227818712348,-32.92876199239834
6.31946752,1.0002151133950947,-33.4074602473911
6.332778496,0.9999970234409034,-33.88371498282935
6.346089984,0.9997786948023982,-34.35744154811093
6.35940096,0.9995697426857442,-34.828671903881535
6.372711936,0.9993800313625594,-35.297585430655495
6.386023424,0.9992182413119809,-35.76452614115773
6.3993344,0.999091736158324,-36.22984704062597
6.412645376,0.999006712714026,-36.69397571416981
6.425956864,0.9989665582774839,-37.15748679266199
6.43926784,0.9989735941668667,-37.62096719171539
6.452578816,0.9990275508046619,-38.084961770125254
6.465890304,0.9991258922382145,-38.55003771842851
6.47920128,0.9992640716710268,-39.01675250112302
6.492512256,0.9994362723115484,-39.48551724773156
6.505823744,0.9996342104069522,-39.95673288796256
6.51913472,0.9998489457095538,-40.43064472655333
6.532445696,1.0000709285329505,-40.907417926520374
6.545757184,1.000289638114327,-41.38710453992827
6.55906816,1.000495262314164,-41.86951899152131
6.572379136,1.0006785661858504,-42.35453910112937
6.585690624,1.000830962217979,-42.84173537535523
6.5990016,1.000945583237137,-43.330777449007634
6.612312576,1.0010167764613096,-43.82113931305664
6.625624064,1.0010415173962017,-44.31225643044244
6.63893504,1.001018696766049,-44.803566825738216
6.652246016,1.0009491146977125,-45.294462277999926
6.665557504,1.0008357844004354,-45.78446846451919
6.67886848,1.0006840184810226,-46.27298305496655
6.692179456,1.0005005972824346,-46.75961851988766
6.705490944,1.0002935665650867,-47.24402989889349
6.71880192,1.000072901926063,-47.72595333952259
6.732112896,0.9998481836471101,-48.205344566071474
6.745424384,0.9996299020824602,-48.68215075636039
6.75873536,0.9994280851064731,-49.1565250822926
6.772046336,0.9992516595020466,-49.62874460392318
6.785357824,0.9991090584277055,-50.09916209048127
6.7986688,0.9990069211048024,-50.56820538377755
6.811980288,0.9989497626472227,-51.03644741453707
6.825291264,0.9989405551368273,-51.50442332816603
6.83860224,0.9989794262668228,-51.97277228962335
6.851913728,0.9990651163807016,-52.4420291016773
6.865224704,0.9991934550943502,-52.912749052078766
6.87853568,0.9993588995602307,-53.385460535120444
6.891847168,0.9995535600455984,-53.86055242611961
6.905158144,0.999768912015643,-54.33834633401741
6.91846912,0.9999948417327121,-54.81901199041822
6.931780608,1.0002215409698254,-55.3026514213206
6.945091584,1.0004380946204727,-55.789200498910844
6.95840256,1.0006349294031989,-56.27845693362284
6.971714048,1.0008029997663719,-56.77014491720619
6.985025024,1.0009345290092548,-57.26384220077207
6.998336,1.001023317272163,-57.759085196028366
7.011647488,1.0010654635490328,-58.25533958878116
7.024958464,1.0010590731734523,-58.75195021467183
7.03826944,1.0010041144708648,-59.24836011536778
7.051580928,1.0009029713398347,-59.74405797033577
7.064891904,1.0007602718428694,-60.23839959504468
7.07820288,1.0005825063236768,-60.73097990589269
7.091514368,1.0003776215978517,-61.22137754262279
7.104825344,1.0001548614912201,-61.70931876926684
7.11813632,0.9999245133108817,-62.19467073205792
7.131447808,0.9996970983473787,-62.677392544847415
7.144758784,0.9994828885777057,-63.157530247742294
7.15806976,0.9992916673535936,-63.63536910207464
7.171381248,0.9991324563323866,-64.11117562565188
7.184692224,0.9990123831844435,-64.58545485837223
7.1980032,0.9989370502275325,-65.05869636180697
7.211314688,0.9989101312882306,-65.53142785148749
7.224625664,0.998932831684212,-66.0043606443187
7.23793664,0.9990040447419088,-66.47801578054622
7.251248128,0.9991210001870943,-66.95299964837515
7.264559104,0.9992781624400987,-67.4298303458754
7.27787008,0.9994684024362623,-67.90900652814126
7.291181568,0.9996831604784226,-68.39081901018113
7.304492544,0.9999126248090539,-68.87557098551846
7.31780352,1.0001462979942404,-69.3633509233917
7.331115008,1.0003737155203003,-69.85409542723953
7.344425984,1.0005841402722235,-70.34778169446884
7.35773696,1.000768292769159,-70.84403250849569
7.371048448,1.000917553520931,-71.34254255993316
7.384359424,1.0010250586133498,-71.84280549480391
7.3976704,1.001085805704426,-72.34433094631137
7.410981888,1.0010971248140197,-72.84646016741173
7.424292864,1.0010582097905596,-73.34861383446926
7.43760384,1.000970918604043,-73.85018875323243
7.450915328,1.0008388921087361,-74.35061278464428
7.464226304,1.0006681864749263,-74.84940740280688
7.47753728,1.000466540550045,-75.34606140579277
7.490848768,1.0002430191877854,-75.84031276658094
7.504159744,1.0000079106035544,-76.33192671835488
7.51747072,0.9997716282420785,-76.82080394186582
7.530782208,0.9995452217041708,-77.30704957525754
7.544093184,0.9993391209386691,-77.79078145092232
7.55740416,0.9991624601571365,-78.27234013595012
7.570715648,0.9990235158366195,-78.75212737290181
7.584026624,0.9989289527401578,-79.23063103391885
7.5973376,0.9988828882635657,-79.70843964455689
7.610649088,0.9988876902626759,-80.1861699237809
7.623960064,0.9989431829890936,-80.66444001045953
7.63727104,0.9990468480636528,-81.14386965995861
7.650582528,0.9991941631400081,-81.62502580047823
7.663893504,0.9993784531514427,-82.10839915093646
7.67720448,0.9995913540314245,-82.59439302389329
7.690515968,0.9998231302014182,-83.08331727694545
7.703826944,1.0000634317440087,-83.57530612720738
7.71713792,1.0003010780797292,-84.07046368497997
7.730449408,1.0005253788236723,-84.56863042359545
7.743760384,1.0007259238976465,-85.06958183100429
7.75707136,1.0008936098368642,-85.57302036636631
7.770382848,1.001020917184252,-86.0784342798306
7.783693824,1.0011017848573576,-86.58533171499465
7.7970048,1.0011323480601955,-87.09315111053354
7.810316288,1.0011112646546219,-87.60121374641439
7.823627264,1.0010393332260432,-88.10890230206985
7.83693824,1.0009199247058151,-88.61558821424653
7.850249728,1.0007580938486047,-89.12079887486182
7.863560704,1.0005610875966104,-89.62398646207109
7.87687168,1.0003380649974074,-90.1247637792735
7.890183168,1.0000989246606773,-90.62293711328083
7.903494144,0.9998546280047422,-91.11829358446232
7.91680512,0.9996162709868581,-91.61090416999188
7.930116608,0.9993948223431458,-92.1008335267378
7.943427584,0.999200263473657,-92.58840788115867
7.95673856,0.9990417327236728,-93.07396616349686
7.970050048,0.9989264873937977,-93.55804846731739
7.983361024,0.9988598265045993,-94.0411657751473
7.996672,0.9988450152047601,-94.52393659027774
8.009983488,0.9988828014713089,-95.00699613432229
8.023294464,0.9989714351032591,-95.49107637404403
8.03660544,0.9991071597976772,-95.97671598885356
8.049916928,0.9992838361692089,-96.46441940449637
8.063227904,0.999493399589674,-96.95472021003917
8.07653888,0.9997265080019879,-97.44790720448196
8.089850368,0.9999723111043103,-97.94423222581437
8.103161344,1.000219783953732,-98.44381352056257
8.11647232,1.0004576537481635,-98.94651782746355
8.129783808,1.0006751689054585,-99.45229551755394
8.143094784,1.0008621285679284,-99.96067820486284
8.15640576,1.0010100862249045,-100.47132986090992
8.169717248,1.0011122867638704,-100.98376392340543
8.183028224,1.0011639581463554,-101.49731998008076
8.1963392,1.0011626418014936,-102.01140086725637
8.209650688,1.0011081839628784,-102.52535820795077
8.222961664,1.0010029243025285,-103.03854299948983
8.23627264,1.000851745247713,-103.55035381998508
8.249584128,1.0006613036188994,-104.06028336798192
8.262895104,1.0004401187487915,-104.5678744490666
8.27620608,1.000198242167945,-105.07285771955408
8.289517568,0.9999466292375379,-105.57497413663756
8.302828544,0.999696614245923,-106.07421012367368
8.31613952,0.9994598204943519,-106.57064591855503
8.329451008,0.9992469727359027,-107.06450974696506
8.342761984,0.9990678062582642,-107.55611978975338
8.35607296,0.9989306502617477,-108.04596630586188
8.369384448,0.9988417658378212,-108.53460091606726
8.382695424,0.998805445988782,-109.02266082011101
8.3960064,0.9988235441778507,-109.51075593609703
8.409317888,0.9988951013204482,-109.9996188855144
8.422628864,0.9990171919080811,-110.48983668839861
8.435940352,0.9991842478844039,-110.98200939259138
8.449251328,0.9993888321941917,-111.47666250579358
8.462562304,0.9996215022983579,-111.97418580892499
8.475873792,0.9998719674539855,-112.47488860151354
8.489184768,1.0001286418258915,-112.97892460884316
8.502495744,1.0003799769303994,-113.48626539355132
8.515807232,1.000614470504383,-113.99677174656091
8.529118208,1.0008214186286688,-114.51020194209373
8.542429184,1.0009912898963844,-115.02615426894674
8.555740672,1.001116295395482,-115.54410151205633
8.569051648,1.0011907358526364,-116.06352528899006
8.582362624,1.0012111170086913,-116.58374073664189
8.595674112,1.0011762494007175,-117.10405171472202
8.608985088,1.0010876362294099,-117.62383194517092
8.622296064,1.0009492462531058,-118.14248699714858
8.63560704,1.0007671256079391,-118.65931814576925
8.648918016,1.0005495490692107,-119.17395261802909
8.662230016,1.0003063001703878,-119.68596287807216
8.675540992,1.000048293214374,-120.19509328829325
8.688851968,0.9997873318740838,-120.70122671822686
8.702162944,0.9995352118090789,-121.20441180921321
8.71547392,0.9993035160780308,-121.70479921349029
8.728784896,0.9991029122168819,-122.20270543302694
8.742096896,0.9989425154067749,-122.6985911255722
8.755407872,0.9988297664751996,-123.19298845451033
8.768718848,0.9987700105794403,-123.68647045995279
8.782029824,0.9987660866766991,-124.17977711684784
8.7953408,0.9988182846438335,-124.67352491342265
8.808651776,0.9989244293998809,-125.16845310894116
8.821963776,0.9990797099468809,-125.66517995830664
8.835274752,0.9992772529870828,-126.16423268286192
8.848585728,0.9995079771695122,-126.66615009695512
8.861896704,0.999761721486825,-127.17121700874684
8.87520768,1.0000267570948247,-127.67969221610718
8.888518656,1.000291102986943,-128.19161804062696
8.901830656,1.000542788312604,-128.70690240788602
8.915141632,1.0007702521600774,-129.22533945117016
8.928452608,1.0009631737753228,-129.74655567242246
8.941763584,1.0011126349767943,-130.2700859165177
8.95507456,1.001211751472955,-130.795370178019
8.968385536,1.0012558764576773,-131.32175135838986
8.981697536,1.0012429482856007,-131.84854254817546
8.995008512,1.0011733925675714,-132.3750505231807
9.008319488,1.0010501394441313,-132.90059481522528
9.021630464,1.0008787393281853,-133.42454618675885
9.03494144,1.000666708086978,-133.94640025302743
9.048252416,1.0004236146904397,-134.46563417629457
9.061564416,1.0001604854248998,-134.98197613750293
9.074875392,0.9998892341600712,-135.49526672506806
9.088186368,0.999622072731876,-136.00540924213354
9.101497344,0.9993712653817671,-136.51262111642163
9.11480832,0.9991483129613521,-137.01706895424687
9.128119296,0.9989633281824918,-137.5191966413528
9.141431296,0.9988250146308887,-138.01951460569205
9.154742272,0.9987396543367996,-138.51863172477934
9.168053248,0.9987114390900611,-139.01726062719274
9.181364224,0.998741738570677,-139.5160618279265
9.1946752,0.9988293323612781,-140.0157709590316
9.2079872,0.998970359362177,-140.51708936027305
9.221298176,0.999158600726568,-141.02060404069576
9.234609152,0.9993854732056179,-141.5268762547973
9.247920128,0.9996408931131732,-142.03626644823575
9.261231104,0.9999131803436352,-142.54913095572323
9.27454208,1.0001900341178795,-143.06556999922103
9.28785408,1.0004589045913652,-143.58556942680852
9.301165056,1.000707443411762,-144.10897015979702
9.314476032,1.0009244802287625,-144.63537928167608
9.327787008,1.001099956195857,-145.16444297667275
9.341097984,1.0012257665453825,-145.69558657853736
9.35440896,1.001296193216654,-146.22813987445227
9.36772096,1.0013077806961266,-146.7614389129254
9.381031936,1.0012598757932551,-147.29470120036794
9.394342912,1.0011544871375886,-147.82728984760075
9.407653888,1.000996174834772,-148.35847296136774
9.420964864,1.0007919962714305,-148.88767164355818
9.43427584,1.0005511332985637,-149.41434042693368
9.44758784,1.0002843949142999,-149.93813672506192
9.460898816,1.000003665344516,-150.4587751192516
9.474209792,0.9997218880243061,-150.97615899367656
9.487520768,0.999451765923708,-151.49036767981013
9.500831744,0.9992056034484126,-152.00156696817595
9.51414272,0.9989947382579615,-152.51017061031595
9.52745472,0.9988288640494626,-153.0166105938491
9.540765696,0.9987156960212014,-153.52154364193584
9.554076672,0.9986605958884668,-154.02560146560253
9.567387648,0.9986660744270262,-154.52955044329087
9.580698624,0.9987322804788009,-155.03409788270432
9.5940096,0.9988562303961034,-155.54003130311818
9.6073216,0.9990325017085916,-156.04796005325113
9.620632576,0.9992532536417297,-156.55854196054497
9.633943552,0.999508409435338,-157.07223358773584
9.647254528,0.9997866440492759,-157.58938859410733
9.660565504,1.0000751562396761,-158.1102547807384
9.67387648,1.00036103067311,-158.63482255123384
9.68718848,1.0006312284150534,-159.16303532199032
9.700499456,1.0008734079119395,-159.69458693505882
9.713810432,1.0010764585086116,-160.22909366132424
9.727121408,1.0012311895861508,-160.76599617164132
9.740432384,1.0013303107540175,-161.30470102402796
9.75374336,1.0013693337298755,-161.84447601795907
9.76705536,1.00134600958866,-162.3845770524443
9.780366336,1.0012615041112405,-162.92425124018447
9.793677312,1.0011193732675812,-163.46276625458793
9.806988288,1.00092565537765,-163.99945012906426
9.820299264,1.0006892848865052,-164.5337247397925
9.83361024,1.0004206079834812,-165.0651299505851
9.84692224,1.0001318446445542,-165.5933229751944
9.860233216,0.9998359816403671,-166.11814152122176
9.873544192,0.9995464367121275,-166.63957342013603
9.886855168,0.9992764049039718,-167.15775362670308
9.900166144,0.9990382738029501,-167.67300809218355
9.91347712,0.9988428933916053,-168.18578295977275
9.92678912,0.9986994722723062,-168.69665543347793
9.940100096,0.9986145279125247,-169.20628484037275
9.953411072,0.9985922721917294,-169.71543438190272
9.966722048,0.9986337944174613,-170.22489451646499
9.980033024,0.9987376214899978,-170.73543023357607
9.993344,0.9988989310710585,-171.2477602249151
10.006656,0.9991107639552473,-171.76257350346066
10.019966976,0.9993634981073435,-172.28044343939214
10.033277952,0.9996459238523774,-172.80179731028812
10.046588928,0.9999452731141644,-173.32690815049094
10.059899904,1.0002477163034384,-173.85591830180903
10.07321088,1.0005398977861841,-174.38878989240703
10.08652288,1.000808238473813,-174.9253052535164
10.099833856,1.001040748262094,-175.46511146702494
10.113144832,1.0012266052190082,-176.0077118790696
10.126455808,1.0013572683484553,-176.5524687758111
10.139766784,1.001426682531338,-177.09868679195284
10.15307776,1.0014314065261234,-177.64559084252915
10.16638976,1.001371271784707,-178.1923911409611
10.179700736,1.0012484017614927,-178.73829719121764
10.193011712,1.0010683852419677,-179.2825956228621
10.206322688,1.0008389162409816,-179.8246018037945
10.219633664,1.0005706782196138,179.63619856010752
10.23294464,1.0002753342123238,179.10021561008566
10.24625664,0.9999662218876904,178.56776025111415
10.259567616,0.9996574249170903,178.03886550561754
10.272878592,0.999362908389005,177.51348331558086
10.286189568,0.9990960484857849,176.99136486878547
10.299500544,0.9988691716149178,176.4720898314402
10.31281152,0.9986928592175786,175.9551133261601
10.32612352,0.9985750207479284,175.43977160209772
10.339434496,0.9985215122685228,174.92532527739885
10.352745472,0.9985349328280874,174.4109239469287
10.366056448,0.9986147662999583,173.89579556007433
10.379367424,0.9987577461283195,173.3791183520473
10.3926784,0.998957534902646,172.86015227004802
10.4059904,0.9992052970119746,172.3382423614215
10.419301376,0.9994900099592224,171.81287732763468
10.432612352,0.9997985201068921,171.28366408712583
10.445923328,1.0001171702107987,170.7504150912929
10.459234304,1.0004314983307347,170.21306741839902
10.47254528,1.0007271672760698,169.67177112674906
10.48585728,1.0009908082768422,169.1268339064583
10.499168256,1.001210209758313,168.5787139373417
10.512479232,1.0013754296644843,168.02801277651346
10.525790208,1.001478734630253,167.47543037753587
10.539101184,1.0015152714865916,166.92174794616406
10.55241216,1.00148297734448,166.3677955611909
10.56572416,1.0013834211284252,165.81442655530174
10.579035136,1.0012203611448602,165.2624088041742
10.592346112,1.0010012418058698,164.712496729056
10.605657088,1.000735820098771,164.16531083193632
10.618968064,1.0004357130116686,163.6213723934466
10.63227904,1.0001145069456392,163.08101274744058
10.64559104,0.999786746243109,162.54442342471376
10.658902016,0.999467001748956,162.01161343117693
10.672212992,0.9991700531224075,161.48238381661758
10.685523968,0.9989095193340976,160.9563962212566
10.698834944,0.9986973275778269,160.4331212789535
10.71214592,0.9985432377492062,159.91195310057594
10.72545792,0.9984546003380602,159.3920850309469
10.738768896,0.9984357348542425,158.87272403530662
10.752079872,0.9984876973111687,158.35298546854622
10.765390848,0.9986083433930222,157.8320042358467
10.778701824,0.9987925475054094,157.30897442480673
10.7920128,0.9990321905431315,156.78317170014358
10.8053248,0.999316510003855,156.25395903484173
10.818635776,0.9996326886164834,155.72086155628938
10.831946752,0.9999666452554996,155.18356751901658
10.845257728,1.0003031979243782,154.64198288587866
10.858568704,1.0006271194498506,154.0961193333962
10.871880704,1.0009236140831403,153.54623345525332
10.88519168,1.0011794368178422,152.99276646745437
10.898502656,1.0013823441288852,152.43621949068853
10.911813632,1.0015234575776641,151.87736616943903
10.925124608,1.0015958680122024,151.31694864373907
10.938435584,1.0015959809688502,150.75584801229834
10.951747584,1.0015238548378946,150.19494512963607
10.96505856,1.0013819963827983,149.63506052974785
10.978369536,1.001176702848943,149.07709838876275
10.991680512,1.0009171866834676,148.5217160340515
11.004991488,1.0006147300033137,147.96954637502262
11.018302464,1.0002827702789996,147.42100956281848
11.031614464,0.9999364869708542,146.87643488560343
11.04492544,0.9995911738821869,146.3358805731575
11.058236416,0.9992628035077544,145.79928238493946
11.071547392,0.9989661713827434,145.26630562064994
11.084858368,0.9987150249557913,144.7365211240785
11.098169344,0.9985208747003295,144.2092984448188
11.111481344,0.9983928212855826,143.6838952582198
11.12479232,0.9983370898292736,143.1594478848252
11.138103296,0.9983563999583692,142.63506920503977
11.151414272,0.9984502189786783,142.1098279296641
11.164725248,0.998614621096146,141.5828190735305
11.178036224,0.9988424239093298,141.0532146431676
11.191348224,0.9991234117937118,140.52032098472472
11.2046592,0.999445375823713,139.98354477984606
11.217970176,0.9997934376300945,139.44244754542873
11.231281152,1.0001522365960072,138.8968031248733
11.244592128,1.0005053196746359,138.34659147235763
11.257903104,1.0008368725840784,137.7919647441432
11.271215104,1.001131624124951,137.23328400845563
11.28452608,1.0013762226209038,136.67106421018258
11.297837056,1.0015592953281554,136.10598628370565
