freq,mag,phase
6.0,1.0,149.68837576080614
6.008,1.0,149.64792742739687
6.016,1.0000000000000002,149.60747725250155
6.024,1.0,149.56702523914146
6.032,1.0,149.526571390389
6.04,1.0,149.48611570936765
6.048,1.0,149.44565819925262
6.056,1.0,149.40519886327058
6.064,0.9999999999999999,149.36473770470022
6.072,0.9999999999999999,149.32427472687212
6.08,0.9999999646680936,149.28380993316907
6.088,0.9999997688760998,149.24334332702634
6.096,0.999999566679798,149.2028749119316
6.104,0.9999993582212564,149.1624046914252
6.112,0.9999991436423472,149.12193266910035
6.12,0.9999989230847351,149.0814588486031
6.128,0.9999986966898654,149.04098323363257
6.136,0.9999984645989513,149.0005058279411
6.144,0.9999982269529631,148.96002663533426
6.152,0.9999979838926155,148.91954565967094
6.16,0.9999977355583551,148.87906290486347
6.168,0.999997482090348,148.83857837487773
6.176,0.9999972236284684,148.7980920737332
6.184,0.9999969603122842,148.7576040055029
6.192,0.999996692281048,148.71711417431368
6.2,0.99999641967368,148.67662258434598
6.208,0.9999961426287594,148.63612923983402
6.216,0.9999958612845087,148.59563414506584
6.224,0.9999955757787824,148.5551373043832
6.232,0.999995286249055,148.5146387221817
6.24,0.9999949928324062,148.47413840291057
6.248,0.9999946956655087,148.4336363510729
6.256,0.9999943948846157,148.3931325712254
6.264,0.9999940906255479,148.35262706797852
6.272,0.9999937830236789,148.3121198459962
6.28,0.999993472213925,148.271610909996
6.288,0.9999931583307282,148.23110026474893
6.296,0.9999928415080468,148.19058791507936
6.304,0.9999925218793401,148.1500738658649
6.312,0.999992199577555,148.10955812203633
6.32,0.9999918747351136,148.0690406885775
6.328,0.9999915474838996,148.0285215705252
6.336,0.9999912179552449,147.9880007729689
6.344,0.9999908862799166,147.9474783010507
6.352,0.999990552588103,147.90695415996524
6.36,0.9999902170094,147.86642835495928
6.368,0.9999898796728005,147.8259008913317
6.376,0.9999895407066758,147.78537177443337
6.384,0.9999892002387676,147.74484100966666
6.392,0.999988858396171,147.70430860248544
6.4,0.9999885153053246,147.66377455839478
6.408,0.9999881710919922,147.62323888295074
6.416,0.9999878258812541,147.58270158175995
6.424,0.999987479797491,147.5421626604796
6.432,0.9999871329643728,147.5016221248169
6.44,0.9999867855048438,147.4610799805289
6.448,0.9999864375411092,147.42053623342224
6.456,0.9999860891946226,147.37999088935274
6.464,0.9999857405860739,147.33944395422503
6.472,0.9999853918353742,147.29889543399236
6.48,0.9999850430616435,147.2583453346561
6.4879999999999995,0.9999846943831983,147.2177936622654
6.496,0.9999843459175375,147.17724042291675
6.504,0.9999839977813301,147.13668562275387
6.5120000000000005,0.9999836500904026,147.09612926796694
6.52,0.9999833029597247,147.05557136479237
6.5280000000000005,0.9999829565033997,147.01501191951235
6.536,0.9999826108346476,146.97445093845428
6.5440000000000005,0.999982266065796,146.93388842799067
6.552,0.999981922308266,146.89332439453824
6.5600000000000005,0.9999815796725594,146.8527588445576
6.568,0.9999812382682469,146.81219178455305
6.5760000000000005,0.9999808982039577,146.77162322107148
6.584,0.9999805595873639,146.73105316070246
6.592,0.9999802225251699,146.6904816100773
6.6,0.9999798871231013,146.64990857586878
6.608,0.9999795534858916,146.60933406479035
6.616,0.9999792217172722,146.56875808359578
6.624,0.9999788919199587,146.5281806390785
6.632,0.9999785641956408,146.48760173807102
6.64,0.9999782386449699,146.44702138744435
6.648,0.9999779153675502,146.4064395941073
6.656,0.9999775944619228,146.36585636500607
6.664,0.9999772760255604,146.3252717071233
6.672,0.9999769601548522,146.2846856274779
6.68,0.9999766469450946,146.2440981331238
6.688,0.9999763364904813,146.2035092311499
6.696,0.9999760288840915,146.1629189286788
6.704,0.9999757242178805,146.12232723286675
6.712,0.9999754225826699,146.0817341509023
6.72,0.9999751240681358,146.04113969000613
6.728,0.9999748287628012,146.00054385743007
6.736,0.9999745367540259,145.95994666045635
6.744,0.9999742481279941,145.91934810639708
6.752,0.9999739629697104,145.87874820259324
6.76,0.9999736813629859,145.8381469564141
6.768,0.999973403390432,145.79754437525642
6.776,0.9999731291334497,145.75694046654363
6.784,0.9999728586722243,145.71633523772513
6.792,0.999972592085712,145.67572869627534
6.8,0.9999723294516357,145.63512084969318
6.808,0.9999720708464761,145.59451170550093
6.816,0.9999718163454633,145.5539012712436
6.824,0.9999715660225699,145.51328955448818
6.832,0.9999713199505026,145.47267656282253
6.84,0.9999710782006953,145.4320623038548
6.848,0.9999708408433032,145.39144678521254
6.856,0.9999706079471959,145.35083001454166
6.864,0.9999703795799485,145.31021199950578
6.872,0.9999701558078388,145.26959274778528
6.88,0.9999699366958378,145.2289722670763
6.888,0.9999697223076076,145.18835056509008
6.896,0.9999695127054912,145.1477276495519
6.904,0.9999693079505116,145.10710352820024
6.912,0.9999691081023641,145.0664782087859
6.92,0.9999689132194108,145.025851699071
6.928,0.9999687233586785,144.98522400682813
6.936,0.9999685385758518,144.94459513983952
6.944,0.9999683589252697,144.90396510589585
6.952,0.9999681844599219,144.8633339127956
6.96,0.9999680152314449,144.82270156834397
6.968,0.9999678512901188,144.78206808035196
6.976,0.9999676926848632,144.74143345663546
6.984,0.9999675394632355,144.70079770501414
6.992,0.9999673916714268,144.66016083331084
7.0,0.99996724935426,144.61952284935023
7.008,0.9999671125551878,144.57888376095815
7.016,0.9999669813162912,144.5382435759604
7.024,0.9999668556782767,144.497602302182
7.032,0.9999667356804753,144.45695994744608
7.04,0.9999666213608412,144.41631651957294
7.048,0.9999665127559518,144.37567202637916
7.056,0.9999664099010046,144.33502647567653
7.064,0.9999663128298208,144.29437987527106
7.072,0.9999662215748412,144.2537322329621
7.08,0.9999661361671276,144.21308355654133
7.088,0.9999660566363653,144.17243385379174
7.096,0.9999659830108605,144.13178313248673
7.104,0.9999659153175431,144.0911314003891
7.112,0.9999658535819674,144.05047866524995
7.12,0.9999657978283142,144.00982493480802
7.128,0.9999657480793914,143.9691702167883
7.136,0.9999657043566358,143.92851451890152
7.144,0.9999656666801171,143.88785784884269
7.152,0.9999656350685399,143.84720021429058
7.16,0.9999656095392441,143.80654162290648
7.168,0.9999655901082117,143.7658820823332
7.176,0.9999655767900659,143.72522160019435
7.184,0.9999655695980788,143.68456018409324
7.192,0.9999655685441728,143.64389784161182
7.2,0.9999655736389246,143.60323458030993
7.208,0.9999655848915705,143.56257040772422
7.216,0.9999656023100105,143.52190533136724
7.224,0.9999656259008138,143.4812393587265
7.232,0.9999656556692218,143.44057249726347
7.24,0.9999656916191565,143.39990475441283
7.248,0.9999657337532244,143.3592361375813
7.256,0.9999657820727216,143.31856665414693
7.264,0.9999658365776415,143.27789631145802
7.272,0.9999658972666804,143.23722511683232
7.28,0.9999659641372439,143.19655307755602
7.288,0.9999660371854545,143.15588020088308
7.296,0.9999661164061586,143.1152064940339
7.304,0.9999662017929314,143.074531964195
7.312,0.999966293338089,143.03385661851763
7.32,0.9999663910326924,142.99318046411722
7.328,0.9999664948665561,142.9525035080724
7.336,0.9999666048282583,142.91182575742414
7.344,0.9999667209051475,142.87114721917493
7.352,0.9999668430833519,142.8304679002879
7.36,0.9999669713477881,142.78978780768605
7.368,0.9999671056821711,142.7491069482514
7.376,0.9999672460690211,142.7084253288241
7.384,0.9999673924896768,142.66774295620178
7.392,0.9999675449243024,142.62705983713857
7.4,0.9999677033518988,142.5863759783445
7.4079999999999995,0.9999678677503128,142.54569138648458
7.416,0.999968038096249,142.50500606817803
7.4239999999999995,0.9999682143652783,142.46432002999774
7.432,0.9999683965318514,142.42363327846917
7.4399999999999995,0.9999685845693066,142.38294582006992
7.448,0.999968778449884,142.3422576612289
7.4559999999999995,0.9999689781447351,142.30156880832547
7.464,0.9999691836239337,142.26087926768895
7.4719999999999995,0.99996939485649,142.22018904559792
7.48,0.99996961181036,142.1794981482793
7.4879999999999995,0.999969834452459,142.13880658190794
7.496,0.999970062748673,142.0981143526058
7.504,0.9999702966638714,142.05742146644147
7.5120000000000005,0.9999705361619196,142.01672792942927
7.52,0.9999707812056924,141.9760337475289
7.5280000000000005,0.9999710317570848,141.9353389266447
7.536,0.9999712877770259,141.894643472625
7.5440000000000005,0.9999715492254942,141.8539473912616
7.552,0.9999718160615264,141.81325068828934
7.5600000000000005,0.9999720882432349,141.77255336938515
7.568,0.9999723657278191,141.73185544016792
7.5760000000000005,0.9999726484715794,141.6911569061977
7.584,0.9999729364299315,141.65045777297536
7.5920000000000005,0.9999732295574193,141.6097580459418
7.6,0.9999735278077297,141.56905773047782
7.6080000000000005,0.9999738311337067,141.52835683190332
7.616,0.9999741394873641,141.4876553554771
7.6240000000000006,0.9999744528199023,141.44695330639607
7.632,0.9999747710817204,141.4062506897952
7.640000000000001,0.9999750942224314,141.36554751074675
7.648,0.9999754221908772,141.32484377426005
7.656000000000001,0.9999757549351435,141.284139485281
7.664,0.9999760924025721,141.24343464869182
7.672,0.9999764345397788,141.20272926931045
7.68,0.9999767812926665,141.16202335189038
7.688,0.9999771326064403,141.12131690112028
7.696,0.9999774884256228,141.0806099216235
7.704,0.9999778486940684,141.039902417958
7.712,0.999978213354979,140.99919439461578
7.72,0.9999785823509199,140.95848585602283
7.728,0.999978955623832,140.91777680653874
7.736,0.9999793331150503,140.87706725045635
7.744,0.9999797147653177,140.83635719200174
7.752,0.9999801005147999,140.79564663533358
7.76,0.999980490303101,140.7549355845435
7.768,0.9999808840692785,140.7142240436552
7.776,0.99998128175186,140.6735120166249
7.784,0.9999816832888562,140.63279950734068
7.792,0.9999820886177776,140.5920865196225
7.8,0.9999824976756502,140.55137305722218
7.808,0.9999829103990298,140.51065912382285
7.816,0.9999833267240171,140.46994472303933
7.824,0.9999837465862748,140.42922985841764
7.832,0.9999841699210404,140.38851453343509
7.84,0.9999845966631437,140.34779875150005
7.848,0.9999850267470203,140.30708251595206
7.856,0.9999854601067281,140.2663658300616
7.864,0.9999858966759617,140.2256486970301
7.872,0.9999863363880671,140.18493111999
7.88,0.9999867791760585,140.1442131020045
7.888,0.999987224972632,140.10349464606787
7.896,0.9999876737101806,140.06277575510512
7.904,0.9999881253208094,140.02205643197232
7.912,0.9999885797363516,139.98133667945632
7.92,0.9999890368883807,139.94061650027507
7.928,0.9999894967082283,139.89989589707758
7.936,0.9999899591269976,139.85917487244387
7.944,0.9999904240755764,139.81845342888525
7.952,0.9999908914846547,139.77773156884427
7.96,0.9999913612847375,139.73700929469487
7.968,0.9999918334061588,139.69628660874244
7.976,0.9999923077790973,139.6555635132241
7.984,0.9999927843335903,139.61484001030863
7.992,0.9999932629995466,139.57411610209678
8.0,0.9999937437067626,139.53339179062135
8.008,0.999994226384935,139.49266707784747
8.016,0.9999947109636748,139.45194196567257
8.024000000000001,0.9999951973725217,139.41121645592682
8.032,0.9999956855409574,139.37049055037318
8.04,0.9999961753984192,139.32976425070765
8.048,0.9999966668743141,139.28903755855956
8.056000000000001,0.9999971598980306,139.24831047549162
8.064,0.999997654398954,139.2075830030005
8.072,0.9999981503064787,139.1668551425168
8.08,0.9999986475500203,139.12612689540526
8.088000000000001,0.9999991460590305,139.08539826296544
8.096,0.999999645763008,139.0446692464316
8.104,1.0,139.00393984697314
8.112,0.9999999999999999,138.96321006569494
8.120000000000001,1.0,138.92247990363768
8.128,1.0,138.8817493617781
8.136,1.0,138.84101844102932
8.144,0.9999999999999998,138.80028714224127
8.152000000000001,1.0,138.759555466201
8.16,1.0,138.71882341363295
8.168,0.9999999999999999,138.67809098519947
8.176,0.9999999999999999,138.63735818150113
8.184000000000001,1.0,138.59662500307695
8.192,1.0,138.5558914504051
8.2,1.0,138.51515752390299
8.208,1.0,138.4744232239279
8.216000000000001,1.0,138.4336885507772
8.224,1.0,138.39295350468888
8.232,1.0,138.35221808584203
8.24,1.0,138.31148229435706
8.248000000000001,0.9999999999999999,138.2707461302964
8.256,1.0,138.23000959366473
8.264,1.0,138.18927268440956
8.272,1.0,138.14853540242154
8.280000000000001,1.0,138.10779774753513
8.288,0.9999999999999998,138.06705971952886
8.296,0.9999999999999999,138.02632131812595
8.304,1.0,137.98558254299462
8.312,1.0,137.9448433937488
8.32,0.9999999999999999,137.90410386994844
8.328,0.9999999999999999,137.8633639711
8.336,0.9999999999999999,137.82262369665705
8.344,1.0,137.78188304602065
8.352,1.0,137.74114201854002
8.36,1.0,137.7004006135128
8.368,0.9999999999999999,137.65965883018578
8.376,1.0,137.6189166677553
8.384,1.0,137.57817412536784
8.392,1.0,137.53743120212042
8.4,1.0,137.49668789706126
8.408,1.0,137.45594420919022
8.416,0.9999999999999999,137.41520013745932
8.424,1.0,137.37445568077342
8.432,1.0,137.3337108379905
8.44,1.0,137.29296560792238
8.448,1.0,137.2522199893353
8.456,1.0,137.21147398095016
8.464,0.9999999999999999,137.17072758144346
8.472,1.0,137.1299807894476
8.48,1.0,137.08923360355135
8.488,1.0,137.0484860223008
8.496,1.0,137.00773804419936
8.504,1.0,136.9669896677087
8.512,1.0,136.92624089124914
8.52,1.0,136.88549171320025
8.528,0.9999999999999998,136.84474213190137
8.536,1.0,136.8039921456522
8.544,1.0,136.7632417527133
8.552,1.0,136.7224909513066
8.56,1.0,136.68173973961618
8.568,1.0,136.64098811578847
8.576,1.0,136.60023607793315
8.584,1.0,136.5594836241234
8.592,1.0,136.51873075239664
8.6,0.9999999999999999,136.47797746075506
8.608,1.0,136.43722374716603
8.616,0.9999999999999999,136.39646960956287
8.624,0.9999999999999999,136.3557150458452
8.632,1.0,136.31496005387956
8.64,1.0,136.27420463149997
8.648,1.0,136.23344877650848
8.656,0.9999999999999999,136.1926924866756
8.664,0.9999999999999999,136.15193575974106
8.672,0.9999999999999999,136.1111785934141
8.68,0.9999999999999999,136.07042098537417
8.688,1.0,136.02966293327142
8.696,1.0,135.9889044347272
8.704,1.0,135.94814548733459
8.712,1.0,135.9073860886591
8.72,1.0,135.86662623623883
8.728,1.0,135.8258659275854
8.736,1.0,135.78510516018423
8.744,1.0,135.74434393149505
8.752,1.0,135.7035822389526
8.76,1.0,135.6628200799669
8.768,1.0,135.62205745192404
8.776,1.0,135.58129435218632
8.784,1.0,135.5405307780932
8.792,0.9999999999999999,135.49976672696135
8.8,1.0,135.45900219608558
8.808,0.9999999999999999,135.41823718273895
8.815999999999999,1.0,135.37747168417354
8.824,0.9999999999999999,135.33670569762086
8.832,1.0,135.29593922029215
8.84,1.0,135.25517224937926
8.847999999999999,0.9999999999999999,135.21440478205471
8.856,1.0,135.17363681547238
8.864,0.9999999999999999,135.13286834676808
8.872,1.0,135.0920993730597
8.879999999999999,0.9999999999999999,135.05132989144803
8.888,1.0,135.01055989901698
8.896,1.0,134.96978939283412
8.904,1.0,134.92901836995114
8.911999999999999,1.0,134.88824682740426
8.92,1.0,134.84747476221477
8.928,1.0,134.80670217138933
8.936,0.9999999999999998,134.76592905192055
8.943999999999999,1.0,134.72515540078726
8.952,1.0,134.68438121495515
8.96,1.0,134.64360649137703
8.968,1.0,134.6028312269933
8.975999999999999,1.0,134.56205541873234
8.984,1.0,134.52127906351103
8.992,1.0,134.48050215823508
9.0,1.0,134.43972469979934
9.008,1.0,134.39894668508833
9.016,1.0,134.35816811097672
9.024000000000001,0.9999999999999999,134.31738897432945
9.032,1.0,134.27660927200242
9.04,0.9999999999999999,134.2358290008425
9.048,0.9999999999999999,134.19504815768843
9.056000000000001,1.0,134.15426673937066
9.064,1.0,134.11348474271205
9.072,0.9999999999999999,134.07270216452815
9.08,0.9999999999999999,134.03191900162753
9.088000000000001,1.0,133.99113525081216
9.096,1.0,133.9503509088778
9.104,1.0,133.90956597261425
9.112,0.9999999999999999,133.8687804388058
9.120000000000001,1.0,133.82799430423142
9.128,1.0,133.7872075656654
9.136,1.0,133.7464202198772
9.144,1.0,133.70563226363228
9.152000000000001,1.0,133.66484369369206
9.16,1.0,133.62405450681442
9.168,1.0,133.58326469975387
9.176,0.9999999999999999,133.54247426926207
9.184000000000001,1.0,133.50168321208787
9.192,0.9999999999999999,133.46089152497782
9.2,1.0,133.42009920467638
9.208,1.0,133.37930624792617
9.216000000000001,1.0,133.33851265146833
9.224,0.9999999999999999,133.29771841204268
9.232,1.0,133.25692352638825
9.24,1.0,133.21612799124313
9.248000000000001,0.9999999999999999,133.17533180334527
9.256,0.9999999999999999,133.13453495943227
9.264,1.0,133.0937374562418
9.272,1.0,133.05293929051197
9.280000000000001,1.0,133.0121404589815
9.288,0.9999999999999999,132.97134095838982
9.296,1.0,132.93054078547755
9.304,1.0,132.88973993698653
9.312000000000001,0.9999999999999999,132.84893840966024
9.32,1.0,132.80813620024384
9.328,1.0,132.76733330548453
9.336,1.0,132.72652972213163
9.344,1.0,132.68572544693703
9.352,1.0,132.64492047665502
9.36,1.0,132.60411480804294
9.368,0.9999999999999999,132.563308437861
9.376,0.9999999999999999,132.52250136287276
9.384,1.0,132.48169357984509
9.392,1.0,132.44088508554844
9.4,0.9999999999999999,132.4000758767572
9.408,0.9999999999999999,132.35926595024952
9.416,1.0,132.31845530280785
9.424,1.0,132.27764393121885
9.432,1.0,132.23683183227365
9.44,1.0,132.19601900276808
9.448,1.0,132.15520543950268
9.456,1.0,132.114391139283
9.464,1.0,132.07357609891957
9.472,1.0,132.03276031522833
9.48,0.9999999999999999,131.99194378503046
9.488,1.0,131.95112650515267
9.496,1.0,131.91030847242737
9.504,1.0,131.86948968369268
9.512,1.0,131.82867013579266
9.52,1.0,131.7878498255774
9.528,1.0,131.7470287499031
9.536,0.9999999999999999,131.70620690563226
9.544,0.9999999999999999,131.66538428963366
9.552,0.9999999999999999,131.62456089878256
9.56,1.0,131.58373672996086
9.568,1.0,131.54291178005704
9.576,1.0,131.5020860459664
9.584,0.9999999999999999,131.46125952459101
9.592,1.0,131.42043221283998
9.6,1.0,131.37960410762935
9.608,1.0,131.33877520588223
9.616,1.0,131.297945504529
9.624,1.0,131.25711500050718
9.632,1.0,131.21628369076168
9.64,1.0,131.17545157224467
9.648,0.9999999999999999,131.1346186419159
9.656,1.0,131.0937848967424
9.664,1.0,131.05295033369887
9.672,1.0,131.01211494976766
9.68,0.9999999999999999,130.97127874193862
9.688,1.0,130.93044170720927
9.696,1.0,130.88960384258493
9.704,0.9999999999999999,130.84876514507857
9.712,1.0,130.807925611711
9.72,1.0,130.76708523951078
9.728,1.0,130.7262440255144
9.736,0.9999999999999998,130.68540196676597
9.744,1.0,130.64455906031773
9.752,1.0,130.6037153032296
9.76,0.9999999999999999,130.56287069256942
9.768,1.0,130.52202522541296
9.776,1.0,130.48117889884386
9.784,1.0,130.44033170995363
9.792,1.0,130.39948365584172
9.8,1.0,130.3586347336153
9.808,1.0,130.31778494038963
9.816,0.9999999999999999,130.27693427328754
9.824,1.0,130.23608272943997
9.832,1.0,130.1952303059855
9.84,1.0,130.15437700007047
9.847999999999999,0.9999999999999999,130.11352280884907
9.856,0.9999999999999999,130.07266772948313
9.864,1.0,130.03181175914216
9.872,0.9999999999999999,129.99095489500337
9.879999999999999,1.0,129.9500971342515
9.888,1.0,129.90923847407885
9.896,1.0,129.86837891168526
9.904,1.0,129.82751844427796
9.911999999999999,1.0,129.7866570690716
9.92,1.0,129.74579478328812
9.928,1.0,129.70493158415672
9.936,0.9999999999999999,129.6640674689139
9.943999999999999,0.9999999999999999,129.62320243480315
9.952,1.0,129.582336479075
9.96,1.0,129.54146959898702
9.968,1.0,129.5006017918036
9.975999999999999,0.9999999999999998,129.45973305479606
9.984,1.0,129.41886338524216
9.992,1.0,129.37799278042652
10.0,1.0,129.33712123764022
10.008,1.0,129.29624875418068
10.016,1.0,129.2553753273516
10.024000000000001,1.0,129.21450095446303
10.032,1.0,129.173625632831
10.04,1.0,129.13274935977753
10.048,1.0,129.09187213263047
10.056000000000001,1.0,129.05099394872337
10.064,1.0,129.01011480539555
10.072,1.0,128.96923469999155
10.08,1.0,128.92835362986142
