freq,mag,phase
6.0,0.9999916709427072,-154.01189465224874
6.008,0.9999927851973235,-154.40754451325688
6.016,0.9999938623336979,-154.8028878121989
6.024,0.9999949030389228,-155.19792767760313
6.032,0.999995907992355,-155.59266725113466
6.04,0.9999968778656512,-155.98710968737964
6.048,0.9999978133228016,-156.3812581536325
6.056,0.9999987150201672,-156.77511582968566
6.064,0.9999995836065171,-157.1686859076221
6.072,1.0,-157.5619715916103
6.08,1.0,-157.9549760977018
6.088,0.9999999999999998,-158.34770265363156
6.096,1.0,-158.74015449862046
6.104,1.0,-159.13233488318076
6.112,1.0,-159.52424706892376
6.12,1.0,-159.9158943283702
6.128,1.0,-160.30727994476302
6.136,0.9999999999999999,-160.69840721188243
6.144,1.0,-161.08927943386388
6.152,0.9999999999999999,-161.4798999250178
6.16,1.0,-161.87027200965244
6.168,1.0,-162.2603990218985
6.176,0.9999999999999999,-162.65028430553647
6.184,1.0,-163.03993121382635
6.192,1.0,-163.4293431093392
6.2,0.9999999999999999,-163.8185233637916
6.208,0.9999999999999999,-164.20747535788212
6.216,0.9999999999999999,-164.59620248112995
6.224,0.9999999999999999,-164.98470813171582
6.232,1.0,-165.37299571632522
6.24,0.9999999999999999,-165.76106864999377
6.248,0.9999999999999999,-166.1489303559546
6.256,1.0,-166.53658426548816
6.264,0.9999999999999999,-166.92403381777373
6.272,0.9999999999999999,-167.31128245974352
6.28,1.0,-167.6983336459383
6.288,0.9999999999999999,-168.08519083836572
6.296,0.9999999999999999,-168.47185750635973
6.304,1.0,-168.85833712644302
6.312,0.9999999999999999,-169.24463318219077
6.32,1.0,-169.63074916409644
6.328,1.0,-170.0166885694396
6.336,0.9999999999999999,-170.4024549021556
6.344,1.0,-170.78805167270713
6.352,0.9999999999999999,-171.17348239795757
6.36,1.0,-171.55875060104626
6.368,1.0,-171.9438598112652
6.376,1.0,-172.32881356393827
6.384,1.0,-172.7136154003013
6.392,1.0,-173.0982688673845
6.4,0.9999999999999998,-173.48277751789618
6.408,0.9999999999999999,-173.8671449101085
6.416,1.0,-174.25137460774445
6.424,1.0,-174.6354701798668
6.432,1.0,-175.01943520076819
6.44,0.9999999999999999,-175.40327324986356
6.448,0.9999999999999999,-175.786987911583
6.456,1.0,-176.1705827752671
6.464,0.9999999999999999,-176.5540614350633
6.472,0.9999999999999999,-176.9374274898236
6.48,1.0,-177.32068454300415
6.4879999999999995,1.0,-177.7038362025655
6.496,1.0,-178.08688608087522
6.504,0.9999999999999999,-178.4698377946107
6.5120000000000005,0.9999999999999999,-178.85269496466444
6.52,1.0,-179.23546121604934
6.5280000000000005,1.0,-179.6181401778068
6.536,1.0,179.99926451708563
6.5440000000000005,0.9999999999999999,179.61674923180382
6.552,0.9999999999999999,179.23431032576687
6.5600000000000005,0.9999999999999999,178.85194415472455
6.568,1.0,178.46964707084456
6.5760000000000005,1.0,178.08741542279793
6.584,0.9999999999999998,177.70524555584413
6.592,1.0,177.32313381191435
6.6,1.0,176.9410765296944
6.608,0.9999999999999999,176.55907004470623
6.616,0.9999999999999999,176.17711068938874
6.624,1.0,175.79519479317736
6.632,1.0,175.41331868258325
6.64,0.9999999999999999,175.0314786812709
6.648,0.9999999999999999,174.6496711101355
6.656,0.9999999999999998,174.26789228737928
6.664,0.9999999999999999,173.88613852858688
6.672,1.0,173.50440614680028
6.68,1.0,173.12269145259262
6.688,0.9999999999999999,172.74099075414176
6.696,1.0,172.3593003573027
6.704,1.0,171.9776165656796
6.712,1.0,171.59593568069715
6.72,1.0,171.21425400167132
6.728,1.0,170.83256782587955
6.736,1.0,170.45087344863018
6.744,1.0,170.06916716333185
6.752,1.0,169.68744526156186
6.76,0.9999999999999998,169.3057040331344
6.768,0.9999999999999999,168.92393976616836
6.776,1.0,168.54214874715447
6.784,1.0,168.16032726102236
6.792,1.0,167.77847159120705
6.8,0.9999999999999999,167.3965780197152
6.808,0.9999999999999999,167.0146428271911
6.816,0.9999999999999998,166.63266229298236
6.824,1.0,166.25063269520527
6.832,1.0,165.86855031081012
6.84,1.0,165.4864114156462
6.848,1.0,165.1042122845266
6.856,0.9999999999999999,164.7219491912931
6.864,0.9999999999999999,164.3396184088808
6.872,1.0,163.95721620938255
6.88,0.9999999999999999,163.57473886411358
6.888,1.0,163.19218264367606
6.896,0.9999999612715885,162.80954381802346
6.904,0.9999996928841574,162.42681865652517
6.912,0.9999994262078725,162.04400342803126
6.92,0.9999991613384717,161.66109440093692
6.928,0.9999988983688453,161.2780878432475
6.936,0.9999986373890705,160.89498002264324
6.944,0.9999983784864468,160.5117672065448
6.952,0.9999981217455317,160.1284456621782
6.96,0.9999978672481752,159.74501165664063
6.968,0.999997615073555,159.36146145696637
6.976,0.9999973652982102,158.97779133019256
6.984,0.9999971179960765,158.59399754342616
6.992,0.9999968732385188,158.2100763639102
7.0,0.9999966310943671,157.82602405909137
7.008,0.9999963916299471,157.44183689668736
7.016,0.9999961549091161,157.05751114475487
7.024,0.999995920993295,156.67304307175812
7.032,0.9999956899415002,156.28842894663774
7.04,0.9999954618103779,155.90366503888018
7.048,0.9999952366542346,155.51874761858778
7.056,0.9999950145250698,155.13367295654916
7.064,0.999994795472609,154.74843732431054
7.072,0.9999945795443331,154.36303699424744
7.08,0.9999943667855116,153.97746823963703
7.088,0.999994157239233,153.59172733473144
7.096,0.9999939509464346,153.2058105548313
7.104,0.9999937479459358,152.81971417636055
7.112,0.9999935482744657,152.43343447694158
7.12,0.9999933519666958,152.04696773547153
7.128,0.9999931590552669,151.66031023219895
7.136,0.9999929695708225,151.273458248802
7.144,0.999992783542036,150.8864080684667
7.152,0.9999926009956396,150.49915597596677
7.16,0.999992421956455,150.11169825774417
7.168,0.9999922464474217,149.72403120199036
7.176,0.9999920744896252,149.336151098729
7.184,0.9999919061023264,148.9480542398995
7.192,0.9999917413029884,148.55973691944126
7.2,0.9999915801073056,148.17119543337967
7.208,0.9999914225292311,147.78242607991254
7.216,0.9999912685810045,147.39342515949835
7.224,0.9999911182731794,147.00418897494492
7.232,0.9999909716146513,146.61471383149993
7.24,0.999990828612681,146.22499603694214
7.248,0.9999906892729266,145.8350319016745
7.256,0.9999905535994668,145.44481773881768
7.264,0.9999904215948279,145.05434986430575
7.272,0.9999902932600099,144.66362459698254
7.28,0.9999901685945134,144.2726382587
7.288,0.9999900475963648,143.8813871744172
7.296,0.9999899302621411,143.48986767230153
7.304,0.9999898165869973,143.09807608383076
7.312,0.9999897065646891,142.70600874389683
7.32,0.9999896001875996,142.31366199091124
7.328,0.9999894974467654,141.92103216691183
7.336,0.9999893983318981,141.52811561767095
7.344,0.999989302831411,141.13490869280574
7.352,0.999989210932443,140.74140774588955
7.36,0.999989122620883,140.34760913456526
7.368,0.9999890378813934,139.95350922066004
7.376,0.9999889566974337,139.55910437030232
7.384,0.999988879051285,139.1643909540398
7.392,0.999988804924073,138.7693653469598
7.4,0.9999887342957917,138.37402392881114
7.4079999999999995,0.9999886671453251,137.97836308412795
7.416,0.9999886034504721,137.58237920235496
7.4239999999999995,0.9999885431879678,137.18606867797556
7.432,0.9999884863335086,136.7894279106405
7.4399999999999995,0.99998843286177,136.39245330529988
7.448,0.9999883827464346,135.99514127233576
7.4559999999999995,0.9999883359602099,135.5974882276979
7.464,0.9999882924748524,135.19949059304082
7.4719999999999995,0.9999882522611891,134.80114479586322
7.48,0.9999882152891394,134.40244726964917
7.4879999999999995,0.9999881815277362,134.00339445401195
7.496,0.9999881509451477,133.60398279483914
7.504,0.9999881235086984,133.20420874444093
7.5120000000000005,0.9999880991848906,132.80406876169957
7.52,0.9999880779394248,132.40355931222197
7.5280000000000005,0.999988059737222,132.00267686849338
7.536,0.9999880445424423,131.6014179100349
7.5440000000000005,0.9999880323185074,131.19977892356164
7.552,0.9999880230281188,130.79775640314435
7.5600000000000005,0.9999880166332817,130.3953468503726
7.568,0.9999880130953216,129.99254677452123
7.5760000000000005,0.9999880123749061,129.58935269271788
7.584,0.9999880144320642,129.18576113011454
7.5920000000000005,0.999988019226207,128.78176862005984
7.6,0.9999880267161458,128.37737170427536
7.6080000000000005,0.9999880368601133,127.97256693303304
7.616,0.9999880496157825,127.5673508653364
7.6240000000000006,0.9999880649402851,127.16172006910303
7.632,0.9999880827902313,126.75567112135077
7.640000000000001,0.9999881031217295,126.34920060838543
7.648,0.9999881258904039,125.94230512599219
7.656000000000001,0.999988151051414,125.5349812796284
7.664,0.999988178559474,125.12722568462037
7.672,0.9999882083688699,124.71903496636155
7.68,0.9999882404334791,124.31040576051416
7.688,0.9999882747067876,123.90133471321357
7.696,0.9999883111419103,123.49181848127486
7.704,0.9999883496916067,123.08185373240256
7.712,0.9999883903082993,122.67143714540316
7.72,0.9999884329440938,122.26056541040008
7.728,0.9999884775507942,121.8492352290518
7.736,0.9999885240799218,121.43744331477268
7.744,0.9999885724827319,121.02518639295648
7.752,0.9999886227102329,120.61246120120308
7.76,0.9999886747132016,120.19926448954764
7.768,0.9999887284422015,119.78559302069306
7.776,0.9999887838476004,119.37144357024509
7.784,0.9999888408795862,118.95681292695046
7.792,0.9999888994881851,118.54169789293798
7.8,0.9999889596232773,118.12609528396237
7.808,0.9999890212346143,117.71000192965148
7.816,0.9999890842718362,117.29341467375608
7.824,0.9999891486844865,116.87633037440285
7.832,0.99998921442203,116.45874590435032
7.84,0.9999892814338687,116.04065815124778
7.848,0.9999893496693578,115.62206401789739
7.856,0.9999894190778222,115.20296042251898
7.864,0.9999894896085716,114.78334429901837
7.872,0.9999895612109179,114.36321259725823
7.88,0.99998963383419,113.9425622833324
7.888,0.9999897074277494,113.52139033984305
7.896,0.9999897819410065,113.09969376618098
7.904,0.9999898573234357,112.67746957880892
7.912,0.9999899335245911,112.25471481154814
7.92,0.999990010494121,111.83142651586775
7.928,0.9999900881817841,111.40760176117746
7.936,0.9999901665374648,110.98323763512317
7.944,0.9999902455111864,110.55833124388583
7.952,0.9999903250531287,110.13287971248313
7.96,0.9999904051136403,109.70688018507458
7.968,0.9999904856432555,109.28032982526936
7.976,0.9999905665927067,108.85322581643754
7.984,0.9999906479129406,108.4255653620241
7.992,0.9999907295551324,107.99734568586611
8.0,0.9999908114706991,107.5685640325131
8.008,0.9999908936113151,107.13921766755023
8.016,0.9999909759289248,106.70930387792457
8.024000000000001,0.9999910583757582,106.27881997227469
8.032,0.9999911409043436,105.84776328126287
8.04,0.9999912234675215,105.41613115791029
8.048,0.9999913060184586,104.98392097793548
8.056000000000001,0.9999913885106618,104.55113014009586
8.064,0.9999914708979909,104.11775606653184
8.072,0.9999915531346713,103.68379620311374
8.08,0.99999163517531,103.24924801979212
8.088000000000001,0.9999917169749047,102.81410901095093
8.096,0.9999917984888611,102.37837669576324
8.104,0.9999918796730017,101.94204861854966
8.112,0.9999919604835819,101.50512234914007
8.120000000000001,0.9999920408773001,101.06759548323814
8.128,0.999992120811313,100.62946564278815
8.136,0.9999922002432448,100.19073047634467
8.144,0.9999922791312021,99.75138765944511
8.152000000000001,0.9999923574337848,99.31143489498525
8.16,0.9999924351100987,98.87086991359665
8.168,0.9999925121197665,98.42969047402691
8.176,0.9999925884229407,97.98789436352288
8.184000000000001,0.9999926639803152,97.54547939821614
8.192,0.9999927387531354,97.10244342351085
8.2,0.9999928127032113,96.65878431447383
8.208,0.9999928857929284,96.21449997622754
8.216000000000001,0.9999929579852574,95.76958834434534
8.224,0.9999930292437671,95.32404738524855
8.232,0.9999930995326343,94.87787509660602
8.24,0.9999931688166541,94.43106950773598
8.248000000000001,0.9999932370612514,93.98362868001016
8.256,0.9999933042324904,93.5355507072596
8.264,0.999993370297085,93.08683371618247
8.272,0.9999934352224101,92.6374758667541
8.280000000000001,0.9999934989765098,92.18747535263921
8.288,0.9999935615281073,91.73683040160523
8.296,0.9999936228466163,91.28553927593757
8.304,0.9999936829021481,90.83360027285697
8.312,0.9999937416655232,90.38101172493855
8.32,0.9999937991082783,89.92777200053138
8.328,0.9999938552026763,89.4738795041811
8.336,0.999993909921715,89.01933267705223
8.344,0.9999939632391354,88.56412999735356
8.352,0.9999940151294301,88.108269980763
8.36,0.9999940655678526,87.65175118085537
8.368,0.9999941145304233,87.19457218952948
8.376,0.9999941619939389,86.73673163743794
8.384,0.9999942079359793,86.2782281944162
8.392,0.9999942523349157,85.81906056991401
8.4,0.9999942951699174,85.359227513426
8.408,0.9999943364209594,84.89872781492444
8.416,0.9999943760688278,84.43756030529094
8.424,0.999994414095127,83.97572385675022
8.432,0.9999944504822889,83.51321738330249
8.44,0.9999944852135743,83.05003984115768
8.448,0.9999945182730826,82.58619022916827
8.456,0.9999945496457563,82.12166758926352
8.464,0.9999945793173864,81.65647100688217
8.472,0.9999946072746174,81.19059961140644
8.48,0.9999946335049541,80.72405257659395
8.488,0.9999946579967645,80.25682912101108
8.496,0.9999946807392853,79.78892850846378
8.504,0.999994701722626,79.3203500484296
8.512,0.9999947209377739,78.85109309648706
8.52,0.9999947383765972,78.38115705474574
8.528,0.9999947540318482,77.91054137227373
8.536,0.9999947678971681,77.43924554552534
8.544,0.9999947799670895,76.967269118766
8.552,0.999994790237038,76.49461168449716
8.56,0.9999947987033369,76.02127288387804
8.568,0.9999948053632088,75.54725240714708
8.576,0.9999948102147769,75.07254999404013
8.584,0.9999948132570681,74.5971654342079
8.592,0.9999948144900134,74.12109856762979
8.6,0.9999948139144497,73.64434928502702
8.608,0.9999948115321209,73.16691752827147
8.616,0.999994807345679,72.6888032907936
8.624,0.9999948013586833,72.21000661798602
8.632,0.9999947935756011,71.73052760760557
8.64,0.9999947840018083,71.25036641017076
8.648,0.9999947726435878,70.76952322935756
8.656,0.9999947595081291,70.28799832239011
8.664,0.999994744603528,69.80579200042946
8.672,0.999994727938784,69.32290462895692
8.68,0.9999947095237992,68.83933662815511
8.688,0.9999946893693765,68.35508847328335
8.696,0.999994667487218,67.87016069505029
8.704,0.9999946438899197,67.38455387998059
8.712,0.9999946185909719,66.89826867077856
8.72,0.9999945916047541,66.4113057666855
8.728,0.9999945629465317,65.92366592383348
8.736,0.999994532632452,65.43534995559264
8.744,0.9999945006795404,64.94635873291465
8.752,0.9999944671056962,64.4566931846691
8.76,0.9999944319296863,63.96635429797584
8.768,0.9999943951711413,63.475343118529864
8.776,0.9999943568505496,62.98366075092179
8.784,0.9999943169892516,62.49130835895053
8.792,0.9999942756094329,61.998287165931174
8.8,0.9999942327341191,61.50459845499467
8.808,0.9999941883871675,61.0102435693824
8.815999999999999,0.9999941425932604,60.51522391273227
8.824,0.9999940953778975,60.01954094935871
8.832,0.9999940467673893,59.523196204525256
8.84,0.9999939967888462,59.026191264709254
8.847999999999999,0.9999939454701723,58.52852777785879
8.856,0.9999938928400552,58.030207453642355
8.864,0.9999938389279573,57.53123206369022
8.872,0.9999937837641064,57.03160344182738
8.879999999999999,0.9999937273794846,56.5313234842979
8.888,0.9999936698058195,56.03039414998123
8.896,0.9999936110755726,55.528817460599655
8.904,0.9999935512219287,55.02659550091628
8.911999999999999,0.9999934902787846,54.52373041892403
8.92,0.9999934282807367,54.02022442602562
8.928,0.9999933652630709,53.516079797203936
8.936,0.9999933012617483,53.01129887118258
8.943999999999999,0.9999932363133933,52.50588405057613
8.952,0.9999931704552808,51.999837802031166
8.96,0.9999931037253227,51.493162656356745
8.968,0.999993036162054,50.985861208644366
8.975999999999999,0.99999296780462,50.477936118376924
8.984,0.9999928986927598,49.969390109527794
8.992,0.9999928288667939,49.460225970648786
9.0,0.9999927583676077,48.95044655494645
9.008,0.9999926872366377,48.4400547803474
9.016,0.9999926155158545,47.92905362955244
9.024000000000001,0.9999925432477473,47.4174461500792
9.032,0.9999924704753086,46.90523545429273
9.04,0.9999923972420166,46.39242471942376
9.048,0.9999923235918191,45.879017187576025
9.056000000000001,0.9999922495691163,45.365016165720704
9.064,0.9999921752187426,44.85042502567855
9.072,0.9999921005859512,44.33524720408941
9.08,0.9999920257163927,43.81948620236937
9.088000000000001,0.9999919506561001,43.303145586655425
9.096,0.9999918754514692,42.7862289877366
9.104,0.9999918001492387,42.268740100972096
9.112,0.9999917247964739,41.75068268619674
9.120000000000001,0.9999916494405438,41.23206056761316
9.128,0.999991574129105,40.71287763367006
9.136,0.9999914989100804,40.19313783692701
9.144,0.9999914238316393,39.67284519390607
9.152000000000001,0.9999913489421769,39.15200378492966
9.16,0.999991274290295,38.630617753944215
9.168,0.9999911999247808,38.10869130832969
9.176,0.9999911258945853,37.586228718695864
9.184000000000001,0.9999910522488034,37.06323431866413
9.192,0.9999909790366522,36.539712504634906
9.2,0.9999909063074505,36.01566773554075
9.208,0.9999908341105951,35.49110453258542
9.216000000000001,0.9999907624955416,34.96602747896865
9.224,0.9999906915117808,34.44044121959609
9.232,0.9999906212088173,33.91435046077451
9.24,0.9999905516361478,33.38775996989293
9.248000000000001,0.9999904828432381,32.86067457508936
9.256,0.9999904148795007,32.333099164902045
9.264,0.9999903477942726,31.80503868790635
9.272,0.9999902816367935,31.276498152337094
9.280000000000001,0.9999902164561811,30.7474826256965
9.288,0.9999901523014105,30.217997234346466
9.296,0.9999900892212897,29.688047163086566
9.304,0.9999900272644376,29.15763765471731
9.312000000000001,0.9999899664792612,28.62677400958891
9.32,0.9999899069139324,28.095461585134778
9.328,0.9999898486163635,27.563705795390234
9.336,0.9999897916341877,27.031512110497008
9.344,0.9999897360147317,26.49888605619317
9.352,0.9999896818049975,25.965833213287258
9.36,0.9999896290516346,25.432359217119576
9.368,0.9999895778009206,24.898469757007067
9.376,0.9999895280987369,24.364170575675505
9.384,0.9999894799905451,23.829467468675485
9.392,0.999989433521366,23.294366283786008
9.4,0.9999893887357555,22.758872920401583
9.408,0.9999893456777821,22.222993328907485
9.416,0.9999893043910055,21.686733510038646
9.424,0.9999892649184525,21.150099514226728
9.432,0.9999892273025959,20.613097440931167
9.44,0.9999891915853316,20.07573343795857
9.448,0.9999891578079577,19.538013700766356
9.456,0.9999891260111515,18.999944471755047
9.464,0.9999890962349479,18.46153203954488
9.472,0.9999890685187186,17.922782738241462
9.48,0.9999890429011501,17.383702946686213
9.488,0.9999890194202232,16.844299087695784
9.496,0.9999889981131916,16.304577627286854
9.504,0.9999889790165621,15.764545073890213
9.512,0.9999889621660725,15.224207977550474
9.52,0.9999889475966731,14.683572929115428
9.528,0.9999889353425062,14.142646559411478
9.536,0.9999889254368871,13.60143553840911
9.544,0.9999889179122831,13.059946574374802
9.552,0.9999889128002961,12.518186413013318
9.56,0.999988910131643,11.976161836596914
9.568,0.9999889099361382,11.433879663085483
9.576,0.9999889122426748,10.891346745233873
9.584,0.9999889170792068,10.34856996969075
9.592,0.9999889244727326,9.805556256084994
9.6,0.9999889344492766,9.262312556104154
9.608,0.9999889470338739,8.718845852561115
9.616,0.9999889622505534,8.175163158452994
9.624,0.9999889801223222,7.6312715160090265
9.632,0.9999890006711496,7.087177995731197
9.64,0.9999890239179536,6.542889695424247
9.648,0.9999890498825841,5.998413739219125
9.656,0.9999890785838101,5.453757276586306
9.664,0.9999891100393065,4.908927481343123
9.672,0.9999891442656382,4.363931550651637
9.68,0.9999891812782516,3.81877670401098
9.688,0.9999892210914578,3.273470182240888
9.696,0.9999892637184234,2.728019246460364
9.704,0.999989309171158,2.182431177058067
9.712,0.9999893574605049,1.6367132726585176
9.72,0.9999894085961276,1.0908728490806145
9.728,0.9999894625865028,0.5449172382926157
9.736,0.9999895194389096,-0.0011462126398908263
