freq,mag,phase
6.0,0.9999829869959496,53.26258624017063
6.008,0.9999836196563585,53.06652594246453
6.016,0.9999842380839913,52.87038230240212
6.024,0.9999848424427463,52.674155405922875
6.032,0.999985432895736,52.47784533994667
6.04,0.999986009605287,52.28145219237533
6.048,0.9999865727329371,52.0849760520939
6.056,0.999987122439435,51.88841700897207
6.064,0.9999876588847375,51.69177515386543
6.072,0.9999881822280088,51.49505057861682
6.08,0.9999886926276195,51.29824337605765
6.088,0.9999891902411435,51.101353640009066
6.096,0.9999896752253582,50.90438146528329
6.104,0.999990147736242,50.70732694768481
6.112,0.9999906079289731,50.51019018401155
6.12,0.9999910559579289,50.31297127205608
6.128,0.9999914919766829,50.115670310606795
6.136,0.9999919161380053,49.91828739944894
6.144,0.9999923285938597,49.720822639365856
6.152,0.9999927294954039,49.52327613214002
6.16,0.999993118992986,49.32564798055402
6.168,0.9999934972361454,49.12793828839172
6.176,0.9999938643736103,48.930147160439255
6.184,0.9999942205532968,48.73227470248597
6.192,0.9999945659223071,48.53432102132542
6.2,0.9999949006269296,48.33628622475635
6.208,0.9999952248126355,48.13817042158354
6.216,0.9999955386240797,47.93997372161882
6.224,0.9999958422050989,47.741696235681864
6.232,0.9999961356987096,47.543338075601035
6.24,0.9999964192471081,47.34489935421427
6.248,0.9999966929916686,47.14638018536985
6.256,0.9999969570729431,46.94778068392719
6.264,0.9999972116306584,46.7491009657576
6.272,0.9999974568037173,46.550341147744945
6.28,0.9999976927301961,46.3515013477865
6.288,0.9999979195473435,46.152581684793496
6.296,0.9999981373915806,45.95358227869184
6.304,0.999998346398499,45.7545032504227
6.312,0.9999985467028605,45.55534472194312
6.32,0.9999987384385947,45.35610681622671
6.328,0.9999989217388007,45.156789657264014
6.336,0.9999990967357428,44.95739337006314
6.344,0.9999992635608532,44.7579180806503
6.352,0.999999422344728,44.558363916070185
6.36,0.9999995732171284,44.358731004386506
6.368,0.9999997163069789,44.159019474682346
6.376,0.9999998517423665,43.95922945706061
6.384,0.99999997965054,43.759361082644375
6.392,1.0,43.55941448357724
6.4,1.0,43.35938979302362
6.408,0.9999999999999999,43.159287145169024
6.416,0.9999999999999999,42.95910667522041
6.424,0.9999999999999999,42.75884851940634
6.432,1.0,42.55851281497717
6.44,0.9999999999999999,42.35809970020528
6.448,1.0,42.157609314385276
6.456,0.9999999999999999,41.957041797833966
6.464,0.9999999999999999,41.756397291890615
6.472,1.0,41.5556759389169
6.48,1.0,41.354877882297046
6.4879999999999995,1.0,41.15400326643779
6.496,1.0,40.95305223676827
6.504,0.9999999999999999,40.75202493974029
6.5120000000000005,1.0,40.55092152282782
6.52,1.0,40.34974213452734
6.5280000000000005,1.0,40.14848692435731
6.536,1.0,39.9471560428583
6.5440000000000005,1.0,39.74574964159269
6.552,1.0,39.54426787314446
6.5600000000000005,0.9999999999999999,39.34271089111892
6.568,1.0,39.1410788501426
6.5760000000000005,0.9999999999999999,38.939371905862615
6.584,1.0,38.737590214946806
6.592,0.9999999999999999,38.53573393508287
6.6,1.0,38.33380322497835
6.608,1.0,38.13179824436007
6.616,0.9999999999999999,37.92971915397364
6.624,1.0,37.72756611558314
6.632,1.0,37.52533929197041
6.64,1.0,37.32303884693463
6.648,1.0,37.12066494529174
6.656,0.9999999999999999,36.918217752873836
6.664,1.0,36.71569743652854
6.672,0.9999999999999999,36.51310416411828
6.68,1.0,36.31043810451973
6.688,1.0,36.10769942762293
6.696,1.0,35.9048883043307
6.704,1.0,35.70200490655768
6.712,0.9999999999999999,35.499049407229705
6.72,1.0,35.29602198028278
6.728,1.0,35.09292280066238
6.736,0.9999999367667947,34.889752044322385
6.744,0.9999998439506791,34.68650988822423
6.752,0.9999997485457824,34.48319651033592
6.76,0.9999996506394824,34.279812089631065
6.768,0.9999995503183069,34.076356806087766
6.776,0.9999994476679352,33.87283084068762
6.784,0.9999993427731989,33.6692343754146
6.792,0.9999992357180805,33.46556759325395
6.8,0.9999991265857164,33.261830678191025
6.808,0.9999990154583956,33.05802381521004
6.816,0.9999989024175602,32.854147190292956
6.824,0.9999987875438073,32.650200990418156
6.832,0.9999986709168884,32.44618540355916
6.84,0.99999855261571,32.242100618683345
6.848,0.9999984327183357,32.03794682575058
6.856,0.9999983113019849,31.833724215711857
6.864,0.9999981884430343,31.629432980507826
6.872,0.9999980642170191,31.425073313067404
6.88,0.9999979386986328,31.220645407306336
6.888,0.9999978119617298,31.016149458125568
6.896,0.999997684079323,30.81158566140982
6.904,0.9999975551235882,30.60695421402595
6.912,0.9999974251658624,30.402255313821378
6.92,0.9999972942766461,30.19748915962239
6.928,0.9999971625256032,29.992655951232578
6.936,0.9999970299815634,29.787755889431025
6.944,0.9999968967125206,29.582789175970646
6.952,0.9999967627856373,29.377756013576388
6.96,0.9999966282672434,29.172656605943374
6.968,0.9999964932228372,28.96749115773522
6.976,0.9999963577170874,28.762259874582004
6.984,0.9999962218138341,28.556962963078465
6.992,0.9999960855760899,28.35160063078203
7.0,0.9999959490660398,28.146173086210883
7.008,0.9999958123450452,27.940680538841942
7.016,0.9999956754736421,27.73512319910883
7.024,0.9999955385115444,27.529501278399835
7.032,0.9999954015176449,27.323814989055776
7.04,0.9999952645500151,27.118064544367897
7.048,0.9999951276659094,26.91225015857572
7.056,0.9999949909217632,26.70637204686483
7.064,0.9999948543731976,26.500430425364637
7.072,0.9999947180750176,26.29442551114615
7.08,0.9999945820812167,26.08835752221967
7.088,0.9999944464449761,25.882226677532415
7.096,0.9999943112186673,25.67603319696625
7.104,0.9999941764538534,25.469777301335245
7.112,0.9999940422012908,25.263459212383236
7.12,0.9999939085109311,25.05707915278139
7.128,0.9999937754319219,24.850637346125716
7.136,0.9999936430126095,24.644134016934512
7.144,0.9999935113005405,24.437569390645876
7.152,0.9999933803424623,24.230943693615036
7.16,0.999993250184327,24.02425715311175
7.168,0.9999931208712908,23.81750999731771
7.176,0.9999929924477189,23.610702455323743
7.184,0.9999928649571838,23.403834757127203
7.192,0.9999927384424704,23.196907133629143
7.2,0.9999926129455757,22.98991981663157
7.208,0.9999924885077125,22.782873038834552
7.216,0.9999923651693099,22.575767033833486
7.224,0.9999922429700163,22.36860203611609
7.232,0.9999921219487009,22.161378281059573
7.24,0.9999920021434568,21.954096004927642
7.248,0.999991883591602,21.74675544486751
7.256,0.999991766329682,21.53935683890691
7.264,0.999991650393472,21.331900425951027
7.272,0.9999915358179795,21.124386445779418
7.28,0.9999914226374457,20.91681513904291
7.288,0.9999913108853488,20.709186747260414
7.296,0.9999912005944049,20.501501512815803
7.304,0.9999910917965731,20.29375967895466
7.312,0.999990984523054,20.08596148978103
7.32,0.9999908788042959,19.8781071902542
7.328,0.9999907746699944,19.670197026185306
7.336,0.9999906721490966,19.462231244234037
7.344,0.999990571269803,19.254210091905293
7.352,0.9999904720595699,19.046133817545705
7.36,0.9999903745451126,18.838002670340263
7.368,0.9999902787524073,18.629816900308803
7.376,0.9999901847066943,18.42157675830253
7.384,0.9999900924324799,18.213282496000485
7.392,0.99999000195354,18.004934365905967
7.4,0.9999899132929233,17.79653262134294
7.4079999999999995,0.9999898264729516,17.58807751645243
7.416,0.9999897415152255,17.379569306188746
7.4239999999999995,0.9999896584406253,17.171008246316052
7.432,0.9999895772693157,16.96239459340425
7.4399999999999995,0.9999894980207457,16.753728604825717
7.448,0.9999894207136555,16.545010538750986
7.4559999999999995,0.999989345366076,16.336240654145406
7.464,0.9999892719953332,16.127419210764913
7.4719999999999995,0.9999892006180522,15.91854646915248
7.48,0.9999891312501584,15.70962269063388
7.4879999999999995,0.9999890639068814,15.500648137314077
7.496,0.9999889986027589,15.291623072072923
7.504,0.9999889353516384,15.08254775856149
7.5120000000000005,0.999988874166682,14.873422461197688
7.52,0.9999888150603681,14.664247445162548
7.5280000000000005,0.999988758044495,14.455022976395815
7.536,0.9999887031301855,14.245749321592113
7.5440000000000005,0.9999886503278889,14.036426748196478
7.552,0.9999885996473838,13.827055524400519
7.5600000000000005,0.9999885510977841,13.617635919137845
7.568,0.9999885046875389,13.408168202080187
7.5760000000000005,0.9999884604244387,13.198652643632752
7.584,0.9999884183156179,12.989089514930283
7.5920000000000005,0.9999883783675582,12.77947908783237
7.6,0.9999883405860918,12.56982163491945
7.6080000000000005,0.9999883049764061,12.360117429488039
7.616,0.9999882715430469,12.150366745546684
7.6240000000000006,0.999988240289921,11.940569857811163
7.632,0.9999882112203008,11.730727041700325
7.640000000000001,0.9999881843368287,11.520838573331286
7.648,0.9999881596415184,11.310904729515201
7.656000000000001,0.9999881371357623,11.100925787752338
7.664,0.9999881168203321,10.890902026227895
7.672,0.9999880986953836,10.680833723806995
7.68,0.9999880827604617,10.47072116003027
7.688,0.9999880690145021,10.26056461510914
7.696,0.9999880574558381,10.050364369921075
7.704,0.9999880480822017,9.840120706004866
7.712,0.9999880408907291,9.62983390555588
7.72,0.9999880358779655,9.41950425142127
7.728,0.9999880330398667,9.209132027095148
7.736,0.9999880323718053,8.99871751671376
7.744,0.9999880338685742,8.788261005050613
7.752,0.9999880375243901,8.577762777511564
7.76,0.9999880433328998,8.367223120129918
7.768,0.9999880512871812,8.156642319561463
7.776,0.9999880613797498,7.9460206630795085
7.784,0.999988073602563,7.735358438569889
7.792,0.9999880879470227,7.524655934525911
7.8,0.9999881044039818,7.3139134400433266
7.808,0.9999881229637471,7.103131244815241
7.816,0.9999881436160841,6.892309639127022
7.824,0.9999881663502215,6.681448913851157
7.832,0.9999881911548559,6.470549360442109
7.84,0.9999882180181555,6.2596112709311384
7.848,0.9999882469277656,6.048634937921087
7.856,0.9999882778708126,5.837620654581172
7.864,0.9999883108339086,5.626568714641714
7.872,0.9999883458031564,5.415479412388871
7.88,0.9999883827641534,5.204353042659339
7.888,0.9999884217019972,4.993189900835021
7.896,0.9999884626012899,4.781990282837689
7.904,0.9999885054461425,4.5707544851236035
7.912,0.9999885502201801,4.359482804678131
7.92,0.999988596906547,4.148175539010318
7.928,0.9999886454879102,3.936832986147454
7.936,0.9999886959464667,3.7254554446296058
7.944,0.9999887482639452,3.5140432135041464
7.952,0.9999888024216143,3.3025965923202323
7.96,0.9999888584002846,3.0911158811232835
7.968,0.9999889161803163,2.879601380449433
7.976,0.9999889757416216,2.6680533913199524
7.984,0.9999890370636719,2.4564722152356584
7.992,0.999989100125502,2.2448581541712995
8.0,0.9999891649057151,2.033211510569926
8.008,0.999989231382488,1.821532587337248
8.016,0.9999892995335766,1.6098216878358507
8.024000000000001,0.9999893693363211,1.398079115879702
8.032,0.9999894407676501,1.1863051757283254
8.04,0.9999895138040882,0.9745001720809635
8.048,0.9999895884217587,0.7626644100709223
8.056000000000001,0.9999896645963906,0.550798195259884
8.064,0.9999897423033236,0.3389018336320242
8.072,0.9999898215175131,0.12697563158810013
8.08,0.9999899022135362,-0.08498010406028182
8.088000000000001,0.9999899843655962,-0.29696506609642787
8.096,0.9999900679475292,-0.5089789469045143
8.104,0.9999901529328092,-0.721021438475571
8.112,0.9999902392945533,-0.9330922324132884
8.120000000000001,0.9999903270055274,-1.1451910199398492
8.128,0.999990416038152,-1.3573174919019537
8.136,0.999990506364508,-1.5694713387768775
8.144,0.9999905979563417,-1.7816522506783428
8.152000000000001,0.999990690785071,-1.9938599173624172
8.16,0.999990784821791,-2.2060940282336117
8.168,0.99999088003728,-2.418354272350995
8.176,0.9999909764020043,-2.6306403384341364
8.184000000000001,0.9999910738861251,-2.8429519148690616
8.192,0.9999911724595043,-3.055288689714419
8.2,0.9999912720917091,-3.267650350707649
8.208,0.9999913727520201,-3.4800365852709936
8.216000000000001,0.9999914744094341,-3.69244708051751
8.224,0.9999915770326738,-3.9048815232572878
8.232,0.9999916805901902,-4.1173396000036915
8.24,0.9999917850501711,-4.329820996979409
8.248000000000001,0.9999918903805461,-4.542325400122527
8.256,0.9999919965489934,-4.754852495092808
8.264,0.999992103522944,-4.967401967277981
8.272,0.99999221126959,-5.179973501799833
8.280000000000001,0.9999923197558901,-5.39256678352035
8.288,0.9999924289485753,-5.605181497048049
8.296,0.9999925388141552,-5.817817326744282
8.304,0.9999926493189252,-6.030473956729416
8.312,0.9999927604289705,-6.2431510708889695
8.32,0.9999928721101755,-6.455848352880173
8.328,0.9999929843282278,-6.668565486137924
8.336,0.9999930970486256,-6.881302153881432
8.344,0.9999932102366829,-7.094058039120159
8.352,0.9999933238575381,-7.306832824660504
8.36,0.9999934378761577,-7.519626193111768
8.368,0.9999935522573459,-7.732437826892832
8.376,0.9999936669657473,-7.945267408238179
8.384,0.9999937819658578,-8.15811461920455
8.392,0.9999938972220266,-8.370979141677
8.4,0.9999940126984663,-8.583860657375599
8.408,0.9999941283592586,-8.796758847861435
8.416,0.9999942441683595,-9.009673394543409
8.424,0.9999943600896077,-9.222603978684205
8.432,0.9999944760867305,-9.435550281407089
8.44,0.9999945921233512,-9.648511983701926
8.448,0.999994708162994,-9.861488766432002
8.456,0.9999948241690935,-10.074480310340011
8.464,0.9999949401049992,-10.287486296054892
8.472,0.9999950559339839,-10.500506404097878
8.48,0.9999951716192489,-10.713540314889297
8.488,0.9999952871239333,-10.926587708754633
8.496,0.9999954024111184,-11.13964826593135
8.504,0.9999955174438362,-11.352721666574963
8.512,0.9999956321850758,-11.565807590765882
8.52,0.9999957465977906,-11.778905718515464
8.528,0.999995860644905,-11.992015729772858
8.536,0.9999959742893221,-12.205137304431085
8.544,0.99999608749393,-12.418270122333915
8.552,0.9999962002216096,-12.631413863281898
8.56,0.9999963124352413,-12.844568207039252
8.568,0.9999964240977125,-13.057732833339951
8.576,0.999996535171924,-13.270907421894561
8.584,0.9999966456207986,-13.484091652396353
8.592,0.9999967554072868,-13.697285204528132
8.6,0.9999968644943757,-13.910487757968363
8.608,0.9999969728450944,-14.123698992398012
8.616,0.9999970804225228,-14.336918587506625
8.624,0.9999971871897989,-14.550146222999206
8.632,0.9999972931101253,-14.763381578602312
8.64,0.9999973981467769,-14.976624334070891
8.648,0.9999975022631091,-15.189874169194372
8.656,0.9999976054225641,-15.403130763803556
8.664,0.9999977075886795,-15.616393797776636
8.672,0.9999978087250945,-15.82966295104609
8.68,0.9999979087955588,-16.042937903604777
8.688,0.9999980077639399,-16.25621833551272
8.696,0.9999981055942289,-16.469503926903247
8.704,0.9999982022505514,-16.682794357989792
8.712,0.9999982976971713,-16.896089309071954
8.72,0.9999983918985024,-17.109388460542352
8.728,0.9999984848191127,-17.32269149289268
8.736,0.999998576423734,-17.535998086720486
8.744,0.9999986666772696,-17.749307922735287
8.752,0.9999987555448009,-17.96262068176532
8.76,0.9999988429915964,-18.17593604476361
8.768,0.9999989289831187,-18.38925369281477
8.776,0.9999990134850332,-18.60257330714097
8.784,0.9999990964632147,-18.815894569108824
8.792,0.9999991778837567,-19.029217160235298
8.8,0.999999257712978,-19.242540762194526
8.808,0.9999993359174314,-19.455865056823818
8.815999999999999,0.9999994124639118,-19.66918972613034
8.824,0.9999994873194634,-19.88251445229732
8.832,0.9999995604513885,-20.09583891769035
8.84,0.9999996318272549,-20.309162804863774
8.847999999999999,0.9999997014149041,-20.52248579656717
8.856,0.99999976918246,-20.735807575751526
8.864,0.9999998350983356,-20.9491278255755
8.872,0.9999998991312424,-21.162446229411795
8.879999999999999,0.9999999612501984,-21.37576247085356
8.888,1.0,-21.589076233720558
8.896,1.0,-21.802387202065358
8.904,1.0,-22.01569506017972
8.911999999999999,1.0,-22.22899949260085
8.92,0.9999999999999999,-22.44230018411761
8.928,1.0,-22.655596819776644
8.936,0.9999999999999999,-22.868889084888625
8.943999999999999,0.9999999999999998,-23.0821766650346
8.952,1.0,-23.295459246072067
8.96,0.9999999999999999,-23.508736514141006
8.968,0.9999999999999999,-23.722008155670178
8.975999999999999,1.0,-23.93527385738332
8.984,0.9999999999999999,-24.14853330630519
8.992,1.0,-24.36178618976757
9.0,0.9999999999999999,-24.575032195415492
9.008,1.0,-24.788271011213297
9.016,1.0,-25.001502325450733
9.024000000000001,0.9999999999999999,-25.21472582674882
9.032,1.0,-25.427941204065977
9.04,1.0,-25.641148146704154
9.048,0.9999999999999999,-25.854346344314674
9.056000000000001,0.9999999999999999,-26.06753548690418
9.064,1.0,-26.280715264840605
9.072,0.9999999999999999,-26.493885368859246
9.08,1.0,-26.707045490068587
9.088000000000001,1.0,-26.92019531995604
9.096,1.0,-27.133334550394007
9.104,0.9999999999999999,-27.34646287364573
9.112,1.0,-27.5595799823711
9.120000000000001,1.0,-27.772685569632344
9.128,1.0,-27.985779328899905
9.136,1.0,-28.19886095405834
9.144,0.9999999999999998,-28.411930139411904
9.152000000000001,1.0,-28.624986579690272
9.16,0.9999999999999999,-28.838029970054254
9.168,1.0,-29.05106000610162
9.176,1.0,-29.264076383872634
9.184000000000001,0.9999999999999999,-29.477078799855587
9.192,1.0,-29.690066950992545
9.2,0.9999999999999999,-29.90304053468495
9.208,0.9999999999999999,-30.11599924879918
9.216000000000001,0.9999999999999999,-30.328942791671878
9.224,0.9999999999999999,-30.541870862115662
9.232,0.9999999999999999,-30.75478315942465
9.24,1.0,-30.967679383379796
9.248000000000001,1.0,-31.180559234254268
9.256,1.0,-31.393422412818932
9.264,1.0,-31.606268620347887
9.272,1.0,-31.81909755862355
9.280000000000001,1.0000000000000002,-32.03190892994208
9.288,0.9999999912361697,-32.24470243711861
9.296,0.9999999215598593,-32.45747778349276
9.304,0.9999998489840402,-32.67023467293363
9.312000000000001,0.999999773506667,-32.88297280984498
9.32,0.9999996951264608,-33.09569189917053
9.328,0.9999996138429158,-33.308391646399144
9.336,0.999999529656308,-33.52107175756994
9.344,0.9999994425677032,-33.73373193927713
9.352,0.9999993525789648,-33.94637189867544
9.36,0.999999259692761,-34.15899134348486
9.368,0.9999991639125738,-34.37158998199588
9.376,0.999999065242706,-34.58416752307417
9.384,0.9999989636882881,-34.79672367616581
9.392,0.9999988592552882,-35.0092581513019
9.4,0.9999987519505165,-35.22177065910375
9.408,0.9999986417816357,-35.434260910787366
9.416,0.9999985287571658,-35.64672861816859
9.424,0.9999984128864936,-35.859173493667555
9.432,0.9999982941798786,-36.07159525031371
9.44,0.999998172648461,-36.28399360175028
9.448,0.9999980483042674,-36.49636826223914
9.456,0.9999979211602201,-36.708718946665186
9.464,0.9999977912301413,-36.921045370541336
9.472,0.9999976585287624,-37.13334725001257
9.48,0.9999975230717288,-37.34562430186101
9.488,0.9999973848756077,-37.55787624350991
9.496,0.9999972439578939,-37.77010279302853
9.504,0.9999971003370168,-37.982303669136215
9.512,0.999996954032346,-38.19447859120708
9.52,0.9999968050641981,-38.40662727927406
9.528,0.999996653453842,-38.61874945403353
9.536,0.999996499223506,-38.830844836849245
9.544,0.9999963423963815,-39.04291314975698
9.552,0.999996182996631,-39.25495411546823
9.56,0.999996021049392,-39.46696745737492
9.568,0.9999958565807834,-39.67895289955297
9.576,0.9999956896179097,-39.890910166766886
9.584,0.9999955201888662,-40.10283898447342
9.592,0.9999953483227446,-40.314739078825895
9.6,0.9999951740496368,-40.526610176677785
9.608,0.9999949974006402,-40.73845200558711
9.616,0.9999948184078614,-40.950264293819885
9.624,0.9999946371044216,-41.162046770354365
9.632,0.9999944535244577,-41.37379916488447
9.64,0.9999942677031299,-41.5855212078239
9.648,0.9999940796766222,-41.79721263030957
9.656,0.9999938894821478,-42.008873164205625
9.664,0.9999936971579505,-42.220502542106686
9.672,0.999993502743309,-42.43210049734194
9.68,0.9999933062785394,-42.64366676397819
9.688,0.9999931078049965,-42.85520107682386
9.696,0.9999929073650781,-43.066703171432074
9.704,0.9999927050022247,-43.27817278410452
9.712,0.999992500760923,-43.4896096518944
