freq,mag,phase
6.0,0.9999999999999999,9.803857385018356
6.008,0.9999999999999999,9.5571677111918
6.016,1.0,9.310437145857039
6.024,1.0,9.063665902844178
6.032,1.0,8.816854196117312
6.04,0.9999999999999999,8.570002239773427
6.048,0.9999999999999999,8.323110248041383
6.056,1.0,8.076178435280756
6.064,0.9999999999999999,7.829207015980815
6.072,1.0,7.582196204759357
6.08,0.9999999999999999,7.335146216361628
6.088,1.0,7.088057265659178
6.096,0.9999999999999999,6.840929567648732
6.104,1.0,6.593763337451027
6.112,1.0,6.346558790309666
6.12,1.0,6.099316141589941
6.128,0.9999999999999999,5.85203560677765
6.136,0.9999999999999999,5.604717401477914
6.144,0.9999999999999999,5.3573617414139685
6.152,1.0,5.1099688424259355
6.16,1.0,4.862538920469617
6.168,1.0,4.615072191615249
6.176,1.0,4.367568872046261
6.184,0.9999999999999999,4.120029178058011
6.192,0.9999999999999999,3.872453326056515
6.2,0.9999998818969117,3.6248415325571814
6.208,0.9999994619725322,3.3771940141834733
6.216,0.9999990466575218,3.1295109876656855
6.224,0.9999986359475495,2.881792669839557
6.232,0.9999982298379911,2.63403927764497
6.24,0.999997828323931,2.386251028124629
6.248,0.9999974314001623,2.138428138422672
6.256,0.99999703906119,1.890570825783381
6.264,0.9999966513012303,1.6426793075497335
6.272,0.9999962681142148,1.3947538011620684
6.28,0.9999958894937908,1.1467945241566817
6.288,0.9999955154333214,0.8988016941644015
6.296,0.9999951459258887,0.6507755289092177
6.304,0.9999947809642958,0.4027162462068163
6.312,0.999994420541067,0.15462406396313125
6.32,0.9999940646484495,-0.09350079982706325
6.328,0.9999937132784169,-0.34165812708163285
6.336,0.9999933664226677,-0.5898476996325782
6.344,0.9999930240726294,-0.8380692992275137
6.352,0.9999926862194596,-1.0863227075311102
6.36,0.9999923528540469,-1.3346077061266928
6.368,0.9999920239670131,-1.58292407651768
6.376,0.9999916995487157,-1.8312716001291638
6.384,0.9999913795892474,-2.079650058309436
6.392,0.99999106407844,-2.3280592323315354
6.4,0.9999907530058652,-2.5764989033948185
6.408,0.9999904463608359,-2.824968852626549
6.416,0.9999901441324085,-3.073468861083468
6.424,0.9999898463093853,-3.321998709753405
6.432,0.9999895528803144,-3.570558179556872
6.44,0.9999892638334937,-3.819147051348731
6.448,0.9999889791569706,-4.067765105919771
6.456,0.9999886988385454,-4.316412123998396
6.464,0.999988422865772,-4.565087886252273
6.472,0.9999881512259607,-4.813792173289991
6.48,0.9999878839061792,-5.062524765662745
6.4879999999999995,0.9999876208932544,-5.311285443866037
6.496,0.9999873621737759,-5.560073988341437
6.504,0.9999871077340946,-5.808890179478096
6.5120000000000005,0.9999868575603282,-6.057733797614816
6.52,0.9999866116383606,-6.3066046230413635
6.5280000000000005,0.9999863699538448,-6.555502436000677
6.536,0.9999861324922045,-6.804427016690179
6.5440000000000005,0.9999858992386365,-7.053378145263992
6.552,0.9999856701781117,-7.302355601834278
6.5600000000000005,0.9999854452953777,-7.551359166473485
6.568,0.999985224574961,-7.800388619215705
6.5760000000000005,0.9999850080011677,-8.049443740058944
6.584,0.9999847955580873,-8.298524308966511
6.592,0.9999845872295932,-8.547630105869265
6.6,0.9999843829993448,-8.796760910667187
6.608,0.9999841828507905,-9.045916503231352
6.616,0.9999839867671688,-9.295096663405817
6.624,0.9999837947315104,-9.544301171009469
6.632,0.9999836067266403,-9.793529805837967
6.64,0.9999834227351804,-10.042782347665623
6.648,0.9999832427395502,-10.292058576247339
6.656,0.9999830667219703,-10.541358271320538
6.664,0.9999828946644633,-10.790681212607112
6.672,0.9999827265488567,-11.040027179815365
6.68,0.9999825623567846,-11.289395952642016
6.688,0.9999824020696895,-11.538787310774138
6.696,0.999982245668825,-11.788201033891168
6.704,0.9999820931352571,-12.03763690166693
6.712,0.999981944449867,-12.287094693771607
6.72,0.9999817995933531,-12.536574189873788
6.728,0.9999816585462327,-12.786075169642514
6.736,0.9999815212888443,-13.035597412749299
6.744,0.9999813878013499,-13.285140698870213
6.752,0.9999812580637372,-13.534704807687936
6.76,0.9999811320558208,-13.784289518893852
6.768,0.9999810097572458,-14.03389461219012
6.776,0.9999808911474893,-14.283519867291783
6.784,0.9999807762058617,-14.533165063928905
6.792,0.9999806649115099,-14.782829981848664
6.8,0.9999805572434205,-15.032514400817497
6.808,0.9999804531804186,-15.282218100623238
6.816,0.9999803527011734,-15.531940861077326
6.824,0.9999802557841986,-15.781682462016887
6.832,0.9999801624078549,-16.03144268330698
6.84,0.9999800725503529,-16.281221304842745
6.848,0.999979986189754,-16.531018106551635
6.856,0.9999799033039736,-16.780832868395617
6.864,0.9999798238707835,-17.030665370373363
6.872,0.9999797478678127,-17.28051539252252
6.88,0.9999796752725513,-17.530382714921963
6.888,0.9999796060623518,-17.780267117693956
6.896,0.9999795402144314,-18.030168381006536
6.904,0.9999794777058743,-18.28008628507574
6.912,0.9999794185136338,-18.53002061016784
6.92,0.9999793626145356,-18.779971136601674
6.928,0.9999793099852782,-19.02993764475098
6.936,0.9999792606024366,-19.27991991504668
6.944,0.9999792144424636,-19.529917727979193
6.952,0.9999791714816932,-19.779930864100773
6.96,0.9999791316963415,-20.029959104027903
6.968,0.9999790950625098,-20.28000222844356
6.976,0.9999790615561869,-20.53006001809967
6.984,0.9999790311532512,-20.780132253819417
6.992,0.9999790038294727,-21.030218716499647
7.0,0.9999789795605156,-21.280319187113296
7.008,0.9999789583219402,-21.530433446711726
7.016,0.9999789400892058,-21.78056127642721
7.024,0.9999789248376726,-22.03070245747527
7.032,0.9999789125426038,-22.280856771157225
7.04,0.9999789031791682,-22.531023998862533
7.048,0.9999788967224423,-22.781203922071246
7.056,0.999978893147413,-23.031396322356557
7.064,0.9999788924289787,-23.28160098138718
7.072,0.9999788945419531,-23.531817680929873
7.08,0.9999788994610671,-23.782046202851898
7.088,0.99997890716097,-24.03228632912356
7.096,0.999978917616233,-24.282537841820673
7.104,0.9999789308013513,-24.532800523127108
7.112,0.9999789466907459,-24.783074155337268
7.12,0.999978965258766,-25.033358520858684
7.128,0.9999789864796917,-25.28365340221452
7.136,0.9999790103277365,-25.533958582046115
7.144,0.9999790367770481,-25.784273843115578
7.152,0.9999790658017129,-26.03459896830831
7.16,0.9999790973757563,-26.28493374063564
7.168,0.999979131473146,-26.53527794323734
7.176,0.9999791680677945,-26.785631359384258
7.184,0.9999792071335607,-27.035993772480936
7.192,0.9999792486442522,-27.286364966068167
7.2,0.999979292573629,-27.53674472382566
7.208,0.9999793388954034,-27.787132829574652
7.216,0.9999793875832442,-28.03752906728052
7.224,0.9999794386107783,-28.28793322105546
7.232,0.999979491951593,-28.538345075161114
7.24,0.9999795475792382,-28.7887644140112
7.248,0.9999796054672294,-29.039191022174254
7.256,0.9999796655890484,-29.28962468437622
7.264,0.9999797279181472,-29.54006518550317
7.272,0.9999797924279498,-29.790512310603994
7.28,0.9999798590918535,-30.040965844893087
7.288,0.9999799278832328,-30.291425573753042
7.296,0.9999799987754406,-30.541891282737367
7.304,0.9999800717418104,-30.79236275757321
7.312,0.9999801467556594,-31.042839784164073
7.32,0.9999802237902895,-31.29332214859253
7.328,0.9999803028189913,-31.54380963712299
7.336,0.9999803838150441,-31.794302036204428
7.344,0.9999804667517205,-32.04479913247312
7.352,0.9999805516022868,-32.29530071275541
7.36,0.9999806383400063,-32.54580656407051
7.368,0.9999807269381413,-32.79631647363323
7.376,0.999980817369955,-33.04683022885673
7.384,0.9999809096087138,-33.29734761735534
7.392,0.99998100362769,-33.5478684269474
7.4,0.9999810994001642,-33.79839244565793
7.4079999999999995,0.9999811968994256,-34.04891946172146
7.416,0.999981296098777,-34.29944926358506
7.4239999999999995,0.9999813969715349,-34.54998163991072
7.432,0.9999814994910331,-34.800516379578646
7.4399999999999995,0.9999816036306238,-35.05105327168963
7.448,0.9999817093636799,-35.301592105568304
7.4559999999999995,0.9999818166635982,-35.55213267076559
7.464,0.9999819255038006,-35.80267475706189
7.4719999999999995,0.9999820358577369,-36.053218154469555
7.48,0.9999821476988858,-36.3037626532362
7.4879999999999995,0.9999822610007586,-36.554308043847016
7.496,0.9999823757369007,-36.804854117028185
7.504,0.9999824918808937,-37.055400663749225
7.5120000000000005,0.9999826094063569,-37.30594747522632
7.52,0.9999827282869511,-37.55649434292477
7.5280000000000005,0.999982848496379,-37.807041058562305
7.536,0.9999829700083883,-38.057587414111524
7.5440000000000005,0.9999830927967737,-38.30813320180321
7.552,0.9999832168353788,-38.558678214128776
7.5600000000000005,0.9999833420980986,-38.80922224384362
7.568,0.9999834685588803,-39.05976508396962
7.5760000000000005,0.9999835961917273,-39.31030652779839
7.584,0.9999837249707005,-39.56084636889379
7.5920000000000005,0.9999838548699196,-39.81138440109534
7.6,0.999983985863566,-40.06192041852052
7.6080000000000005,0.9999841179258853,-40.31245421556841
7.616,0.9999842510311875,-40.56298558692183
7.6240000000000006,0.9999843851538511,-40.813514327550976
7.632,0.9999845202683246,-41.0640402327158
7.640000000000001,0.9999846563491277,-41.314563097969355
7.648,0.9999847933708539,-41.56508271916035
7.656000000000001,0.9999849313081721,-41.81559889243648
7.664,0.9999850701358303,-42.066111414246976
7.672,0.9999852098286546,-42.31662008134588
7.68,0.999985350361554,-42.56712469079478
7.688,0.9999854917095204,-42.817625039965826
7.696,0.9999856338476327,-43.068120926544644
7.704,0.999985776751056,-43.31861214853336
7.712,0.9999859203950457,-43.56909850425351
7.72,0.9999860647549487,-43.819579792348954
7.728,0.9999862098062055,-44.07005581178891
7.736,0.9999863555243512,-44.320526361870854
7.744,0.9999865018850194,-44.57099124222351
7.752,0.9999866488639423,-44.82145025280982
7.76,0.9999867964369529,-45.07190319392985
7.768,0.9999869445799875,-45.32234986622383
7.776,0.9999870932690879,-45.57279007067509
7.784,0.9999872424804007,-45.823223608612984
7.792,0.9999873921901835,-46.0736502817159
7.8,0.9999875423748026,-46.324069892014315
7.808,0.9999876930107372,-46.57448224189353
7.816,0.9999878440745804,-46.82488713409689
7.824,0.9999879955430407,-47.0752843717286
7.832,0.9999881473929452,-47.32567375825677
7.84,0.99998829960124,-47.57605509751632
7.848,0.9999884521449919,-47.826428193712054
7.856,0.9999886050013912,-48.076792851421494
7.864,0.999988758147753,-48.32714887559799
7.872,0.9999889115615187,-48.57749607157359
7.88,0.9999890652202583,-48.827834245062064
7.888,0.9999892191016707,-49.07816320216185
7.896,0.9999893731835875,-49.32848274935902
7.904,0.999989527443973,-49.578792693530275
7.912,0.9999896818609265,-49.829092841945915
7.92,0.9999898364126848,-50.07938300227276
7.928,0.9999899910776217,-50.32966298257717
7.936,0.9999901458342522,-50.57993259132797
7.944,0.9999903006612322,-50.830191637399444
7.952,0.9999904555373607,-51.08043993007427
7.96,0.9999906104415823,-51.33067727904654
7.968,0.9999907653529875,-51.58090349442461
7.976,0.9999909202508152,-51.831118386734175
7.984,0.999991075114453,-52.08132176692118
7.992,0.9999912299234407,-52.33151344635473
8.0,0.9999913846574705,-52.581693236830105
8.008,0.9999915392963887,-52.83186095057166
8.016,0.9999916938201973,-53.08201640023593
8.024000000000001,0.9999918482090556,-53.332159398914264
8.032,0.9999920024432817,-53.58228976013598
8.04,0.9999921565033545,-53.83240729787136
8.048,0.9999923103699133,-54.08251182653456
8.056000000000001,0.999992464023762,-54.33260316098631
8.064,0.9999926174458678,-54.58268111653706
8.072,0.9999927706173652,-54.832745508949984
8.08,0.999992923519555,-55.08279615444377
8.088000000000001,0.999993076133908,-55.33283286969548
8.096,0.9999932284420642,-55.58285547184353
8.104,0.9999933804258352,-55.83286377849079
8.112,0.9999935320672065,-56.08285760770725
8.120000000000001,0.9999936833483372,-56.33283677803301
8.128,0.9999938342515623,-56.58280110848108
8.136,0.9999939847593936,-56.832750418540584
8.144,0.9999941348545209,-57.0826845281794
8.152000000000001,0.9999942845198144,-57.332603257847005
8.16,0.9999944337383242,-57.58250642847752
8.168,0.9999945824932829,-57.83239386149257
8.176,0.9999947307681059,-58.082265378804216
8.184000000000001,0.9999948785463941,-58.332120802817556
8.192,0.9999950258119338,-58.5819599564338
8.2,0.9999951725486975,-58.831782663053275
8.208,0.9999953187408469,-59.08158874657805
8.216000000000001,0.9999954643727322,-59.33137803141477
8.224,0.9999956094288951,-59.58115034247764
8.232,0.9999957538940673,-59.83090550519129
8.24,0.9999958977531748,-60.08064334549354
8.248000000000001,0.9999960409913364,-60.33036368983815
8.256,0.999996183593867,-60.5800663651977
8.264,0.999996325546276,-60.82975119906657
8.272,0.9999964668342713,-61.079418019463624
8.280000000000001,0.9999966074437581,-61.32906665493489
8.288,0.9999967473608409,-61.57869693455654
8.296,0.9999968865718246,-61.82830868793764
8.304,0.9999970250632151,-62.07790174522302
8.312,0.9999971628217207,-62.32747593709579
8.32,0.9999972998342528,-62.577031094780466
8.328,0.9999974360879269,-62.826567050045405
8.336,0.9999975715700634,-63.07608363520588
8.344,0.9999977062681888,-63.325580683126525
8.352,0.9999978401700365,-63.57505802722443
8.36,0.999997973263548,-63.824515501471446
8.368,0.9999981055368731,-64.07395294039742
8.376,0.9999982369783709,-64.32337017909242
8.384,0.9999983675766112,-64.5727670532099
8.392,0.9999984973203755,-64.82214339896902
8.4,0.9999986261986565,-65.07149905315777
8.408,0.99999875420066,-65.3208338531351
8.416,0.9999988813158056,-65.57014763683426
8.424,0.999999007533727,-65.81944024276491
8.432,0.9999991328442733,-66.06871151001623
8.44,0.999999257237509,-66.31796127825918
8.448,0.9999993807037163,-66.56718938774955
8.456,0.9999995032333931,-66.81639567933024
8.464,0.9999996248172565,-67.06557999443426
8.472,0.9999997454462416,-67.31474217508696
8.48,0.9999998651115032,-67.56388206390903
8.488,0.9999999838044156,-67.8129995041188
8.496,1.0,-68.06209433953512
8.504,0.9999999999999999,-68.3111664145796
8.512,1.0,-68.56021557427967
8.52,1.0,-68.80924166427062
8.528,0.9999999999999999,-69.0582445307986
8.536,1.0,-69.30722402072293
8.544,1.0,-69.55617998151874
8.552,1.0,-69.80511226127942
8.56,0.9999999999999999,-70.05402070871932
8.568,1.0,-70.302905173176
8.576,1.0,-70.55176550461306
8.584,0.9999999999999999,-70.80060155362224
8.592,1.0,-71.04941317142635
8.6,1.0,-71.2982002098813
8.608,1.0,-71.54696252147899
8.616,1.0,-71.7956999593493
8.624,1.0,-72.04441237726309
8.632,1.0,-72.29309962963401
8.64,1.0,-72.5417615715215
8.648,0.9999999999999999,-72.79039805863269
8.656,0.9999999999999999,-73.0390089473253
8.664,1.0,-73.28759409460955
8.672,1.0,-73.5361533581509
8.68,1.0000000000000002,-73.78468659627212
8.688,1.0,-74.03319366795604
8.696,0.9999999999999999,-74.28167443284735
8.704,0.9999999999999999,-74.53012875125548
8.712,1.0,-74.77855648415647
8.72,1.0,-75.02695749319562
8.728,1.0,-75.27533164068953
8.736,0.9999999999999999,-75.5236787896286
8.744,1.0,-75.77199880367901
8.752,1.0,-76.02029154718542
8.76,0.9999999999999999,-76.26855688517267
8.768,0.9999999999999999,-76.51679468334858
8.776,1.0,-76.76500480810562
8.784,1.0,-77.01318712652363
8.792,1.0,-77.26134150637161
8.8,1.0,-77.50946781611022
8.808,1.0,-77.75756592489361
8.815999999999999,1.0,-78.00563570257196
8.824,0.9999999999999999,-78.25367701969343
8.832,1.0,-78.50168974750618
8.84,1.0,-78.74967375796064
8.847999999999999,1.0,-78.99762892371169
8.856,1.0,-79.2455551181206
8.864,0.9999999999999999,-79.49345221525716
8.872,0.9999999999999999,-79.7413200899017
8.879999999999999,1.0,-79.98915861754729
8.888,1.0,-80.23696767440168
8.896,0.9999999999999999,-80.48474713738929
8.904,1.0,-80.73249688415319
8.911999999999999,0.9999999999999998,-80.98021679305734
8.92,1.0,-81.22790674318841
8.928,0.9999999999999998,-81.47556661435758
8.936,0.9999999999999999,-81.72319628710274
8.943999999999999,0.9999999999999999,-81.97079564269048
8.952,1.0,-82.21836456311783
8.96,1.0,-82.46590293111427
8.968,0.9999999999999999,-82.71341063014347
8.975999999999999,1.0,-82.96088754440554
8.984,0.9999999999999999,-83.20833355883863
8.992,0.9999999999999998,-83.45574855912075
9.0,1.0,-83.70313243167173
9.008,0.9999999999999999,-83.95048506365508
9.016,0.9999999999999999,-84.19780634297982
9.024000000000001,0.9999999999999999,-84.44509615830205
9.032,0.9999999999999999,-84.69235439902694
9.04,0.9999999999999999,-84.93958095531056
9.048,1.0,-85.18677571806151
9.056000000000001,0.9999999999999998,-85.43393857894264
9.064,0.9999999999999999,-85.68106943037277
9.072,0.9999999999999999,-85.9281681655286
9.08,1.0,-86.17523467834626
9.088000000000001,1.0,-86.42226886352286
9.096,1.0,-86.66927061651838
9.104,1.0,-86.91623983355723
9.112,1.0,-87.16317641162996
9.120000000000001,0.9999999999999999,-87.41008024849475
9.128,1.0,-87.65695124267897
9.136,0.9999999999999999,-87.90378929348105
9.144,1.0,-88.15059430097192
9.152000000000001,1.0,-88.39736616599637
9.16,1.0,-88.64410479017478
9.168,1.0,-88.89081007590475
9.176,1.0000000000000002,-89.13748192636247
9.184000000000001,0.9999999999999999,-89.38412024550416
9.192,1.0,-89.6307249380676
9.2,0.9999999999999999,-89.87729590957376
9.208,0.9999999999999998,-90.12383306632813
9.216000000000001,1.0,-90.37033631542201
9.224,1.0,-90.61680556473408
9.232,0.9999999999999999,-90.86324072293188
9.24,0.9999999999999999,-91.10964169947313
9.248000000000001,1.0,-91.35600840460692
9.256,1.0,-91.60234074937532
9.264,0.9999999999999999,-91.84863864561461
9.272,1.0,-92.0949020059567
9.280000000000001,0.9999999999999999,-92.3411307438302
9.288,0.9999999999999999,-92.5873247734619
9.296,0.9999999999999999,-92.8334840098781
9.304,1.0,-93.07960836890578
9.312000000000001,1.0,-93.32569776717376
9.32,1.0,-93.57175212211399
9.328,1.0,-93.8177713519629
9.336,0.9999999999999999,-94.0637553757625
9.344,1.0000000000000002,-94.30970411336133
9.352,0.9999999999999999,-94.55561748541608
9.36,1.0,-94.8014954133923
9.368,1.0000000000000002,-95.04733781956588
9.376,1.0,-95.29314462702385
9.384,0.9999999999999999,-95.53891575966578
9.392,1.0,-95.78465114220458
9.4,0.9999999999999999,-96.03035070016783
9.408,1.0,-96.27601435989858
9.416,1.0,-96.52164204855664
9.424,0.9999999999999999,-96.76723369411928
9.432,1.0,-97.01278922538268
9.44,1.0,-97.2583085719623
9.448,1.0,-97.50379166429452
9.456,0.9999999999999999,-97.74923843363709
9.464,1.0,-97.99464881207034
9.472,1.0,-98.24002273249783
9.48,1.0,-98.48536012864771
9.488,1.0,-98.73066093507306
9.496,1.0,-98.97592508715323
9.504,1.0,-99.22115252109428
9.512,1.0,-99.46634317393028
9.52,0.9999999999999999,-99.71149698352367
9.528,1.0,-99.95661388856644
9.536,1.0,-100.2016938285806
9.544,0.9999999999999999,-100.4467367439193
9.552,1.0,-100.69174257576721
9.56,1.0,-100.93671126614166
9.568,0.9999999999999999,-101.18164275789294
9.576,1.0,-101.42653699470547
9.584,0.9999999999999999,-101.67139392109802
9.592,0.9999999999999999,-101.91621348242485
9.6,0.9999999999999999,-102.16099562487592
9.608,1.0,-102.405740295478
9.616,1.0,-102.65044744209482
9.624,0.9999999999999999,-102.89511701342815
9.632,0.9999999999999999,-103.139748959018
9.64,0.9999999999999999,-103.38434322924353
9.648,0.9999999999999999,-103.6288997753233
9.656,1.0,-103.8734185493162
9.664,1.0,-104.11789950412152
9.672,1.0,-104.36234259348
9.68,1.0,-104.6067477719738
9.688,0.9999999999999999,-104.85111499502747
9.696,0.9999999999999999,-105.09544421890799
9.704,1.0,-105.3397354007257
9.712,1.0000000000000002,-105.5839884984342
9.72,1.0,-105.82820347083128
9.728,0.9999999999999999,-106.072380277559
9.736,0.9999999999999998,-106.31651887910432
9.744,1.0,-106.56061923679917
9.752,1.0,-106.80468131282123
9.76,0.9999999999999999,-107.04870507019389
9.768,1.0,-107.29269047278689
9.776,0.9999999999999999,-107.5366374853164
9.784,1.0,-107.7805460733456
9.792,0.9999999999999999,-108.0244162032846
9.8,0.9999999999999999,-108.26824784239118
9.808,1.0,-108.51204095877054
9.816,1.0,-108.7557955213761
9.824,0.9999999999999999,-108.99951150000922
9.832,1.0,-109.24318886531981
