freq,mag,phase
6.0,0.9999868720242372,-145.81123417283547
6.008,0.9999868949458678,-146.23258518843448
6.016,0.9999869267479642,-146.65365839344278
6.024,0.9999869671850844,-147.0744554947233
6.032,0.9999870160150045,-147.49497821432513
6.04,0.9999870729987015,-147.91522828928552
6.048,0.9999871379003399,-148.3352074714338
6.056,0.999987210487256,-148.7549175271958
6.064,0.9999872905299402,-149.17436023740018
6.072,0.9999873778020245,-149.59353739708524
6.08,0.9999874720802624,-150.01245081530766
6.088,0.9999875731445137,-150.43110231495194
6.096,0.9999876807777289,-150.8494937325415
6.104,0.9999877947659287,-151.26762691805055
6.112,0.9999879148981909,-151.6855037347178
6.12,0.9999880409666294,-152.10312605886088
6.128,0.9999881727663782,-152.52049577969228
6.136,0.9999883100955715,-152.93761479913672
6.144,0.9999884527553293,-153.3544850316493
6.152,0.9999886005497313,-153.77110840403566
6.16,0.9999887532858087,-154.18748685527243
6.168,0.9999889107735151,-154.60362233633
6.176,0.9999890728257173,-155.01951680999576
6.184,0.999989239258167,-155.43517225069914
6.192,0.9999894098894865,-155.85059064433767
6.2,0.9999895845411504,-156.26577398810426
6.208,0.9999897630374613,-156.68072429031616
6.216,0.9999899452055335,-157.09544357024475
6.224,0.9999901308752721,-157.50993385794675
6.232,0.9999903198793525,-157.92419719409693
6.24,0.9999905120532031,-158.3382356298219
6.248,0.9999907072349796,-158.7520512265351
6.256,0.9999909052655479,-159.16564605577332
6.264,0.9999911059884663,-159.57902219903414
6.272,0.999991309249962,-159.99218174761526
6.28,0.9999915148989059,-160.40512680245428
6.288,0.9999917227868002,-160.81785947397037
6.296,0.9999919327677548,-161.23038188190714
6.304,0.9999921446984604,-161.6426961551763
6.312,0.9999923584381789,-162.05480443170313
6.32,0.9999925738487117,-162.46670885827305
6.328,0.9999927907943856,-162.87841159037913
6.336,0.9999930091420255,-163.28991479207141
6.344,0.9999932287609411,-163.70122063580666
6.352,0.9999934495228971,-164.11233130230036
6.36,0.9999936713021004,-164.52324898037904
6.368,0.9999938939751699,-164.93397586683432
6.376,0.9999941174211245,-165.34451416627795
6.384,0.9999943415213532,-165.75486609099835
6.392,0.9999945661596011,-166.16503386081772
6.4,0.9999947912219401,-166.57501970295127
6.408,0.9999950165967565,-166.98482585186665
6.416,0.9999952421747236,-167.39445454914548
6.424,0.9999954678487792,-167.8039080433453
6.432,0.9999956935141113,-168.21318858986302
6.44,0.9999959190681282,-168.62229845079966
6.448,0.9999961444104435,-169.03123989482594
6.456,0.999996369442851,-169.4400151970491
6.464,0.9999965940693066,-169.84862663888103
6.472,0.9999968181959032,-170.2570765079074
6.48,0.9999970417308527,-170.6653670977578
6.4879999999999995,0.9999972645844609,-171.07350070797693
6.496,0.9999974866691118,-171.48147964389747
6.504,0.9999977078992427,-171.88930621651298
6.5120000000000005,0.9999979281913208,-172.29698274235315
6.52,0.9999981474638294,-172.7045115433587
6.5280000000000005,0.9999983656372387,-173.11189494675907
6.536,0.9999985826339903,-173.519135284949
6.5440000000000005,0.999998798378473,-173.9262348953685
6.552,0.9999990127970041,-174.3331961203817
6.5600000000000005,0.9999992258178075,-174.74002130715826
6.568,0.9999994373709932,-175.14671280755493
6.5760000000000005,0.999999647388535,-175.55327297799866
6.584,0.999999855804252,-175.95970417936994
6.592,1.0,-176.36600877688815
6.6,1.0,-176.77218913999693
6.608,0.9999999999999999,-177.17824764225085
6.616,0.9999999999999998,-177.58418666120335
6.624,1.0,-177.99000857829498
6.632,1.0,-178.39571577874315
6.64,1.0,-178.80131065143223
6.648,1.0,-179.20679558880516
6.656,0.9999999999999999,-179.61217298675524
6.664,0.9999999999999999,179.98255475548055
6.672,0.9999999999999999,179.5773852354278
6.68,0.9999999999999998,179.17231604747997
6.688,1.0,178.76734478300267
6.696,0.9999999999999999,178.36246903043747
6.704,1.0,177.9576863754045
6.712,1.0,177.5529944008047
6.72,1.0,177.14839068692075
6.728,1.0,176.74387281151775
6.736,1.0,176.33943834994292
6.744,1.0,175.93508487522416
6.752,0.9999999999999999,175.53080995816885
6.76,0.9999999999999999,175.12661116746074
6.768,0.9999999999999999,174.72248606975717
6.776,1.0,174.31843222978483
6.784,0.9999999999999999,173.91444721043527
6.792,0.9999999999999999,173.5105285728596
6.8,0.9999999999999999,173.10667387656258
6.808,1.0000000000000002,172.70288067949585
6.816,1.0,172.29914653815084
6.824,1.0,171.8954690076509
6.832,1.0,171.49184564184267
6.84,1.0,171.08827399338725
6.848,1.0,170.68475161385035
6.856,1.0,170.2812760537921
6.864,1.0,169.87784486285636
6.872,1.0,169.4744555898592
6.88,1.0,169.07110578287714
6.888,0.9999999999999999,168.66779298933486
6.896,0.9999999999999999,168.26451475609207
6.904,1.0,167.86126862953026
6.912,0.9999999999999999,167.4580521556388
6.92,1.0,167.05486288010053
6.928,1.0,166.651698348377
6.936,1.0,166.24855610579326
6.944,0.9999999999999999,165.84543369762204
6.952,1.0,165.44232866916778
6.96,0.9999999999999999,165.03923856585004
6.968,1.0,164.6361609332866
6.976,1.0,164.23309331737616
6.984,1.0,163.8300332643808
6.992,1.0,163.4269783210078
7.0,0.9999999999999999,163.02392603449127
7.008,1.0,162.62087395267375
7.016,0.9999999999999999,162.2178196240868
7.024,0.9999999999999999,161.81476059803205
7.032,1.0,161.41169442466128
7.04,1.0,161.00861865505678
7.048,0.9999999999999999,160.6055308413111
7.056,0.9999999999999999,160.20242853660662
7.064,1.0,159.79930929529488
7.072,0.9999999999999999,159.39617067297584
7.08,1.0,158.9930102265765
7.088,1.0000000000000002,158.58982551443
7.096,1.0,158.18661409635362
7.104,1.0,157.78337353372748
7.112,1.0,157.38010138957264
7.12,0.9999999999999999,156.97679522862876
7.128,1.0,156.57345261743245
7.136,0.9999999999999999,156.1700711243945
7.144,0.9999999999999999,155.76664831987782
7.152,0.9999999999999999,155.36318177627467
7.16,1.0,154.95966906808417
7.168,1.0,154.55610777198962
7.176,1.0,154.15249546693556
7.184,1.0,153.74882973420506
7.192,1.0,153.3451081574969
7.2,1.0,152.94132832300235
7.208,0.9999999999999999,152.53748781948252
7.216,1.0,152.1335842383452
7.224,1.0000000000000002,151.72961517372187
7.232,0.9999999999999999,151.32557822254492
7.24,1.0,150.9214709846244
7.248,1.0,150.5172910627253
7.256,1.0,150.11303606264468
7.264,0.9999999999999999,149.70870359328865
7.272,1.0,149.3042912667498
7.28,1.0,148.89979669838434
7.288,0.9999999999999999,148.49521750688956
7.296,0.9999999999999999,148.0905513143813
7.304,1.0,147.68579574647163
7.312,0.9999999999999999,147.2809484323463
7.32,1.0,146.87600700484282
7.328,1.0,146.47096910052838
7.336,1.0000000000000002,146.06583235977783
7.344,1.0,145.66059442685216
7.352,0.9999999999999999,145.25525294997664
7.36,1.0,144.84980558141987
7.368,0.9999999999999999,144.44424997757218
7.376,0.9999999999999999,144.0385837990249
7.384,1.0,143.63280471064954
7.392,1.0,143.22691038167704
7.4,1.0,142.82089848577772
7.4079999999999995,1.0,142.414766701141
7.416,1.0,142.00851271055558
7.4239999999999995,0.9999999999999999,141.60213420149003
7.432,1.0,141.19562886617302
7.4399999999999995,1.0,140.78899440167496
7.448,1.0,140.38222850998844
7.4559999999999995,0.9999999999999998,139.97532889811058
7.464,1.0,139.5682932781241
7.4719999999999995,1.0,139.16111936728012
7.48,1.0,138.7538048880801
7.4879999999999995,0.9999999999999999,138.34634756835914
7.496,1.0,137.9387451413686
7.504,0.9999999999999999,137.53099534586013
7.5120000000000005,0.9999999999999999,137.12309592616882
7.52,0.9999999999999999,136.71504463229826
7.5280000000000005,1.0,136.30683922000424
7.536,1.0,135.8984774508805
7.5440000000000005,1.0,135.4899570924433
7.552,1.0000000000000002,135.0812759182178
7.5600000000000005,0.9999999999999999,134.67243170782382
7.568,0.9999999999999999,134.2634222470626
7.5760000000000005,0.9999999999999998,133.8542453280034
7.584,1.0,133.4448987490714
7.5920000000000005,0.9999999999999999,133.03538031513494
7.6,0.9999999999999999,132.62568783759448
7.6080000000000005,0.9999999999999999,132.21581913447042
7.616,1.0,131.8057720304931
7.6240000000000006,1.0,131.39554435719168
7.632,0.9999999999999999,130.9851339529849
7.640000000000001,0.9999999999999999,130.57453866327083
7.648,0.9999999999999999,130.16375634051872
7.656000000000001,0.9999999999999999,129.7527848443597
7.664,1.0,129.3416220416795
7.672,1.0,128.9302658067102
7.68,1.0,128.51871402112383
7.688,1.0,128.1069645741255
7.696,1.0,127.69501536254744
7.704,0.9999999999999999,127.28286429094352
7.712,1.0,126.8705092716843
7.72,0.9999999999999998,126.45794822505256
7.728,1.0,126.04517907933926
7.736,0.9999999999999999,125.63219977094029
7.744,1.0,125.21900824445353
7.752,0.9999999999999999,124.80560245277647
7.76,0.9999999999999999,124.39198035720455
7.768,1.0,123.97813992752987
7.776,0.9999999999999999,123.56407914214046
7.784,1.0,123.14979598812015
7.792,0.9999999999999999,122.73528846134907
7.8,1.0,122.32055456660454
7.808,1.0,121.90559231766271
7.816,1.0,121.49039973740051
7.824,1.0000000000000002,121.07497485789857
7.832,0.9999999999999999,120.65931572054411
7.84,0.9999999999999999,120.24342037613516
7.848,1.0,119.82728688498455
7.856,0.9999999999999999,119.41091331702509
7.864,1.0,118.99429775191513
7.872,1.0,118.57743827914443
7.88,1.0,118.16033299814106
7.888,1.0,117.74298001837852
7.896,1.0,117.32537745948369
7.904,1.0,116.90752345134497
7.912,0.9999999999999999,116.48941613422161
7.92,0.9999999999999999,116.07105365885295
7.928,0.9999999999999999,115.6524341865687
7.936,0.9999999999999999,115.23355588939967
7.944,0.9999999999999999,114.81441695018881
7.952,1.0,114.39501556270336
7.96,0.9999999999999998,113.97534993174698
7.968,1.0,113.55541827327289
7.976,1.0,113.1352188144973
7.984,0.9999999999999999,112.7147497940136
7.992,1.0,112.29400946190691
8.0,0.9999999278705335,111.87299607986935
8.008,0.9999998131664091,111.45170792131586
8.016,0.9999996988560814,111.03014327150021
8.024000000000001,0.9999995849641888,110.60830042763234
8.032,0.9999994715150615,110.18617769899546
8.04,0.9999993585327159,109.76377340706385
8.048,0.9999992460408526,109.34108588562147
8.056000000000001,0.9999991340628517,108.9181134808811
8.064,0.9999990226217693,108.49485455160377
8.072,0.9999989117403334,108.07130746921848
8.08,0.9999988014409413,107.64747061794296
8.088000000000001,0.999998691745655,107.22334239490493
8.096,0.9999985826761985,106.79892121026339
8.104,0.9999984742539542,106.37420548733046
8.112,0.9999983664999595,105.94919366269409
8.120000000000001,0.9999982594349044,105.52388418634125
8.128,0.9999981530791269,105.09827552178115
8.136,0.9999980474526108,104.67236614616895
8.144,0.999997942574984,104.24615455043035
8.152000000000001,0.9999978384655125,103.81963923938655
8.16,0.9999977351431006,103.39281873187929
8.168,0.9999976326262874,102.96569156089637
8.176,0.9999975309332423,102.53825627369784
8.184000000000001,0.9999974300817651,102.11051143194273
8.192,0.9999973300892812,101.6824556118157
8.2,0.9999972309728408,101.2540874041541
8.208,0.9999971327491162,100.82540541457584
8.216000000000001,0.9999970354343984,100.39640826360751
8.224,0.9999969390445964,99.96709458681255
8.232,0.9999968435952346,99.53746303491981
8.24,0.99999674910145,99.10751227395262
8.248000000000001,0.999996655577991,98.6772409853584
8.256,0.9999965630392156,98.246647866138
8.264,0.9999964714990894,97.81573162897556
8.272,0.9999963809711832,97.38449100236869
8.280000000000001,0.9999962914686726,96.95292473075925
8.288,0.9999962030043359,96.52103157466377
8.296,0.999996115590552,96.08881031080415
8.304,0.9999960292392992,95.65625973223906
8.312,0.9999959439621557,95.22337864849545
8.32,0.9999958597702951,94.7901658856995
8.328,0.999995776674488,94.3566202867089
8.336,0.9999956946850995,93.92274071124409
8.344,0.9999956138120889,93.48852603602086
8.352,0.9999955340650081,93.05397515488168
8.36,0.9999954554530008,92.61908697892869
8.368,0.9999953779848039,92.18386043665511
8.376,0.9999953016687425,91.74829447407836
8.384,0.9999952265127332,91.31238805487168
8.392,0.999995152524282,90.87614016049717
8.4,0.9999950797104842,90.4395497903376
8.408,0.9999950080780237,90.00261596182928
8.416,0.999994937633173,89.56533771059387
8.424,0.9999948683817934,89.12771409057127
8.432,0.9999948003293337,88.68974417415117
8.44,0.9999947334808316,88.25142705230574
8.448,0.9999946678409131,87.81276183472106
8.456,0.9999946034137933,87.37374764992958
8.464,0.9999945402032745,86.934383645441
8.472,0.9999944782127499,86.49466898787465
8.48,0.9999944174452011,86.05460286308988
8.488,0.9999943579032007,85.61418447631792
8.496,0.9999942995889112,85.17341305229188
8.504,0.9999942425040862,84.73228783537792
8.512,0.9999941866500729,84.29080808970485
8.52,0.9999941320278095,83.84897309929464
8.528,0.9999940786378297,83.40678216819107
8.536,0.9999940264802607,82.96423462058979
8.544,0.9999939755548274,82.52132980096607
8.552,0.9999939258608499,82.078067074204
8.56,0.9999938773972489,81.63444582572333
8.568,0.9999938301625433,81.19046546160774
8.576,0.9999937841548541,80.74612540873075
8.584,0.9999937393719053,80.30142511488275
8.592,0.9999936958110249,79.85636404889588
8.6,0.999993653469148,79.41094170076997
8.608,0.9999936123428167,78.96515758179602
8.616,0.9999935724281837,78.51901122468097
8.624,0.9999935337210132,78.07250218366985
8.632,0.9999934962166842,77.62563003466899
8.64,0.9999934599101916,77.17839437536684
8.648,0.9999934247961476,76.73079482535555
8.656,0.9999933908687868,76.2828310262503
8.664,0.9999933581219662,75.83450264180922
8.672,0.9999933265491681,75.38580935805089
8.68,0.9999932961435041,74.93675088337257
8.688,0.9999932668977161,74.48732694866585
8.696,0.9999932388041798,74.03753730743297
8.704,0.9999932118549081,73.58738173590054
8.712,0.9999931860415523,73.13686003313369
8.72,0.9999931613554077,72.68597202114786
8.728,0.9999931377874149,72.2347175450207
8.736,0.9999931153281626,71.78309647300158
8.744,0.999993093967893,71.3311086966213
8.752,0.9999930736965033,70.87875413079914
8.76,0.9999930545035498,70.42603271395016
8.768,0.9999930363782518,69.97294440808979
8.776,0.9999930193094946,69.5194891989385
8.784,0.9999930032858338,69.06566709602376
8.792,0.9999929882954988,68.61147813278203
8.8,0.9999929743263966,68.15692236665785
8.808,0.9999929613661159,67.70199987920313
8.815999999999999,0.9999929494019318,67.24671077617326
8.824,0.9999929384208086,66.79105518762299
8.832,0.9999929284094056,66.33503326800036
8.84,0.9999929193540793,65.87864519623892
8.847999999999999,0.9999929112408905,65.42189117584816
8.856,0.9999929040556067,64.96477143500263
8.864,0.9999928977837078,64.50728622662959
8.872,0.9999928924103898,64.04943582849432
8.879999999999999,0.9999928879205702,63.591220543283725
8.888,0.9999928842988924,63.13264069868861
8.896,0.9999928815297314,62.67369664748401
8.904,0.9999928795971974,62.21438876760725
8.911999999999999,0.9999928784851422,61.75471746223421
8.92,0.9999928781771631,61.294683159853896
8.928,0.9999928786566091,60.83428631434112
8.936,0.9999928799065857,60.37352740502666
8.943999999999999,0.9999928819099604,59.9124069367655
8.952,0.9999928846493673,59.450925440003225
8.96,0.999992888107214,58.98908347084042
8.968,0.9999928922656862,58.52688161109435
8.975999999999999,0.9999928971067531,58.064320468358595
8.984,0.9999929026121744,57.60140067606069
8.992,0.9999929087635044,57.138122893517625
9.0,0.999992915542099,56.67448780598851
9.008,0.9999929229291208,56.210496124724926
9.016,0.9999929309055462,55.74614858701941
9.024000000000001,0.9999929394521699,55.28144595625129
9.032,0.9999929485496123,54.81638902192983
9.04,0.9999929581783252,54.35097859973482
9.048,0.9999929683185971,53.88521553155515
9.056000000000001,0.9999929789505616,53.41910068552454
9.064,0.9999929900542014,52.95263495605462
9.072,0.999993001609356,52.48581926386505
9.08,0.9999930135957282,52.01865455601175
9.088000000000001,0.99999302599289,51.551141805911904
9.096,0.9999930387802891,51.083282013366464
9.104,0.9999930519372565,50.61507620457931
9.112,0.9999930654430124,50.146525432174315
9.120000000000001,0.9999930792766718,49.67763077520957
9.128,0.9999930934172541,49.20839333918822
9.136,0.9999931078436869,48.73881425606652
9.144,0.9999931225348146,48.26889468425916
9.152000000000001,0.9999931374694052,47.798635808642
9.16,0.9999931526261564,47.32803884055093
9.168,0.9999931679837029,46.85710501777816
9.176,0.9999931835206235,46.385835604565486
9.184000000000001,0.9999931992154485,45.914231891594795
9.192,0.9999932150466665,45.442295195974744
9.2,0.9999932309927304,44.97002686122456
9.208,0.9999932470320668,44.49742825725489
9.216000000000001,0.9999932631430811,44.024500780345576
9.224,0.9999932793041656,43.55124585311974
9.232,0.9999932954937062,43.07766492451457
9.24,0.9999933116900911,42.6037594697494
9.248000000000001,0.9999933278717158,42.12953099029026
9.256,0.9999933440169921,41.654981013810904
9.264,0.9999933601043549,41.180111094150334
9.272,0.9999933761122692,40.70492281126744
9.280000000000001,0.9999933920192376,40.22941777119223
9.288,0.999993407803808,39.75359760597319
9.296,0.9999934234445802,39.277463973621266
9.304,0.999993438920214,38.80101855805068
9.312000000000001,0.9999934542094361,38.32426306901645
9.32,0.9999934692910475,37.84719924204782
9.328,0.9999934841439309,37.36982883837824
9.336,0.9999934987470586,36.89215364487224
9.344,0.9999935130794982,36.414175473948816
9.352,0.9999935271204222,35.93589616350022
9.36,0.9999935408491143,35.45731757680872
9.368,0.9999935542449754,34.978441602458126
9.376,0.999993567287533,34.49927015424332
9.384,0.9999935799564473,34.01980517107441
9.392,0.9999935922315197,33.540048616879204
9.4,0.9999936040926982,33.0600024805
9.408,0.9999936155200859,32.5796687755886
9.416,0.9999936264939476,32.09904954049597
9.424,0.9999936369947185,31.61814683815976
9.432,0.9999936470030085,31.136962755986705
9.44,0.9999936564996128,30.65549940573263
9.448,0.9999936654655152,30.17375892337756
9.456,0.9999936738818993,29.69174346899836
9.464,0.9999936817301517,29.209455226636237
9.472,0.9999936889918711,28.726896404162147
9.48,0.9999936956488759,28.244069233136795
9.488,0.9999937016832078,27.76097596866864
9.496,0.9999937070771432,27.27761888926643
9.504,0.9999937118131955,26.794000296689802
9.512,0.9999937158741253,26.310122515794422
9.52,0.9999937192429459,25.825987894375054
9.528,0.9999937219029283,25.341598803003443
9.536,0.999993723837611,24.85695763486391
9.544,0.9999937250308036,24.372066805583753
9.552,0.999993725466594,23.886928753061703
9.56,0.9999937251293565,23.401545937290724
9.568,0.9999937240037554,22.91592084017922
9.576,0.999993722074754,22.430055965366524
9.584,0.9999937193276176,21.943953838036812
9.592,0.9999937157479231,21.45761700472737
9.6,0.9999937113215611,20.971048033135098
9.608,0.9999937060347464,20.484249511917696
9.616,0.9999936998740191,19.997224050492946
9.624,0.9999936928262538,19.509974278832754
9.632,0.9999936848786641,19.022502847255303
9.64,0.9999936760188081,18.534812426212028
9.648,0.9999936662345932,18.046905706072696
9.656,0.9999936555142829,17.55878539690543
9.664,0.9999936438465009,17.070454228254807
9.672,0.9999936312202377,16.58191494891499
9.68,0.9999936176248534,16.093170326701042
9.688,0.9999936030500856,15.604223148215047
9.696,0.9999935874860513,15.115076218610909
9.704,0.9999935709232544,14.62573236135366
9.712,0.9999935533525877,14.136194417977626
9.72,0.9999935347653397,13.646465247839208
9.728,0.9999935151531983,13.15654772786843
9.736,0.9999934945082548,12.666444752315419
9.744,0.9999934728230075,12.176159232495454
9.752,0.9999934500903677,11.685694096529183
9.76,0.9999934263036618,11.195052289081415
9.768,0.9999934014566368,10.704236771095154
9.776,0.9999933755434618,10.213250519524358
9.784,0.9999933485587336,9.722096527061867
9.792,0.9999933204974796,9.230777801866262
9.8,0.9999932913551608,8.73929736728399
9.808,0.9999932611276756,8.24765826157037
9.816,0.9999932298113614,7.755863537606079
9.824,0.9999931974029999,7.263916262612546
9.832,0.9999931638998178,6.771819517862919
9.84,0.9999931292994909,6.27957639839206
