freq,mag,phase
6.0,1.0002603687878862,-23.916131159732007
6.016227328,1.0001393155868508,-24.508781580074604
6.032454144,1.00001414775575,-25.100292150614557
6.048681472,0.999888068205124,-25.690678682386494
6.0649088,0.9997658131510131,-26.279918552064792
6.081136128,0.9996529232330061,-26.868041161200413
6.097362944,0.9995542723496271,-27.455261444795283
6.113590272,0.9994736559734743,-28.04175198142792
6.1298176,0.9994150810452171,-28.627692583508185
6.146044416,0.9993805777340249,-29.21342254547054
6.162271744,0.9993723524054496,-29.799166075517487
6.178499072,0.9993904951248687,-30.385317709435945
6.1947264,0.9994344065855715,-30.972111938761987
6.210953216,0.9995023830889916,-31.559867837497066
6.227180544,0.9995919278010313,-32.14887907013703
6.243407872,0.9996991490913711,-32.73935866897261
6.259634688,0.9998197192694673,-33.331527273994325
6.275862016,0.999948670951909,-33.92548686272542
6.292089344,1.0000804705829236,-34.52129869373211
6.308316672,1.0002099297059943,-35.119009459629325
6.324543488,1.0003312564912183,-35.71851210970484
6.340770816,1.0004397873930826,-36.31972308497838
6.356998144,1.000530246471651,-36.92244517121067
6.37322496,1.0005993086063538,-37.526445459165075
6.389452288,1.0006438174499113,-38.131510186981544
6.405679616,1.0006614922599115,-38.73728078657508
6.421906944,1.000651710564111,-39.343428388981536
6.43813376,1.0006146485455303,-39.94969954508813
6.454361088,1.0005517851657688,-40.55571676350713
6.470588416,1.0004654823807364,-41.161270551357674
6.486815232,1.0003594699566236,-41.765983654875
6.50304256,1.0002377006669816,-42.36975591071477
6.519269888,1.000105388803298,-42.972390293567315
6.535496704,0.999968131111641,-43.573769015605365
6.551724032,0.9998313458789151,-44.17388309683214
6.56795136,0.9997009752053126,-44.772746042964506
6.584178688,0.9995826365857053,-45.37048204893638
6.600405504,0.999481087416744,-45.967291450172226
6.616632832,0.9994007505626451,-46.56333674115095
6.63286016,0.9993454090626746,-47.158901565816066
6.649086976,0.9993169968963227,-47.7543238499022
6.665314304,0.9993172815821405,-48.34990167226035
6.681541632,0.9993463586569453,-48.945970118890145
6.69776896,0.9994030361213937,-49.54288309147741
6.713995776,0.9994850904549086,-50.14095312639027
6.730223104,0.9995893799887141,-50.74044425478626
6.746450432,0.9997115949473129,-51.34160072477981
6.762677248,0.9998465579911312,-51.94462184284382
6.778904576,0.9999888401185228,-52.54963802966443
6.795131904,1.0001325252730837,-53.1566791971798
6.811359232,1.000271647251834,-53.76573293647002
6.827586048,1.0004002259099014,-54.37677345842116
6.843813376,1.0005129320135098,-54.9895808532796
6.860040704,1.0006049382433613,-55.60393531726623
6.87626752,1.0006724069840365,-56.21962207454039
6.892494848,1.000712107182347,-56.836324164027715
6.908722176,1.0007223705319637,-57.453715682376895
6.924949504,1.0007026338638192,-58.07140047394659
6.94117632,1.0006535035973854,-58.689092649474254
6.957403648,1.000576884982692,-59.30644262228764
6.973630976,1.0004759168204236,-59.92316262655862
6.989857792,1.0003544966931526,-60.53890316212795
7.00608512,1.0002176501071969,-61.15352473911304
7.022312448,1.0000710751641524,-61.766839352361906
7.038539776,0.9999206336984787,-62.378784970580284
7.054766592,0.99977268425495,-62.98936391328096
7.07099392,0.9996336264046293,-63.5985864445161
7.087221248,0.9995091590573911,-64.20665469453387
7.103448064,0.9994043593787895,-64.8136807456682
7.119675392,0.9993240041035544,-65.42001675139093
7.13590272,0.999271647817594,-66.02589943546444
7.152130048,0.9992494650632172,-66.63164261697351
7.168356864,0.9992586515408682,-67.23773837323775
7.184584192,0.999298912231076,-67.8443849289422
7.20081152,0.9993688469574669,-68.45208525390842
7.217038336,0.9994655814769079,-69.06110741618355
7.233265664,0.9995852949797152,-69.67176789504613
7.249492992,0.9997232505462385,-70.28427479601964
7.26572032,0.9998735016093735,-70.89887739717008
7.281947136,1.0000300331111767,-71.51562668749861
7.298174464,1.0001862682883658,-72.13459665996372
7.314401792,1.0003359347100504,-72.75576374612601
7.330628608,1.0004724064604176,-73.37896996901515
7.346855936,1.0005901620819366,-74.00408892224114
7.363083264,1.0006840688470893,-74.63084073806353
7.379310592,1.0007500575160098,-75.2589321832014
7.395537408,1.000785438187748,-75.88800417647319
7.411764736,1.0007881510567285,-76.51771599718441
7.427992064,1.0007582961909447,-77.14769956296686
7.44421888,1.0006966844710132,-77.77755631473542
7.460446208,1.0006058199422079,-78.40691156005933
7.476673536,1.0004893579665828,-79.03545005718114
7.492900864,1.0003518136350968,-79.6629272627209
7.50912768,1.0001987558511944,-80.28908514079569
7.525355008,1.0000367303413125,-80.91373868609155
7.541582336,0.9998722322308156,-81.536942779224
7.557809152,0.9997122094226808,-82.1585556305629
7.57403648,0.999563242305472,-82.77877259695187
7.590263808,0.9994316048803917,-83.3976943585726
7.606490624,0.999323183365062,-84.01559013296563
7.622717952,0.999242206464007,-84.63271540613475
7.63894528,0.9991924252072705,-85.24944818015082
7.655172608,0.9991761312634874,-85.86616874305413
7.671399424,0.9991943103587639,-86.48323912478851
7.687626752,0.9992461285057641,-87.10110054409093
7.70385408,0.9993298596043809,-87.72008521742352
7.720080896,0.9994419612916703,-88.3406304072379
7.736308224,0.9995781712516493,-88.96295953511681
7.752535552,0.9997327809868407,-89.58744119061566
7.76876288,0.9998995756282266,-90.21413461280135
7.784989696,1.0000717658733782,-90.84323233859732
7.801217024,1.0002418989030069,-91.47472710513439
7.817444352,1.0004031776861686,-92.10855083602755
7.833671168,1.000548716280408,-92.74462082158371
7.849898496,1.0006725018683247,-93.38263820162389
7.866125824,1.0007691778242207,-94.02238052760195
7.882353152,1.0008345224821438,-94.66348646676015
7.898579968,1.0008657012773357,-95.3055860605048
7.914807296,1.0008611459402552,-95.9482712661188
7.931034624,1.0008208906057057,-96.59113043416374
7.94726144,1.000746519792742,-97.23372216052014
7.963488768,1.0006406183042518,-97.87570292720551
7.979716096,1.0005076846213306,-98.51669713233656
7.995943424,1.0003528302929732,-99.1564387438554
8.01217024,1.0001825025674127,-99.79470999390641
8.028397568,1.0000036862103046,-100.4312789601742
8.044624896,0.999823517692315,-101.0661951306021
8.060851712,0.9996498716077751,-101.69940151043919
8.07707904,0.9994896513160663,-102.33104468977233
8.093306368,0.9993497266298246,-102.96134039998215
8.109533696,0.9992361822781282,-103.59047985376772
8.125760512,0.999153761157823,-104.21884399854201
8.14198784,0.9991059455141941,-104.84685134905568
8.158215168,0.9990952070006197,-105.4748774195368
8.174441984,0.9991220945016102,-106.10335549989266
8.190669312,0.9991858265290833,-106.73271848060303
8.20689664,0.9992837304044334,-107.36343767926417
8.223123968,0.9994122029643671,-107.99582697248927
8.239350784,0.9995658945054972,-108.6302971924397
8.255578112,0.999738751214074,-109.2670208603988
8.27180544,0.9999235327958582,-109.90626734046661
8.288032256,1.000112794832036,-110.54812512744905
8.304259584,1.0002985919895109,-111.19257167124812
8.320486912,1.0004733118251492,-111.83950141722518
8.33671424,1.0006295971863597,-112.48885208329672
8.352941056,1.0007608493730622,-113.14026757687368
8.369168384,1.0008614730738188,-113.79348847281038
8.385395712,1.0009272095229422,-114.44810750511472
8.401622528,1.0009549612191475,-115.10372362280037
8.417849856,1.0009435284563457,-115.75986029459507
8.434077184,1.0008928425158887,-116.41607141570107
8.450304512,1.0008051124613822,-117.07193466140643
8.466531328,1.0006836240667516,-117.72701259786723
8.482758656,1.0005330026792933,-118.38093497125715
8.498985984,1.000359601181083,-119.03336995206807
8.5152128,1.0001701461601897,-119.68413245725735
8.531440128,0.9999725913942968,-120.3330345675083
8.547667456,0.9997750063166932,-120.98001350362382
8.563894272,0.9995855665878385,-121.62517643326173
8.5801216,0.9994121752188434,-122.26855775233076
8.596348928,0.9992621064283842,-122.91045885632259
8.612576256,0.9991417605510613,-123.55113370568789
8.628803584,0.9990564078600888,-124.19098648910986
8.645030912,0.9990097038734302,-124.83045109169147
8.661257216,0.9990037731975386,-125.46999466769044
8.677484544,0.9990392314892088,-126.11003470103303
8.693711872,0.9991148480346441,-126.75112745662871
8.7099392,0.9992278101543411,-127.39371911739029
8.726166528,0.9993734820514497,-128.03817492195864
8.742393856,0.9995461913368049,-128.6848859325835
8.758621184,0.9997389518488433,-129.33412793105666
8.774847488,0.9999437153112055,-129.98612890285207
8.791074816,1.000152323999676,-130.6409201131852
8.807302144,1.000356054733406,-131.29855890012158
8.823529472,1.000546486612256,-131.95894004861827
8.8397568,1.0007157355510767,-132.62181080618967
8.855984128,1.0008564610127353,-133.2869289426219
8.872211456,1.0009628697864148,-133.95394354068463
8.88843776,1.001030292748727,-134.62242572060583
8.904665088,1.0010556428890975,-135.29187629369665
8.920892416,1.0010377034719888,-135.961830380695
8.937119744,1.000976913172879,-136.63178546860868
8.953347072,1.0008754324106963,-137.3012285405137
8.9695744,1.000737264435674,-137.9697280469404
8.985801728,1.0005677909133268,-138.6368490657283
9.002028032,1.0003737961200105,-139.30232460020633
9.01825536,1.0001631737339822,-139.96582249199247
9.034482688,0.9999444949409064,-140.62726381725847
9.050710016,0.9997267590922763,-141.28655158978503
9.066937344,0.999518924417263,-141.9437308290245
9.083164672,0.9993297008040776,-142.59901599354794
9.099390976,0.999166924803715,-143.25260832422066
9.115618304,0.9990376718547024,-143.9048815493968
9.131845632,0.9989474622876069,-144.5562274347086
9.14807296,0.998900262844424,-145.20713523272482
9.164300288,0.9988981896924417,-145.85810305350194
9.180527616,0.9989419578303849,-146.5097305308925
9.196754944,0.9990297408589416,-147.16244983459706
9.212981248,0.9991582796511574,-147.8168551818745
9.229208576,0.9993225585166113,-148.473321851802
9.245435904,0.9995161146305597,-149.13226189393782
9.261663232,0.9997308982378376,-149.79399710662463
9.27789056,0.9999584432039818,-150.45867863860025
9.294117888,1.0001894003791671,-151.12646743603622
9.310345216,1.000413990251793,-151.79735209342272
9.32657152,1.0006232322556514,-152.47117994477117
9.342798848,1.000808231751445,-153.14772490029964
9.359026176,1.0009613025003168,-153.82669290253287
9.375253504,1.001075903858741,-154.50762768430337
9.391480832,1.0011470043020365,-155.19013155230815
9.40770816,1.0011714238033147,-155.87364651186638
9.423935488,1.0011478939842193,-156.55761304963147
9.440161792,1.0010769948658138,-157.24149636194687
9.45638912,1.0009612930633132,-157.92471718888325
9.472616448,1.0008053406762796,-158.60682453171603
9.488843776,1.000615167759439,-159.2873443603074
9.505071104,1.0003983813321733,-159.96594512896232
9.521298432,1.0001637620130617,-160.64231735767655
9.53752576,0.9999208360386129,-161.31632252284786
9.553752064,0.9996794730879238,-161.98792907863094
9.569979392,0.9994498482633003,-162.65714944330347
9.58620672,0.999241186383673,-163.32420748871453
9.602434048,0.9990625590341691,-163.9893665038881
9.618661376,0.9989212882351647,-164.65305489526423
9.634888704,0.9988237399202283,-165.31568376438238
9.651116032,0.9987740833536392,-165.9778065116517
9.667342336,0.9987746525295127,-166.6399870234327
9.683569664,0.9988258284052737,-167.3028404401394
9.699796992,0.998925965179549,-167.96692751237737
9.71602432,0.9990710805007665,-168.63281825122007
9.732251648,0.999255750551964,-169.30099768257034
9.748478976,0.99947233447796,-169.97189831639594
9.764706304,0.9997123348700423,-170.64585683006558
9.780932608,0.9999658661294993,-171.3230744124041
9.797159936,1.0002227383824007,-172.00365993923938
9.813387264,1.0004723853889803,-172.6876157295754
9.829614592,1.0007044060117103,-173.3748066250537
9.84584192,1.0009091825650231,-174.0649599306127
9.862069248,1.0010781345966908,-174.75773884426712
9.878296576,1.0012040994422124,-175.45266086239212
9.89452288,1.0012814101539318,-176.14923536235227
9.910750208,1.0013068297332373,-176.8468299408717
9.926977536,1.001278857269868,-177.54489059745143
9.943204864,1.0011980205280508,-178.2427517596049
9.959432192,1.0010676901289475,-178.93986517031772
9.97565952,1.0008923738201536,-179.63563594590605
9.991886848,1.0006793605319648,179.6704054396252
10.008113152,1.0004368143187905,178.97868034830154
10.02434048,1.000174430801571,178.28946060714077
10.040567808,0.9999031325677346,177.60295508032326
10.056795136,0.9996338916797033,176.91919385623189
10.073022464,0.9993777137454851,176.23811578562265
10.089249792,0.9991451476783939,175.5595265930584
10.10547712,0.9989462304532035,174.8830768220975
10.121703424,0.9987892085840061,174.2083690377583
10.137930752,0.9986808840623514,173.53486810117522
10.15415808,0.9986261070644841,172.86197723064168
10.170385408,0.9986275283797644,172.18906376728887
10.186612736,0.9986854846136594,171.5154658816633
10.202840064,0.9987980914906238,170.84052807642135
10.219067392,0.9989610474867724,170.1636371260276
10.235293696,0.9991680123891307,169.48425196310748
10.251521024,0.9994108701198718,168.80186837909653
10.267748352,0.999679736567269,168.11614796629945
10.28397568,0.9999637646506412,167.42678345653405
10.300203008,1.000251539850561,166.73373018511148
10.316430336,1.000531235589187,166.03695850917217
10.332657664,1.0007913062497162,165.33664343818484
10.348883968,1.0010208910365581,164.6330439577793
10.365111296,1.0012103991057753,163.9265885774646
10.381338624,1.0013518188689408,163.2177586172092
10.397565952,1.0014389305858646,162.50715502704506
10.41379328,1.0014676524290513,161.79543047550908
10.430020608,1.0014365797092253,161.08324885028395
10.446247936,1.0013464753355776,160.3713134272051
10.46247424,1.0012005588618644,159.66028498643058
10.478701568,1.0010041621643546,158.9508218238507
10.494928896,1.0007651797524402,158.24342417201524
10.511156224,1.000492847960777,157.53859399221767
10.527383552,1.0001982581568303,156.83662620295786
10.54361088,0.9998932450053781,156.13775689303486
10.559838208,0.9995900771737912,155.44202616922703
10.576064512,0.9993014680083241,154.749369930278
10.59229184,0.9990392035015562,154.05957910669704
10.608519168,0.9988142195324238,153.37229893933102
10.624746496,0.9986362110140345,152.68702040109494
10.640973824,0.9985130053234132,152.0031689849308
10.657201152,0.9984496905591452,151.32010482526465
10.67342848,0.9984496806186669,150.63708182781426
10.689654784,0.9985133715521857,149.95337272216193
10.705882112,0.9986387049924424,149.26823595892225
10.72210944,0.9988209220945555,148.5809775027588
10.738336768,0.9990531184947781,147.89098862149436
10.754564096,0.999325929604659,147.19770072287665
10.770791424,0.999628748497396,146.5006892820902
10.787018752,0.9999492662935393,145.79968126466463
10.803245056,1.0002743696110208,145.09456140877887
10.819472384,1.0005909545496872,144.38529992667364
10.835699712,1.0008858822553077,143.67207301688924
10.85192704,1.0011469292481343,142.9551766591744
10.868154368,1.001363150536452,142.2350913556288
10.884381696,1.0015254634370154,141.51236242826772
10.900609024,1.0016266479106708,140.78763831608006
10.916835328,1.0016621575115927,140.06166136707603
10.933062656,1.0016300045984674,139.33522084166694
10.949289984,1.0015309054276504,138.60904720398028
10.965517312,1.0013682204733076,137.88392795543388
10.98174464,1.001148343467111,137.16057076770807
10.997971968,1.0008795313600904,136.4396131205097
11.014198272,1.0005724009868158,135.72155284206357
11.0304256,1.0002391732674882,135.00678648238312
11.046652928,0.9998933073298037,134.29558138579367
11.062880256,0.9995487686928818,133.58800644049185
11.079107584,0.9992196589018005,132.8839612893837
11.095334912,0.9989196753548392,132.18325639621466
11.11156224,0.9986614068811772,131.4854699370749
11.127788544,0.998455744990828,130.7900486275159
11.144015872,0.9983116327363821,130.09637424819167
11.1602432,0.9982355144589602,129.40367965221148
11.176470528,0.9982309750256122,128.71116026311472
11.192697856,0.9982990231899666,128.0179529817694
11.208925184,0.9984374139177735,127.32324535089063
11.225152512,0.9986410083368746,126.62623755911832
11.241378816,0.9989021254398596,125.92620094991888
11.257606144,0.99921045578131,125.22251451485795
11.273833472,0.9995537912391184,124.51467067117733
11.2900608,0.9999182954247631,123.802350376013
11.306288128,1.0002893231824141,123.08535655960038
11.322515456,1.0006517873809266,122.36372025869329
11.338742784,1.0009906382466514,121.63757871853558
11.354969088,1.0012919536342457,120.90729925410069
11.371196416,1.0015432564251274,120.17335200364425
11.387423744,1.0017336211398098,119.43637561185629
11.403651072,1.001854737214482,118.69712573641227
11.4198784,1.001901277382544,117.9564119249764
11.436105728,1.0018705068078066,117.21510597792947
11.452333056,1.001763052357079,116.47409874492985
11.46855936,1.0015824444737906,115.73427173898241
11.484786688,1.0013355367145034,114.99643903165452
11.501014016,1.0010316841709783,114.26130447632923
11.517241344,1.000682735095719,113.52950415137356
11.533468672,1.0003025669814227,112.8014783600781
11.549696,0.9999062507797789,112.07753601078545
11.565923328,0.999509908796762,111.35782206646557
11.582149632,0.999129929834761,110.64221822678302
11.59837696,0.9987816205435666,109.9305012810856
11.614604288,0.9984799887965312,109.22223666080465
11.630831616,0.9982374483280156,108.51681440780477
11.647058944,0.9980648423969236,107.81350659200619
11.663286272,0.997969712773616,107.11144920169033
11.6795136,0.9979567599238018,106.40973706422241
11.695739904,0.9980272695383468,105.7073735344167
11.711967232,0.9981792460226504,105.00342220940638
11.72819456,0.9984070117217609,104.2969448252603
11.744421888,0.9987020771512928,103.5870756967513
11.760649216,0.9990531861326589,102.87311761720376
11.776876544,0.9994459832737822,102.1544421169687
11.793103872,0.999865278300134,101.43067604724398
11.809330176,1.0002938928795357,100.70156482470111
11.825557504,1.0007144883995958,99.96709506163381
11.841784832,1.0011098792506177,99.22743008248464
11.85801216,1.001463632356974,98.48295021306969
11.874239488,1.001761053800069,97.73418102694504
11.890466816,1.0019893084181937,96.98186692152285
11.906694144,1.0021386199218905,96.22681621942169
11.922920448,1.0022020424291243,95.46998581478766
11.939147776,1.0021762241185088,94.71237380583308
11.955375104,1.0020612420839052,93.95500482474978
11.971602432,1.0018608735045882,93.1988982460926
11.98782976,1.0015823564042905,92.44499532205394
12.004057088,1.0012363515861122,91.69413606730943
12.020284416,1.000836013310923,90.94709946162988
12.03651072,1.0003972522647417,90.20438591623481
12.052738048,0.9999375047463811,89.46640665369375
12.068965376,0.9994752163933254,88.73332595272689
12.085192704,0.9990293068804218,88.00508362032447
12.101420032,0.9986181144134291,87.28142533901784
12.11764736,0.9982588378280156,86.56186635320714
12.133874688,0.9979668564006909,85.84573440436068
12.150100992,0.9977548373243463,85.13218949792811
12.16632832,0.9976321852407661,84.42026672059393
12.182555648,0.9976048446620829,83.70888842866819
12.198782976,0.9976751744823783,82.99691643375013
12.215010304,0.997841204701089,82.28323106477598
12.231237632,0.9980970459834593,81.56671588448809
12.24746496,0.9984332680700068,80.8463890946892
12.263691264,0.9988368943252639,80.12134420775915
12.279918592,0.9992921179870933,79.3908996863713
12.29614592,0.9997808548985136,78.65449438998037
12.312373248,1.0002835834074155,77.91185307669767
12.328600576,1.000779804518498,77.162883572498
12.344827904,1.001249433576323,76.40777834050091
12.361055232,1.0016728715599739,75.6469021794325
12.377281536,1.0020325675790969,74.88089390328801
12.393508864,1.0023130937250644,74.11053444985068
12.409736192,1.0025022758624762,73.33679550732589
12.42596352,1.0025915312692224,72.56073135173057
12.442190848,1.0025759673815526,71.78355247333917
12.458418176,1.0024549789348542,71.00642464430011
