freq,mag,phase
6.0,0.9999967930707829,45.6294319755194
6.008,0.9999969923447788,45.44283232338244
6.016,0.9999971837827005,45.2562092709214
6.024,0.9999973675456569,45.06956283519121
6.032,0.9999975437929245,44.88289303326385
6.04,0.9999977126819553,44.69619988222938
6.048,0.9999978743683869,44.509483399196704
6.056,0.9999980290060508,44.32274360129451
6.064,0.9999981767469823,44.13598050567215
6.072,0.9999983177414299,43.94919412950049
6.08,0.9999984521378632,43.76238448997278
6.088,0.9999985800829841,43.57555160430555
6.096,0.9999987017217349,43.38869548973943
6.104,0.999998817197307,43.20181616354015
6.112,0.9999989266511522,43.01491364299921
6.12,0.99999903022299,42.827987945434884
6.128,0.9999991280508178,42.64103908819299
6.136,0.9999992202709213,42.45406708864784
6.144,0.9999993070178815,42.267071964203005
6.152,0.999999388424587,42.080053732292214
6.16,0.9999994646222408,41.89301241038018
6.168,0.9999995357403711,41.70594801596346
6.176,0.9999996019068415,41.51886056657128
6.184,0.9999996632478577,41.33175007976639
6.192,0.9999997198879812,41.144616573145896
6.2,0.9999997719501345,40.957460064342094
6.208,0.999999819555613,40.770280571023314
6.216,0.999999862824095,40.583078110894675
6.224,0.9999999018736496,40.39585270169904
6.232,0.9999999368207472,40.20860436121774
6.24,0.9999999677802683,40.02133310727143
6.248,0.9999999948655152,39.83403895772088
6.256,1.0,39.646721930467784
6.264,1.0,39.459382043455676
6.272,1.0,39.272019314670565
6.28,1.0,39.08463376214189
6.288,1.0,38.8972254039432
6.296,0.9999999999999999,38.70979425819307
6.304,0.9999999999999999,38.52234034305581
6.312,1.0,38.334863676742295
6.32,1.0,38.14736427751075
6.328,1.0,37.9598421636675
6.336,1.0,37.77229735356783
6.344,0.9999999999999999,37.5847298656167
6.352,0.9999999999999999,37.397139718269536
6.36,1.0,37.209526930032986
6.368,1.0,37.02189151946576
6.376,0.9999999878082838,36.83423350517931
6.384,0.999999964881897,36.64655290583867
6.392,0.9999999398615214,36.45884974016312
6.4,0.9999999128322781,36.27112402692705
6.408,0.9999998838779036,36.083375784960616
6.416,0.9999998530807566,35.8956050331506
6.424,0.9999998205218303,35.70781179044105
6.432,0.9999997862807604,35.519996075834065
6.44,0.9999997504358363,35.33215790839054
6.448,0.9999997130640089,35.14429730723091
6.456,0.9999996742409032,34.95641429153586
6.464,0.9999996340408253,34.76850888054707
6.472,0.9999995925367733,34.580581093567915
6.48,0.9999995498004476,34.39263094996426
6.4879999999999995,0.9999995059022599,34.20465846916507
6.496,0.9999994609113434,34.016663670663114
6.504,0.9999994148955614,33.82864657401597
6.5120000000000005,0.9999993679215194,33.640607198846226
6.52,0.9999993200545721,33.452545564842694
6.5280000000000005,0.9999992713588356,33.26446169176068
6.536,0.9999992218971951,33.076355599423074
6.5440000000000005,0.9999991717313162,32.888227307720655
6.552,0.999999120921654,32.70007683661314
6.5600000000000005,0.9999990695274629,32.51190420612954
6.568,0.9999990176068054,32.32370943636919
6.5760000000000005,0.9999989652165643,32.135492547502025
6.584,0.9999989124124493,31.947253559769674
6.592,0.9999988592490098,31.75899249348575
6.6,0.9999988057796418,31.570709369036788
6.608,0.9999987520565995,31.3824042068828
6.616,0.9999986981310044,31.194077027557906
6.624,0.9999986440528549,31.005727851671057
6.632,0.9999985898710362,30.817356699906618
6.64,0.9999985356333299,30.628963593025087
6.648,0.999998481386423,30.440548551863685
6.656,0.9999984271759195,30.252111597336988
6.664,0.9999983730463471,30.063652750437605
6.672,0.9999983190411703,29.87517203223678
6.68,0.9999982652027964,29.68666946388502
6.688,0.9999982115725884,29.498145066612718
6.696,0.9999981581908726,29.309598861730787
6.704,0.9999981050969489,29.121030870631245
6.712,0.9999980523290998,28.932441114787842
6.72,0.9999979999246011,28.743829615756695
6.728,0.9999979479197305,28.555196395176825
6.736,0.9999978963497776,28.366541474770802
6.744,0.9999978452490532,28.177864876345318
6.752,0.9999977946508989,27.989166621791792
6.76,0.9999977445876965,27.80044673308696
6.768,0.9999976950908787,27.611705232293403
6.776,0.9999976461909359,27.422942141560206
6.784,0.9999975979174288,27.23415748312346
6.792,0.9999975502989956,27.045351279306875
6.8,0.9999975033633625,26.85652355252229
6.808,0.9999974571373527,26.66767432527032
6.816,0.999997411646896,26.47880362014082
6.824,0.9999973669170384,26.289911459813485
6.832,0.9999973229719512,26.100997867058382
6.84,0.9999972798349404,25.912062864736498
6.848,0.9999972375284557,25.723106475800265
6.856,0.9999971960741006,25.534128723294135
6.864,0.9999971554926411,25.345129630355036
6.872,0.9999971158040157,25.156109220212937
6.88,0.9999970770273433,24.967067516191392
6.888,0.9999970391809339,24.77800454170802
6.896,0.9999970022822973,24.588920320275008
6.904,0.9999969663481518,24.399814875499665
6.912,0.9999969313944342,24.21068823108486
6.92,0.9999968974363087,24.02154041082956
6.928,0.9999968644881757,23.832371438629334
6.936,0.9999968325636817,23.643181338476797
6.944,0.9999968016757266,23.453970134462136
6.952,0.9999967718364762,23.26473785077354
6.96,0.9999967430573676,23.075484511697727
6.968,0.9999967153491199,22.886210141620403
6.976,0.9999966887217441,22.696914765026676
6.984,0.99999666318455,22.507598406501575
6.992,0.9999966387461572,22.318261090730505
7.0,0.9999966154145024,22.128902842499638
7.008,0.9999965931968495,21.939523686696408
7.016,0.999996572099798,21.750123648309977
7.024,0.999996552129292,21.56070275243158
7.032,0.9999965332906287,21.371261024255055
7.04,0.9999965155884675,21.181798489077227
7.048,0.9999964990268397,20.992315172298316
7.056,0.999996483609155,20.80281109942238
7.064,0.9999964693382128,20.61328629605772
7.072,0.9999964562162088,20.42374078791729
7.08,0.9999964442447453,20.234174600819063
7.088,0.9999964334248386,20.044587760686532
7.096,0.9999964237569287,19.854980293548984
7.104,0.9999964152408878,19.665352225541927
7.112,0.9999964078760272,19.47570358290753
7.12,0.9999964016611081,19.286034391994935
7.128,0.9999963965943489,19.09634467926066
7.136,0.9999963926734348,18.90663447126895
7.144,0.9999963898955238,18.71690379469218
7.152,0.999996388257258,18.52715267631116
7.16,0.9999963877547698,18.337381143015534
7.168,0.9999963883836924,18.147589221804107
7.176,0.9999963901391659,17.957776939785187
7.184,0.9999963930158475,17.767944324176945
7.192,0.9999963970079179,17.578091402307745
7.2,0.9999964021090917,17.38821820161644
7.208,0.9999964083126234,17.198324749652752
7.216,0.9999964156113175,17.008411074077536
7.224,0.9999964239975355,16.81847720266313
7.232,0.9999964334632044,16.628523163293668
7.24,0.9999964439998247,16.438548983965347
7.248,0.9999964555984778,16.248554692786776
7.256,0.999996468249836,16.05854031797922
7.264,0.9999964819441679,15.868505887876937
7.272,0.9999964966713479,15.678451430927428
7.28,0.9999965124208646,15.488376975691727
7.288,0.9999965291818265,15.298282550844686
7.296,0.9999965469429719,15.108168185175217
7.304,0.9999965656926765,14.918033907586603
7.312,0.9999965854189596,14.727879747096676
7.32,0.9999966061094938,14.53770573283818
7.328,0.9999966277516108,14.347511894058918
7.336,0.9999966503323114,14.157298260122069
7.344,0.999996673838271,13.96706486050635
7.352,0.9999966982558474,13.776811724806352
7.36,0.9999967235710897,13.586538882732672
7.368,0.9999967497697448,13.396246364112185
7.376,0.9999967768372652,13.205934198888253
7.384,0.9999968047588161,13.01560241712093
7.392,0.9999968335192827,12.825251048987171
7.4,0.9999968631032791,12.634880124781052
7.4079999999999995,0.9999968934951523,12.444489674913958
7.416,0.9999969246789938,12.254079729914695
7.4239999999999995,0.9999969566386429,12.063650320429888
7.432,0.9999969893576968,11.873201477223866
7.4399999999999995,0.9999970228195151,11.682733231179155
7.448,0.99999705700723,11.49224561329632
7.4559999999999995,0.9999970919037505,11.301738654694487
7.464,0.9999971274917713,11.11121238661113
7.4719999999999995,0.9999971637537791,10.920666840402578
7.48,0.9999972006720594,10.730102047543854
7.4879999999999995,0.999997238228704,10.539518039629108
7.496,0.9999972764056172,10.348914848371455
7.504,0.9999973151845231,10.158292505603447
7.5120000000000005,0.9999973545469723,9.96765104327682
7.52,0.9999973944743484,9.776990493463025
7.5280000000000005,0.9999974349478749,9.586310888352958
7.536,0.9999974759486221,9.395612260257398
7.5440000000000005,0.9999975174575133,9.204894641606849
7.552,0.9999975594553313,9.0141580649519
7.5600000000000005,0.9999976019227255,8.823402562963027
7.568,0.9999976448402185,8.632628168431017
7.5760000000000005,0.9999976881882111,8.44183491426671
7.584,0.9999977319469905,8.251022833501416
7.5920000000000005,0.9999977760967357,8.060191959286668
7.6,0.9999978206175237,7.869342324894604
7.6080000000000005,0.9999978654893367,7.678473963717733
7.616,0.9999979106920667,7.48758690926929
7.6240000000000006,0.9999979562055235,7.29668119518298
7.632,0.9999980020094398,7.105756855213359
7.640000000000001,0.9999980480834776,6.914813923235543
7.648,0.9999980944072338,6.723852433245562
7.656000000000001,0.9999981409602463,6.532872419360098
7.664,0.9999981877220016,6.341873915816803
7.672,0.9999982346719377,6.150856956974051
7.68,0.9999982817894523,5.959821577311148
7.688,0.9999983290539076,5.768767811428259
7.696,0.9999983764446367,5.57769569404644
7.704,0.999998423940949,5.386605260007617
7.712,0.9999984715221351,5.195496544274612
7.72,0.9999985191674742,5.004369581931102
7.728,0.9999985668562379,4.813224408181638
7.736,0.9999986145676969,4.6220610583515915
7.744,0.9999986622811259,4.430879567887154
7.752,0.9999987099758093,4.239679972355296
7.76,0.9999987576310466,4.0484623074437245
7.768,0.9999988052261575,3.8572266089608673
7.776,0.9999988527404872,3.6659729128357936
7.784,0.9999989001534122,3.4747012551181786
7.792,0.9999989474443453,3.2834116719782536
7.8,0.9999989945927393,3.0921041997067293
7.808,0.999999041578095,2.9007788747147325
7.816,0.9999990883799635,2.7094357335337382
7.824,0.9999991349779533,2.518074812815483
7.832,0.9999991813517332,2.3266961493318874
7.84,0.9999992274810386,2.1352997799749684
7.848,0.9999992733456767,1.9438857417567355
7.856,0.99999931892553,1.7524540718090975
7.864,0.9999993642005619,1.5610048073837621
7.872,0.9999994091508213,1.369537985852116
7.88,0.9999994537564475,1.1780536447051182
7.888,0.9999994979976737,0.9865518215531713
7.896,0.9999995418548332,0.7950325541260018
7.904,0.9999995853083624,0.603495880272524
7.912,0.999999628338807,0.4119418379607096
7.92,0.9999996709268237,0.22037046527743814
7.928,0.9999997130531884,0.02878180042835492
7.936,0.999999754698796,-0.16282411826228194
7.944,0.9999997958446688,-0.35444725235176133
7.952,0.999999836471958,-0.5460875632790784
7.96,0.9999998765619492,-0.7377450123651068
7.968,0.9999999160960659,-0.9294195608127688
7.976,0.9999999550558738,-1.121111169707215
7.984,0.9999999934230847,-1.312819800016009
7.992,1.0,-1.5045454125893152
8.0,1.0,-1.696287968160092
8.008,1.0,-1.8880474273442742
8.016,1.0,-2.0798237506410766
8.024000000000001,1.0,-2.2716168984330216
8.032,0.9999999999999999,-2.463426830986253
8.04,1.0,-2.6552535084508424
8.048,1.0,-2.8470968908609344
8.056000000000001,1.0,-3.0389569381348873
8.064,1.0,-3.2308336100755923
8.072,1.0,-3.422726866370806
8.08,1.0,-3.614636666593306
8.088000000000001,0.9999999999999999,-3.8065629702010524
8.096,1.0,-3.9985057365375436
8.104,1.0,-4.190464924832149
8.112,1.0,-4.382440494200292
8.120000000000001,0.9999999999999999,-4.574432403643646
8.128,0.9999999999999999,-4.766440612050482
8.136,1.0,-4.958465078196044
8.144,1.0,-5.150505760742754
8.152000000000001,0.9999999999999999,-5.3425626182404065
8.16,1.0,-5.5346356091265605
8.168,1.0,-5.726724691726925
8.176,1.0,-5.918829824255574
8.184000000000001,0.9999999999999999,-6.110950964815179
8.192,0.9999999999999998,-6.3030880713974105
8.2,1.0000000000000002,-6.495241101883343
8.208,1.0,-6.687410014043703
8.216000000000001,1.0,-6.879594765539098
8.224,1.0,-7.071795313920462
8.232,1.0,-7.264011616629457
8.24,1.0,-7.456243630998774
8.248000000000001,1.0,-7.648491314252337
8.256,1.0,-7.840754623505805
8.264,0.9999999999999999,-8.033033515766997
8.272,1.0,-8.225327947936146
8.280000000000001,1.0,-8.417637876806229
8.288,0.9999999999999999,-8.609963259063395
8.296,1.0,-8.802304051287456
8.304,1.0,-8.994660209952162
8.312,1.0,-9.187031691425478
8.32,1.0,-9.37941845197028
8.328,0.9999999999999999,-9.571820447744408
8.336,0.9999999999999999,-9.764237634801406
8.344,1.0,-9.956669969090603
8.352,1.0,-10.149117406457858
8.36,1.0,-10.341579902645643
8.368,1.0,-10.534057413293805
8.376,1.0,-10.726549893939653
8.384,1.0,-10.919057300018745
8.392,1.0,-11.111579586864943
8.4,1.0,-11.30411670971126
8.408,0.9999999999999999,-11.496668623689908
8.416,1.0,-11.689235283833113
8.424,0.9999999999999999,-11.88181664507326
8.432,1.0,-12.074412662243617
8.44,1.0,-12.267023290078553
8.448,0.9999999999999999,-12.459648483214272
8.456,1.0,-12.652288196188998
8.464,1.0,-12.844942383443756
8.472,0.9999999999999999,-13.037610999322538
8.48,1.0,-13.230293998073135
8.488,1.0,-13.422991333847259
8.496,1.0,-13.615702960701427
8.504,1.0,-13.808428832597064
8.512,0.9999999999999999,-14.001168903401403
8.52,0.9999999999999999,-14.193923126887611
8.528,1.0,-14.38669145673569
8.536,1.0,-14.579473846532593
8.544,1.0,-14.772270249773149
8.552,0.9999999999999999,-14.965080619860222
8.56,1.0000000000000002,-15.157904910105554
8.568,0.9999999999999999,-15.350743073730026
8.576,1.0,-15.54359506386448
8.584,1.0,-15.736460833549954
8.592,1.0,-15.929340335738564
8.6,1.0,-16.122233523293705
8.608,0.9999999909012733,-16.31514034899096
8.616,0.9999999426535612,-16.5080607655183
8.624,0.9999998930843453,-16.700994725477056
8.632,0.9999998421957685,-16.89394218138203
8.64,0.9999997899902742,-17.086903085662534
8.648,0.9999997364706056,-17.27987739066253
8.656,0.9999996816398062,-17.472865048641626
8.664,0.9999996255012193,-17.665866011775247
8.672,0.9999995680584876,-17.858880232155624
8.68,0.999999509315552,-18.051907661792022
8.688,0.9999994492766532,-18.244948252611685
8.696,0.9999993879463283,-18.438001956460095
8.704,0.999999325329414,-18.631068725101894
8.712,0.999999261431042,-18.824148510221203
8.72,0.9999991962566418,-19.01724126342252
8.728,0.9999991298119376,-19.21034693623104
8.736,0.9999990621029492,-19.403465480093594
8.744,0.9999989931359903,-19.596596846378908
8.752,0.9999989229176681,-19.789740986378646
8.76,0.9999988514548825,-19.982897851307616
8.768,0.9999987787548249,-20.176067392304805
8.776,0.9999987048249774,-20.36924956043365
8.784,0.9999986296731124,-20.56244430668302
8.792,0.9999985533072905,-20.755651581967538
8.8,0.9999984757358599,-20.948871337128562
8.808,0.9999983969674563,-21.142103522934498
8.815999999999999,0.9999983170110001,-21.335348090081744
8.824,0.9999982358756956,-21.528604989195244
8.832,0.9999981535710308,-21.72187417082907
8.84,0.9999980701067753,-21.915155585467144
8.847999999999999,0.999997985492979,-22.108449183524005
8.856,0.9999978997399711,-22.301754915345423
8.864,0.9999978128583579,-22.495072731208964
8.872,0.9999977248590222,-22.68840258132477
8.879999999999999,0.9999976357531214,-22.881744415836327
8.888,0.9999975455520863,-23.07509818482106
8.896,0.9999974542676191,-23.268463838290938
8.904,0.9999973619116919,-23.46184132619327
8.911999999999999,0.9999972684965454,-23.65523059841148
8.92,0.9999971740346864,-23.848631604765725
8.928,0.9999970785388871,-24.04204429501348
8.936,0.9999969820221828,-24.23546861885039
8.943999999999999,0.9999968844978699,-24.42890452591103
8.952,0.9999967859795044,-24.622351965769525
8.96,0.9999966864808991,-24.815810887940216
8.968,0.9999965860161238,-25.009281241878412
8.975999999999999,0.9999964845995012,-25.20276297698127
8.984,0.9999963822456052,-25.39625604258835
8.992,0.9999962789692599,-25.589760387982363
9.0,0.9999961747855372,-25.783275962389858
9.008,0.9999960697097535,-25.976802714982153
9.016,0.9999959637574695,-26.170340594875952
9.024000000000001,0.9999958569444857,-26.363889551133973
9.032,0.9999957492868425,-26.557449532765787
9.04,0.9999956408008164,-26.75102048872869
9.048,0.9999955315029178,-26.944602367928326
9.056000000000001,0.99999542140989,-27.138195119219326
9.064,0.9999953105387045,-27.331798691406238
9.072,0.9999951989065609,-27.525413033244263
9.08,0.9999950865308834,-27.71903809344002
9.088000000000001,0.9999949734293175,-27.912673820652163
9.096,0.9999948596197298,-28.10632016349223
9.104,0.9999947451202028,-28.29997707052556
9.112,0.9999946299490341,-28.49364449027188
9.120000000000001,0.9999945141247332,-28.68732237120608
9.128,0.9999943976660185,-28.881010661759035
9.136,0.999994280591816,-29.07470931031843
9.144,0.9999941629212545,-29.26841826522953
9.152000000000001,0.9999940446736645,-29.46213747479582
9.16,0.9999939258685746,-29.655866887279913
9.168,0.9999938065257092,-29.849606450904343
9.176,0.9999936866649857,-30.043356113852397
9.184000000000001,0.9999935663065105,-30.237115824268695
9.192,0.9999934454705779,-30.430885530260152
9.2,0.9999933241776655,-30.624665179896812
9.208,0.9999932024484326,-30.818454721212547
9.216000000000001,0.9999930803037166,-31.01225410220585
9.224,0.9999929577645291,-31.206063270840634
9.232,0.9999928348520547,-31.399882175047182
9.24,0.9999927115876466,-31.593710762722807
9.248000000000001,0.9999925879928236,-31.787548981732627
9.256,0.9999924640892678,-31.98139677991044
9.264,0.9999923398988205,-32.17525410505962
9.272,0.9999922154434793,-32.36912090495384
9.280000000000001,0.9999920907453951,-32.56299712733778
9.288,0.9999919658268689,-32.75688271992807
9.296,0.9999918407103489,-32.95077763041422
9.304,0.9999917154184252,-33.14468180645926
9.312000000000001,0.9999915899738291,-33.33859519570053
9.32,0.9999914643994289,-33.532517745750575
9.328,0.9999913387182252,-33.72644940419813
9.336,0.9999912129533498,-33.920390118608736
9.344,0.9999910871280604,-34.114339836525474
9.352,0.9999909612657378,-34.30829850547022
9.36,0.9999908353898832,-34.50226607294391
9.368,0.9999907095241136,-34.696242486427934
9.376,0.9999905836921587,-34.890227693384496
9.384,0.9999904579178572,-35.0842216412578
9.392,0.9999903322251543,-35.2782242774746
9.4,0.999990206638097,-35.47223554944534
9.408,0.99999008118083,-35.666255404564666
9.416,0.9999899558775942,-35.86028379021259
9.424,0.9999898307527212,-36.05432065375501
9.432,0.9999897058306305,-36.24836594254486
9.44,0.9999895811358251,-36.44241960392265
9.448,0.9999894566928895,-36.636481585217666
9.456,0.9999893325264837,-36.830551833748416
9.464,0.9999892086613408,-37.02463029682385
9.472,0.9999890851222639,-37.218716921743884
9.48,0.9999889619341211,-37.4128116558005
9.488,0.9999888391218418,-37.60691444627843
9.496,0.9999887167104142,-37.80102524045618
9.504,0.9999885947248796,-37.99514398560659
9.512,0.9999884731903307,-38.18927062899805
9.52,0.9999883521319058,-38.38340511789502
9.528,0.9999882315747867,-38.577547399559194
9.536,0.9999881115441929,-38.77169742124996
9.544,0.9999879920653798,-38.965855130225776
9.552,0.9999878731636335,-39.16002047374446
9.56,0.9999877548642676,-39.35419339906451
9.568,0.9999876371926181,-39.54837385344566
9.576,0.9999875201740412,-39.742561784149935
9.584,0.9999874038339084,-39.936757138442296
9.592,0.9999872881976022,-40.13095986359179
9.6,0.9999871732905129,-40.32516990687207
9.608,0.9999870591380345,-40.51938721556255
9.616,0.9999869457655606,-40.71361173694903
9.624,0.9999868331984801,-40.90784341832476
9.632,0.999986721462174,-41.10208220699108
9.64,0.9999866105820103,-41.296328050258545
9.648,0.9999865005833412,-41.490580895447444
9.656,0.9999863914914988,-41.68484068988906
9.664,0.9999862833317894,-41.87910738092614
9.672,0.9999861761294924,-42.07338091591406
9.68,0.9999860699098541,-42.267661242221436
9.688,0.999985964698084,-42.46194830723127
9.696,0.999985860519352,-42.65624205834141
9.704,0.9999857573987825,-42.8505424429659
9.712,0.9999856553614516,-43.04484940853535
9.72,0.9999855544323828,-43.2391629024982
9.728,0.9999854546365429,-43.43348287232125
