freq,mag,phase
6.0,0.9999928980211382,-147.4114420531263
6.008,0.9999960665876885,-147.8366467703846
6.016,0.9999991212248227,-148.26168690978798
6.024,1.0,-148.68656342651806
6.032,1.0,-149.11127728737287
6.04,0.9999999999999999,-149.5358294706392
6.048,1.0,-149.96022096596522
6.056,0.9999999999999999,-150.38445277423364
6.064,1.0,-150.8085259074348
6.072,1.0,-151.23244138854068
6.08,0.9999999999999999,-151.65620025137832
6.088,0.9999999999999999,-152.07980354050486
6.096,1.0,-152.50325231108164
6.104,1.0,-152.92654762874966
6.112,1.0,-153.34969056950467
6.12,0.9999999999999999,-153.77268221957334
6.128,0.9999999999999999,-154.19552367528914
6.136,0.9999999999999998,-154.6182160429691
6.144,0.9999999999999999,-155.0407604387907
6.152,0.9999999999999999,-155.46315798866937
6.16,1.0,-155.88540982813612
6.168,0.9999999999999999,-156.30751710221602
6.176,1.0,-156.72948096530655
6.184,0.9999999999999999,-157.15130258105674
6.192,1.0,-157.57298312224688
6.2,1.0,-157.99452377066837
6.208,1.0,-158.41592571700383
6.216,0.9999999999999999,-158.83719016070827
6.224,0.9999999999999999,-159.2583183098904
6.232,0.9999999999999999,-159.67931138119405
6.24,1.0,-160.10017059968072
6.248,0.9999999999999999,-160.52089719871196
6.256,1.0,-160.94149241983283
6.264,1.0,-161.3619575126552
6.272,0.9999999999999999,-161.78229373474218
6.28,1.0,-162.20250235149223
6.288,1.0,-162.62258463602473
6.296,1.0,-163.0425418690651
6.304,1.0,-163.462375338831
6.312,0.9999999999999999,-163.882086340919
6.32,1.0,-164.30167617819103
6.328,0.9999999999999999,-164.72114616066264
6.336,1.0,-165.14049760539046
6.344,1.0,-165.5597318363607
6.352,1.0,-165.97885018437836
6.36,0.9999999999999999,-166.39785398695668
6.368,1.0,-166.81674458820686
6.376,1.0,-167.23552333872883
6.384,1.0,-167.65419159550225
6.392,0.9999999999999999,-168.07275072177774
6.4,0.9999999999999999,-168.49120208696905
6.408,0.9999999999999999,-168.9095470665455
6.416,0.9999999999999998,-169.3277870419251
6.424,0.9999999999999999,-169.74592340036781
6.432,1.0,-170.16395753486978
6.44,1.0,-170.58189084405777
6.448,0.9999999999999999,-170.99972473208413
6.456,1.0,-171.41746060852225
6.464,0.9999999999999999,-171.8350998882629
6.472,0.9999999999999999,-172.2526439914103
6.48,1.0,-172.6700943431795
6.4879999999999995,0.9999999999999999,-173.0874523737935
6.496,1.0,-173.504719518382
6.504,0.9999999999999999,-173.9218972168788
6.5120000000000005,1.0,-174.338986913922
6.52,0.9999999999999998,-174.75599005875256
6.5280000000000005,1.0,-175.17290810511486
6.536,0.9999999999999999,-175.58974251115689
6.5440000000000005,0.9999999999999999,-176.00649473933143
6.552,0.9999999999999999,-176.42316625629732
6.5600000000000005,0.9999999999999999,-176.83975853282155
6.568,1.0,-177.2562730436815
6.5760000000000005,0.9999999999999999,-177.67271126756825
6.584,1.0,-178.0890746869894
6.592,1.0,-178.50536478817344
6.6,1.0,-178.92158306097383
6.608,1.0,-179.33773099877382
6.616,0.9999999999999999,-179.75381009839182
6.624,0.9999999999999999,179.830178140013
6.632,1.0,179.4142322130343
6.64,1.0,178.99835061411207
6.648,1.0,178.58253183362544
6.656,1.0,178.16677435898518
6.664,0.9999999999999998,177.75107667472554
6.672,0.9999999999999999,177.3354372625958
6.68,0.9999999999999998,176.91985460165156
6.688,1.0,176.50432716834501
6.696,1.0,176.0888534366155
6.704,1.0,175.673431877979
6.712,1.0,175.2580609616177
6.72,1.0,174.84273915446875
6.728,1.0,174.42746492131272
6.736,1.0,174.0122367248618
6.744,1.0,173.59705302584737
6.752,0.9999999999999999,173.1819122831072
6.76,1.0,172.76681295367243
6.768,1.0,172.35175349285373
6.776,1.0,171.93673235432763
6.784,0.9999999999999999,171.52174799022183
6.792,1.0,171.10679885120064
6.8,1.0,170.69188338654985
6.808,1.0,170.277000044261
6.816,1.0,169.8621472711156
6.824,0.9999999999999999,169.44732351276875
6.832,0.9999995872675133,169.03252721383248
6.84,0.9999985508806792,168.61775681795888
6.848,0.9999975195222369,168.2030107679223
6.856,0.9999964935842676,167.78828750570196
6.864,0.999995473448467,167.3735854725637
6.872,0.9999944594862566,166.95890310914135
6.88,0.9999934520588983,166.54423885551824
6.888,0.9999924515176041,166.12959115130766
6.896,0.9999914582036505,165.71495843573365
6.904,0.9999904724484885,165.30033914771096
6.912,0.9999894945738548,164.88573172592504
6.92,0.9999885248918847,164.47113460891137
6.928,0.9999875637052198,164.05654623513485
6.936,0.999986611307121,163.6419650430685
6.944,0.9999856679815774,163.22738947127206
6.952,0.9999847340034148,162.81281795847028
6.96,0.9999838096384072,162.39824894363082
6.968,0.999982895143384,161.98368086604196
6.976,0.9999819907663384,161.56911216538975
6.984,0.9999810967465369,161.15454128183544
6.992,0.9999802133146258,160.7399666560918
7.0,0.9999793406927382,160.32538672949994
7.008,0.9999784790946022,159.91079994410546
7.016,0.9999776287256464,159.49620474273428
7.024,0.9999767897831064,159.0815995690684
7.032,0.9999759624561299,158.66698286772132
7.04,0.9999751469258821,158.25235308431314
7.048,0.9999743433656512,157.8377086655455
7.056,0.9999735519409514,157.4230480592762
7.064,0.9999727728096273,157.00836971459356
7.072,0.9999720061219582,156.59367208189062
7.08,0.9999712520207595,156.17895361293913
7.088,0.9999705106414861,155.764212760963
7.096,0.9999697821123349,155.34944798071209
7.104,0.9999690665543441,154.93465772853511
7.112,0.999968364081497,154.51984046245283
7.12,0.9999676748008209,154.10499464223085
7.128,0.999966998812488,153.69011872945205
7.136,0.9999663362099144,153.27521118758918
7.144,0.999965687079859,152.86027048207677
7.152,0.9999650515025229,152.44529508038337
7.16,0.9999644295516469,152.03028345208313
7.168,0.9999638212946101,151.61523406892735
7.176,0.9999632267925251,151.20014540491607
7.184,0.9999626461003354,150.78501593636912
7.192,0.9999620792669127,150.3698441419972
7.2,0.999961526335151,149.95462850297267
7.208,0.9999609873420614,149.53936750300034
7.216,0.9999604623188686,149.12405962838798
7.224,0.999959951291102,148.70870336811652
7.232,0.999959454278691,148.2932972139103
7.24,0.999958971296058,147.87783966030727
7.248,0.9999585023522095,147.4623292047286
7.256,0.9999580474508296,147.04676434754867
7.264,0.9999576065903695,146.63114359216436
7.272,0.9999571797641394,146.21546544506484
7.28,0.9999567669603985,145.79972841590046
7.288,0.9999563681624452,145.38393101755227
7.296,0.9999559833487047,144.96807176620095
7.304,0.9999556124928187,144.55214918139563
7.312,0.9999552555637339,144.1361617861227
7.32,0.9999549125257876,143.7201081068745
7.328,0.9999545833387978,143.30398667371796
7.336,0.9999542679581453,142.88779602036274
7.344,0.9999539663348642,142.47153468422988
7.352,0.9999536784157228,142.0552012065197
7.36,0.9999534041433116,141.63879413228022
7.368,0.9999531434561255,141.22231201047475
7.376,0.999952896288649,140.8057533940501
7.384,0.9999526625714372,140.38911684000436
7.392,0.9999524422311996,139.9724009094544
7.4,0.9999522351908836,139.5556041677036
7.4079999999999995,0.9999520413697514,139.13872518430944
7.416,0.9999518606834653,138.72176253315072
7.4239999999999995,0.9999516930441655,138.30471479249525
7.432,0.9999515383605505,137.88758054506656
7.4399999999999995,0.9999513965379562,137.47035837811188
7.448,0.9999512674784341,137.05304688346837
7.4559999999999995,0.9999511510808293,136.63564465763088
7.464,0.9999510472408596,136.21815030181844
7.4719999999999995,0.9999509558511888,135.80056242204142
7.48,0.9999508768015066,135.38287962916814
7.4879999999999995,0.9999508099786024,134.96510053899195
7.496,0.9999507552664402,134.5472237722974
7.504,0.9999507125462345,134.12924795492754
7.5120000000000005,0.9999506816965237,133.71117171784974
7.52,0.9999506625932438,133.29299369722298
7.5280000000000005,0.9999506551097995,132.87471253446353
7.536,0.9999506591171397,132.45632687631212
7.5440000000000005,0.9999506744838267,132.03783537489934
7.552,0.9999507010761088,131.61923668781313
7.5600000000000005,0.9999507387579898,131.20052947816376
7.568,0.9999507873912997,130.78171241465105
7.5760000000000005,0.9999508468357651,130.36278417162967
7.584,0.9999509169490752,129.943743429176
7.5920000000000005,0.9999509975869552,129.5245888731535
7.6,0.9999510886032268,129.10531919527924
7.6080000000000005,0.9999511898498836,128.6859330931893
7.616,0.9999513011771517,128.2664292705053
7.6240000000000006,0.9999514224335582,127.8468064368997
7.632,0.9999515534659964,127.42706330816203
7.640000000000001,0.9999516941197915,127.00719860626428
7.648,0.9999518442387629,126.58721105942712
7.656000000000001,0.9999520036652909,126.16709940218495
7.664,0.9999521722403777,125.7468623754523
7.672,0.9999523498037105,125.32649872658867
7.68,0.999952536193725,124.90600720946472
7.688,0.9999527312476654,124.48538658452739
7.696,0.9999529348016459,124.06463561886564
7.704,0.9999531466907119,123.64375308627568
7.712,0.9999533667488989,123.22273776732648
7.72,0.9999535948092919,122.80158844942511
7.728,0.9999538307040856,122.38030392688208
7.736,0.9999540742646396,121.95888300097648
7.744,0.9999543253215393,121.53732448002137
7.752,0.9999545837046517,121.11562717942884
7.76,0.9999548492431815,120.69378992177519
7.768,0.9999551217657267,120.27181153686597
7.776,0.9999554011003354,119.84969086180114
7.784,0.9999556870745602,119.42742674103982
7.792,0.9999559795155111,119.00501802646555
7.8,0.9999562782499121,118.58246357745084
7.808,0.9999565831041504,118.15976226092222
7.816,0.999956893904333,117.73691295142503
7.824,0.9999572104763359,117.31391453118793
7.832,0.9999575326458571,116.89076589018782
7.84,0.999957860238467,116.46746592621427
7.848,0.9999581930796588,116.04401354493413
7.856,0.9999585309948987,115.620407659956
7.864,0.9999588738096737,115.19664719289462
7.872,0.9999592213495427,114.77273107343531
7.88,0.9999595734401825,114.34865823939808
7.888,0.9999599299074368,113.92442763680192
7.896,0.9999602905773625,113.500038219929
7.904,0.999960655276276,113.07548895138858
7.912,0.9999610238308004,112.65077880218107
7.92,0.9999613960679089,112.22590675176184
7.928,0.9999617718149713,111.80087178810513
7.936,0.9999621508997971,111.37567290776762
7.944,0.9999625331506808,110.95030911595214
7.952,0.999962918396443,110.52477942657114
7.96,0.9999633064664745,110.09908286231015
7.968,0.9999636971907773,109.67321845469107
7.976,0.9999640904000071,109.24718524413537
7.984,0.9999644859255138,108.82098228002717
7.992,0.9999648835993815,108.39460862077631
8.0,0.9999652832544689,107.96806333388113
8.008,0.9999656847244482,107.5413454959913
8.016,0.9999660878438444,107.11445419297017
8.024000000000001,0.9999664924480727,106.68738851995776
8.032,0.9999668983734761,106.26014758143279
8.04,0.9999673054573636,105.83273049127473
8.048,0.9999677135380458,105.40513637282609
8.056000000000001,0.999968122454871,104.97736435895455
8.064,0.9999685320482602,104.5494135921144
8.072,0.9999689421597429,104.1212832244082
8.08,0.9999693526319908,103.69297241764818
8.088000000000001,0.9999697633088517,103.26448034341787
8.096,0.9999701740353829,102.83580618313293
8.104,0.999970584657883,102.40694912810197
8.112,0.9999709950239258,101.97790837958739
8.120000000000001,0.9999714049823898,101.5486831488662
8.128,0.9999718143834903,101.1192726572902
8.136,0.99997222307881,100.68967613634582
8.144,0.9999726309213282,100.2598928277145
8.152000000000001,0.9999730377654514,99.82992198333238
8.16,0.9999734434670403,99.3997628654498
8.168,0.9999738478834396,98.96941474669032
8.176,0.9999742508735047,98.53887691011005
8.184000000000001,0.9999746522976299,98.10814864925656
8.192,0.9999750520177745,97.67722926822742
8.2,0.9999754498974875,97.2461180817283
8.208,0.9999758458019365,96.81481441513112
8.216000000000001,0.9999762395979291,96.38331760453227
8.224,0.9999766311539386,95.9516269968098
8.232,0.9999770203401294,95.5197419496806
8.24,0.9999774070283775,95.08766183175752
8.248000000000001,0.9999777910922961,94.65538602260631
8.256,0.9999781724072555,94.22291391280174
8.264,0.9999785508504061,93.79024490398366
8.272,0.9999789263006994,93.35737840891278
8.280000000000001,0.9999792986389082,92.92431385152645
8.288,0.9999796677476469,92.49105066699357
8.296,0.9999800335113906,92.05758830176919
8.304,0.9999803958164954,91.62392621364913
8.312,0.999980754551214,91.19006387182439
8.32,0.9999811096057172,90.75600075693427
8.328,0.9999814608721084,90.3217363611204
8.336,0.9999818082444407,89.88727018807904
8.344,0.9999821516187358,89.4526017531145
8.352,0.9999824908929954,89.0177305831905
8.36,0.9999828259672195,88.58265621698278
8.368,0.9999831567434204,88.14737820492988
8.376,0.9999834831256357,87.71189610928468
8.384,0.9999838050199432,87.27620950416438
8.392,0.9999841223344728,86.8403179756013
8.4,0.9999844349794187,86.40422112159185
8.408,0.9999847428670536,85.96791855214656
8.416,0.9999850459117366,85.53140988933797
8.424,0.9999853440299269,85.09469476734989
8.432,0.9999856371401926,84.65777283252427
8.44,0.9999859251632207,84.22064374340945
8.448,0.9999862080218264,83.78330717080613
8.456,0.9999864856409618,83.34576279781454
8.464,0.9999867579477241,82.90801031987942
8.472,0.9999870248713628,82.47004944483618
8.48,0.9999872863432875,82.03187989295478
8.488,0.9999875422970735,81.59350139698475
8.496,0.9999877926684686,81.15491370219813
8.504,0.999988037395398,80.71611656643321
8.512,0.99998827641797,80.2771097601364
8.52,0.9999885096784787,79.83789306640486
8.528,0.9999887371214109,79.39846628102707
8.536,0.9999889586934463,78.95882921252438
8.544,0.9999891743434616,78.51898168219036
8.552,0.9999893840225342,78.07892352413101
8.56,0.9999895876839411,77.63865458530292
8.568,0.9999897852831631,77.19817472555224
8.576,0.9999899767778831,76.75748381765146
8.584,0.9999901621279884,76.31658174733717
8.592,0.9999903412955689,75.87546841334537
8.6,0.9999905142449168,75.43414372744799
8.608,0.9999906809425261,74.99260761448683
8.616,0.9999908413570894,74.55086001240849
8.624,0.9999909954594959,74.10890087229714
8.632,0.99999114322283,73.66673015840793
8.64,0.9999912846223662,73.22434784819818
8.648,0.9999914196355656,72.78175393235942
8.656,0.9999915482420721,72.33894841484717
8.664,0.9999916704237083,71.89593131291127
8.672,0.9999917861644675,71.45270265712418
8.68,0.9999918954505105,71.00926249140987
8.688,0.9999919982701584,70.56561087307033
8.696,0.999992094613885,70.12174787281305
8.704,0.999992184474311,69.67767357477582
8.712,0.9999922678461952,69.23338807655253
8.72,0.9999923447264262,68.78889148921635
8.728,0.9999924151140134,68.34418393734389
8.736,0.9999924790100791,67.89926555903658
8.744,0.9999925364178478,67.45413650594313
8.752,0.9999925873426357,67.00879694327922
8.76,0.9999926317918404,66.56324704984817
8.768,0.9999926697749306,66.11748701805881
8.776,0.9999927013034328,65.67151705394436
8.784,0.9999927263909211,65.22533737717845
8.792,0.9999927450530034,64.77894822109218
8.8,0.9999927573073091,64.33234983268832
8.808,0.9999927631734753,63.885542472656354
8.815999999999999,0.9999927626731331,63.438526415385006
8.824,0.9999927558298936,62.991301948974765
8.832,0.9999927426693327,62.54386937524941
8.84,0.9999927232189758,62.09622900976603
8.847999999999999,0.9999926975082833,61.64838118182423
8.856,0.9999926655686335,61.2003262344745
8.864,0.9999926274333063,60.752064524525736
8.872,0.9999925831374663,60.30359642255128
8.879999999999999,0.9999925327181461,59.854922312893954
8.888,0.9999924762142278,59.40604259367031
8.896,0.9999924136664253,58.95695767677409
8.904,0.9999923451172662,58.507667987877944
8.911999999999999,0.9999922706110715,58.0581739664343
8.92,0.9999921901939383,57.608476065675305
8.928,0.9999921039137177,57.15857475261201
8.936,0.9999920118199971,56.7084705080317
8.943999999999999,0.999991913964078,56.258163826494375
8.952,0.999991810398956,55.80765521632839
8.96,0.9999917011792993,55.356945199625045
8.968,0.9999915863614267,54.90603431223149
8.975999999999999,0.999991466003287,54.45492310374273
8.984,0.9999913401644352,54.00361213749267
8.992,0.9999912089060102,53.55210199054408
9.0,0.9999910722907125,53.10039325367701
9.008,0.9999909303827803,52.64848653137599
9.016,0.9999907832479652,52.19638244181652
9.024000000000001,0.9999906309535099,51.744081616850266
9.032,0.9999904735681223,51.29158470198875
9.04,0.9999903111619511,50.83889235638581
9.048,0.9999901438065618,50.38600525281925
9.056000000000001,0.9999899715749105,49.932924077671196
9.064,0.9999897945413178,49.479649530907
9.072,0.9999896127814446,49.026182326052755
9.08,0.9999894263722648,48.57252319017204
9.088000000000001,0.9999892353920389,48.1186728638414
9.096,0.9999890399202879,47.66463210112426
9.104,0.9999888400377657,47.210401669543415
9.112,0.9999886358264312,46.75598235005278
9.120000000000001,0.9999884273694228,46.30137493700798
9.128,0.9999882147510295,45.846580238134905
9.136,0.9999879980566614,45.39159907449744
9.144,0.9999877773728245,44.936432280464004
9.152000000000001,0.9999875527870903,44.4810807036729
9.16,0.9999873243880671,44.02554520499593
9.168,0.9999870922653714,43.56982665850086
9.176,0.9999868565095995,43.113925951412774
9.184000000000001,0.999986617212297,42.657843984074304
9.192,0.9999863744659301,42.20158166990402
9.2,0.9999861283638553,41.74513993535357
9.208,0.9999858790002905,41.28851971986399
9.216000000000001,0.9999856264702836,40.83172197582045
9.224,0.9999853708696835,40.37474766850562
9.232,0.9999851122951086,39.917597776051394
9.24,0.9999848508439177,39.460273289389825
9.248000000000001,0.9999845866141782,39.00277521220287
9.256,0.9999843197046352,38.54510456087009
9.264,0.9999840502146815,38.087262364415295
9.272,0.9999837782443258,37.62924966445219
9.280000000000001,0.999983503894162,37.171067515128534
9.288,0.9999832272653373,36.71271698306875
9.296,0.9999829484595216,36.25419914731518
9.304,0.9999826675788761,35.79551509926821
9.312000000000001,0.99998238472602,35.336665942625345
9.32,0.999982100004002,34.87765279331832
9.328,0.9999818135162655,34.41847677944898
9.336,0.999981525366619,33.9591390412242
9.344,0.9999812356592038,33.49964073088951
9.352,0.9999809444984615,33.03998301266056
9.36,0.999980651989103,32.58016706265446
9.368,0.9999803582360761,32.12019406881858
9.376,0.999980063344534,31.66006523085915
9.384,0.9999797674198035,31.19978176016737
9.392,0.9999794705673525,30.739344879745527
9.4,0.9999791728927584,30.278755824130222
9.408,0.9999788745016769,29.818015839316033
9.416,0.9999785754998093,29.35712618267597
9.424,0.9999782759928716,28.89608812288255
9.432,0.9999779760865608,28.434902939825715
9.44,0.9999776758865268,27.97357192453114
9.448,0.9999773754983367,27.512096379075587
9.456,0.999977075027446,27.050477616502658
9.464,0.9999767745791667,26.588716960735532
9.472,0.9999764742586347,26.126815746490117
9.48,0.9999761741707796,25.66477531918521
9.488,0.9999758744202932,25.202597034853113
9.496,0.9999755751115987,24.74028226004723
9.504,0.9999752763488189,24.277832371750144
9.512,0.9999749782357463,23.81524875727865
9.52,0.9999746808758126,23.352532814189388
9.528,0.999974384372056,22.889685950181327
9.536,0.9999740888270944,22.42670958299888
9.544,0.9999737943430916,21.96360514033204
9.552,0.9999735010217297,21.50037405971692
9.56,0.9999732089641779,21.03701778843344
9.568,0.9999729182710634,20.573537783403516
9.576,0.9999726290424417,20.109935511086352
9.584,0.9999723413777678,19.646212447374147
9.592,0.9999720553758661,19.182370077485064
9.6,0.9999717711349018,18.71840989585662
9.608,0.999971488752354,18.25433340603626
9.616,0.9999712083249844,17.790142120572455
9.624,0.9999709299488113,17.325837560902976
9.632,0.9999706537190808,16.86142125724377
9.64,0.9999703797302398,16.3968947484749
9.648,0.9999701080759079,15.932259582027191
9.656,0.9999698388488503,15.467517313766079
9.664,0.9999695721409524,15.00266950787596
9.672,0.999969308043191,14.537717736741888
9.68,0.9999690466456096,14.072663580831827
9.688,0.9999687880372927,13.607508628576195
9.696,0.9999685323063392,13.14225447624805
9.704,0.9999682795398372,12.676902727840606
9.712,0.99996802982384,12.211454994945317
9.72,0.9999677832433409,11.745912896627399
9.728,0.9999675398822482,11.280278059301962
