freq,mag,phase
6.0,1.0001925079578795,-90.16986736976082
6.005598208,1.0001618424567305,-90.42850217520126
6.011196416,1.0001197337295096,-90.68661220241715
6.016795136,1.000070384358377,-90.94412655933371
6.022393344,1.0000168707158228,-91.20089015976191
6.027991552,0.9999620913594081,-91.45699277473658
6.03358976,0.999909390002325,-91.71229307282854
6.03918848,0.9998617231831572,-91.96686988038459
6.044786688,0.9998218295857197,-92.22088120295751
6.050384896,0.9997919888638702,-92.47444095541586
6.055983104,0.9997739412841331,-92.72768653783831
6.061581312,0.999768745222571,-92.9807437536529
6.067180032,0.9997768084388268,-93.23382422473318
6.07277824,0.9997975730303102,-93.48712326666387
6.078376448,0.9998297554543184,-93.74077506787994
6.083974656,0.9998716451546386,-93.99497090616141
6.089573376,0.9999209232134307,-94.24980280595429
6.095171584,0.9999743535789013,-94.50537222770585
6.100769792,1.0000293913107938,-94.7616608876909
6.106368,1.0000822936258473,-95.01873375349497
6.111966208,1.0001304495128724,-95.27649481050928
6.117564928,1.0001708531067366,-95.53491850337565
6.123163136,1.0002012506156126,-95.79380305090166
6.128761344,1.0002197991060098,-96.05304411521767
6.134359552,1.0002256133676628,-96.3124630871581
6.13995776,1.000218270931087,-96.57187289713258
6.14555648,1.0001981548763659,-96.83109947947455
6.151154688,1.0001663194376555,-97.08997176817313
6.156752896,1.0001247068079555,-97.34836307921059
6.162351104,1.0000758299508747,-97.60612358531469
6.167949824,1.000022292009935,-97.86315826791815
6.173548032,0.9999672330152244,-98.11947636291431
6.17914624,0.9999139707602739,-98.37503484067341
6.184744448,0.999865439927186,-98.62992081588918
6.190342656,0.9998244353789151,-98.88417922259913
6.195941376,0.999793508551552,-99.13793232162833
6.201539584,0.9997741457477684,-99.39135694976001
6.207137792,0.9997676514008768,-99.64458914182501
6.212736,0.9997744598000429,-99.89786113866965
6.21833472,0.9997942094365548,-100.15128175329029
6.223932928,0.9998255541510487,-100.40509589603951
6.229531136,0.9998668230837713,-100.6594090288172
6.235129344,0.9999155620408002,-100.91431994810756
6.240727552,0.9999690793475131,-101.1700104644732
6.246326272,1.0000242620917228,-101.42642593426584
6.25192448,1.0000778431033426,-101.68361166081075
6.257522688,1.000126799019137,-101.94154642531758
6.263120896,1.0001683628719362,-102.20003955578986
6.268719616,1.0001999713262892,-102.45909849387256
6.274317824,1.0002198032389051,-102.71851822062405
6.279916032,1.0002268678682456,-102.97815134231026
6.28551424,1.0002207370781873,-103.23776178527868
6.291112448,1.0002016816128827,-103.49721126764157
6.296711168,1.0001708516268788,-103.75631923400015
6.302309376,1.000129919738345,-104.0149668362676
6.307907584,1.0000812462116537,-104.2729893451591
6.313505792,1.0000277780016327,-104.53029288664598
6.319104512,0.9999725814024563,-104.78686647597252
6.32470272,0.9999187134568461,-105.04265528948169
6.330300928,0.9998692882192598,-105.29778513214698
6.335899136,0.9998272696213752,-105.55225040564285
6.341497344,0.9997951054033791,-105.80621409383517
6.347096064,0.9997745090152992,-106.05985317013089
6.352694272,0.9997668001886204,-106.31327919327684
6.35829248,0.9997723151434449,-106.56666962684812
6.363890688,0.9997908575303259,-106.82026707084327
6.369489408,0.9998212959891057,-107.0741837929945
6.375087616,0.9998619548067255,-107.32863302128314
6.380685824,0.9999104367849759,-107.58370962504989
6.386284032,0.9999637976670563,-107.83947494482204
6.39188224,1.0000192637548861,-108.09599774051647
6.39748096,1.0000733310779162,-108.35329561524016
6.403079168,1.0001231297442632,-108.61132550677078
6.408677376,1.0001656439645275,-108.8699724461377
6.414275584,1.000198491275179,-109.12917284943723
6.419873792,1.000219710079316,-109.3887319364958
6.425472512,1.0002281477463892,-109.64854620186188
6.43107072,1.0002231701620325,-109.90838028956445
6.436668928,1.000205318113764,-110.16806597273441
6.442267136,1.0001752419256031,-110.4274108964925
6.447865856,1.0001350370532125,-110.68624775909619
6.453464064,1.0000867427262012,-110.94454049290398
6.459062272,1.0000333717408518,-111.20212268007671
6.46466048,0.9999778412513777,-111.45891186670116
6.470258688,0.9999234030017259,-111.71498519412886
6.475857408,0.999873317133366,-111.97033203689435
6.481455616,0.9998301577055903,-112.2250502895403
6.487053824,0.9997968011842271,-112.479210249203
6.492652032,0.9997749389884257,-112.73303231206819
6.498250752,0.9997658860241562,-112.98660495819986
6.50384896,0.9997701266604282,-113.24017771575616
6.509447168,0.9997875486620086,-113.49389348284683
6.515045376,0.9998171063706314,-113.74796284049457
6.520643584,0.999857014325616,-114.00248523763906
6.526242304,0.9999050215814751,-114.25768155113627
6.531840512,0.9999584681250298,-114.51351718651796
6.53743872,1.000014109469102,-114.77015794479428
6.543036928,1.0000687298428748,-115.02756822552138
6.548635648,1.000119273523071,-115.28568856962096
6.554233856,1.000162826159593,-115.54450572141987
6.559832064,1.0001968445896066,-115.80382659037694
6.565430272,1.0002194285528059,-116.06355895472166
6.57102848,1.000229065957631,-116.32353795133149
6.5766272,1.0002254967218414,-116.58355912514244
6.582225408,1.000208689399425,-116.8434442136007
6.587823616,1.000179556100275,-117.10302971384539
6.593421824,1.0001400531344729,-117.36211665534535
6.599020544,1.0000922609661826,-117.6206351089675
6.604618752,1.0000389000849321,-117.878438695983
6.61021696,0.9999832315951492,-118.1354917792685
6.615815168,0.999928353087226,-118.39181819131561
6.621413376,0.999877306832285,-118.6473820765445
6.627012096,0.9998331914457925,-118.90231392712384
6.632610304,0.9997986237459113,-119.15668733058874
6.638208512,0.9997753755631958,-119.41067965271685
6.64380672,0.9997650686491613,-119.66441811192675
6.649404928,0.999768137322277,-119.91815938952298
6.655003648,0.9997842833814574,-120.17199119413263
6.660601856,0.9998128755606204,-120.4261483694673
6.666200064,0.9998521083757043,-120.68081943441757
6.671798272,0.9998997107925027,-120.93607140544177
6.677396992,0.9999530086392033,-121.19203230203539
6.6829952,1.0000087834252451,-121.44874532218343
6.688593408,1.0000640175190214,-121.70622233308727
6.694191616,1.0001153687223236,-121.96450625336324
6.699789824,1.0001600669552682,-122.22339332558792
6.705388544,1.000195232428968,-122.4828504275593
6.710986752,1.000219044688362,-122.74274721066523
6.71658496,1.0002300684447474,-123.00288649945367
6.722183168,1.0002276949394362,-123.26308823848534
6.727781888,1.000212082442583,-123.52318265981394
6.733380096,1.0001840425958806,-123.7829438927235
6.738978304,1.0001451569323685,-124.04230208971191
6.744576512,1.000097815104143,-124.30103742611536
6.75017472,1.0000445931503728,-124.55908735273955
6.75577344,0.999988724939575,-124.81638862501697
6.761371648,0.9999332732592832,-125.07290982449929
6.766969856,0.9998814353464557,-125.32874019859072
6.772568064,0.9998363518811665,-125.58387671524335
6.778166784,0.9998005079897412,-125.83842445593169
6.783764992,0.9997760957739871,-126.09260524204086
6.7893632,0.9997642998648507,-126.3465144111509
6.794961408,0.9997660877155031,-126.60035873500962
6.800559616,0.9997811448507076,-126.85432072223568
6.806158336,0.9998086812857325,-127.10862770261674
6.811756544,0.9998471589279238,-127.36336744508078
6.817354752,0.9998943245230952,-127.61871386662614
6.82295296,0.9999474104130297,-127.87473443434912
6.82855168,1.0000035234701903,-128.1315495377401
6.834149888,1.0000592551283534,-128.38911602380773
6.839748096,1.000111351273018,-128.64746101872856
6.845346304,1.000156956287745,-128.90647422918963
6.850944512,1.0001934001815282,-129.16609101352728
6.856543232,1.000218556629963,-129.42611694236493
6.86214144,1.0002309216022596,-129.68640722505882
6.867739648,1.0002298733930604,-129.94679192634496
6.873337856,1.0002154697989176,-130.20706173227336
6.878936064,1.0001883577720636,-130.46705143428034
6.884534784,1.0001503066951853,-130.72660014672348
6.890132992,1.0001033908784602,-130.98556345057554
6.8957312,1.0000503564813434,-131.24386755421398
6.901329408,0.9999942290572893,-131.50138839454482
6.906928128,0.9999383373551002,-131.75816426519236
6.912526336,0.9998857153822461,-132.0141492248562
6.918124544,0.9998396632732566,-132.26951493871616
6.923722752,0.9998026005277435,-132.52427019384322
6.92932096,0.9997767318314571,-132.778618992104
6.93491968,0.9997637040281606,-133.03267483057692
6.940517888,0.9997640851147155,-133.28666600547922
6.946116096,0.9997780285787379,-133.5407760015342
6.951714304,0.9998045442988699,-133.79513110455764
6.957313024,0.9998422732619408,-134.04996206738804
6.962911232,0.9998889445285956,-134.30537470705048
6.96850944,0.9999418986705559,-134.5614866369883
6.974107648,0.9999980961812543,-134.81835534540613
6.979705856,1.000054263351314,-135.07602702527507
6.985304576,1.0001072156728248,-135.33444987999732
6.990902784,1.000153874270632,-135.59354889311592
6.996500992,1.0001914395580997,-135.853283502283
7.0020992,1.0002179235858957,-136.11343898024452
7.00769792,1.0002316715799442,-136.3738578011087
7.013296128,1.0002319112221822,-136.63439721853703
7.018894336,1.0002186810531337,-136.89486782072535
7.024492544,1.000192712326816,-137.15507370941197
7.030090752,1.000155323267199,-137.41484319936248
7.035689472,1.0001089703889905,-137.67401929943188
7.04128768,1.000056056726438,-137.9325342497344
7.046885888,0.9999998463156803,-138.19027133643095
7.052484096,0.9999434359475218,-138.44726806431515
7.058082816,0.9998901613439177,-138.70346101002676
7.063681024,0.9998429683424934,-138.95903649078824
7.069279232,0.9998047770509806,-139.2139480407271
7.07487744,0.9997776147630555,-139.4684626366922
7.080475648,0.9997631359905049,-139.72267524185415
7.086074368,0.9997622080282925,-139.97680927130946
7.091672576,0.9997748973839908,-140.23099235142723
7.097270784,0.999800419577377,-140.4854515572621
7.102868992,0.9998373273973326,-140.74035826601397
7.108467712,0.9998834782905158,-140.99584610591714
7.11406592,0.9999362056204057,-141.25202043392784
7.119664128,0.9999926149426035,-141.50896433078043
7.125262336,1.0000491706351236,-141.76670764403195
7.130860544,1.000102883701753,-142.0251779787825
7.136459264,1.0001505898877552,-142.2843900335201
7.142057472,1.0001893351142896,-142.5442117725859
7.14765568,1.0002171398879007,-142.80447715161918
7.153253888,1.0002323280197358,-143.06504624230894
7.158852096,1.0002338679448426,-143.32576784911467
7.164450816,1.0002218937248535,-143.58640326680242
7.170049024,1.0001969058102806,-143.84678300955935
7.175647232,1.0001604276077576,-144.10675647152644
7.18124544,1.0001145780422798,-144.36614326887562
7.18684416,1.0000619154993258,-144.62488567803513
7.192442368,1.000005509231865,-144.88284438670655
7.198040576,0.9999485949683051,-145.14002672962602
7.203638784,0.9998945845017101,-145.3964642439771
7.209236992,0.9998465032685638,-145.65218178259545
7.214835712,0.9998070241594293,-145.90731078887535
7.22043392,0.9997785655733095,-146.16194389050028
7.226032128,0.9997627698569709,-146.4163086782642
7.231630336,0.9997604633675908,-146.67052809292167
7.237229056,0.9997718226587078,-146.92484117293054
7.242827264,0.9997962494929046,-147.17939841425851
7.248425472,0.999832388580657,-147.43436601514202
7.25402368,0.9998779589485159,-147.68990435172705
7.259621888,0.9999305798351394,-147.94613845622538
7.265220608,0.9999869846993613,-148.20313880415162
7.270818816,1.0000440850008072,-148.46091259376087
7.276417024,1.0000985386114785,-148.71948133710723
7.282015232,1.000147186306586,-148.97876060269962
7.287613952,1.0001872201646065,-149.2386663697284
7.29321216,1.000216277155029,-149.4990583098317
7.298810368,1.0002328108502252,-149.75976819938057
7.304408576,1.000235829386992,-150.0205826684733
7.310006784,1.0002250705319895,-150.2814020762869
7.315605504,1.000201199586946,-150.54196014527108
7.321203712,1.0001655358344,-150.80213093512305
7.32680192,1.0001201997764084,-151.06172792848483
7.332400128,1.0000678013726982,-151.3206398752924
7.337998848,1.0000112946791342,-151.57883439613386
7.343597056,0.9999540483557814,-151.8362231514568
7.349195264,0.9998991576590156,-152.09285750863017
7.354793472,0.9998500582230282,-152.34877217615914
7.36039168,0.9998093973510889,-152.6040495570952
7.3659904,0.9997796230231496,-152.858839447228
7.371588608,0.9997623597148159,-153.11333466358667
7.377186816,0.9997586938253837,-153.367680471748
7.382785024,0.9997688001556773,-153.62205479523686
7.388383232,0.999792195099619,-153.876672328849
7.393981952,0.9998273805353419,-154.13173522626164
7.39958016,0.9998724744339346,-154.38732687462686
7.405178368,0.9999247840543732,-154.64360998838873
7.410776576,0.9999812937693634,-154.90062683271563
7.416375296,1.000038797466576,-155.1584644298738
7.421973504,1.0000939800500852,-155.4170743848455
7.427571712,1.0001436184235986,-155.6764314781549
7.43316992,1.000184884093763,-155.93641207025055
7.438768128,1.0002154044637228,-156.1968820110474
7.444366848,1.0002333335333806,-156.4577202612721
7.449965056,1.0002376174991747,-156.71870566436826
7.455563264,1.0002280828101058,-156.97964698816176
7.461161472,1.0002053866189862,-157.24036357126013
7.466760192,1.0001706029157285,-157.50072415011198
7.4723584,1.0001258225389602,-157.7605288944586
7.477956608,1.0000737087305218,-158.01965856613782
7.483554816,1.00001714094899,-158.27801892946422
7.489153024,0.999959464900135,-158.53560824576792
7.494751744,0.9999039174146747,-158.79243714414608
7.500349952,0.9998537337786546,-159.04849444870055
7.50594816,0.9998118765441775,-159.30395145579655
7.511546368,0.999780721086603,-159.5588989040301
7.517145088,0.9997621221677688,-159.8135008431075
7.522743296,0.9997570599896153,-160.0679455730345
7.528341504,0.999765936796973,-160.32241093174775
7.533939712,0.9997880607540856,-160.5771072119347
7.53953792,0.9998224955956444,-160.83220301674103
7.54513664,0.9998668734119301,-161.08784232451836
7.550734848,0.9999189216682172,-161.3441418297865
7.556333056,0.9999755949167928,-161.60120871195122
7.561931264,1.0000334142401326,-161.85908163161884
7.567529984,1.000089373167942,-162.11773246252423
7.573128192,1.000139975313665,-162.37713291048604
7.5787264,1.0001824125060705,-162.63719936682207
7.584324608,1.0002142658950823,-162.89773894893008
7.589922816,1.0002335511370337,-163.15869134384684
7.595521536,1.0002392898540502,-163.41981285953958
7.601119744,1.0002311636416494,-163.6809106694488
7.606717952,1.0002095439391199,-163.94179051558717
7.61231616,1.0001756981759322,-164.20230167511343
7.61791488,1.0001315298965634,-164.46227815781668
7.623513088,1.000079695754858,-164.72157692200025
7.629111296,1.0000230675947313,-164.98016745176815
7.634709504,0.9999649287732569,-165.2379377576901
7.640307712,0.9999086833753302,-165.49494223642932
7.645906432,0.9998575625552267,-165.75120514819466
7.65150464,0.9998145094462656,-166.0067871467148
7.657102848,0.9997820397667374,-166.26187934120918
7.662701056,0.9997619536109453,-166.51659195979607
7.668299264,0.9997554517645235,-166.77112833954868
7.673897984,0.9997630541136032,-167.02567809861043
7.679496192,0.9997841932004612,-167.28042683414316
7.6850944,0.9998175492206363,-167.53556527935277
7.690692608,0.9998614427945826,-167.791219114677
7.696291328,0.9999130493105698,-168.0475563279033
7.701889536,0.999969689768814,-168.30463814897374
7.707487744,1.0000280356058504,-168.56254609884348
7.713085952,1.0000846443066498,-168.82121217952078
7.71868416,1.0001363018326235,-169.08067829098715
7.72428288,1.000179950087595,-169.34078023608305
7.729881088,1.0002129964447113,-169.60142248819386
7.735479296,1.0002337780847739,-169.8624372200343
7.741077504,1.000241080257739,-170.1236721389995
7.746676224,1.0002341358314373,-170.38491014261677
7.752274432,1.0002137082626543,-170.64592412909093
7.75787264,1.0001807265628544,-170.9066163240521
7.763470848,1.0001372950002827,-171.16677600963445
7.769069056,1.0000857496247557,-171.4262592533292
7.774667776,1.000029040097297,-171.6850148395852
7.780265984,0.9999705955313212,-171.94295791638015
7.785864192,0.9999136511456898,-172.20014517560645
7.7914624,0.9998615630271932,-172.45655918502894
7.79706112,0.9998173029241786,-172.7122950152155
7.802659328,0.99978350568754,-172.96750356975113
7.808257536,0.9997619420069643,-173.22230961645647
7.813855744,0.999754050758197,-173.476962158662
7.819453952,0.9997601842346342,-173.7315656282762
7.825052672,0.9997802016914646,-173.98634755653165
7.83065088,0.9998125681499839,-174.24151766231637
7.836249088,0.9998557837244898,-174.49719908920898
7.841847296,0.9999071862435455,-174.75355690950434
7.847446016,0.9999639108856923,-175.01065178877727
7.853044224,1.0000224803125977,-175.26857136244115
7.858642432,1.0000798012188477,-175.5272779104452
7.86424064,1.0001324356465109,-175.7867638663091
7.869838848,1.0001772563932831,-176.0469144951921
7.875437568,1.000211769163422,-176.30760725618893
7.881035776,1.000234037223982,-176.56872204767203
7.886633984,1.0002426472566968,-176.83005250362126
7.892232192,1.0002371262308503,-177.09140146065013
7.8978304,1.00021781487851,-177.35259256044787
7.90342912,1.0001858098084753,-177.61339591542298
7.909027328,1.0001431079942646,-177.8737317844534
7.914625536,1.0000918097620755,-178.13339358342975
7.920223744,1.0000351315420157,-178.3923137525952
7.925822464,0.9999763165240089,-178.65044664436306
7.931420672,0.999918759225747,-178.90778079785673
7.93701888,0.9998656672165941,-179.1643181391679
7.942617088,0.9998202214032526,-179.42021289481278
7.948215296,0.9997849453814166,-179.6755208865522
7.953814016,0.9997619602248854,-179.9304566454361
7.959412224,0.99975267531067,179.81484531259915
7.965010432,0.9997575403607943,179.56017109345862
7.97060864,0.9997761785871597,179.3053071273201
7.97620736,0.9998076573413867,179.05013407225286
7.981805568,0.9998502207653949,178.79444286924394
7.987403776,0.99990131596201,178.53808744697974
7.993001984,0.9999579260520515,178.2809839645247
7.998600192,1.0000169337428761,178.0230598243561
8.004198912,1.000074805677982,177.7643594930788
8.00979712,1.000128460143666,177.50486138478485
8.015395328,1.0001744180395298,177.24466683153634
8.020993536,1.000210386874592,176.98391083746256
8.026592256,1.000234027798829,176.7227284267208
8.032190464,1.0002440789433176,176.4613197428539
8.037788672,1.0002399574066823,176.19985961655593
8.04338688,1.0002218818642286,175.93855203533698
8.048985088,1.000190933541993,175.67757614114868
8.054583808,1.0001487277930348,175.41711562550853
8.060182016,1.0000979659158604,175.1572685648676
8.065780224,1.0000412509498324,174.89817804837193
8.071378432,0.9999821011363866,174.6398781088816
8.076977152,0.999923816900006,174.38242209838867
8.08257536,0.9998699183127664,174.12570174336616
8.088173568,0.9998233055188943,173.86970547906205
8.093771776,0.9997866372184053,173.61427411028407
8.099369984,0.9997622482067917,173.3592581572817
8.104968704,0.999751360414354,173.10449132683414
8.110566912,0.9997547727924148,172.8497789266338
8.11616512,0.9997722747113099,172.59489587977214
8.121763328,0.9998027755535326,172.339714721507
8.127361536,0.9998445659102893,172.08400680391352
8.132960256,0.999895197373378,171.8276493920269
8.138558464,0.9999518834795579,171.57054683256519
8.144156672,1.000011151915099,171.31266599001108
8.14975488,1.000069778721461,171.05394974906127
8.1553536,1.0001241056097339,170.7944336914358
8.160951808,1.0001715338193657,170.53421768110337
8.166550016,1.0002087847279164,170.27341315166387
8.172148224,1.0002339612419309,170.0121786774661
8.177746432,1.000245389122272,169.75067963810616
8.183345152,1.0002427818379662,169.48912093909735
8.18894336,1.0002259192485021,169.22770338002937
8.194541568,1.0001959675407033,168.9665933155096
8.200139776,1.0001545463099695,168.7059694093032
8.205738496,1.0001040996700992,168.4460032787517
8.211336704,1.0000475812641687,168.1867643394874
8.216934912,0.9999880547027613,167.92830587054812
8.22253312,0.9999291420242244,167.6706933982741
8.228131328,0.9998741430480769,167.4138542025328
