freq,mag,phase
6.0,0.9999908737061767,-113.49212748663282
6.008,0.9999918886017563,-113.89149015521465
6.016,0.9999928779538172,-114.29071986534457
6.024,0.9999938420746397,-114.68981664339364
6.032,0.9999947812748623,-115.08878052356813
6.04,0.9999956958634717,-115.48761154786924
6.048,0.9999965861477921,-115.8863097660529
6.056,0.9999974524334782,-116.28487523558934
6.064,0.9999982950245048,-116.6833080216225
6.072,0.9999991142231571,-117.08160819692922
6.08,0.9999999103300266,-117.47977584187852
6.088,0.9999999999999999,-117.87781104439043
6.096,0.9999999999999998,-118.27571389989497
6.104,1.0,-118.67348451129074
6.112,1.0,-119.0711229889037
6.12,1.0,-119.46862945044546
6.128,1.0,-119.86600402097174
6.136,0.9999999999999998,-120.26324683284066
6.144,1.0,-120.6603580256708
6.152,1.0,-121.05733774629938
6.16,1.0,-121.45418614874
6.168,1.0,-121.85090339414073
6.176,1.0,-122.24748965074174
6.184,1.0,-122.64394509383307
6.192,1.0,-123.04026990571211
6.2,1.0,-123.43646427564134
6.208,0.9999999999999999,-123.83252839980568
6.216,0.9999999999999999,-124.22846248126973
6.224,1.0,-124.62426672993543
6.232,0.9999999999999999,-125.01994136249907
6.24,0.9999999999999999,-125.41548660240866
6.248,1.0,-125.81090267982106
6.256,1.0,-126.206189831559
6.264,1.0,-126.60134830106836
6.272,1.0,-126.99637833837495
6.28,0.9999999999999999,-127.39128020004186
6.288,1.0,-127.78605414912612
6.296,1.0,-128.18070045513568
6.304,1.0,-128.57521939398657
6.312,0.9999999999999999,-128.96961124795956
6.32,1.0,-129.36387630565704
6.328,1.0,-129.75801486196013
6.336,1.0,-130.15202721798514
6.344,1.0,-130.54591368104082
6.352,1.0,-130.93967456458486
6.36,1.0,-131.3333101881811
6.368,0.9999999999999999,-131.72682087745585
6.376,1.0,-132.12020696405528
6.384,1.0,-132.51346878560193
6.392,0.9999999999999999,-132.90660668565164
6.4,1.0,-133.29962101365055
6.408,1.0,-133.69251212489183
6.416,0.9999999999999998,-134.08528038047265
6.424,1.0,-134.47792614725122
6.432,1.0,-134.87044979780353
6.44,0.9999999999999999,-135.2628517103806
6.448,0.9999999999999998,-135.65513226886517
6.456,0.9999999999999999,-136.0472918627292
6.464,1.0,-136.4393308869905
6.472,1.0,-136.83124974217006
6.48,0.9999999999999998,-137.22304883424934
6.4879999999999995,0.9999999999999999,-137.61472857462724
6.496,1.0,-138.00628938007753
6.504,0.9999999999999999,-138.39773167270593
6.5120000000000005,0.9999999999999999,-138.7890558799079
6.52,1.0,-139.18026243432527
6.5280000000000005,1.0,-139.5713517738048
6.536,0.9999999999999999,-139.96232434135445
6.5440000000000005,1.0,-140.35318058510217
6.552,1.0,-140.74392095825237
6.5600000000000005,0.9999999999999999,-141.13454591904465
6.568,1.0,-141.52505593071072
6.5760000000000005,0.9999999999999999,-141.9154514614329
6.584,0.9999999999999998,-142.3057329843014
6.592,1.0,-142.69590097727297
6.6,0.9999999999999998,-143.08595592312824
6.608,1.0,-143.47589830943028
6.616,0.9999999999999999,-143.86572862848269
6.624,1.0,-144.25544737728774
6.632,1.0,-144.64505505750495
6.64,0.9999999999999998,-145.03455217540915
6.648,0.9999999999999999,-145.42393924184938
6.656,0.9999999999999999,-145.81321677220717
6.664,1.0,-146.20238528635542
6.672,1.0,-146.5914453086171
6.68,0.9999999999999999,-146.98039736772392
6.688,0.9999999999999999,-147.3692419967756
6.696,0.9999999999999999,-147.75797973319854
6.704,1.0,-148.14661111870518
6.712,1.0,-148.53513669925314
6.72,0.9999999999999999,-148.92355702500453
6.728,1.0,-149.3118726502852
6.736,1.0,-149.70008413354458
6.744,1.0,-150.08819203731483
6.752,1.0,-150.47619692817088
6.76,0.9999999999999999,-150.86409937669006
6.768,1.0,-151.25189995741198
6.776,1.0,-151.63959924879862
6.784,1.0,-152.0271978331943
6.792,1.0,-152.41469629678588
6.8,0.9999999999999999,-152.80209522956324
6.808,1.0,-153.18939522527938
6.816,1.0,-153.57659688141123
6.824,1.0,-153.96370079912003
6.832,1.0,-154.3507075832121
6.84,0.9999999999999999,-154.73761784209984
6.848,1.0,-155.12443218776244
6.856,1.0,-155.5111512357069
6.864,0.9999999999999999,-155.89777560492948
6.872,0.9999999999999999,-156.28430591787657
6.88,1.0,-156.67074280040643
6.888,1.0,-157.0570868817503
6.896,1.0,-157.44333879447439
6.904,0.9999999999999999,-157.8294991744411
6.912,0.9999999999999999,-158.21556866077137
6.92,1.0,-158.6015478958061
6.928,1.0,-158.98743752506854
6.936,1.0,-159.37323819722633
6.944,1.0,-159.75895056405366
6.952,1.0,-160.1445752803938
6.96,0.9999999999999999,-160.53011300412143
6.968,1.0,-160.91556439610542
6.976,1.0,-161.30093012017133
6.984,0.9999999999999999,-161.6862108430645
6.992,1.0,-162.07140723441262
7.0,0.9999999999999999,-162.4565199666892
7.008,1.0,-162.84154971517646
7.016,0.9999999999999999,-163.2264971579287
7.024,1.0,-163.61136297573566
7.032,0.9999999999999999,-163.99614785208604
7.04,1.0,-164.38085247313114
7.048,0.9999999753337601,-164.7654775276486
7.056,0.9999996549436825,-165.1500237070062
7.064,0.9999993349086316,-165.5344917051259
7.072,0.9999990153171041,-165.91888221844778
7.08,0.9999986962562105,-166.30319594589443
7.088,0.999998377811686,-166.68743358883495
7.096,0.9999980600678974,-167.07159585104975
7.104,0.9999977431078528,-167.45568343869468
7.112,0.9999974270132062,-167.839697060266
7.12,0.9999971118642703,-168.22363742656484
7.128,0.9999967977400218,-168.60750525066226
7.136,0.99999648471811,-168.99130124786427
7.144,0.9999961728748665,-169.3750261356766
7.152,0.9999958622853131,-169.75868063377018
7.16,0.999995553023168,-170.1422654639464
7.168,0.9999952451608572,-170.5257813501024
7.176,0.9999949387695204,-170.90922901819667
7.184,0.9999946339190213,-171.29260919621476
7.192,0.9999943306779551,-171.67592261413478
7.2,0.9999940291136561,-172.0591700038935
7.208,0.9999937292922081,-172.44235209935223
7.216,0.9999934312784504,-172.82546963626274
7.224,0.9999931351359875,-173.20852335223367
7.232,0.999992840927198,-173.59151398669653
7.24,0.9999925487132421,-173.97444228087235
7.248,0.99999225855407,-174.35730897773792
7.256,0.9999919705084315,-174.74011482199256
7.264,0.9999916846338825,-175.12286056002478
7.272,0.9999914009867956,-175.50554693987897
7.28,0.9999911196223666,-175.88817471122238
7.288,0.9999908405946234,-176.2707446253121
7.296,0.9999905639564357,-176.6532574349622
7.304,0.9999902897595221,-177.03571389451096
7.312,0.9999900180544584,-177.41811475978795
7.32,0.9999897488906878,-177.80046078808178
7.328,0.9999894823165263,-178.1827527381073
7.336,0.9999892183791741,-178.56499136997334
7.344,0.9999889571247225,-178.94717744515043
7.352,0.9999886985981619,-179.32931172643853
7.36,0.9999884428433911,-179.71139497793493
7.368,0.9999881899032257,179.9065720349978
7.376,0.9999879398194061,179.52458854576358
7.384,0.9999876926326053,179.14265378656478
7.392,0.9999874483824389,178.760766988434
7.4,0.9999872071074714,178.37892738126558
7.4079999999999995,0.9999869688452259,177.99713419384724
7.416,0.9999867336321924,177.61538665389128
7.4239999999999995,0.9999865015038352,177.23368398806656
7.432,0.9999862724946023,176.85202542202896
7.4399999999999995,0.9999860466379324,176.47041018045337
7.448,0.9999858239662652,176.08883748706413
7.4559999999999995,0.9999856045110472,175.70730656466648
7.464,0.9999853883027414,175.3258166351772
7.4719999999999995,0.9999851753708358,174.94436691965583
7.48,0.99998496574385,174.56295663833484
7.4879999999999995,0.999984759449346,174.18158501065102
7.496,0.9999845565139331,173.80025125527536
7.504,0.9999843569632795,173.41895459014412
7.5120000000000005,0.9999841608221175,173.0376942324889
7.52,0.9999839681142536,172.6564693988673
7.5280000000000005,0.9999837788625756,172.27527930519275
7.536,0.9999835930890609,171.8941231667652
7.5440000000000005,0.9999834108147857,171.5130001983008
7.552,0.99998323205993,171.13190961396236
7.5600000000000005,0.99998305684379,170.75085062738864
7.568,0.9999828851847817,170.3698224517252
7.5760000000000005,0.999982717100453,169.98882429965317
7.584,0.9999825526074876,169.60785538341986
7.5920000000000005,0.9999823917217172,169.2269149148677
7.6,0.9999822344581257,168.84600210546455
7.6080000000000005,0.9999820808308586,168.46511616633234
7.616,0.9999819308532326,168.08425630827753
7.6240000000000006,0.9999817845377398,167.70342174181954
7.632,0.9999816418960592,167.3226116772208
7.640000000000001,0.9999815029390622,166.94182532451538
7.648,0.9999813676768209,166.56106189353878
7.656000000000001,0.9999812361186169,166.18032059395634
7.664,0.9999811082729473,165.79960063529305
7.672,0.9999809841475342,165.41890122696182
7.68,0.9999808637493312,165.03822157829285
7.688,0.9999807470845313,164.65756089856237
7.696,0.999980634158576,164.27691839702132
7.704,0.9999805249761593,163.8962932829242
7.712,0.9999804195412404,163.51568476555772
7.72,0.9999803178570467,163.13509205426936
7.728,0.9999802199260839,162.75451435849592
7.736,0.999980125750143,162.37395088779218
7.744,0.9999800353303071,161.99340085185904
7.752,0.9999799486669605,161.61286346057216
7.76,0.9999798657597945,161.23233792401015
7.768,0.999979786607815,160.851823452483
7.776,0.9999797112093515,160.47131925655998
7.784,0.9999796395620625,160.09082454709815
7.792,0.9999795716629442,159.71033853527035
7.8,0.9999795075083369,159.32986043259316
7.808,0.9999794470939334,158.94938945095507
7.816,0.999979390414785,158.56892480264435
7.824,0.9999793374653095,158.18846570037698
7.832,0.9999792882392985,157.80801135732455
7.84,0.9999792427299248,157.4275609871421
7.848,0.9999792009297479,157.0471138039957
7.856,0.9999791628307234,156.66666902259053
7.864,0.9999791284242091,156.28622585819824
7.872,0.9999790977009718,155.90578352668476
7.88,0.9999790706511945,155.52534124453786
7.888,0.9999790472644843,155.14489822889468
7.896,0.9999790275298778,154.76445369756925
7.904,0.9999790114358496,154.38400686907997
7.912,0.9999789989703182,154.00355696267715
7.92,0.9999789901206538,153.62310319837013
7.928,0.9999789848736843,153.24264479695495
7.936,0.9999789832157029,152.8621809800414
7.944,0.9999789851324743,152.48171097008046
7.952,0.999978990609242,152.10123399039148
7.96,0.9999789996307354,151.7207492651894
7.968,0.9999790121811751,151.34025601961193
7.976,0.9999790282442815,150.9597534797467
7.984,0.9999790478032803,150.5792408726582
7.992,0.9999790708409092,150.19871742641507
8.0,0.9999790973394249,149.81818237011706
8.008,0.9999791272806102,149.43763493392197
8.016,0.9999791606457794,149.05707434907254
8.024000000000001,0.9999791974157854,148.6764998479237
8.032,0.999979237571027,148.29591066396924
8.04,0.9999792810914542,147.91530603186862
8.048,0.9999793279565755,147.53468518747388
8.056000000000001,0.999979378145463,147.15404736785666
8.064,0.9999794316367615,146.7733918113349
8.072,0.9999794884086921,146.39271775749927
8.08,0.9999795484390601,146.01202444724024
8.088000000000001,0.9999796117052611,145.6313111227748
8.096,0.9999796781842868,145.25057702767313
8.104,0.999979747852732,144.869821406885
8.112,0.9999798206868002,144.48904350676656
8.120000000000001,0.9999798966623105,144.10824257510714
8.128,0.9999799757547029,143.72741786115563
8.136,0.9999800579390459,143.34656861564693
8.144,0.9999801431900406,142.96569409082855
8.152000000000001,0.999980231482029,142.58479354048745
8.16,0.9999803227889983,142.2038662199762
8.168,0.9999804170845885,141.82291138623924
8.176,0.9999805143420972,141.44192829783972
8.184000000000001,0.9999806145344862,141.0609162149859
8.192,0.999980717634387,140.67987439955735
8.2,0.9999808236141078,140.29880211513137
8.208,0.9999809324456387,139.9176986270092
8.216000000000001,0.999981044100657,139.53656320224292
8.224,0.9999811585505343,139.15539510966113
8.232,0.9999812757663419,138.7741936198955
8.24,0.9999813957188564,138.3929580054069
8.248000000000001,0.9999815183785653,138.01168754051207
8.256,0.9999816437156737,137.63038150140943
8.264,0.9999817717001088,137.24903916620545
8.272,0.9999819023015268,136.8676598149406
8.280000000000001,0.9999820354893182,136.4862427296161
8.288,0.9999821712326127,136.10478719421965
8.296,0.9999823095002858,135.7232924947515
8.304,0.999982450260965,135.3417579192507
8.312,0.9999825934830326,134.96018275782154
8.32,0.999982739134635,134.57856630265886
8.328,0.9999828871836854,134.19690784807503
8.336,0.9999830375978712,133.81520669052514
8.344,0.9999831903446574,133.43346212863375
8.352,0.9999833453912944,133.0516734632203
8.36,0.9999835027048217,132.6698399973256
8.368,0.9999836622520747,132.2879610362374
8.376,0.9999838239996888,131.90603588751674
8.384,0.9999839879141047,131.52406386102336
8.392,0.999984153961576,131.14204426894239
8.4,0.999984322108172,130.7599764258092
8.408,0.9999844923197837,130.37785964853651
8.416,0.9999846645621295,129.99569325643907
8.424,0.9999848388007604,129.61347657126043
8.432,0.9999850150010648,129.23120891719807
8.44,0.9999851931282739,128.8488896209299
8.448,0.9999853731474672,128.46651801163927
8.456,0.9999855550235774,128.08409342104147
8.464,0.9999857387213956,127.70161518340879
8.472,0.9999859242055754,127.31908263559698
8.48,0.9999861114406402,126.93649511707021
8.488,0.999986300390986,126.55385196992741
8.496,0.9999864910208881,126.17115253892734
8.504,0.9999866832945049,125.7883961715149
8.512,0.9999868771758837,125.40558221784599
8.52,0.9999870726289651,125.02271003081378
8.528,0.9999872696175888,124.6397789660738
8.536,0.9999874681054967,124.25678838206998
8.544,0.9999876680563404,123.8737376400595
8.552,0.9999878694336843,123.49062610413912
8.56,0.9999880722010106,123.10745314126984
8.568,0.9999882763217246,122.72421812130308
8.576,0.9999884817591591,122.34092041700549
8.584,0.9999886884765797,121.95755940408498
8.592,0.9999888964371892,121.5741344612154
8.6,0.9999891056041323,121.1906449700626
8.608,0.9999893159405004,120.80709031530911
8.616,0.9999895274093368,120.42346988468007
8.624,0.9999897399736398,120.03978306896781
8.632,0.99998995359637,119.6560292620578
8.64,0.9999901682404523,119.27220786095316
8.648,0.9999903838687816,118.88831826580058
8.656,0.9999906004442283,118.50435987991465
8.664,0.9999908179296411,118.12033210980381
8.672,0.9999910362878528,117.73623436519462
8.68,0.9999912554816847,117.35206605905756
8.688,0.9999914754739496,116.96782660763144
8.696,0.9999916962274599,116.58351543044883
8.704,0.9999919177050274,116.19913195036052
8.712,0.999992139869471,115.81467559356108
8.72,0.9999923626836202,115.43014578961296
8.728,0.9999925861103198,115.04554197147208
8.736,0.9999928101124335,114.66086357551185
8.744,0.9999930346528486,114.27611004154875
8.752,0.9999932596944807,113.89128081286619
8.76,0.9999934852002778,113.50637533623994
8.768,0.9999937111332242,113.12139306196208
8.776,0.9999939374563461,112.73633344386616
8.784,0.9999941641327138,112.35119593935123
8.792,0.9999943911254476,111.96598000940679
8.8,0.9999946183977214,111.58068511863668
8.808,0.9999948459127667,111.19531073528411
8.815999999999999,0.9999950736338776,110.80985633125543
8.824,0.9999953015244137,110.42432138214463
8.832,0.9999955295478054,110.03870536725769
8.84,0.9999957576675569,109.65300776963673
8.847999999999999,0.999995985847252,109.26722807608388
8.856,0.999996214050556,108.88136577718548
8.864,0.9999964422412215,108.49542036733632
8.872,0.9999966703830915,108.10939134476341
8.879999999999999,0.9999968984401035,107.72327821154971
8.888,0.999997126376294,107.33708047365809
8.896,0.9999973541558019,106.95079764095529
8.904,0.9999975817428731,106.56442922723546
8.911999999999999,0.9999978091018636,106.17797475024368
8.92,0.999998036197244,105.79143373169956
8.928,0.9999982629936027,105.40480569732104
8.936,0.9999984894556515,105.01809017684764
8.943999999999999,0.9999987155482271,104.63128670406357
8.952,0.9999989412362963,104.24439481682127
8.96,0.9999991664849598,103.8574140570648
8.968,0.9999993912594559,103.47034397085275
8.975999999999999,0.9999996155251635,103.08318410838118
8.984,0.999999839247607,102.6959340240067
8.992,0.9999999999999999,102.3085932762697
9.0,1.0,101.92116142791684
9.008,0.9999999999999999,101.5336380459237
9.016,1.0,101.14602270151758
9.024000000000001,1.0,100.75831497020025
9.032,1.0,100.37051443177022
9.04,1.0,99.98262067034503
9.048,0.9999999999999999,99.59463327438364
9.056000000000001,0.9999999999999998,99.20655183670884
9.064,1.0,98.81837595452917
9.072,1.0,98.43010522946078
9.08,1.0,98.04173926754947
9.088000000000001,1.0,97.65327767929271
9.096,0.9999999999999999,97.2647200796612
9.104,1.0,96.87606608812015
9.112,1.0,96.48731532865114
9.120000000000001,1.0,96.09846742977355
9.128,0.9999999999999999,95.70952202456573
9.136,1.0,95.32047875068594
9.144,1.0,94.93133725039357
9.152000000000001,0.9999999999999999,94.54209717057033
9.16,1.0,94.15275816274077
9.168,1.0,93.76331988309286
9.176,1.0,93.37378199249879
9.184000000000001,0.9999999999999999,92.98414415653545
9.192,1.0,92.59440604550474
9.2,0.9999999999999999,92.20456733445343
9.208,0.9999999999999998,91.81462770319352
9.216000000000001,1.0,91.42458683632228
9.224,1.0,91.0344444232419
9.232,1.0,90.6442001581789
9.24,1.0,90.25385374020398
9.248000000000001,1.0,89.86340487325138
9.256,1.0,89.47285326613806
9.264,1.0,89.08219863258256
9.272,1.0000000000000002,88.6914406912242
9.280000000000001,0.9999999999999999,88.30057916564189
9.288,1.0,87.90961378437275
9.296,1.0,87.51854428093034
9.304,1.0,87.12737039382311
9.312000000000001,1.0,86.7360918665729
9.32,1.0,86.34470844773261
9.328,1.0000000000000002,85.95321989090394
9.336,1.0,85.56162595475524
9.344,1.0,85.16992640303927
9.352,1.0,84.77812100460991
9.36,1.0,84.3862095334401
9.368,1.0,83.99419176863798
9.376,1.0,83.60206749446455
9.384,1.0,83.20983650034954
9.392,1.0,82.81749858090852
9.4,0.9999999999999999,82.42505353595855
9.408,1.0,82.03250117053489
9.416,0.9999999999999998,81.63984129490619
9.424,1.0000000000000002,81.24707372459095
9.432,0.9999999999999999,80.8541982803722
9.44,0.9999999999999999,80.46121478831361
9.448,1.0,80.06812307977393
9.456,0.9999999999999999,79.67492299142236
9.464,1.0,79.28161436525286
9.472,1.0,78.88819704859911
9.48,1.0,78.49467089414819
9.488,0.9999999999999998,78.10103575995532
9.496,1.0,77.70729150945704
9.504,0.9999999999999999,77.31343801148553
9.512,1.0,76.91947514028134
9.52,1.0,76.52540277550725
9.528,1.0,76.1312208022606
9.536,1.0,75.73692911108678
9.544,1.0000000000000002,75.34252759799085
9.552,0.9999999999999999,74.94801616445076
9.56,1.0,74.55339471742859
9.568,1.0,74.15866316938302
9.576,1.0,73.76382143828033
9.584,1.0,73.36886944760634
9.592,0.9999999999999999,72.97380712637683
9.6,1.0,72.57863440914912
9.608,0.9999999999999999,72.18335123603187
9.616,0.9999999999999999,71.78795755269623
9.624,1.0,71.39245331038519
9.632,1.0,70.99683846592407
9.64,0.9999999999999999,70.60111298172947
9.648,1.0,70.20527682581924
9.656,0.9999999999999999,69.80932997182079
9.664,1.0000000000000002,69.41327239898067
9.672,1.0,69.0171040921723
9.68,1.0,68.62082504190495
9.688,0.9999999999999999,68.22443524433099
9.696,0.9999999999999999,67.82793470125428
9.704,0.9999999999999999,67.43132342013692
9.712,1.0,67.03460141410704
9.72,1.0,66.63776870196494
9.728,1.0,66.2408253081904
9.736,0.9999999999999999,65.8437712629482
9.744,1.0,65.44660660209487
9.752,1.0000000000000002,65.04933136718363
9.76,1.0,64.65194560547042
9.768,1.0,64.25444936991846
9.776,1.0,63.856842719203634
9.784,0.9999999999999999,63.45912571771825
9.792,1.0,63.06129843557605
9.8,0.9999999999999999,62.66336094861529
9.808,0.9999999999999999,62.265313338403026
9.816,0.9999999999999999,61.86715569223773
9.824,0.9999999999999999,61.46888810315288
9.832,1.0,61.070510669918924
9.84,1.0,60.67202349704623
9.847999999999999,1.0,60.27342669478657
9.856,0.9999999999999998,59.87472037913494
9.864,1.0,59.47590467183116
9.872,1.0,59.07697970036066
9.879999999999999,0.9999999999999999,58.67794559795502
9.888,1.0,58.27880250359251
9.896,1.0,57.87955056199822
9.904,1.0,57.48018992364367
9.911999999999999,0.9999999999999999,57.08072074474593
9.92,1.0,56.681143187266755
9.928,1.0,56.28145741891154
9.936,1.0,55.88166361312738
9.943999999999999,0.9999999999999999,55.481761949100886
9.952,0.9999999999999999,55.08175261175602
9.96,0.9999999999999999,54.68163579175156
