freq,mag,phase
6.0,0.999085735388931,114.70338222532689
6.002285568,0.9990485169111133,114.5816918796357
6.004571648,0.9990729171347578,114.46017612375923
6.006857216,0.9991556834312952,114.33789971341679
6.009142784,0.9992920308473977,114.21412120638907
6.011428352,0.9994727300703434,114.08804040070326
6.013714432,0.9996867009271625,113.95916190314763
6.016,0.9999202043444488,113.82706059953948
6.018285568,1.0001584885299708,113.69162128548928
6.020571648,1.0003865004753587,113.55280557960725
6.022857216,1.0005895355918797,113.41090239123815
6.025142784,1.0007548837446008,113.26638476587009
6.027428352,1.0008718915689667,113.11984707680624
6.029714432,1.0009331209098493,112.97205352826283
6.032,1.0009347344630928,112.82385821382658
6.034285568,1.0008763957210978,112.67612688128503
6.036571648,1.0007619226511777,112.5297060179011
6.038857216,1.000598379842544,112.38532616622658
6.041142784,1.0003963477328877,112.24365610847
6.043428352,1.0001681807068754,112.10517503199831
6.045714432,0.9999286471008542,111.97010261706431
6.048,0.9996927752081993,111.8385704170034
6.050285568,0.9994758354577385,111.71040346961709
6.052571648,0.9992913385598181,111.58517374495108
6.054857216,0.9991513689025385,111.46241781863084
6.057142784,0.9990646313572771,111.34130160901375
6.059428352,0.999036634969658,111.22113632594672
6.061714432,0.9990696386698248,111.1009743711138
6.064,0.9991613311469093,110.97993808648371
6.066285568,0.9993058113185905,110.8572707479833
6.068571648,0.9994940869423177,110.7322393631415
6.070857216,0.999714191199197,110.60423803248722
6.073142784,0.999952118399465,110.47294221169446
6.075428352,1.0001928377289955,110.33827497817929
6.077714432,1.000421116730022,110.20020530040532
6.08,1.0006221497932,110.05904644432424
6.082285568,1.00078352654005,109.9153277637512
6.084571648,1.0008946293403216,109.76964780924797
6.086857216,1.000948644504087,109.62281888921063
6.089142784,1.0009419727055349,109.47569096060434
6.091428352,1.0008749018421548,109.32917330275893
6.093714432,1.0007517820434368,109.18403007156267
6.096,1.000580274176109,109.04106710762426
6.098285568,1.0003710714334473,108.90093076794581
6.100571648,1.0001379266909742,108.76407600619844
6.102857216,0.9998949134833534,108.63069032070938
6.105142784,0.9996579864704048,108.50086439230218
6.107428352,0.9994419722950068,108.37437313891384
6.109714432,0.9992607328776429,108.25086654332576
6.112,0.9991258453764555,108.12969952594996
6.114285568,0.9990459690758742,108.01011909490371
6.116571648,0.9990261479919087,107.89135850281728
6.118857216,0.9990678118930417,107.77249001266662
6.121142784,0.9991682498586655,107.65261630022005
6.123428352,0.9993210642679907,107.53098559340984
6.125714432,0.9995170031677505,107.40681494295539
6.128,0.9997432272387868,107.27963460001621
6.130285568,0.9999853591947602,107.14908542843375
6.132571648,1.0002282106941218,107.01506858472041
6.134857216,1.0004563112552438,106.87765380923804
6.137142784,1.0006550756571473,106.73721281187008
6.139428352,1.0008118344903036,106.59417610609991
6.141714432,1.0009167772747194,106.44931671087754
6.144,1.0009631270116148,106.30338879243175
6.146285568,1.0009478923889925,106.15724207237028
6.148571648,1.0008718117128819,106.01183094891775
6.150857216,1.0007399341314036,105.86795257828446
6.153142784,1.0005604189252522,105.72640156992702
6.155428352,1.000344450740714,105.5877506682011
6.157714432,1.0001060020046544,105.45243346659636
6.16,0.9998599945741159,105.32069032105626
6.162285568,0.9996221505645256,105.19251466945597
6.164571648,0.9994075628334099,105.06770564097731
6.166857216,0.9992298136288283,104.94578901598082
6.169142784,0.9991005694666003,104.82614457762963
6.171428352,0.9990277846762157,104.7080515800507
6.173714432,0.9990163840282313,104.59057600190611
6.176,0.9990670141694679,104.4729129361794
6.178285568,0.9991766085131347,104.3541165720896
6.180571648,0.999338038134309,104.23338871127362
6.182857216,0.9995413788871329,104.11007645652265
6.185142784,0.9997734782413513,103.98359006452701
6.187428352,1.0000198400570597,103.85369754744112
6.189714432,1.0002645372583465,103.72024472687768
6.192,1.0004921140908511,103.58343352002551
6.194285568,1.000688146724854,103.44356259732297
6.196571648,1.0008401369015276,103.3011904902591
6.198857216,1.0009383946897021,103.15706787429754
6.201142784,1.0009769025472361,103.01194108605499
6.203428352,1.0009526542381137,102.86678860128151
6.205714432,1.0008675482282787,102.72244970319397
6.208,1.0007266051060337,102.5798056035005
6.210285568,1.000538954225755,102.43954858831488
6.212571648,1.0003163395571875,102.30234141676567
6.214857216,1.0000728517108823,102.16851778234202
6.217142784,0.9998239790442001,102.03836553444847
6.219428352,0.99958547066619,101.9118144988033
6.221714432,0.999372761661273,101.78857605078979
6.224,0.9991990614287182,101.66817488860474
6.226285568,0.999075708924691,101.55002103008705
6.228571648,0.9990106388512255,101.43327917023699
6.230857216,0.9990078670384118,101.31710848529532
6.233142784,0.9990676981233526,101.20052770817425
6.235428352,0.9991864277303392,101.0827279978218
6.237714432,0.9993567199778909,100.96284976272686
6.24,0.99956750792676,100.84021951159663
6.242285568,0.999805296693787,100.71436516575248
6.244571648,1.0000553332972968,100.58502985972085
6.246857216,1.000301638919114,100.45209850893848
6.249142784,1.0005284374994083,100.31574935773244
6.251428352,1.000721345594465,100.17640828726516
6.253714432,1.000868122094616,100.03463789546477
6.256,1.0009594201161953,99.89115862480358
6.258285568,1.0009893843205961,99.74682126529908
6.260571648,1.0009560413303995,99.60258931636778
6.262857216,1.0008614549591763,99.45927257696049
6.265142784,1.000711557480884,99.31775467813033
6.267428352,1.0005156567086921,99.17880458259216
6.269714432,1.000286486223732,99.0429994246451
6.272,1.0000381629808615,98.91069093364112
6.274285568,0.9997867891816565,98.78203114814758
6.276571648,0.9995481597988429,98.65702443655397
6.278857216,0.9993375135584712,98.5352818717152
6.281142784,0.9991682189117491,98.41639367404717
6.283428352,0.999051338209401,98.29963777386996
6.285714432,0.9989940498253622,98.18419284731593
6.288,0.9990003550144793,98.06914877180645
6.290285568,0.999069738858374,97.95361703833224
6.292571648,0.9991979160775212,97.83671497968035
6.294857216,0.9993768866649753,97.71753602636576
6.297142784,0.9995950359055732,97.59557454553175
6.299428352,0.9998386348018238,97.47025326395105
6.301714432,1.0000922899451101,97.34135414048887
6.304,1.0003397520149586,97.20884142126285
6.306285568,1.0005653727707287,97.07293951195405
6.308571648,1.0007547693703451,96.93401924392364
6.310857216,1.0008960031985352,96.79277765074717
6.313142784,1.000979793319116,96.64990982424332
6.315428352,1.0010010328461347,96.50630238004574
6.317714432,1.0009582282398313,96.36289552667009
6.32,1.0008540258001988,96.22056020687283
6.322285568,1.0006948977445358,96.08018171599714
6.324571648,1.0004909580951058,95.94249496963123
6.326857216,1.0002550848165663,95.8080100899044
6.329142784,1.000002252021214,95.67711671429637
6.331428352,0.999748604540998,95.54998080091198
6.333714432,0.9995100512947993,95.42642592332108
6.336,0.9993020607639468,95.30617211896158
6.338285568,0.9991376386858387,95.1886808971815
6.340571648,0.9990274276838838,95.07326710876525
6.342857216,0.9989786733772799,94.95899293425406
6.345142784,0.9989942319802324,94.84506016006969
6.347428352,0.9990734103422998,94.73045501647745
6.349714432,0.9992110872647314,94.61431490605514
6.352,0.9993986479647851,94.4958400625459
6.354285568,0.9996241830738877,94.3744008672033
6.356571648,0.9998733048714316,94.24953977975125
6.358857216,1.0001302929902622,94.12099954019759
6.361142784,1.000378631303212,93.98884845007392
6.363428352,1.0006026664440026,93.853268231945
6.365714432,1.0007881871231095,93.71477139940255
6.368,1.000923217921917,93.57395704984884
6.370285568,1.0009993341418804,93.43165040353253
6.372571648,1.0010115111228408,93.28869027876078
6.374857216,1.0009589656903237,93.1460690007462
6.377142784,1.0008448388713158,93.00469241560029
6.379428352,1.0006764883394537,92.86542092115046
6.381714432,1.000464519263266,92.72889482516197
6.384,1.000222213436566,92.5957297604054
6.386285568,0.9999652095881241,92.46623628118112
6.388571648,0.9997095275456742,92.34048524882381
6.390857216,0.9994714390922089,92.21839672655892
6.393142784,0.9992663462924043,92.09952589672808
6.395428352,0.9991072045506569,91.98340590474487
6.397714432,0.9990042677878221,91.86920267052318
6.4,0.9989640553566368,91.75612298534533
6.402285568,0.9989892706307324,91.64315184987522
6.404571648,0.9990784691577568,91.52941174806257
6.406857216,0.9992259002475027,91.4139842736838
6.409142784,0.9994222308573573,91.29605364602475
6.411428352,0.9996549473585515,91.1750641215162
6.413714432,0.9999093922008717,91.05054994892954
6.416,1.0001692786569947,90.92231196413461
6.418285568,1.0004182546882319,90.79042937722481
6.420571648,1.0006402351091095,90.65511292440047
6.422857216,1.0008214318266575,90.51691486263199
6.425142784,1.0009498945455593,90.3765111059808
6.427428352,1.0010178617064545,90.23468781455622
6.429714432,1.0010206592818358,90.09236253835012
6.432,1.0009581005912012,89.95052604544402
6.434285568,1.0008340067444905,89.81001282601811
6.436571648,1.000656333521389,89.67178637638993
6.438857216,1.0004363887159036,89.53642115257611
6.441142784,1.0001880084829298,89.40452303775753
6.443428352,0.9999267471733306,89.27635090589995
6.445714432,0.9996694319005455,89.15197910813025
6.448,0.9994322498105023,89.03124054844686
6.450285568,0.9992305366546008,88.91377880972841
6.452571648,0.9990770699121563,88.79891053698164
6.454857216,0.9989818374443867,88.68588766218625
6.457142784,0.9989507494481765,88.57385674372537
6.459428352,0.9989858640421544,88.46178893201271
6.461714432,0.9990853106376825,88.34880682543579
6.464,0.9992424760695067,88.23398698632674
6.466285568,0.9994474511682728,88.11655976377371
6.468571648,0.9996872936271398,87.99592946235792
6.470857216,0.9999468962980638,87.87167262705235
6.473142784,1.000209532910764,87.7436564619405
6.475428352,1.0004586041330708,87.61194056366361
6.477714432,1.000678265293961,87.47684015860229
6.48,1.0008545900304113,87.33889402945952
6.482285568,1.0009762326477196,87.19879753319421
6.484571648,1.001035557897299,87.0574318865319
6.486857216,1.0010286024137993,86.91566998854769
6.489142784,1.0009557931055153,86.77455831656374
6.491428352,1.000821660821939,86.63492383880944
6.493714432,1.0006347803868358,86.49764752971005
6.496,1.000406824309553,86.36343862584282
6.498285568,1.0001522849733073,86.2327513973544
6.500571648,0.9998872435138211,86.1058653223822
6.502857216,0.9996286448146251,85.98282602769183
6.505142784,0.9993928491959905,85.86339823851945
6.507428352,0.9991949305773196,85.74723008229324
6.509714432,0.9990476574199102,85.63355324198383
6.512,0.9989603677691598,85.52166060990449
6.514285568,0.9989385833534181,85.41057141812037
6.516571648,0.9989840653591262,85.29935454920654
6.518857216,0.9990936260252675,85.18707457611245
6.521142784,0.9992606165869694,85.07275658251109
6.523428352,0.9994743572157664,84.95572346425394
6.525714432,0.9997212877211997,84.83536511395155
6.528,0.9999855998993559,84.71129676083916
6.530285568,1.0002507345155478,84.58340634939422
6.532571648,1.0004995369778926,84.45180194290427
6.534857216,1.0007163240907826,84.31683616533233
6.537142784,1.0008873825497255,84.1790654700771
6.539428352,1.001001713208566,84.0392437878384
6.541714432,1.0010521001334747,83.89823985392255
6.544,1.0010350851033138,83.7570380999075
6.546285568,1.0009517963612864,83.6165800441067
6.548571648,1.0008075403230412,83.47779722261244
6.550857216,1.0006112967795733,83.34148241456468
6.553142784,1.0003754905373472,83.20833229013583
6.555428352,1.0001149846099047,83.07884230095841
6.557714432,0.9998464809377321,82.95318961299662
6.56,0.999586989520001,82.83141336285296
6.562285568,0.9993529297787768,82.71329052805177
6.564571648,0.9991594151967431,82.59829968834994
6.566857216,0.9990185902092665,82.4857889311871
6.569142784,0.9989398002877923,82.37490872358741
6.571428352,0.9989277844391682,82.2647509790157
6.573714432,0.9989836980338034,82.1542997691662
6.576,0.9991038992886561,82.04254003913219
6.578285568,0.9992806960238882,81.92871442836234
6.580571648,0.999503095787216,81.81195828838534
6.582857216,0.9997567962492598,81.69178447779731
6.585142784,1.000025725668113,81.56781038136815
6.587428352,1.0002927285222416,81.43997112348156
6.589714432,1.000540883724703,81.30840816250054
6.592,1.000754564541672,81.17350683303458
6.594285568,1.0009198285044654,81.03586678686756
6.596571648,1.0010264528022144,80.89629077986946
6.598857216,1.0010674191419502,80.75563258228584
6.601142784,1.0010400908114048,80.61488872598436
6.603428352,1.0009462122316397,80.47504686436181
6.605714432,1.0007915755987744,80.33701963746819
6.608,1.0005860153618005,80.20165641948854
6.610285568,1.0003425840213243,80.06954726903484
6.612571648,1.0000764818385355,79.94117455934132
6.614857216,0.9998046839779714,79.81675188382522
6.617142784,0.9995445969630706,79.6962070683222
6.619428352,0.9993127436687814,79.57930595391022
6.621714432,0.9991239201041436,79.46548968630277
6.624,0.9989901064320876,79.35403638425895
6.626285568,0.9989201112812764,79.24413703605293
6.628571648,0.9989183082294824,79.13476677795008
6.630857216,0.998984950470731,79.02497685969033
6.633142784,0.9991157247555895,78.91375314095932
6.635428352,0.9993025035491425,78.80024029763678
6.637714432,0.9995334134361668,78.68373136489004
6.64,0.9997937244588065,78.56364900534706
6.642285568,1.0000669298149398,78.43967911514359
6.644571648,1.0003356769574545,78.31181876493167
6.646857216,1.0005828346079977,78.1802163371575
6.649142784,1.0007926980460764,78.04531401556339
6.651428352,1.0009518674375055,77.90774262419613
6.653714432,1.00105022879447,77.76834172470664
6.656,1.0010814784927426,77.62794828892986
6.658285568,1.001043557042977,77.48766485913275
6.660571648,1.0009389082559972,77.34840837683788
6.662857216,1.0007738607392502,77.21115734161653
6.665142784,1.000558966080777,77.07665499232883
6.667428352,1.0003079009087184,76.94554585890964
6.669714432,1.0000364139517712,76.81829739575024
6.672,0.9997618351527398,76.6950179987185
6.674285568,0.9995016431474588,76.57568573227509
6.676571648,0.9992723377988717,76.45991106261413
6.678857216,0.9990886783000917,76.3471735411234
6.681142784,0.9989623594936845,76.23676100869143
6.683428352,0.9989016402274458,76.12773212993818
6.685714432,0.9989101046377815,76.01910884046616
6.688,0.9989877606250225,75.909890996157
6.690285568,0.9991293946515792,75.79908049657399
6.692571648,0.999326112422574,75.68583108356154
6.694857216,0.9995654151778787,75.56945230804865
6.697142784,0.9998321471370577,75.44938375752297
6.699428352,1.0001093429264967,75.3253542330114
6.701714432,1.0003794179406125,75.19739138195497
6.704,1.0006250708782125,75.06569357734264
6.706285568,1.0008306911392808,74.93071598768296
6.708571648,1.0009833468876965,74.79315896807884
6.710857216,1.0010731172932248,74.65386250267187
6.713142784,1.0010943799810215,74.51372679145467
6.715428352,1.0010455282279638,74.37384612110839
6.717714432,1.0009297925297735,74.23514883206849
6.72,1.0007542896466328,74.09859987619588
6.722285568,1.0005302316826534,73.96495183462937
6.724571648,1.000271726098837,73.8348353617751
6.726857216,0.9999950768261362,73.70862406577004
6.729142784,0.9997179941557117,73.58645469019862
6.731428352,0.999458019245975,73.46824037891814
6.733714432,0.9992319276678117,73.35358909074674
6.736,0.9990539376737271,73.24190427822933
6.738285568,0.9989354847205989,73.13241958655296
6.740571648,0.9988843114256499,73.02419697781069
6.742857216,0.9989036640382003,72.91622131212361
6.745142784,0.9989923446152855,72.80748334185519
6.747428352,0.9991449320400632,72.69701770345648
6.749714432,0.9993515710629327,72.58396185729137
6.752,0.9995991989547548,72.46760130778426
6.754285568,0.9998722012448283,72.34747126129045
6.756571648,1.0001530536181837,72.22332210609703
6.758857216,1.000424010075503,72.09517793676704
6.761142784,1.0006676196138478,71.96329030630396
6.763428352,1.000868698180408,71.82817903790003
6.765714432,1.0010142760416132,71.69058828628249
6.768,1.001094986695844,71.55135893319222
6.770285568,1.001105793287537,71.4114530229515
6.772571648,1.0010458584011521,71.27192117151995
6.774857216,1.0009188826383482,71.13376183773647
6.777142784,1.0007329293778549,70.9978727195296
6.779428352,1.0004997559142927,70.86504396265367
6.781714432,1.0002339052579217,70.73586599733245
6.784,0.9999525310840789,70.61068483181008
6.786285568,0.9996732525136756,70.48957998939184
6.788571648,0.9994140592256442,70.37245868823967
6.790857216,0.9991913819254296,70.25884228374069
6.793142784,0.9990195355317327,70.14812411422872
6.795428352,0.9989094471541666,70.03950108009458
6.797714432,0.9988682751399349,69.93201596654362
6.8,0.998898580674978,69.82462892883089
6.802285568,0.9989987133541126,69.71630558304452
6.804571648,0.9991621911038157,69.6060915166453
6.806857216,0.9993787758799774,69.49310966201398
6.809142784,0.9996345406047663,69.37670233678436
6.811428352,0.9999134736305526,69.25642226864085
6.813714432,1.0001975626129418,69.13205146252415
6.816,1.0004689956814798,69.00366469068652
6.818285568,1.0007103615804644,68.87153356508531
6.820571648,1.00090633328641,68.73625773456824
6.822857216,1.001044365482475,68.5985501945773
6.825142784,1.0011157787606684,68.45933762669507
6.827428352,1.0011158241262077,68.31959894365856
6.829714432,1.0010444316822709,68.1804063717389
6.832,1.000906133241608,68.04273689178736
6.834285568,1.0007096972577967,67.90748547174253
6.836571648,1.0004673466129885,67.77544582658456
6.838857216,1.0001945895778572,67.6471696724323
6.841142784,0.9999086303895782,67.522945962575
6.843428352,0.9996277286048074,67.40288805278487
6.845714432,0.9993696477720996,67.28678786920354
6.848,0.9991509840752524,67.1741784955907
6.850285568,0.9989856367342798,67.06436138438862
6.852571648,0.9988843472714093,66.95654100411085
6.854857216,0.9988533587282196,66.84971753652341
6.857142784,0.9988950886762825,66.74280679841792
6.859428352,0.9990066656151305,66.63480899373313
6.861714432,0.9991813307096309,66.52474854633458
6.864,0.9994077129594776,66.4117848146704
6.866285568,0.9996715046524299,66.29525215973818
6.868571648,0.999956040113046,66.17474033383822
6.870857216,1.000243101893422,66.05008390960194
6.873142784,1.000514578215142,65.92135145480839
6.875428352,1.0007530995539635,65.78894067155849
6.877714432,1.0009434952571583,65.65340956699015
6.88,1.0010736164400968,65.51557488278843
6.882285568,1.0011351362405287,65.3763246107087
6.884571648,1.001124132876251,65.23672525081199
6.886857216,1.0010412519435905,65.0978222256682
6.889142784,1.0008915817696933,64.96059520776161
6.891428352,1.0006846802996272,64.8259526636078
6.893714432,1.0004334343493861,64.69466037924354
6.896,1.0001538521539963,64.5672537690447
6.898285568,0.9998636361826622,64.44399496065168
6.900571648,0.9995813436067706,64.32490882057883
6.902857216,0.9993249661085194,64.20978352856712
6.905142784,0.9991107806524335,64.09808287645409
6.907428352,0.9989524912653864,63.9891605390206
6.909714432,0.9988603215633398,63.88205542861276
6.912,0.9988401976355695,63.77577610566957
6.914285568,0.9988934166073046,63.669306734631924
6.916571648,0.9990167544762294,63.56155483290084
6.918857216,0.9992024022555542,63.45154981661566
6.921142784,0.9994385488513183,63.338509724519795
6.923428352,0.9997102009604006,63.221750497137414
6.925714432,1.0000000533473146,63.10093916481757
6.928,1.0002896560438244,62.975901128002164
6.930285568,1.000560754691753,62.846794828941825
6.932571648,1.0007959058009632,62.71404247015142
6.934857216,1.0009803186171713,62.57820155799131
6.937142784,1.0011020158195574,62.44015870857247
6.939428352,1.0011533624481352,62.30084643069561
6.941714432,1.001131050611148,62.161348845075125
6.944,1.0010362937629629,62.02271347035614
6.946285568,1.0008751024147535,61.885897578522595
