freq,mag,phase
6.0,0.9999946835621739,78.68611327083863
6.008,0.9999947046514017,78.54634739078999
6.016,0.9999947281865542,78.40656476131701
6.024,0.9999947541117661,78.2667653698743
6.032,0.9999947823716671,78.12694920401444
6.04,0.99999481291138,77.98711625138759
6.048,0.9999948456765215,77.84726649974122
6.056,0.999994880613201,77.70739993691977
6.064,0.9999949176680202,77.56751655086418
6.072,0.9999949567880732,77.42761632961172
6.08,0.999994997920945,77.28769926129556
6.088,0.9999950410147124,77.14776533414435
6.096,0.9999950860179415,77.00781453648212
6.104,0.9999951328796896,76.86784685672765
6.112,0.999995181549502,76.72786228339439
6.12,0.9999952319774139,76.58786080508995
6.128,0.9999952841139473,76.44784241051586
6.136,0.9999953379101122,76.30780708846724
6.144,0.9999953933174053,76.16775482783243
6.152,0.9999954502878089,76.02768561759264
6.16,0.9999955087737906,75.8875994468217
6.168,0.9999955687283028,75.74749630468567
6.176,0.9999956301047808,75.6073761804426
6.184,0.9999956928571434,75.46723906344207
6.192,0.999995756939791,75.327084943125
6.2,0.999995822307606,75.18691380902325
6.208,0.9999958889159498,75.04672565075938
6.216,0.9999959567206643,74.90652045804622
6.224,0.9999960256780691,74.76629822068664
6.232,0.9999960957449623,74.62605892857323
6.24,0.9999961668786177,74.48580257168796
6.248,0.9999962390367851,74.34552914010186
6.256,0.9999963121776888,74.20523862397474
6.264,0.9999963862600271,74.06493101355488
6.272,0.9999964612429701,73.9246062991787
6.28,0.9999965370861601,73.78426447127049
6.288,0.9999966137497096,73.64390552034203
6.296,0.9999966911942004,73.50352943699238
6.304,0.999996769380682,73.36313621190753
6.312,0.9999968482706719,73.22272583586009
6.32,0.9999969278261522,73.08229829970902
6.328,0.999997008009571,72.94185359439932
6.336,0.9999970887838392,72.8013917109617
6.344,0.9999971701123298,72.66091264051235
6.352,0.9999972519588772,72.52041637425263
6.36,0.9999973342877755,72.37990290346872
6.368,0.9999974170637772,72.23937221953138
6.376,0.9999975002520917,72.09882431389566
6.384,0.9999975838183849,71.95825917810062
6.392,0.9999976677287767,71.81767680376899
6.4,0.99999775194984,71.67707718260694
6.408,0.9999978364486,71.53646030640375
6.416,0.9999979211925325,71.39582616703163
6.424,0.999998006149561,71.25517475644527
6.432,0.9999980912880584,71.11450606668173
6.44,0.9999981765768423,70.97382008986003
6.448,0.9999982619851753,70.83311681818095
6.456,0.9999983474827636,70.69239624392675
6.464,0.9999984330397549,70.55165835946084
6.472,0.9999985186267366,70.41090315722761
6.48,0.9999986042147353,70.27013062975202
6.4879999999999995,0.9999986897752144,70.12934076963946
6.496,0.999998775280073,69.98853356957534
6.504,0.999998860701644,69.84770902232508
6.5120000000000005,0.9999989460126931,69.70686712073348
6.52,0.9999990311864159,69.5660078577248
6.5280000000000005,0.9999991161964377,69.42513122630223
6.536,0.9999992010168114,69.28423721954788
6.5440000000000005,0.9999992856220153,69.1433258306222
6.552,0.9999993699869523,69.00239705276411
6.5600000000000005,0.9999994540869471,68.86145087929036
6.568,0.9999995378977459,68.7204873035956
6.5760000000000005,0.9999996213955132,68.57950631915183
6.584,0.9999997045568313,68.43850791950845
6.592,0.9999997873586982,68.29749209829174
6.6,0.999999869778525,68.15645884920477
6.608,0.9999999517941353,68.01540816602709
6.616,0.9999999999999999,67.87434004261448
6.624,1.0,67.73325447289876
6.632,1.0,67.59215145088751
6.64,1.0,67.45103097066377
6.648,1.0,67.30989302638588
6.656,1.0,67.1687376122872
6.664,1.0,67.02756472267589
6.672,1.0,66.88637435193466
6.68,0.9999999999999999,66.74516649452055
6.688,1.0,66.60394114496464
6.696,1.0,66.46269829787188
6.704,1.0,66.32143794792086
6.712,0.9999999999999999,66.18016008986349
6.72,1.0,66.03886471852493
6.728,1.0,65.89755182880317
6.736,1.0,65.75622141566895
6.744,1.0,65.61487347416546
6.752,1.0,65.47350799940818
6.76,1.0,65.33212498658456
6.768,1.0,65.19072443095392
6.776,0.9999999999999999,65.04930632784712
6.784,0.9999999999999999,64.90787067266638
6.792,1.0,64.76641746088512
6.8,1.0,64.62494668804767
6.808,1.0,64.48345834976904
6.816,1.0,64.34195244173485
6.824,0.9999999999999999,64.20042895970091
6.832,1.0,64.05888789949316
6.84,0.9999999999999999,63.917329257007445
6.848,1.0,63.77575302820923
6.856,1.0000000000000002,63.63415920913347
6.864,0.9999999999999999,63.492547795884384
6.872,1.0,63.350918784635255
6.88,1.0,63.20927217162817
6.888,1.0,63.06760795317392
6.896,1.0000000000000002,62.925926125651735
6.904,1.0,62.784226685509104
6.912,1.0,62.64250962926158
6.92,0.9999999999999999,62.500774953492545
6.928,1.0,62.35902265485312
6.936,0.9999999999999999,62.217252730061844
6.944,1.0,62.07546517590457
6.952,1.0,61.933659989234236
6.96,0.9999999999999999,61.791837166970694
6.968,1.0,61.649996706100545
6.976,1.0000000000000002,61.50813860367688
6.984,1.0,61.3662628568192
6.992,1.0,61.22436946271308
7.0,0.9999999999999998,61.082458418610194
7.008,1.0,60.94052972182796
7.016,1.0,60.79858336974944
7.024,1.0,60.65661935982313
7.032,0.9999999999999999,60.514637689562846
7.04,1.0,60.37263835654743
7.048,1.0,60.230621358420706
7.056,1.0,60.08858669289126
7.064,1.0,59.94653435773221
7.072,1.0,59.80446435078114
7.08,1.0,59.66237666993983
7.088,0.9999999999999999,59.52027131317417
7.096,1.0,59.37814827851396
7.104,1.0,59.23600756405274
7.112,1.0,59.09384916794762
7.12,0.9999999999999999,58.95167308841915
7.128,1.0,58.80947932375115
7.136,1.0,58.667267872290516
7.144,1.0,58.52503873244711
7.152,1.0,58.382791902693604
7.16,1.0,58.24052738156523
7.168,0.9999999999999999,58.09824516765979
7.176,1.0,57.95594525963733
7.184,1.0,57.81362765622013
7.192,1.0,57.67129235619247
7.2,1.0,57.528939358400514
7.208,0.9999999999999999,57.38656866175213
7.216,1.0,57.24418026521682
7.224,0.9999999999999999,57.10177416782549
7.232,1.0,56.95935036867033
7.24,0.9999999999999999,56.8169088669047
7.248,0.9999999999999999,56.67444966174296
7.256,1.0,56.53197275246035
7.264,0.9999999999999999,56.389478138392846
7.272,0.9999999999999999,56.246965818936985
7.28,1.0,56.10443579354981
7.288,1.0,55.96188806174866
7.296,1.0,55.81932262311106
7.304,1.0,55.67673947727459
7.312,1.0,55.534138623936784
7.32,0.9999999999999999,55.391520062854966
7.328,1.0,55.24888379384608
7.336,1.0,55.10622981678669
7.344,1.0,54.963558131612686
7.352,0.9999999999999999,54.82086873831934
7.36,1.0,54.67816163696098
7.368,1.0,54.535436827651104
7.376,0.9999999999999999,54.39269431056203
7.384,1.0,54.24993408592492
7.392,1.0,54.107156154029624
7.4,0.9999999999999999,53.96436051522453
7.4079999999999995,0.9999999999999999,53.82154716991652
7.416,1.0,53.67871611857073
7.4239999999999995,1.0,53.53586736171063
7.432,0.9999999999999999,53.39300089991768
7.4399999999999995,0.9999999999999999,53.25011673383142
7.448,0.9999999999999999,53.10721486414923
7.4559999999999995,1.0000000000000002,52.96429529162629
7.464,0.9999999999999999,52.82135801707542
7.4719999999999995,1.0,52.67840304136703
7.48,1.0,52.53543036542895
7.4879999999999995,1.0,52.39243999024642
7.496,0.9999999999999999,52.24943191686186
7.504,0.9999999999999999,52.10640614637487
7.5120000000000005,0.9999999999999999,51.963362679942065
7.52,1.0,51.82030151877707
7.5280000000000005,1.0,51.67722266415026
7.536,0.9999999999999999,51.534126117388844
7.5440000000000005,0.9999999999999999,51.391011879876615
7.552,1.0,51.24787995305397
7.5600000000000005,1.0,51.104730338417724
7.568,1.0,50.961563037521124
7.5760000000000005,1.0,50.8183780519736
7.584,1.0,50.67517538344088
7.5920000000000005,0.9999999999999999,50.531955033644664
7.6,1.0000000000000002,50.388717004362775
7.6080000000000005,1.0,50.24546129742884
7.616,1.0,50.10218791473247
7.6240000000000006,1.0,49.958896858218836
7.632,1.0,49.81558812988897
7.640000000000001,1.0,49.67226173179927
7.648,0.9999999999999999,49.52891766606188
7.656000000000001,0.9999999999999999,49.38555593484413
7.664,0.9999999999999999,49.24217654036885
7.672,1.0,49.09877948491402
7.68,0.9999999999999998,48.95536477081288
7.688,0.9999999999999999,48.811932400453735
7.696,1.0,48.66848237627993
7.704,1.0,48.525014700789754
7.712,1.0,48.381529376536385
7.72,1.0,48.238026406127844
7.728,1.0,48.09450579222681
7.736,1.0,47.950967537550724
7.744,0.9999999999999999,47.80741164487155
7.752,1.0,47.66383811701581
7.76,0.9999999999999999,47.52024695686449
7.768,1.0,47.376638167352986
7.776,1.0,47.23301175147098
7.784,0.9999999999999999,47.089367712262494
7.792,1.0,46.94570605282568
7.8,1.0,46.802026776312886
7.808,1.0,46.65832988593049
7.816,1.0,46.514615384938956
7.824,1.0,46.37088327665265
7.832,0.9999999999999999,46.227133564439875
7.84,1.0,46.08336625172278
7.848,1.0,45.93958134197728
7.856,1.0,45.79577883873304
7.864,1.0,45.65195874557342
7.872,1.0,45.50812106613538
7.88,0.9999999999999999,45.36426580410947
7.888,0.9999999999999999,45.22039296323978
7.896,1.0,45.076502547323855
7.904,1.0,44.932594560212614
7.912,0.9999999999999999,44.788669005810476
7.92,1.0,44.644725888075065
7.928,1.0,44.50076521101734
7.936,0.9999999999999999,44.35678697870151
7.944,0.9999999999999999,44.21279119524492
7.952,0.9999999999999999,44.068777864818124
7.96,1.0,43.924746991644724
7.968,1.0,43.78069858000141
7.976,0.9999999999999999,43.636632634217925
7.984,0.9999999999999999,43.49254915867692
7.992,1.0,43.34844815781403
8.0,1.0,43.20432963611779
8.008,0.9999999999999999,43.0601935981296
8.016,1.0,42.91604004844363
8.024000000000001,1.0,42.7718689917069
8.032,1.0,42.627680432619236
8.04,1.0,42.48347437593307
8.048,1.0,42.33925082645355
8.056000000000001,1.0,42.19500978903853
8.064,0.9999999999999999,42.050751268598496
8.072,0.9999999999999999,41.90647527009642
8.08,1.0,41.76218179854793
8.088000000000001,1.0000000000000002,41.61787085902114
8.096,0.9999999999999999,41.473542456636736
8.104,1.0,41.329196596567826
8.112,1.0,41.18483328403991
8.120000000000001,1.0,41.040452524331
8.128,1.0,40.89605432277152
8.136,0.9999999999999999,40.75163868474422
8.144,1.0,40.60720561568414
8.152000000000001,1.0,40.46275512107876
8.16,1.0,40.31828720646784
8.168,1.0,40.17380187744335
8.176,0.9999999999999999,40.029299139649574
8.184000000000001,1.0,39.88477899878305
8.192,1.0,39.740241460592536
8.2,1.0,39.595686530878986
8.208,1.0,39.45111421549547
8.216000000000001,0.9999999999999999,39.30652452034733
8.224,1.0,39.16191745139206
8.232,1.0000000000000002,39.01729301463921
8.24,1.0,38.872651216150466
8.248000000000001,1.0,38.72799206203971
8.256,1.0,38.58331555847286
8.264,0.9999999999999999,38.438621711667885
8.272,1.0,38.29391052789482
8.280000000000001,0.9999999999999998,38.149182013475844
8.288,1.0,38.00443617478515
8.296,1.0,37.85967301824891
8.304,1.0,37.71489255034535
8.312,1.0,37.57009477760477
8.32,1.0,37.42527970660939
8.328,0.9999999999999998,37.28044734399353
8.336,0.9999999999999999,37.135597696443405
8.344,0.9999999999999999,36.990730770697304
8.352,1.0000000000000002,36.84584657354543
8.36,1.0,36.70094511183007
8.368,0.999999987413497,36.55602639244534
8.376,0.9999999651070401,36.411090422337466
8.384,0.9999999435721024,36.26613720850453
8.392,0.9999999228221562,36.12116675799667
8.4,0.9999999028705893,35.9761790779159
8.408,0.9999998837307034,35.83117417541628
8.416,0.9999998654157125,35.686152057703744
8.424,0.9999998479387421,35.541112732036275
8.432,0.9999998313128268,35.39605620572371
8.44,0.9999998155509084,35.25098248612801
8.448,0.9999998006658359,35.1058915806629
8.456,0.9999997866703616,34.96078349679422
8.464,0.9999997735771416,34.815658242039675
8.472,0.9999997613987337,34.67051582396904
8.48,0.9999997501475949,34.52535625020395
8.488,0.9999997398360814,34.38017952841813
8.496,0.9999997304764457,34.23498566633716
8.504,0.9999997220808368,34.08977467173875
8.512,0.9999997146612967,33.94454655245246
8.52,0.9999997082297606,33.79930131635996
8.528,0.9999997027980535,33.654038971394826
8.536,0.9999996983778929,33.508759525542764
8.544,0.9999996949808824,33.363462986841334
8.552,0.999999692618512,33.218149363380306
8.56,0.9999996913021594,33.07281866330131
8.568,0.9999996910430844,32.92747089479817
8.576,0.9999996918524305,32.782106066116604
8.584,0.9999996937412227,32.63672418555457
8.592,0.9999996967203655,32.491325261461924
8.6,0.9999997008006427,32.345909302240734
8.608,0.9999997059927153,32.20047631634507
8.616,0.9999997123071205,32.05502631228118
8.624,0.9999997197542704,31.90955929860733
8.632,0.9999997283444505,31.764075283934023
8.64,0.9999997380878191,31.618574276923805
8.648,0.9999997489944051,31.47305628629147
8.656,0.9999997610741082,31.32752132080387
8.664,0.9999997743366954,31.181969389280123
8.672,0.9999997887918024,31.03640050059147
8.68,0.9999998044489309,30.890814663661434
8.688,0.9999998213174475,30.745211887465647
8.696,0.9999998394065832,30.599592181032136
8.704,0.9999998587254314,30.45395555344101
8.712,0.9999998792829476,30.30830201382478
8.72,0.999999901087948,30.16263157136812
8.728,0.9999999241491083,30.01694423530814
8.736,0.9999999484749621,29.871240014934127
8.744,0.9999999740739017,29.725518919587802
8.752,1.0,29.579780958663143
8.76,1.0,29.434026141606612
8.768,1.0,29.28825447791691
8.776,1.0,29.142465977145296
8.784,1.0,28.996660648895297
8.792,1.0,28.850838502823017
8.8,1.0,28.704999548636877
8.808,0.9999999999999999,28.559143796097914
8.815999999999999,0.9999999999999999,28.413271255019566
8.824,1.0,28.267381935267768
8.832,0.9999999999999999,28.12147584676106
8.84,1.0,27.97555299947056
8.847999999999999,0.9999999999999999,27.829613403419838
8.856,0.9999999999999999,27.683657068685125
8.864,0.9999999999999999,27.53768400539528
8.872,1.0,27.39169422373182
8.879999999999999,1.0,27.24568773392883
8.888,1.0,27.099664546273104
8.896,1.0,26.953624671104183
8.904,0.9999999999999999,26.80756811881432
8.911999999999999,1.0,26.661494899848435
8.92,0.9999999999999999,26.515405024704247
8.928,0.9999999999999999,26.369298503932267
8.936,0.9999999999999999,26.223175348135864
8.943999999999999,0.9999999999999999,26.077035567971144
8.952,1.0,25.930879174147034
8.96,1.0,25.78470617742547
8.968,1.0,25.63851658862122
8.975999999999999,1.0,25.49231041860189
8.984,1.0000000000000002,25.346087678288104
8.992,1.0,25.19984837865342
9.0,1.0,25.053592530724437
9.008,1.0,24.90732014558067
9.016,0.9999999999999999,24.76103123435468
9.024000000000001,0.9999999999999999,24.61472580823212
9.032,1.0,24.468403878451735
9.04,0.9999999999999999,24.3220654563053
9.048,1.0,24.1757105531377
9.056000000000001,0.9999999999999999,24.029339180347026
9.064,1.0,23.882951349384555
9.072,0.9999999999999999,23.736547071754668
9.08,0.9999999999999999,23.59012635901496
9.088000000000001,0.9999999999999999,23.443689222776328
9.096,0.9999999999999999,23.297235674702918
9.104,1.0,23.15076572651211
9.112,1.0,23.004279389974563
9.120000000000001,1.0,22.857776676914337
9.128,1.0,22.711257599208853
9.136,1.0,22.564722168788805
9.144,1.0,22.418170397638313
9.152000000000001,1.0,22.27160229779496
9.16,0.9999999999999999,22.12501788134978
9.168,0.9999999999999999,21.97841716044718
9.176,1.0,21.83180014728507
9.184000000000001,0.9999999999999999,21.685166854114936
9.192,0.9999999999999999,21.538517293241778
9.2,1.0,21.391851477024083
9.208,1.0,21.2451694178739
9.216000000000001,0.9999999999999999,21.09847112825697
9.224,0.9999999999999999,20.951756620692613
9.232,0.9999999999999999,20.805025907753734
9.24,1.0,20.65827900206689
9.248000000000001,1.0,20.511515916312426
9.256,0.9999999999999999,20.3647366632243
9.264,1.0,20.217941255590215
9.272,0.9999999999999999,20.07112970625157
9.280000000000001,1.0,19.924302028103593
9.288,1.0,19.777458234095302
9.296,0.9999999999999999,19.63059833722948
9.304,0.9999999999999999,19.483722350562676
9.312000000000001,0.9999999999999999,19.336830287205398
9.32,1.0,19.189922160321995
9.328,0.9999999999999999,19.042997983130647
9.336,1.0,18.896057768903415
9.344,0.9999999999999999,18.749101530966392
9.352,0.9999999999999999,18.602129282699494
9.36,0.9999999999999999,18.455141037536688
9.368,0.9999999999999999,18.30813680896582
9.376,1.0,18.161116610528833
9.384,1.0,18.01408045582159
9.392,1.0,17.867028358494075
9.4,0.9999999999999999,17.719960332250206
9.408,1.0,17.57287639084808
9.416,1.0,17.425776548099766
9.424,0.9999999999999998,17.278660817871554
9.432,1.0,17.131529214083685
9.44,1.0,16.984381750710693
9.448,1.0,16.83721844178111
9.456,1.0000000000000002,16.69003930137776
9.464,0.9999999999999999,16.542844343637498
9.472,1.0,16.395633582751508
9.48,1.0,16.24840703296503
9.488,1.0,16.101164708577656
9.496,1.0,15.953906623943086
9.504,1.0,15.806632793469369
9.512,0.9999999999999999,15.659343231618672
9.52,0.9999999999999999,15.512037952907582
9.528,1.0,15.364716971906825
9.536,1.0,15.21738030324151
9.544,1.0,15.070027961590961
9.552,1.0,14.922659961688911
9.56,1.0,14.775276318323284
9.568,1.0,14.62787704633646
9.576,0.9999999999999999,14.480462160625047
9.584,0.9999999999999999,14.333031676140099
9.592,1.0,14.185585607886894
9.6,0.9999999999999999,14.038123970925236
9.608,0.9999999999999999,13.890646780369126
9.616,1.0,13.743154051387092
9.624,1.0,13.59564579920191
9.632,0.9999999999999999,13.448122039090864
9.64,1.0,13.300582786385519
9.648,1.0,13.153028056471939
9.656,1.0000000000000002,13.005457864790499
9.664,1.0,12.857872226836074
9.672,1.0,12.710271158157829
9.68,1.0,12.562654674359479
9.688,1.0,12.41502279109902
9.696,0.9999999999999999,12.267375524088987
9.704,1.0,12.119712889096196
9.712,1.0,11.972034901942035
9.72,0.9999999999999999,11.824341578502157
9.728,1.0,11.676632934706769
9.736,0.9999999999999998,11.528908986540372
9.744,1.0,11.381169750041991
9.752,1.0,11.233415241304959
9.76,1.0,11.085645476477126
9.768,1.0,10.937860471760631
9.776,1.0,10.79006024341214
9.784,1.0,10.642244807742589
9.792,1.0,10.494414181117433
9.8,0.9999999999999999,10.346568379956384
9.808,1.0,10.198707420733664
9.816,1.0,10.050831319977734
9.824,0.9999999999999999,9.902940094271559
9.832,0.9999999999999999,9.75503376025232
9.84,0.9999999999999999,9.607112334611683
9.847999999999999,1.0,9.459175834095548
9.856,0.9999999999999999,9.311224275504143
9.864,0.9999999999999999,9.163257675692083
9.872,1.0,9.015276051568277
9.879999999999999,0.9999999999999999,8.867279420095867
9.888,1.0,8.719267798292275
9.896,1.0,8.57124120322925
9.904,1.0,8.42319965203279
9.911999999999999,0.9999999999999999,8.27514316188306
9.92,0.9999999999999999,8.127071750014455
9.928,0.9999999999999999,7.978985433715622
9.936,0.9999999999999999,7.830884230329408
9.943999999999999,1.0,7.682768157252751
9.952,1.0,7.534637231936736
9.96,1.0,7.3864914718866475
9.968,1.0,7.23833089466187
9.975999999999999,1.0,7.090155517875821
9.984,0.9999999999999999,6.941965359195967
9.992,0.9999999999999999,6.79376043634389
10.0,0.9999999999999998,6.645540767095188
10.008,1.0,6.497306369279389
10.016,1.0,6.34905726077999
10.024000000000001,0.9999999999999999,6.200793459534487
10.032,1.0,6.052514983534304
10.04,1.0,5.904221850824685
10.048,1.0,5.755914079504726
10.056000000000001,0.9999999999999998,5.607591687727429
10.064,0.9999999999999999,5.4592546936995925
10.072,1.0,5.310903115681719
10.08,1.0,5.162536971988048
10.088000000000001,1.0,5.014156280986603
10.096,1.0,4.865761061099059
10.104,1.0,4.717351330800682
10.112,1.0,4.568927108620327
10.120000000000001,1.0000000000000002,4.420488413140499
10.128,1.0,4.272035262997217
10.136,0.9999999999999999,4.123567676879936
10.144,0.9999999999999999,3.975085673531563
10.152000000000001,0.9999999999999999,3.826589271748486
10.16,1.0,3.678078490380469
10.168,0.9999999999999999,3.5295533483305412
10.176,0.9999999999999999,3.3810138645550243
10.184000000000001,0.9999999999999999,3.2324600580635487
10.192,1.0,3.083891947918959
10.2,0.9999999999999999,2.9353095532371856
10.208,1.0,2.78671289318727
10.216000000000001,0.9999999999999999,2.6381019869913978
10.224,0.9999999999999999,2.4894768539247574
10.232,0.9999999999999999,2.3408375133154538
10.24,1.0,2.192183984544505
10.248000000000001,0.9999999999999999,2.043516287045876
10.256,1.0,1.8948344403063302
10.264,0.9999999999999998,1.746138463865351
10.272,1.0,1.5974283773151239
