freq,mag,phase
6.0,0.9999989185518484,61.25047574686706
6.008,0.9999994577926694,61.0604972519052
6.016,0.9999999777822254,60.87040275318057
6.024,0.9999999999999999,60.68019220967178
6.032,0.9999999999999999,60.489865581213856
6.04,1.0,60.29942282850234
6.048,1.0,60.10886391309744
6.056,1.0,59.91818879742811
6.064,1.0,59.72739744479621
6.072,0.9999999999999999,59.53648981938058
6.08,1.0,59.34546588624109
6.088,1.0,59.15432561132284
6.096,1.0,58.96306896146018
6.104,1.0,58.77169590438082
6.112,0.9999999999999999,58.58020640870987
6.12,1.0,58.38860044397395
6.128,0.9999999999999999,58.19687798060521
6.136,1.0,58.00503898994547
6.144,1.0,57.81308344425019
6.152,1.0,57.62101131669253
6.16,1.0,57.428822581367434
6.168,1.0,57.236517213295606
6.176,0.9999999999999999,57.04409518842758
6.184,0.9999999999999999,56.851556483647705
6.192,1.0,56.65890107677815
6.2,0.9999999999999999,56.466128946582934
6.208,1.0,56.273240072771856
6.216,1.0,56.08023443600464
6.224,1.0,55.88711201789466
6.232,1.0,55.69387280101313
6.24,1.0,55.50051676889296
6.248,1.0,55.30704390603269
6.256,0.9999999999999999,55.113454197900516
6.264,0.9999999999999999,54.919747630938126
6.272,0.9999999999999999,54.725924192564705
6.28,1.0,54.531983871180735
6.288,0.9999999999999999,54.337926656172066
6.296,0.9999999999999999,54.143752537913656
6.304,0.9999999999999999,53.94946150777351
6.312,0.9999999999999999,53.755053558116586
6.32,1.0,53.56052868230858
6.328,1.0,53.3658868747198
6.336,1.0,53.1711281307291
6.344,1.0,52.976252446727564
6.352,1.0,52.7812598201224
6.36,0.9999999999999999,52.58615024934077
6.368,1.0,52.390923733833475
6.376,0.9999999999999999,52.19558027407888
6.384,1.0,52.00011987158655
6.392,1.0,51.804542528901095
6.4,1.0,51.608848249605884
6.408,1.0,51.41303703832675
6.416,1.0,51.217108900735774
6.424,0.9999999999999999,51.021063843554884
6.432,1.0,50.824901874559686
6.44,1.0,50.62862300258298
6.448,1.0,50.432227237518575
6.456,0.9999999999999999,50.23571459032483
6.464,1.0,50.03908507302834
6.472,1.0,49.842338698727545
6.48,0.9999999999999999,49.64547548159632
6.4879999999999995,1.0,49.448495436887626
6.496,1.0,49.251398580936915
6.504,1.0,49.05418493116599
6.5120000000000005,0.9999999999999999,48.85685450608621
6.52,1.0,48.659407325302325
6.5280000000000005,0.9999999999999999,48.461843409515666
6.536,1.0,48.26416278052804
6.5440000000000005,1.0,48.06636546124474
6.552,0.9999999999999999,47.86845147567849
6.5600000000000005,1.0,47.67042084895246
6.568,1.0,47.47227360730407
6.5760000000000005,0.9999999999999999,47.274009778088036
6.584,0.9999999999999999,47.075629389780126
6.592,0.9999999999999999,46.877132471980225
6.6,1.0,46.678519055415904
6.608,0.9999999999999999,46.47978917194566
6.616,1.0,46.28094285456227
6.624,1.0,46.081980137396066
6.632,1.0,45.882901055718264
6.64,0.9999999999999999,45.68370564594417
6.648,1.0,45.48439394563649
6.656,0.9999999999999999,45.28496599350851
6.664,1.0,45.0854218294273
6.672,0.9999999999999999,44.88576149441691
6.68,1.0,44.68598503066162
6.688,1.0,44.48609248150888
6.696,1.0,44.28608389147264
6.704,1.0,44.08595930623636
6.712,1.0,43.885718772656105
6.72,1.0,43.685362338763596
6.728,1.0,43.48489005376925
6.736,1.0,43.28430196806524
6.744,1.0,43.08359813322841
6.752,1.0,42.88277860202333
6.76,0.9999999999999999,42.68184342840521
6.768,1.0,42.4807926675228
6.776,0.9999999770167776,42.279626375721364
6.784,0.9999997657671059,42.07834461054545
6.792,0.999999554725239,41.876947430741915
6.8,0.9999993439827259,41.67543489626257
6.808,0.999999133629271,41.47380706826714
6.816,0.9999989237527471,41.27206400912598
6.824,0.9999987144392065,41.07020578242281
6.832,0.9999985057728952,40.868232452957535
6.84,0.9999982978362644,40.666144086748886
6.848,0.9999980907099847,40.46394075103716
6.856,0.9999978844729572,40.26162251428683
6.864,0.9999976792023273,40.05918944618919
6.872,0.9999974749734976,39.856641617665005
6.88,0.9999972718601394,39.653979100867076
6.888,0.9999970699342082,39.45120196918278
6.896,0.9999968692659535,39.248310297236614
6.904,0.9999966699239343,39.04530416089266
6.912,0.99999647197503,38.8421836372572
6.92,0.9999962754844555,38.63894880468095
6.928,0.9999960805157723,38.43559974276168
6.936,0.999995887130903,38.23213653234649
6.944,0.9999956953901432,38.02855925553425
6.952,0.9999955053521753,37.82486799567782
6.96,0.9999953170740811,37.62106283738658
6.968,0.9999951306113559,37.4171438665285
6.976,0.9999949460179207,37.21311117023244
6.984,0.9999947633461357,37.00896483689048
6.992,0.9999945826468131,36.80470495615997
7.0,0.9999944039692319,36.600331618965804
7.008,0.9999942273611484,36.39584491750253
7.016,0.9999940528688123,36.191244945236406
7.024,0.9999938805369777,35.98653179690753
7.032,0.9999937104089186,35.78170556853186
7.04,0.9999935425264399,35.576766357403244
7.048,0.9999933769298924,35.37171426209535
7.056,0.9999932136581855,35.16654938246373
7.064,0.9999930527488009,34.961271819647614
7.072,0.9999928942378057,34.755881676071894
7.08,0.9999927381598649,34.55037905544892
7.088,0.9999925845482571,34.34476406278033
7.096,0.9999924334348861,34.139036804358916
7.104,0.9999922848502943,33.93319738777025
7.112,0.9999921388236774,33.72724592189457
7.12,0.9999919953828966,33.52118251690833
7.128,0.9999918545544929,33.315007284285954
7.136,0.9999917163637,33.10872033680142
7.144,0.999991580834458,32.90232178852988
7.152,0.9999914479894271,32.6958117548492
7.16,0.9999913178500006,32.48919035244149
7.168,0.9999911904363196,32.28245769929459
7.176,0.9999910657672839,32.07561391470354
7.184,0.9999909438605693,31.86865911927202
7.192,0.9999908247326377,31.661593434913684
7.2,0.9999907083987524,31.454416984853538
7.208,0.9999905948729909,31.24712989362928
7.216,0.9999904841682592,31.039732287092534
7.224,0.9999903762963052,30.83222429241014
7.232,0.9999902712677303,30.624606038065327
7.24,0.9999901690920069,30.416877653858943
7.248,0.9999900697774874,30.209039270910463
7.256,0.9999899733314211,30.00109102165924
7.264,0.9999898797599663,29.7930330398655
7.272,0.9999897890682042,29.58486546061131
7.28,0.9999897012601517,29.376588420301687
7.288,0.9999896163387759,29.168202056665436
7.296,0.9999895343060075,28.959706508756113
7.304,0.9999894551627532,28.751101916952905
7.312,0.9999893789089106,28.54238842296144
7.32,0.9999893055433811,28.33356616981461
7.328,0.9999892350640831,28.124635301873287
7.336,0.9999891674679661,27.91559596482709
7.344,0.9999891027510232,27.706448305695062
7.352,0.9999890409083061,27.497192472826256
7.36,0.9999889819339366,27.2878286159004
7.368,0.9999889258211218,27.078356885928407
7.376,0.9999888725621665,26.86877743525297
7.384,0.9999888221484868,26.659090417548946
7.392,0.9999887745706235,26.44929598782386
7.4,0.9999887298182556,26.239394302418315
7.4079999999999995,0.9999886878802138,26.02938551900633
7.416,0.9999886487444934,25.819269796595574
7.4239999999999995,0.9999886123982676,25.60904729552788
7.432,0.9999885788279013,25.398718177479175
7.4399999999999995,0.9999885480189645,25.188282605459992
7.448,0.9999885199562447,24.977740743815275
7.4559999999999995,0.9999884946237605,24.767092758224887
7.464,0.9999884720047753,24.556338815703285
7.4719999999999995,0.9999884520818102,24.345479084599873
7.48,0.999988434836657,24.134513734598727
7.4879999999999995,0.9999884202503913,23.923442936718818
7.496,0.999988408303386,23.71226686331357
7.504,0.9999883989753244,23.500985688071076
7.5120000000000005,0.9999883922452125,23.28959958601357
7.52,0.999988388091393,23.078108733497544
7.5280000000000005,0.9999883864915583,22.866513308213108
7.536,0.9999883874227624,22.654813489184043
7.5440000000000005,0.9999883908614351,22.44300945676709
7.552,0.9999883967833939,22.231101392651894
7.5600000000000005,0.999988405163858,22.019089479860185
7.568,0.9999884159774601,21.806973902745675
7.5760000000000005,0.9999884291982601,21.594754846993133
7.584,0.999988444799757,21.382432499618183
7.5920000000000005,0.9999884627549028,21.17000704896629
7.6,0.9999884830361135,20.957478684712513
7.6080000000000005,0.9999885056152841,20.744847597860346
7.616,0.999988530463799,20.532113980741368
7.6240000000000006,0.9999885575525466,20.319278027014054
7.632,0.9999885868519296,20.10633993166332
7.640000000000001,0.99998861833188,19.893299890999202
7.648,0.9999886519618699,19.68015810265634
7.656000000000001,0.9999886877109244,19.46691476559256
7.664,0.9999887255476337,19.25357008008827
7.672,0.999988765440167,19.040124247745
7.68,0.9999888073562823,18.826577471484494
7.688,0.9999888512633409,18.612929955547497
7.696,0.9999888971283183,18.399181905492473
7.704,0.9999889449178168,18.1853335281944
7.712,0.9999889945980779,17.971385031843425
7.72,0.9999890461349937,17.757336625943534
7.728,0.9999890994941202,17.543188521311066
7.736,0.9999891546406873,17.32894093007335
7.744,0.999989211539613,17.114594065667138
7.752,0.9999892701555131,16.900148142837082
7.76,0.9999893304527153,16.685603377634116
7.768,0.9999893923952683,16.470959987413842
7.776,0.999989455946956,16.256218190834794
7.784,0.9999895210713078,16.041378207856713
7.792,0.9999895877316107,15.826440259738765
7.8,0.9999896558909208,15.611404569037688
7.808,0.9999897255120742,15.396271359605922
7.816,0.9999897965576998,15.181040856589659
7.824,0.9999898689902286,14.965713286426855
7.832,0.9999899427719072,14.750288876845204
7.84,0.999990017864808,14.534767856860086
7.848,0.9999900942308398,14.319150456772363
7.856,0.9999901718317605,14.10343690816629
7.864,0.9999902506291866,13.887627443907215
7.872,0.9999903305846053,13.67172229813935
7.88,0.9999904116593846,13.455721706283422
7.888,0.9999904938147849,13.23962590503429
7.896,0.9999905770119698,13.023435132358554
7.904,0.999990661212016,12.807149627492048
7.912,0.9999907463759246,12.59076963093734
7.92,0.999990832464632,12.374295384461146
7.928,0.9999909194390195,12.157727131091722
7.936,0.9999910072599246,11.941065115116189
7.944,0.9999910958881515,11.724309582077785
7.952,0.9999911852844802,11.507460778773153
7.96,0.9999912754096782,11.290518953249457
7.968,0.9999913662245101,11.073484354801568
7.976,0.9999914576897474,10.856357233969105
7.984,0.9999915497661785,10.639137842533486
7.992,0.9999916424146192,10.421826433514905
8.0,0.9999917355959229,10.204423261169259
8.008,0.9999918292709888,9.986928580985058
8.016,0.999991923400773,9.76934264968014
8.024000000000001,0.999992017946298,9.551665725198658
8.032,0.9999921128686619,9.333898066707693
8.04,0.9999922081290473,9.11603993459386
8.048,0.9999923036887328,8.898091590460004
8.056000000000001,0.9999923995090996,8.680053297121885
8.064,0.9999924955516428,8.461925318604651
8.072,0.9999925917779794,8.243707920139162
8.08,0.9999926881498582,8.025401368158555
8.088000000000001,0.9999927846291677,7.807005930294729
8.096,0.9999928811779463,7.588521875374545
8.104,0.9999929777583901,7.369949473416037
8.112,0.9999930743328622,7.151288995624736
8.120000000000001,0.9999931708639009,6.932540714389937
8.128,0.9999932673142287,6.713704903280747
8.136,0.9999933636467607,6.4947818370420505
8.144,0.9999934598246121,6.275771791590658
8.152000000000001,0.9999935558111082,6.05667504401136
8.16,0.999993651569791,5.837491872552786
8.168,0.9999937470644281,5.618222556623169
8.176,0.9999938422590208,5.398867376786277
8.184000000000001,0.9999939371178109,5.179426614757296
8.192,0.9999940316052905,4.959900553398462
8.2,0.9999941256862078,4.740289476714642
8.208,0.9999942193255764,4.520593669849058
8.216000000000001,0.9999943124886809,4.300813419078982
8.224,0.9999944051410864,4.080949011811154
8.232,0.9999944972486448,3.8610007365771724
8.24,0.9999945887775017,3.640968883029027
8.248000000000001,0.9999946796941043,3.42085374193458
8.256,0.999994769965209,3.2006556051727855
8.264,0.9999948595578865,2.980374765728904
8.272,0.9999949484395303,2.7600115176898163
8.280000000000001,0.9999950365778628,2.5395661562393075
8.288,0.9999951239409425,2.3190389776531113
8.296,0.9999952104971697,2.098430279293899
8.304,0.9999952962152941,1.8777403596064086
8.312,0.9999953810644194,1.6569695181125932
8.32,0.9999954650140126,1.4361180554062056
8.328,0.9999955480339063,1.2151862731480902
8.336,0.9999956300943087,0.994174474060632
8.344,0.9999957111658058,0.7730829619229401
8.352,0.9999957912193703,0.5519120415652096
8.36,0.9999958702263662,0.33066201886380536
8.368,0.999995948158554,0.10933320073551268
8.376,0.9999960249880961,-0.11207410486745212
8.384,0.9999961006875642,-0.33355958896330284
8.392,0.999996175229943,-0.5551229415457616
8.4,0.9999962485886346,-0.7767638515900153
8.408,0.9999963207374658,-0.998482007057897
8.416,0.9999963916506922,-1.22027709490393
8.424,0.999996461303002,-1.4421488010806092
8.432,0.9999965296695232,-1.6640968105445348
8.44,0.9999965967258257,-1.8861208072617965
8.448,0.9999966624479276,-2.108220474214189
8.456,0.9999967268122998,-2.3303954934046915
8.464,0.9999967897958687,-2.552645545863805
8.472,0.9999968513760226,-2.77497031165508
8.48,0.9999969115306145,-2.997369469881567
8.488,0.9999969702379663,-3.219842698691468
8.496,0.9999970274768732,-3.442389675284626
8.504,0.9999970832266075,-3.6650100759182895
8.512,0.9999971374669216,-3.88770357591371
8.52,0.9999971901780529,-4.110469849661982
8.528,0.9999972413407262,-4.333308570630737
8.536,0.9999972909361572,-4.556219411370073
8.544,0.9999973389460566,-4.779202043519326
8.552,0.9999973853526327,-5.002256137813112
8.56,0.999997430138594,-5.225381364088183
8.568,0.9999974732871539,-5.448577391289536
8.576,0.9999975147820308,-5.671843887477393
8.584,0.9999975546074535,-5.8951805198333735
8.592,0.9999975927481626,-6.118586954667561
8.6,0.9999976291894126,-6.342062857424778
8.608,0.9999976639169753,-6.565607892691746
8.616,0.9999976969171417,-6.789221724203423
8.624,0.9999977281767239,-7.012904014850255
8.632,0.9999977576830571,-7.236654426684627
8.64,0.999997785424003,-7.460472620928159
8.648,0.999997811387949,-7.684358257978278
8.656,0.9999978355638125,-7.908310997415585
8.664,0.9999978579410411,-8.132330498010502
8.672,0.9999978785096147,-8.356416417730733
8.68,0.9999978972600462,-8.580568413747999
8.688,0.9999979141833837,-8.804786142445574
8.696,0.9999979292712112,-9.029069259425096
8.704,0.9999979425156501,-9.25341741951421
8.712,0.999997953909359,-9.47783027677343
8.72,0.9999979634455356,-9.702307484503883
8.728,0.9999979711179178,-9.926848695254249
8.736,0.9999979769207827,-10.15145356082858
8.744,0.9999979808489489,-10.37612173229333
8.752,0.9999979828977756,-10.600852859985222
8.76,0.9999979830631637,-10.825646593518405
8.768,0.9999979813415556,-11.050502581792362
8.776,0.9999979777299355,-11.275420472999153
8.784,0.9999979722258288,-11.500399914631423
8.792,0.9999979648273026,-11.72544055348968
8.8,0.9999979555329658,-11.9505420356904
8.808,0.9999979443419665,-12.175704006673412
8.815999999999999,0.9999979312539953,-12.400926111209968
8.824,0.9999979162692809,-12.626207993410478
8.832,0.9999978993885918,-12.851549296732244
8.84,0.9999978806132348,-13.076949663987449
8.847999999999999,0.9999978599450541,-13.302408737351199
8.856,0.9999978373864297,-13.52792615836939
8.864,0.999997812940277,-13.753501567966623
8.872,0.9999977866100461,-13.979134606454316
8.879999999999999,0.9999977583997193,-14.204824913538904
8.888,0.9999977283138094,-14.430572128329837
8.896,0.9999976963573598,-14.656375889347627
8.904,0.9999976625359422,-14.882235834532112
8.911999999999999,0.9999976268556527,-15.108151601250807
8.92,0.9999975893231136,-15.334122826306979
8.928,0.999997549945469,-15.560149145947896
8.936,0.9999975087303827,-15.786230195873214
8.943999999999999,0.9999974656860376,-16.012365611243396
8.952,0.999997420821132,-16.238555026688005
8.96,0.9999973741448773,-16.464798076314036
8.968,0.9999973256669964,-16.69109439371441
8.975999999999999,0.9999972753977202,-16.917443611976584
8.984,0.9999972233477852,-17.14384536369093
8.992,0.9999971695284315,-17.370299280959163
9.0,0.9999971139513985,-17.596804995403033
9.008,0.9999970566289225,-17.823362138172993
9.016,0.9999969975737346,-18.049970339956715
9.024000000000001,0.9999969367990551,-18.276629230987673
9.032,0.9999968743185935,-18.50333844105388
9.04,0.999996810146542,-18.730097599506752
9.048,0.9999967442975741,-18.956906335269675
9.056000000000001,0.9999966767868399,-19.183764276846752
9.064,0.9999966076299629,-19.410671052331626
9.072,0.9999965368430364,-19.637626289416435
9.08,0.9999964644426188,-19.86462961540056
9.088000000000001,0.999996390445731,-20.09168065719938
9.096,0.999996314869851,-20.318779041353306
9.104,0.9999962377329105,-20.545924394036746
9.112,0.9999961590532909,-20.773116341067034
9.120000000000001,0.9999960788498179,-21.00035450791325
9.128,0.9999959971417581,-21.227638519705348
9.136,0.9999959139488145,-21.45496800124326
9.144,0.9999958292911213,-21.682342577005876
9.152000000000001,0.9999957431892394,-21.909761871159986
9.16,0.9999956556641524,-22.137225507569507
9.168,0.9999955667372601,-22.36473310980468
9.176,0.999995476430375,-22.592284301151135
9.184000000000001,0.9999953847657178,-22.819878704618922
9.192,0.9999952917659101,-23.04751594295184
9.2,0.9999951974539711,-23.275195638636706
9.208,0.9999951018533116,-23.502917413912524
9.216000000000001,0.999995004987729,-23.73068089077962
9.224,0.9999949068814014,-23.95848569100898
9.232,0.9999948075588823,-24.186331436151686
9.24,0.9999947070450953,-24.41421774754813
9.248000000000001,0.9999946053653285,-24.642144246337203
9.256,0.9999945025452279,-24.870110553465768
9.264,0.9999943986107926,-25.09811628969814
9.272,0.9999942935883683,-25.326161075625347
9.280000000000001,0.999994187504642,-25.55424453167447
9.288,0.9999940803866348,-25.782366278118104
9.296,0.9999939722616968,-26.010525935083972
9.304,0.9999938631575014,-26.238723122564213
9.312000000000001,0.9999937531020371,-26.466957460424805
9.32,0.9999936421236036,-26.695228568415104
9.328,0.9999935302508034,-26.92353606617751
9.336,0.9999934175125366,-27.15187957325682
9.344,0.9999933039379938,-27.38025870910963
9.352,0.99999318955665,-27.608673093114298
9.36,0.9999930743982577,-27.837122344579978
9.368,0.99999295849284,-28.065606082756734
9.376,0.9999928418706843,-28.294123926844602
9.384,0.9999927245623347,-28.52267549600372
9.392,0.999992606598587,-28.751260409363404
9.4,0.9999924880104791,-28.979878286032307
9.408,0.9999923688292859,-29.208528745107536
9.416,0.999992249086512,-29.437211405684824
9.424,0.9999921288138839,-29.66592588686766
9.432,0.9999920080433435,-29.894671807777478
9.44,0.9999918868070412,-30.123448787562875
9.448,0.999991765137327,-30.352256445409715
9.456,0.9999916430667459,-30.58109440055039
9.464,0.9999915206280274,-30.80996227227405
9.472,0.9999913978540816,-31.038859679935758
9.48,0.9999912747779878,-31.267786242966746
9.488,0.9999911514329911,-31.49674158088372
9.496,0.9999910278524916,-31.72572531329892
9.504,0.9999909040700387,-31.954737059929588
9.512,0.9999907801193227,-32.18377644060809
9.52,0.999990656034168,-32.41284307529121
9.528,0.9999905318485239,-32.64193658407039
9.536,0.9999904075964586,-32.8710565871811
9.544,0.9999902833121503,-33.100202705012975
9.552,0.9999901590298794,-33.329374558119255
9.56,0.9999900347840224,-33.55857176722697
9.568,0.999989910609041,-33.78779395324626
9.576,0.9999897865394768,-34.01704073728063
9.584,0.9999896626099429,-34.24631174063641
9.592,0.9999895388551144,-34.475606584832796
9.6,0.9999894153097233,-34.70492489161146
9.608,0.999989292008547,-34.934266282946595
9.616,0.9999891689864034,-35.163630381054375
9.624,0.9999890462781411,-35.39301680840325
9.632,0.9999889239186319,-35.62242518772324
9.64,0.9999888019427627,-35.8518551420162
9.648,0.9999886803854275,-36.081306294565245
9.656,0.9999885592815189,-36.31077826894496
9.664,0.9999884386659205,-36.54027068903084
9.672,0.9999883185734983,-36.76978317900944
9.68,0.9999881990390933,-36.99931536338784
9.688,0.9999880800975118,-37.22886686700387
9.696,0.9999879617835195,-37.458437315035454
9.704,0.9999878441318312,-37.68802633301093
9.712,0.9999877271771036,-37.91763354681834
9.72,0.9999876109539274,-38.147258582715686
9.728,0.9999874954968185,-38.376901067340356
9.736,0.9999873808402094,-38.606560627719304
