freq,mag,phase
6.0,1.0000581734207097,103.29015423858829
6.002285568,1.0004000666361759,103.15170428415561
6.004571648,1.0007161887249234,103.0085342698057
6.006857216,1.000986648607742,102.86116478951068
6.009142784,1.0011941507384166,102.71036221073271
6.011428352,1.0013256587008885,102.55711363075832
6.013714432,1.0013727667085008,102.40264744559923
6.016,1.0013324890471145,102.24813209928749
6.018285568,1.0012075341851192,102.09486559208793
6.020571648,1.0010054366025556,101.94398783243793
6.022857216,1.0007393715373354,101.79656302403892
6.025142784,1.0004257889450663,101.65335896663085
6.027428352,1.0000846769498228,101.51498704093176
6.029714432,0.9997375974263362,101.38160907421103
6.032,0.9994066486246235,101.25322229298595
6.034285568,0.9991128238830521,101.12941768111615
6.036571648,0.9988747592085626,101.00954143995783
6.038857216,0.9987077086915812,100.89266522542522
6.041142784,0.9986221997944731,100.77765987787464
6.043428352,0.9986238988234291,100.6632913578507
6.045714432,0.9987124928568468,100.54833698083375
6.048,0.9988824396038233,100.43151506674617
6.050285568,0.9991229832710963,100.3117312849021
6.052571648,0.9994188884313425,100.188086348003
6.054857216,0.9997513340747025,100.0598966796705
6.057142784,1.0000989810909373,99.92679386394498
6.059428352,1.0004402213131716,99.78870398535888
6.061714432,1.000752995122029,99.64592667481492
6.064,1.001017779911288,99.49896450939123
6.066285568,1.0012177139042904,99.34866910017874
6.068571648,1.001339966575886,99.19609678956833
6.070857216,1.0013771946335701,99.0423832996377
6.073142784,1.0013267205213698,98.88878861830132
6.075428352,1.001191717792563,98.73659348546789
6.077714432,1.0009808229338335,98.58693583362984
6.08,1.000707219020884,98.44081860733229
6.082285568,1.0003881954394427,98.29901907682898
6.084571648,1.0000442158097278,98.16207965627116
6.086857216,0.9996967419093303,98.03023229085665
6.089142784,0.9993679598191285,97.90330548219362
6.091428352,0.9990787539397624,97.78092495134689
6.093714432,0.998847551772049,97.66238882352827
6.096,0.9986890841400587,97.54673023044234
6.098285568,0.9986133658961994,97.43280474048088
6.100571648,0.9986252630816671,97.31937937161565
6.102857216,0.9987242543237286,97.20518060918889
6.105142784,0.9989037432497482,97.0890149061384
6.107428352,0.9991526000112195,96.96973274525827
6.109714432,0.9994547853883413,96.84647642127574
6.112,0.9997912329598226,96.71859184853673
6.114285568,1.0001405336640798,96.5857422514169
6.116571648,1.0004806194411835,96.44793640841027
6.118857216,1.0007898193636986,96.30545801940843
6.121142784,1.0010486560353316,96.1588650610006
6.123428352,1.0012405758688874,96.0090661007103
6.125714432,1.001353619057375,95.85703348819852
6.128,1.0013805379298968,95.70406038510201
6.130285568,1.001319586320348,95.55136110222425
6.132571648,1.0011746124576806,95.40015909390723
6.134857216,1.0009547496002755,95.25164810433091
6.137142784,1.0006739377950622,95.10679603215128
6.139428352,1.0003497593292394,94.96636877421294
6.141714432,1.0000029325432036,94.83083565802335
6.144,0.9996554313859171,94.70038561193077
6.146285568,0.9993291547871143,94.57487118048924
6.148571648,0.9990450528499171,94.45386332821582
6.150857216,0.9988209691800736,94.33656312597547
6.153142784,0.998671423832112,94.22204877916154
6.155428352,0.9986057597336532,94.1091189015267
6.157714432,0.998628217691741,93.99656285836224
6.16,0.9987374153864108,93.88307342610965
6.162285568,0.9989265548392998,93.76740971685857
6.164571648,0.9991834742550596,93.64855395630764
6.166857216,0.9994918728798367,93.52559925048975
6.169142784,0.9998321289583585,93.39796988334471
6.171428352,1.0001827561156769,93.26531698482096
6.173714432,1.0005213449083334,93.12766843250762
6.176,1.0008265223548354,92.98543490122252
6.178285568,1.0010789807744802,92.83911317314235
6.180571648,1.001262700865403,92.68971907192973
6.182857216,1.0013660683200838,92.53823928736084
6.185142784,1.0013824963157936,92.38592039139039
6.187428352,1.0013110848063762,92.23402547827158
6.189714432,1.0011560598569884,92.08381050369194
6.192,1.0009271822928094,91.93640387389443
6.194285568,1.0006391652859177,91.79276859440147
6.196571648,1.000310190445406,91.65362501552333
6.198857216,0.9999608462833115,91.51947005328746
6.201142784,0.999613506720427,91.39038622318748
6.203428352,0.9992901645180182,91.26622615634862
6.205714432,0.9990113600340409,91.14648972109202
6.208,0.998794835515966,91.03039942244607
6.210285568,0.9986544551150409,90.91693645717595
6.212571648,0.9985990670971104,90.80492316715947
6.214857216,0.9986323059076493,90.69311482374295
6.217142784,0.9987520689294594,90.58022377512057
6.219428352,0.9989506641926446,90.46505311001569
6.221714432,0.9992155770613128,90.34650650587622
6.224,0.9995300104964491,90.22376344101819
6.226285568,0.9998738575088245,90.09627147259327
6.228571648,1.0002253867881827,89.96372719529212
6.230857216,1.00056226293633,89.82622657014036
6.233142784,1.0008630254743007,89.68413515873007
6.235428352,1.0011089940779712,89.53807853241891
6.237714432,1.0012840754869294,89.38898633089356
6.24,1.0013775695810558,89.23799194780243
6.242285568,1.0013833155763372,89.08630455496655
6.244571648,1.0013011083832133,88.93518617664887
6.246857216,1.0011359992229583,88.78587884490832
6.249142784,1.000898346303629,88.63950936277608
6.251428352,1.0006033942609076,88.49704660369511
6.253714432,1.0002695993466728,88.35916935596167
6.256,0.9999182003136409,88.2263138903812
6.258285568,0.9995713838133453,88.09854539713702
6.260571648,0.9992512258794711,87.97565804614436
6.262857216,0.9989782644895998,87.85715354806553
6.265142784,0.9987694578364482,87.74215607849212
6.267428352,0.9986386508481824,87.62967096374835
6.269714432,0.9985936723811798,87.51849296063206
6.272,0.9986378462111736,87.40736781390255
6.274285568,0.9987681867499777,87.29501514361807
6.276571648,0.9989762991286122,87.18019779290482
6.278857216,0.9992491803750708,87.06189086449302
6.281142784,0.9995693026348806,86.93928781286058
6.283428352,0.9999164396221474,86.81185249905072
6.285714432,1.000268707027193,86.67936612181192
6.288,1.0006034213090937,86.541903581674
6.290285568,1.0008996423905807,86.399852863838
6.292571648,1.0011383662947604,86.25399637462964
6.294857216,1.0013047085333084,86.10520187205206
6.297142784,1.0013879513500419,85.95460504036315
6.299428352,1.0013828591265508,85.80351134309102
6.301714432,1.0012898498385323,85.65310367110165
6.304,1.0011145886594621,85.50467672540819
6.306285568,1.0008682716090407,85.35934352015582
6.308571648,1.0005663827910452,85.21798324953319
6.310857216,1.000228071929099,85.0813016480394
6.313142784,0.9998746909373628,84.9496876322346
6.315428352,0.9995288300093221,84.82318785062168
6.317714432,0.9992123579319605,84.70150271929815
6.32,0.9989453794933316,84.58411012874255
6.322285568,0.9987448064263346,84.4701727191552
6.324571648,0.9986236087673025,84.35861507689046
6.326857216,0.9985895584874641,84.24820739443807
6.329142784,0.9986446892216426,84.1376420657307
6.331428352,0.9987856286603637,84.02571698780027
6.333714432,0.9990033306743087,83.91117938270027
6.336,0.9992839189065488,83.79301432757795
6.338285568,0.9996096873183398,83.67046612257504
6.340571648,0.9999599267491581,83.54302287999501
6.342857216,1.0003124493434687,83.41050114502671
6.345142784,1.0006447787756856,83.27301823853732
6.347428352,1.0009357752261885,83.13101538349107
6.349714432,1.0011672727853336,82.98524266221422
6.352,1.0013243427309908,82.83668715509326
6.354285568,1.0013971736614582,82.6864854960973
6.356571648,1.0013811225458085,82.53588726981565
6.358857216,1.0012771346321405,82.38617003088987
6.361142784,1.001091797500734,82.23856897922562
6.363428352,1.0008368041525122,82.09418733800523
6.365714432,1.000528223117911,81.95392196277326
6.368,1.0001856985316318,81.81837556065744
6.370285568,0.9998307863103449,81.68792479382452
6.372571648,0.999486125841992,81.56261863532383
6.374857216,0.9991735537383486,81.44209485271334
6.377142784,0.998912955076822,81.32581093476297
6.379428352,0.9987210420410011,81.21281116592199
6.381714432,0.9986099329926895,81.10206911128496
6.384,0.9985866886480711,80.99232697693535
6.386285568,0.9986528634124837,80.88230905126676
6.388571648,0.998804338762199,80.77069390393778
6.390857216,0.9990315251959629,80.65636180687649
6.393142784,0.999319817704865,80.53828849056603
6.395428352,0.9996509644968721,80.41571154911745
6.397714432,1.0000040086636053,80.28816396770496
6.4,1.000356334898229,80.15552877641443
6.402285568,1.0006858909671643,80.01794149236578
6.404571648,1.0009715128543752,79.87590027476935
6.406857216,1.001195278791549,79.73020288433116
6.409142784,1.0013428986838946,79.58182226870389
6.411428352,1.0014051018799517,79.43193327750652
6.413714432,1.001377915414574,79.28181649478113
6.416,1.0012630153665223,79.13273202135422
6.418285568,1.0010675242302685,78.98591472726713
6.420571648,1.000804014499993,78.84245830820097
6.422857216,1.0004890565072535,78.70322512877993
6.425142784,1.0001424586606964,78.5687712947803
6.427428352,0.9997863288788561,78.43947804156673
6.429714432,0.9994432875507901,78.31530000253389
6.432,0.9991350995389388,78.19586149982544
6.434285568,0.998881288304359,78.0805654143316
6.436571648,0.9986981146858802,77.96848097480927
6.438857216,0.9985972611090684,77.85844525296858
6.441142784,0.9985851849446203,77.7493044412311
6.443428352,0.9986627027014517,77.63968347229329
6.445714432,0.9988247868709071,77.52833120495825
6.448,0.9990612831825232,77.41411788307882
6.450285568,0.9993570379119333,77.29601268978904
6.452571648,0.9996933061254162,77.17334021907125
6.454857216,1.000048778667319,77.04562954294732
6.457142784,1.0004007710853309,76.91280813341804
6.459428352,1.0007270912164385,76.77506842572278
6.461714432,1.001006978843745,76.6329362713544
6.464,1.00122261641179,76.48724249206523
6.466285568,1.001360485335306,76.33898895494963
6.468571648,1.0014118746933445,76.1893649520122
6.470857216,1.001373356814139,76.03968691501194
6.473142784,1.0012473522791085,75.89118350472933
6.475428352,1.001042027562415,75.74512601249232
6.477714432,1.0007700276977987,75.6025393299123
6.48,1.000448774338937,75.46426266047459
6.482285568,1.0000985420507134,75.33088585559003
6.484571648,0.9997415575299117,75.2026783529898
6.486857216,0.999400422768795,75.07953190950649
6.489142784,0.9990967999077291,74.96115003116047
6.491428352,0.9988502744151571,74.84678352166286
6.493714432,0.9986760981564947,74.7354840323575
6.496,0.9985858769533865,74.6261437368338
6.498285568,0.998585027691748,74.51749909895115
6.500571648,0.998673846413089,74.40819304916823
6.502857216,0.998846528438396,74.29703963046822
6.505142784,0.9990922505069854,74.18283514972772
6.507428352,0.9993953311411666,74.06464983708024
6.509714432,0.9997364058812086,73.94178076286877
6.512,1.0000940341844287,73.8138418067946
6.514285568,1.0004453010229464,73.68075409639692
6.516571648,1.000768082256647,73.54279867643292
6.518857216,1.0010417797643492,73.40051888020373
6.521142784,1.0012491323462438,73.25475430479474
6.523428352,1.0013769117560858,73.10657939201728
6.525714432,1.001417260083475,72.95720805403481
6.528,1.0013673201154734,72.80789801491676
6.530285568,1.001230344237924,72.65995607303263
6.532571648,1.0010149899711793,72.51458643521816
6.534857216,1.0007347458456102,72.37281291239087
6.537142784,1.0004074911868621,72.23548078728604
6.539428352,1.0000538031505932,72.10309087513988
6.541714432,0.999696323047544,71.97589276159025
6.544,0.9993574108656039,71.85379997921261
6.546285568,0.9990590002576469,71.73633734991061
6.548571648,0.9988198032500902,71.622829623662
6.550857216,0.9986551987157233,71.5122717227954
6.553142784,0.9985756302338827,71.40352205295117
6.555428352,0.9985861696461489,71.29529148507191
6.557714432,0.9986863314478917,71.18629268638519
6.56,0.9988696913494932,71.07520718264453
6.562285568,0.9991244851520501,70.96092072080177
6.564571648,0.9994346088668108,70.84256996420217
6.566857216,0.9997803293918136,70.71942788290795
6.569142784,1.0001397334007789,70.59117653962429
6.571428352,1.0004898491052736,70.45777255380537
6.573714432,1.0008087748615333,70.31953111461375
6.576,1.0010759430439855,70.17705052830749
6.578285568,1.001274596846351,70.03117061163407
6.580571648,1.0013922334122676,69.88303462221175
6.582857216,1.0014212350913168,69.7338349376154
6.585142784,1.0013597954473292,69.58487770870333
6.587428352,1.0012118182097558,69.43742469302109
6.589714432,1.0009866292724252,69.29272493489424
6.592,1.0006982555186865,69.15174619900382
6.594285568,1.0003653018469354,69.01528375993433
6.596571648,1.0000085861470007,68.88385661619132
6.598857216,0.9996508241613226,68.75761315172556
6.601142784,0.9993146224195796,68.6364673596566
6.603428352,0.9990215849395379,68.51989787792814
6.605714432,0.9987901438186663,68.40717802233291
6.608,0.9986352854676738,68.29727798760108
6.610285568,0.9985666112617634,68.18903640834466
6.612571648,0.9985887954761172,68.08114054566167
6.614857216,0.9987003455180846,67.97227608862156
6.617142784,0.9988941818453874,67.86120669440584
6.619428352,0.9991579130737629,67.74681347182882
6.621714432,0.9994748485725007,67.62819224104942
6.624,0.9998248976354104,67.50471886222823
6.626285568,1.000185769550999,67.37607946109324
6.628571648,1.0005344841237294,67.24229210056775
6.630857216,1.000849040000008,67.10371501049651
6.633142784,1.0011093910163569,66.96095634909891
6.635428352,1.0012991450177462,66.81495111125196
6.637714432,1.0014061847945777,66.66678384056304
6.64,1.0014238675147604,66.51770816750346
6.642285568,1.0013508295630247,66.36904378916095
6.644571648,1.001191927572362,66.22209954001815
6.646857216,1.0009568384157734,66.07797361676684
6.649142784,1.0006607379003691,65.93774556981306
6.651428352,1.0003221760932288,65.80212036825138
6.653714432,0.9999627652358557,65.67156375181573
6.656,0.9996051138003501,65.5462570876385
6.658285568,0.9992720432868271,65.42598032911785
6.660571648,0.9989847261605113,65.31024551506317
6.662857216,0.9987614220480953,65.19824478148466
6.665142784,0.9986164734421278,65.08890471223756
6.667428352,0.9985591150818586,64.98108338589286
6.669714432,0.9985929146556032,64.87346805398238
6.672,0.9987158789767533,64.7647076029336
6.674285568,0.9989201519688622,64.65354411618658
6.676571648,0.9991927159183226,64.5388998905284
6.678857216,0.9995162838755245,64.41998692683367
6.681142784,0.9998702809774077,64.29608756437624
6.683428352,1.0002321769121023,64.16698135465705
6.685714432,1.0005790967632089,64.03277293641683
6.688,1.0008889369129337,63.89376743686854
6.690285568,1.0011421109166554,63.750678071066694
6.692571648,1.0013226434373965,63.60446639484533
6.694857216,1.0014189963973914,63.45623481995659
6.697142784,1.0014250786447816,63.30727774169112
6.699428352,1.0013404667154553,63.15888225080973
6.701714432,1.0011704972199562,63.012345806650416
6.704,1.000925858989598,62.868810500028445
6.706285568,1.0006220521846332,62.72925798742846
6.708571648,1.0002783489303404,62.5944326041612
6.710857216,0.9999164272776028,62.46471199437246
6.713142784,0.9995592836447665,62.3402572288388
6.715428352,0.9992296678828579,62.220791540897416
6.717714432,0.9989484420372626,62.10579941881564
6.72,0.9987336688756991,61.99443725519778
6.722285568,0.9985989126845052,61.88561704111095
6.724571648,0.9985528431314282,61.77816541101071
6.726857216,0.998598474916337,61.670687191811275
6.729142784,0.9987327928905174,61.56192991239345
6.731428352,0.9989474224084582,61.4506085277246
6.733714432,0.9992286089140016,61.335706135317764
6.736,0.9995585409315048,61.21631494477845
6.738285568,0.9999161406482017,61.09195338015169
6.740571648,1.0002788848204607,60.962353318259915
6.742857216,1.0006235967152348,60.827589720456274
6.745142784,1.0009284451595035,60.68812532105383
6.747428352,1.0011741532008402,60.54467163845439
6.749714432,1.0013450144707707,60.3982054107451
6.752,1.001430420439843,60.24989356559486
6.754285568,1.0014248287189826,60.100972294583144
6.756571648,1.0013285579028115,59.95280052524115
6.758857216,1.0011476567160749,59.806645067359526
6.761142784,1.0008935749294423,59.663646324722855
6.763428352,1.00058236415365,59.524729246275704
6.765714432,1.0002337336487268,59.390649822902745
6.768,0.9998696882196476,59.26171838868825
6.770285568,0.9995134576623945,59.138057977081985
6.772571648,0.9991876366262852,59.01936674710754
6.774857216,0.9989129269372133,58.90504928000353
6.777142784,0.9987068719103332,58.79425263843989
6.779428352,0.9985825834547635,58.68586236678626
6.781714432,0.9985479776440438,58.57866051764502
6.784,0.998605413674353,58.47128643805231
6.786285568,0.9987511630648941,58.36243627742875
6.788571648,0.9989759998883878,58.250889957668356
6.790857216,0.9992656078351835,58.13556785976786
6.793142784,0.9996015728265464,58.01574533585856
6.795428352,0.9999625443104273,57.890790722402926
6.797714432,1.0003256484248024,57.760609478597296
6.8,1.0006677977647025,57.625284200550254
6.802285568,1.000967259911162,57.48530959162196
6.804571648,1.001205182451377,57.34142832438741
6.806857216,1.0013663272327122,57.194649555362815
6.809142784,1.0014405702210891,57.046175536976044
6.811428352,1.0014231891106595,56.8972762101857
6.813714432,1.0013152743748663,56.749306418757
6.816,1.0011235574391446,56.60347691956659
6.818285568,1.000860122840401,56.46096174658468
6.820571648,1.0005417647505197,56.32268877083914
6.822857216,1.000188500387979,56.189279118335634
6.825142784,0.9998227002011034,56.06107369070998
6.827428352,0.9994677617471766,55.93814125848521
6.829714432,0.9991460716884811,55.82012567076172
6.832,0.9988782524047453,55.70643450699841
6.834285568,0.9986812042365298,55.59612550030672
6.836571648,0.9985675970443286,55.48808933823091
6.838857216,0.9985447132860837,55.381055049470525
6.841142784,0.9986139739814268,55.27368890795454
6.843428352,0.9987711220813871,55.16466185978768
6.845714432,0.9990060327276372,55.052806619734554
6.848,0.9993037796845163,54.93705012983816
6.850285568,0.9996455348657918,54.816639779153384
6.852571648,1.0000095344832138,54.69106416771118
6.854857216,1.0003725714027252,54.56022128966069
6.857142784,1.000711852515302,54.42427254524999
6.859428352,1.0010055625384526,54.28370890876721
6.861714432,1.001235302605296,54.139348994128326
6.864,1.0013863757495876,53.99224212631107
6.866285568,1.0014493456633358,53.843561439976625
6.868571648,1.0014200665458346,53.694649346420455
6.870857216,1.0013004707901758,53.54680330590459
6.873142784,1.0010979733767076,53.40129401481696
6.875428352,1.000825431563816,53.259231934272734
6.877714432,1.0005001539030016,53.121480137636944
6.88,1.0001426029609868,52.98872652716579
6.882285568,0.9997754058172004,52.861195847358864
6.884571648,0.9994221195977925,52.73893031381106
6.886857216,0.9991049079192952,52.62156047745192
6.889142784,0.998844237308692,52.508398147358164
6.891428352,0.9986564607023074,52.3985282271484
6.893714432,0.9985537656384423,52.29075055238798
6.896,0.9985426540351355,52.1838158664265
6.898285568,0.9986238618853152,52.07638526102103
6.900571648,0.9987922595618136,51.96711428334152
6.902857216,0.9990370927182386,51.85484399010399
6.905142784,0.9993428186259138,51.738541413800434
6.907428352,0.9996900993837856,51.61749927695662
6.909714432,1.0000567447308513,51.491233951524435
6.912,1.0004195497050332,51.35965985351665
6.914285568,1.0007553568203034,51.2230166448002
6.916571648,1.001043101093892,51.08184249376068
6.918857216,1.0012643718846646,50.936972868938696
6.921142784,1.001405193103456,50.789465523887415
6.923428352,1.0014566512010286,50.64056116377252
6.925714432,1.0014155367099782,50.49157029257513
6.928,1.0012842460875857,50.34383062280803
6.930285568,1.001071143769563,50.19857011553216
6.932571648,1.0007897554523062,50.05688987369223
6.934857216,1.0004577531203138,49.91968620897864
6.937142784,1.000096208521653,49.787480143926345
6.939428352,0.9997280716938445,49.66059556918776
6.941714432,0.9993767204564834,49.53893315188842
6.944,0.9990644589603911,49.422111435049764
6.946285568,0.9988112021596756,49.30942450813959
6.948571648,0.9986330159106136,49.19988227888026
