freq,mag,phase
6.0,0.9999999999999999,22.096000693846463
6.008,1.0,21.848640487537537
6.016,1.0,21.601163532470206
6.024,0.9999999999999998,21.35356993130092
6.032,1.0,21.105859788042903
6.04,0.9999999999999999,20.858033208068612
6.048,0.9999999999999999,20.61009029811212
6.056,1.0,20.362031166271578
6.064,1.0000000000000002,20.113855922011474
6.072,0.9999999899196904,19.865564676165004
6.08,0.9999993051508681,19.617157540936216
6.088,0.99999861888731,19.368634629902306
6.096,0.9999979314406101,19.11999605801575
6.104,0.999997243116915,18.871241941606385
6.112,0.999996554216953,18.62237239838349
6.12,0.9999958650360711,18.37338754743782
6.128,0.9999951758642643,18.12428750924354
6.136,0.9999944869862102,17.875072405660188
6.144,0.9999937986813013,17.62574235993454
6.152,0.9999931112236801,17.37629749670241
6.16,0.9999924248822695,17.126737941990477
6.168,0.9999917399208086,16.877063823217977
6.176,0.9999910565978858,16.627275269198403
6.184,0.9999903751669719,16.377372410141174
6.192,0.9999896958764549,16.127355377653146
6.2,0.9999890189696731,15.877224304740253
6.208,0.9999883446849498,15.626979325808897
6.216,0.9999876732556278,15.376620576667445
6.224,0.999987004910103,15.126148194527627
6.232,0.9999863398718589,14.875562318005835
6.24,0.9999856783595027,14.62486308712444
6.248,0.9999850205867981,14.374050643313032
6.256,0.9999843667627007,14.123125129409596
6.264,0.9999837170913933,13.87208668966168
6.272,0.9999830717723213,13.620935469727442
6.28,0.9999824310002269,13.36967161667671
6.288,0.9999817949651835,13.11829527899199
6.296,0.9999811638526341,12.866806606569337
6.304,0.9999805378434237,12.615205750719298
6.312,0.9999799171138365,12.36349286416771
6.32,0.9999793018356302,12.11166810105649
6.328,0.9999786921760739,11.859731616944334
6.336,0.9999780882979805,11.607683568807442
6.344,0.9999774903597464,11.355524115040076
6.352,0.9999768985153844,11.103253415455166
6.36,0.9999763129145615,10.8508716312848
6.368,0.999975733702634,10.598378925180713
6.376,0.9999751610206845,10.345775461214654
6.384,0.9999745950055577,10.093061404878764
6.392,0.9999740357898975,9.84023692308586
6.4,0.9999734835021816,9.587302184169689
6.408,0.9999729382667597,9.334257357885102
6.416,0.9999724002038898,9.081102615408213
6.424,0.9999718694297738,8.82783812933645
6.432,0.9999713460565962,8.574464073688583
6.44,0.9999708301925578,8.320980623904715
6.448,0.9999703219419156,8.067387956846169
6.456,0.9999698214050174,7.813686250795369
6.464,0.9999693286783401,7.559875685455621
6.472,0.9999688438545256,7.305956441950871
6.48,0.9999683670224182,7.051928702825394
6.4879999999999995,0.9999678982671028,6.797792652043463
6.496,0.9999674376699395,6.543548474988769
6.504,0.9999669853086021,6.289196358464264
6.5120000000000005,0.9999665412571168,6.034736490691195
6.52,0.9999661055858959,5.780169061308989
6.5280000000000005,0.9999656783617782,5.525494261374108
6.536,0.9999652596480646,5.270712283359827
6.5440000000000005,0.9999648495045552,5.015823321155015
6.552,0.9999644479875885,4.760827570063758
6.5600000000000005,0.999964055150076,4.50572522680403
6.568,0.999963671041542,4.250516489507206
6.5760000000000005,0.9999632957081588,3.995201557716642
6.584,0.9999629291927861,3.7397806323870215
6.592,0.9999625715350072,3.4842539158828965
6.6,0.9999622227711668,3.2286216119777467
6.608,0.9999618829344076,2.9728839258526905
6.616,0.9999615520547097,2.7170410640951728
6.624,0.999961230158925,2.461093234697653
6.632,0.9999609172708176,2.2050406470561756
6.64,0.9999606134110995,1.9488835119689631
6.648,0.9999603185974693,1.6926220416348279
6.656,0.9999600328446466,1.4362564496516412
6.664,0.9999597561644141,1.179786951014695
6.672,0.9999594885656513,0.9232137621149933
6.68,0.9999592300543725,0.6665371007374841
6.688,0.9999589806337652,0.40975718605926886
6.696,0.9999587403042276,0.15287423864774113
6.704,0.9999585090634038,-0.10411151954139597
6.712,0.9999582869062236,-0.36119986516606406
6.72,0.999958073824938,-0.6183905734999098
6.728,0.999957869809158,-0.8756834184343729
6.736,0.9999576748458897,-1.133078172480901
6.744,0.9999574889195733,-1.390574606773138
6.752,0.9999573120121193,-1.6481724910692352
6.76,0.9999571441029463,-1.9058715937542274
6.768,0.9999569851690172,-2.163671681842361
6.776,0.9999568351848768,-2.421572520979674
6.784,0.9999566941226883,-2.679573875446429
6.792,0.9999565619522708,-2.9376755081597565
6.8,0.9999564386411349,-3.1958771806763
6.808,0.9999563241545218,-3.4541786531949064
6.816,0.9999562184554374,-3.7125796845594157
6.824,0.999956121504691,-3.9710800322614492
6.832,0.9999560332609302,-4.22967945244338
6.84,0.9999559536806787,-4.488377699901183
6.848,0.9999558827183731,-4.747174528087548
6.856,0.9999558203263975,-5.006069689114863
6.864,0.9999557664551213,-5.265062933758378
6.872,0.9999557210529357,-5.524154011459405
6.88,0.9999556840662883,-5.783342670328577
6.888,0.999955655439721,-6.042628657149118
6.896,0.999955635115904,-6.302011717380258
6.904,0.999955623035674,-6.56149159516062
6.912,0.9999556191380691,-6.821068033311736
6.92,0.9999556233603626,-7.080740773341633
6.928,0.9999556356381024,-7.340509555448356
6.936,0.9999556559051435,-7.600374118523739
6.944,0.9999556840936844,-7.860334200157044
6.952,0.9999557201343031,-8.120389536638829
6.96,0.9999557639559917,-8.38053986296475
6.968,0.9999558154861913,-8.640784912839488
6.976,0.9999558746508276,-8.901124418680695
6.984,0.9999559413743454,-9.16155811162309
6.992,0.9999560155797442,-9.42208572152248
7.0,0.999956097188611,-9.682706976959913
7.008,0.9999561861211574,-9.943421605245945
7.016,0.9999562822962526,-10.204229332424859
7.024,0.9999563856314572,-10.465129883278976
7.032,0.9999564960430587,-10.726122981333097
7.04,0.9999566134461053,-10.987208348858928
7.048,0.9999567377544382,-11.248385706879553
7.056,0.9999568688807279,-11.509654775174011
7.064,0.9999570067365064,-11.77101527228199
7.072,0.9999571512322006,-12.032466915508373
7.08,0.9999573022771667,-12.294009420928091
7.088,0.9999574597797224,-12.5556425033909
7.096,0.9999576236471803,-12.817365876526186
7.104,0.999957793785881,-13.079179252747956
7.112,0.9999579701012263,-13.34108234325971
7.12,0.9999581524977105,-13.603074858059593
7.128,0.9999583408789544,-13.865156505945416
7.136,0.9999585351477368,-14.127326994519805
7.144,0.9999587352060271,-14.389586030195398
7.152,0.9999589409550166,-14.651933318200154
7.16,0.9999591522951504,-14.914368562582668
7.168,0.9999593691261606,-15.176891466217445
7.176,0.9999595913470958,-15.439501730810468
7.184,0.9999598188563529,-15.70219905690466
7.192,0.9999600515517099,-15.964983143885348
7.2,0.9999602893303541,-16.227853689985952
7.208,0.999960532088915,-16.490810392293657
7.216,0.9999607797234947,-16.753852946755035
7.224,0.9999610321296969,-17.01698104818191
7.232,0.9999612892026589,-17.280194390257158
7.24,0.9999615508370807,-17.543492665540583
7.248,0.9999618169272547,-17.80687556547486
7.256,0.9999620873670962,-18.070342780391545
7.264,0.9999623620501719,-18.33389399951711
7.272,0.99996264086973,-18.597528910979033
7.28,0.9999629237187283,-18.86124720181201
7.288,0.999963210489865,-19.125048557964124
7.296,0.999963501075605,-19.388932664303127
7.304,0.9999637953682097,-19.652899204622752
7.312,0.9999640932597648,-19.916947861649138
7.32,0.9999643946422091,-20.18107831704718
7.328,0.9999646994073613,-20.445290251427068
7.336,0.9999650074469484,-20.709583344350833
7.344,0.9999653186526329,-20.973957274338897
7.352,0.9999656329160393,-21.238411718876733
7.36,0.999965950128783,-21.502946354421546
7.368,0.999966270182494,-21.76756085640905
7.376,0.9999665929688467,-22.032254899260234
7.384,0.999966918379584,-22.297028156388226
7.392,0.9999672463065444,-22.561880300205196
7.4,0.999967576641687,-22.82681100212931
7.4079999999999995,0.9999679092771178,-23.09181993259168
7.416,0.9999682441051158,-23.35690676104357
7.4239999999999995,0.9999685810181558,-23.622071155963223
7.432,0.9999689199089357,-23.887312784863376
7.4399999999999995,0.9999692606704005,-24.152631314298063
7.448,0.9999696031957656,-24.418026409870286
7.4559999999999995,0.9999699473785432,-24.683497736238863
7.464,0.9999702931125636,-24.949044957126276
7.4719999999999995,0.999970640292001,-25.21466773532554
7.48,0.9999709888113963,-25.480365732708165
7.4879999999999995,0.9999713385656802,-25.746138610231164
7.496,0.999971689450196,-26.01198602794506
7.504,0.9999720413607228,-26.277907645000997
7.5120000000000005,0.9999723941934978,-26.543903119658875
7.52,0.9999727478452377,-26.80997210929453
7.5280000000000005,0.9999731022131627,-27.076114270407942
7.536,0.9999734571950156,-27.342329258630507
7.5440000000000005,0.9999738126890857,-27.6086167287334
7.552,0.9999741685942276,-27.874976334634894
7.5600000000000005,0.9999745248098846,-28.141407729408765
7.568,0.9999748812361067,-28.407910565291786
7.5760000000000005,0.999975237773574,-28.674484493692166
7.584,0.999975594323614,-28.941129165197143
7.5920000000000005,0.9999759507882234,-29.20784422958151
7.6,0.9999763070700868,-29.474629335815305
7.6080000000000005,0.9999766630725959,-29.741484132072447
7.616,0.9999770186998693,-30.008408265738435
7.6240000000000006,0.9999773738567708,-30.275401383419094
7.632,0.9999777284489284,-30.542463130948413
7.640000000000001,0.9999780823827514,-30.809593153397323
7.648,0.9999784355654495,-31.076791095081653
7.656000000000001,0.9999787879050507,-31.344056599570933
7.664,0.9999791393104172,-31.61138930969644
7.672,0.9999794896912639,-31.878788867560136
7.68,0.9999798389581751,-32.14625491454282
7.688,0.9999801870226209,-32.413787091312955
7.696,0.9999805337969728,-32.68138503783508
7.704,0.9999808791945213,-32.949048393378646
7.712,0.9999812231294902,-33.216776796526574
7.72,0.9999815655170526,-33.48456988518402
7.728,0.9999819062733464,-33.752427296587136
7.736,0.999982245315489,-34.020348667311886
7.744,0.9999825825615908,-34.28833363328282
7.752,0.9999829179307719,-34.55638182978198
7.76,0.9999832513431743,-34.82449289145779
7.768,0.9999835827199757,-35.092666452333994
7.776,0.9999839119834041,-35.36090214581864
7.784,0.9999842390567499,-35.62919960471308
7.792,0.9999845638643793,-35.89755846122095
7.8,0.9999848863317465,-36.16597834695735
7.808,0.9999852063854071,-36.434458892957814
7.816,0.9999855239530285,-36.702999729687555
7.824,0.9999858389634032,-36.97160048705058
7.832,0.999986151346459,-37.240260794398836
7.84,0.9999864610332713,-37.50898028054158
7.848,0.9999867679560724,-37.777758573754454
7.856,0.9999870720482645,-38.04659530178893
7.864,0.9999873732444274,-38.3154900918815
7.872,0.9999876714803299,-38.584442570763095
7.88,0.9999879666929397,-38.853452364668435
7.888,0.9999882588204314,-39.12251909934543
7.896,0.999988547802198,-39.391642400064555
7.904,0.999988833578857,-39.66082189162843
7.912,0.9999891160922612,-39.93005719838115
7.92,0.9999893952855056,-40.1993479442179
7.928,0.9999896711029355,-40.468693752594376
7.936,0.9999899434901551,-40.73809424653648
7.944,0.9999902123940339,-41.007549048649764
7.952,0.9999904777627135,-41.27705778112916
7.96,0.9999907395456163,-41.54662006576845
7.968,0.9999909976934498,-41.81623552397008
7.976,0.9999912521582136,-42.08590377675469
7.984,0.9999915028932057,-42.355624444770925
7.992,0.9999917498530281,-42.62539714830507
8.0,0.9999919929935918,-42.895221507290785
8.008,0.9999922322721211,-43.16509714131891
8.016,0.9999924676471607,-43.43502366964729
8.024000000000001,0.9999926990785775,-43.70500071121037
8.032,0.9999929265275667,-43.97502788462913
8.04,0.9999931499566543,-44.245104808221036
8.048,0.9999933693297021,-44.515231100009785
8.056000000000001,0.9999935846119099,-44.78540637773504
8.064,0.9999937957698193,-45.055630258862436
8.072,0.9999940027713159,-45.32590236059363
8.08,0.9999942055856321,-45.59622229987604
8.088000000000001,0.999994404183349,-45.86658969341267
8.096,0.9999945985363986,-46.13700415767226
8.104,0.9999947886180656,-46.40746530889926
8.112,0.9999949744029882,-46.67797276312372
8.120000000000001,0.9999951558671598,-46.94852613617121
8.128,0.9999953329879288,-47.21912504367286
8.136,0.9999955057440003,-47.48976910107553
8.144,0.9999956741154356,-47.76045792365177
8.152000000000001,0.9999958380836522,-48.03119112650961
8.16,0.9999959976314241,-48.30196832460286
8.168,0.9999961527428798,-48.57278913274123
8.176,0.9999963034035039,-48.84365316560024
8.184000000000001,0.9999964496001326,-49.114560037731245
8.192,0.9999965913209549,-49.3855093635716
8.2,0.9999967285555106,-49.65650075745491
8.208,0.9999968612946876,-49.92753383362094
8.216000000000001,0.9999969895307195,-50.1986082062257
8.224,0.9999971132571837,-50.46972348935163
8.232,0.9999972324689992,-50.74087929701779
8.24,0.9999973471624224,-51.01207524318999
8.248000000000001,0.9999974573350441,-51.28331094179071
8.256,0.9999975629857869,-51.55458600670934
8.264,0.9999976641149003,-51.82590005181258
8.272,0.9999977607239572,-52.09725269095426
8.280000000000001,0.9999978528158494,-52.36864353798554
8.288,0.9999979403947834,-52.64007220676511
8.296,0.9999980234662752,-52.91153831116947
8.304,0.9999981020371451,-53.18304146510297
8.312,0.999998176115513,-53.45458128250775
8.32,0.9999982457107924,-53.72615737737438
8.328,0.9999983108336845,-53.997769363751495
8.336,0.9999983714961729,-54.26941685575643
8.344,0.9999984277115161,-54.541099467584935
8.352,0.9999984794942417,-54.8128168135217
8.36,0.99999852686014,-55.08456850795021
8.368,0.9999985698262563,-55.35635416536319
8.376,0.999998608410884,-55.628173400372354
8.384,0.9999986426335562,-55.90002582771907
8.392,0.9999986725150404,-56.171911062283925
8.4,0.9999986980773274,-56.44382871909737
8.408,0.9999987193436258,-56.71577841334942
8.416,0.9999987363383518,-56.98775976040023
8.424,0.9999987490871219,-57.25977237578967
8.432,0.9999987576167426,-57.531815875248014
8.44,0.9999987619552032,-57.80388987470549
8.448,0.9999987621316648,-58.075993990302884
8.456,0.9999987581764519,-58.34812783840118
8.464,0.9999987501210423,-58.62029103559206
8.472,0.9999987379980568,-58.89248319870752
8.48,0.9999987218412506,-59.164703944830435
8.488,0.9999987016855001,-59.43695289130412
8.496,0.9999986775667958,-59.70922965574279
8.504,0.9999986495222293,-59.98153385604122
8.512,0.9999986175899827,-60.25386511038518
8.52,0.9999985818093181,-60.52622303726094
8.528,0.9999985422205654,-60.798607255465775
8.536,0.9999984988651123,-61.07101738411753
8.544,0.9999984517853906,-61.34345304266492
8.552,0.9999984010248655,-61.61591385089716
8.56,0.9999983466280237,-61.888399428954294
8.568,0.9999982886403603,-62.16090939733664
8.576,0.9999982271083675,-62.43344337691526
8.584,0.9999981620795203,-62.706000988941284
8.592,0.9999980936022651,-62.9785818550563
8.6,0.999998021726007,-63.251185597301806
8.608,0.9999979465010949,-63.523811838129426
8.616,0.9999978679788097,-63.79646020041032
8.624,0.9999977862113507,-64.06913030744548
8.632,0.9999977012518212,-64.341821782975
8.64,0.9999976131542155,-64.61453425118837
8.648,0.9999975219734047,-64.88726733673383
8.656,0.9999974277651221,-65.16002066472832
8.664,0.9999973305859498,-65.43279386076706
8.672,0.9999972304933031,-65.70558655093346
8.68,0.9999971275454184,-65.97839836180844
8.688,0.9999970218013347,-66.25122892048054
8.696,0.9999969133208821,-66.52407785455506
8.704,0.999996802164666,-66.79694479216415
8.712,0.9999966883940505,-67.06982936197595
8.72,0.9999965720711453,-67.34273119320459
8.728,0.9999964532587887,-67.61564991561923
8.736,0.9999963320205328,-67.88858515955414
8.744,0.9999962084206282,-68.16153655591768
8.752,0.9999960825240073,-68.43450373620217
8.76,0.9999959543962693,-68.70748633249296
8.768,0.9999958241036646,-68.9804839774783
8.776,0.9999956917130768,-69.2534963044582
8.784,0.9999955572920087,-69.52652294735427
8.792,0.9999954209085653,-69.79956354071872
8.8,0.9999952826314361,-70.07261771974399
8.808,0.9999951425298806,-70.34568512027163
8.815999999999999,0.9999950006737114,-70.61876537880194
8.824,0.9999948571332752,-70.89185813250307
8.832,0.9999947119794393,-71.16496301922008
8.84,0.9999945652835726,-71.43807967748421
8.847999999999999,0.9999944171175288,-71.71120774652212
8.856,0.9999942675536306,-71.98434686626499
8.864,0.999994116664652,-72.25749667735734
8.872,0.9999939645237997,-72.53065682116635
8.879999999999999,0.999993811204698,-72.80382693979087
8.888,0.9999936567813706,-73.07700667607041
8.896,0.9999935013282224,-73.35019567359383
8.904,0.9999933449200238,-73.62339357670858
8.911999999999999,0.999993187631891,-73.89660003052956
8.92,0.999993029539271,-74.16981468094792
8.928,0.9999928707179212,-74.44303717463981
8.936,0.9999927112438937,-74.71626715907523
8.943999999999999,0.999992551193517,-74.98950428252697
8.952,0.9999923906433783,-75.26274819407918
8.96,0.9999922296703051,-75.53599854363598
8.968,0.9999920683513484,-75.8092549819303
8.975999999999999,0.9999919067637634,-76.08251716053245
8.984,0.9999917449849934,-76.3557847318588
8.992,0.99999158309265,-76.62905734918013
9.0,0.9999914211644967,-76.90233466663022
9.008,0.9999912592784298,-77.1756163392146
9.016,0.9999910975124605,-77.44890202281874
9.024000000000001,0.999990935944698,-77.72219137421646
9.032,0.9999907746533293,-77.99548405107838
9.04,0.9999906137166039,-78.26877971198034
9.048,0.9999904532128129,-78.54207801641174
9.056000000000001,0.9999902932202732,-78.81537862478349
9.064,0.9999901338173078,-79.08868119843652
9.072,0.9999899750822288,-79.36198539965004
9.08,0.9999898170933196,-79.63529089164957
9.088000000000001,0.9999896599288148,-79.90859733861497
9.096,0.9999895036668847,-80.18190440568861
9.104,0.9999893483856158,-80.45521175898355
9.112,0.9999891941629927,-80.72851906559143
9.120000000000001,0.9999890410768816,-81.00182599359032
9.128,0.9999888892050098,-81.27513221205272
9.136,0.9999887386249507,-81.54843739105368
9.144,0.9999885894141031,-81.82174120167838
9.152000000000001,0.9999884416496754,-82.09504331602992
9.16,0.9999882954086665,-82.36834340723716
9.168,0.9999881507678489,-82.64164114946263
9.176,0.9999880078037505,-82.91493621791005
9.184000000000001,0.9999878665926363,-83.18822828883181
9.192,0.9999877272104917,-83.46151703953682
9.2,0.9999875897330047,-83.73480214839806
9.208,0.9999874542355475,-84.00808329486011
9.216000000000001,0.9999873207931604,-84.28136015944641
9.224,0.9999871894805331,-84.55463242376686
9.232,0.9999870603719877,-84.82789977052538
9.24,0.9999869335414614,-85.10116188352708
9.248000000000001,0.9999868090624899,-85.37441844768553
9.256,0.9999866870081892,-85.64766914903007
9.264,0.9999865674512386,-85.9209136747132
9.272,0.9999864504638643,-86.19415171301773
9.280000000000001,0.9999863361178225,-86.46738295336368
9.288,0.9999862244843823,-86.74060708631553
9.296,0.9999861156343078,-87.01382380358947
9.304,0.9999860096378431,-87.2870327980603
9.312000000000001,0.9999859065646953,-87.5602337637682
9.32,0.9999858064840174,-87.83342639592583
9.328,0.9999857094643921,-88.10661039092535
9.336,0.9999856155738158,-88.3797854463452
9.344,0.999985524879683,-88.65295126095658
9.352,0.9999854374487681,-88.9261075347308
9.36,0.9999853533472116,-89.19925396884538
9.368,0.9999852726405034,-89.47239026569129
9.376,0.9999851953934665,-89.74551612887907
9.384,0.9999851216702433,-90.01863126324591
9.392,0.9999850515342773,-90.29173537486166
9.4,0.9999849850482992,-90.56482817103593
9.408,0.9999849222743133,-90.83790936032393
9.416,0.9999848632735778,-91.11097865253346
9.424,0.9999848081065952,-91.38403575873072
9.432,0.9999847568330935,-91.65708039124723
9.44,0.9999847095120133,-91.9301122636855
9.448,0.9999846662014922,-92.20313109092584
9.456,0.999984626958851,-92.47613658913198
9.464,0.9999845918405802,-92.74912847575783
9.472,0.9999845609023235,-93.02210646955301
9.48,0.9999845341988658,-93.2950702905694
9.488,0.999984511784119,-93.56801966016668
9.496,0.9999844937111073,-93.84095430101885
9.504,0.9999844800319544,-94.11387393711958
9.512,0.9999844707978711,-94.3867782937886
9.52,0.9999844660591393,-94.65966709767713
9.528,0.9999844658651018,-94.93254007677406
9.536,0.9999844702641477,-95.20539696041132
9.544,0.9999844793037004,-95.47823747926996
