freq,mag,phase
6.0,1.000438834835199,-14.227853207960548
6.011560448,1.0006805564651529,-14.638467984193598
6.023121408,1.0008893583806255,-15.052140171511052
6.034681856,1.0010551530139484,-15.468321578850244
6.046242816,1.0011698749071511,-15.886497602591364
6.057803264,1.0012277060696233,-16.30593296956067
6.069364224,1.0012261246008411,-16.725918485570045
6.080924672,1.0011647527665515,-17.14567498896705
6.092485632,1.001046780026073,-17.564455568085272
6.10404608,1.0008774693038678,-17.981656877907966
6.11560704,1.0006654522872298,-18.396577352819936
6.127167488,1.0004206738900094,-18.80880386404859
6.138728448,1.0001551890312173,-19.217945544387184
6.150288896,0.9998816718376665,-19.62387436547472
6.161849856,0.999613553269895,-20.026459621504884
6.173410304,0.9993639954136633,-20.42599540037224
6.184971264,0.9991451850523251,-20.822670943197032
6.196531712,0.9989677622459749,-21.217026261453892
6.208092672,0.998840360683326,-21.609542589232834
6.21965312,0.9987695748077419,-22.001020841090877
6.23121408,0.9987587314771343,-22.39213664055324
6.242774528,0.9988083523194382,-22.78360812371915
6.254335488,0.9989163953471599,-23.176316929285385
6.265895936,0.999077328839171,-23.57088743774678
6.277456896,0.9992836752359017,-23.967979884910207
6.289017344,0.9995251794505677,-24.368078369018335
6.300577792,0.9997900690854714,-24.771609484854235
6.312138752,1.0000656962767134,-25.17876357450792
6.3236992,1.0003385217183356,-25.589544942320984
6.33526016,1.00059523577974,-26.003912631103763
6.346820608,1.0008233207214552,-26.42151202921917
6.358381568,1.0010117438885549,-26.84194229371109
6.369942016,1.0011512868628143,-27.26467527701994
6.381502976,1.0012349978140656,-27.68900832340657
6.393063424,1.0012588484319265,-28.11415709543688
6.404624384,1.001221492768254,-28.53945810268591
6.416184832,1.0011247221064274,-28.964098608321216
6.427745792,1.0009731445794325,-29.38739234944558
6.43930624,1.000774148376658,-29.808609644216062
6.4508672,1.0005371481717737,-30.227271812199433
6.462427648,1.0002735816171424,-30.642922413201404
6.473988608,0.9999965096604625,-31.055340866212216
6.485549056,0.9997191232560244,-31.464437183463296
6.497110016,0.9994550339338468,-31.870218885287873
6.508670464,0.999217060131838,-32.273039185678755
6.520231424,0.9990172191298945,-32.67320559502782
6.531791872,0.9988646884348175,-33.071318271550545
6.543352832,0.9987675068080045,-33.46802985536707
6.55491328,0.9987301582144317,-33.86401037295649
6.56647424,0.9987549391441384,-34.260141312266484
6.578034688,0.9988403658456446,-34.65711837231212
6.589595136,0.9989826275760275,-35.05571770355097
6.601156096,0.9991744919093433,-35.45663743734563
6.612716544,0.9994069676523321,-35.86045930577117
6.624277504,0.9996688700271321,-36.267566314633896
6.635837952,0.9999470811266055,-36.67833176415441
6.647398912,1.0002285606586117,-37.092818099972746
6.65895936,1.000499116902404,-37.51100386322985
6.67052032,1.000746000849702,-37.93269864157595
6.682080768,1.0009568441607959,-38.35748344367117
6.693641728,1.0011216179165008,-38.78482308240747
6.705202176,1.0012321779573587,-39.2141487714363
6.716763136,1.0012829613576077,-39.644615429699485
6.728323584,1.0012715573959696,-40.07562951737435
6.739884544,1.0011984571843853,-40.506246755739305
6.751444992,1.001066861574411,-40.93581326959008
6.763005952,1.000883427541989,-41.36353543326684
6.7745664,1.0006567357584846,-41.7888706737532
6.78612736,1.0003978054747342,-42.21136688899372
6.797687808,1.0001190440668393,-42.630627933324845
6.809248768,0.9998341405341529,-43.046496560353994
6.820809216,0.9995569125490213,-43.45897772120196
6.832370176,0.999300831793479,-43.86822373117009
6.843930624,0.9990783872368622,-44.274619675122636
6.855491584,0.9989005277279718,-44.67867703318473
6.867052032,0.9987759821778786,-45.080974431612695
6.87861248,0.9987110596698553,-45.4822301771444
6.89017344,0.9987086768790847,-45.883286359435424
6.901733888,0.9987693371089471,-46.28483387323416
6.913294848,0.9988901208379393,-46.687762267051376
6.924855296,0.9990650827976277,-47.09273286516639
6.936416256,0.9992860309597565,-47.50044657798355
6.947976704,0.9995420317331947,-47.911345337501444
6.959537664,0.9998208013070866,-48.3258577107886
6.971098112,1.0001088201811783,-48.74414045038657
6.982659072,1.0003918534007197,-49.16629710618621
6.99421952,1.000656504070852,-49.59209935792625
7.00578048,1.0008895170977976,-50.021257524939514
7.017340928,1.0010798117284676,-50.45332444935498
7.028901888,1.001217868712042,-50.887650368225636
7.040462336,1.0012971936870434,-51.32359734298944
7.052023296,1.0013136365263517,-51.760327844564564
7.063583744,1.0012664277390513,-52.197062691999406
7.075144704,1.0011576444756891,-52.63304784740114
7.086705152,1.000992537979633,-53.067500905463376
7.098266112,1.0007786935259761,-53.49979336626749
7.10982656,1.0005269908453374,-53.92932008318508
7.12138752,1.0002491982205608,-54.3556566630758
7.132947968,0.999958877584511,-54.77863082720747
7.144508416,0.999670093935722,-55.1980985310494
7.156069376,0.9993968236535534,-55.61421302566874
7.167629824,0.9991524090217746,-56.02720757265813
7.179190784,0.998948941662404,-56.437535859838526
7.190751232,0.9987964173409061,-56.845805502043966
7.202312192,0.9987021717970985,-57.25266474912386
7.21387264,0.9986711226737983,-57.65892919675045
7.2254336,0.998704537477607,-58.065405892214336
7.236994048,0.9988012290771113,-58.47288669645063
7.248555008,0.9989565581661999,-58.88213488293202
7.260115456,0.9991629202683302,-59.293897366052825
7.271676416,0.9994102684619727,-59.70875060387106
7.283236864,0.9996868431456353,-60.12712584840886
7.294797824,0.9999791480507867,-60.54932741995076
7.306358272,1.0002729950971716,-60.97542078664553
7.317919232,1.0005540352041435,-61.4054121848418
7.32947968,1.0008086945922932,-61.83895661153405
7.34104064,1.0010245330080327,-62.275731728819586
7.352601088,1.0011911371264806,-62.71514325637242
7.364162048,1.001300083350438,-63.15650688375499
7.375722496,1.0013463196353707,-63.59907527520134
7.387283456,1.001327309220795,-64.04200752447942
7.398843904,1.0012439303129346,-64.48451574095107
7.410404864,1.0011000454922008,-64.92583275030758
7.421965312,1.0009025291403046,-65.36517860091432
7.43352576,1.0006608320577115,-65.80196647515918
7.44508672,1.0003867212291624,-66.23572133810792
7.456647168,1.0000934617664872,-66.6660394774014
7.468208128,0.9997950579206001,-67.09281034150673
7.479768576,0.9995060748501545,-67.5160715972699
7.491329536,0.9992405117898836,-67.93603714436655
7.502889984,0.9990116512593156,-68.35299907720182
7.514450944,0.9988302833512686,-68.76756222652752
7.526011392,0.9987055851030102,-69.18036469890566
7.537572352,0.9986437515501307,-69.59216850879088
7.5491328,0.9986477902742141,-70.00381070971794
7.56069376,0.998717569587427,-70.41607738521905
7.572254208,0.9988500758768933,-70.82986057327952
7.583815168,0.9990386846124187,-71.24585247093165
7.595375616,0.9992744949673952,-71.66474657518341
7.606936576,0.9995458941887339,-72.08708732188012
7.618497024,0.9998400009964226,-72.5132129299931
7.630057984,1.0001422297503968,-72.94332699635868
7.641618432,1.0004383216317376,-73.3774538872887
7.653179392,1.000713664420951,-73.81541383283133
7.66473984,1.000954835640216,-74.25685895026673
7.6763008,1.0011502481108783,-74.7012779779813
7.687861248,1.0012902270339843,-75.14805547372559
7.699422208,1.0013679916636353,-75.59640817807276
7.710982656,1.0013795490415478,-76.0455996822272
7.722543104,1.001324335211289,-76.49468394073824
7.734104064,1.001204815482108,-76.94293614462994
7.745664512,1.0010268291039888,-77.38948292312546
7.757225472,1.000798569626226,-77.8337170236113
7.76878592,1.0005312618014042,-78.27498882989357
7.78034688,1.0002376118863823,-78.71296905059467
7.791907328,0.9999319925938388,-79.14733142128118
7.803468288,0.9996291034477537,-79.57801988391559
7.815028736,0.9993436038187203,-80.0052126205538
7.826589696,0.999089524565405,-80.42914584640906
7.838150144,0.9988791398010791,-80.85033955559823
7.849711104,0.9987230998801458,-81.2693739510647
7.861271552,0.9986284983464758,-81.68702958982136
7.872832512,0.9986006693595415,-82.10410282573753
7.88439296,0.9986408873749021,-82.52142137860288
7.89595392,0.9987472116404496,-82.93986155914106
7.907514368,0.9989147149086702,-83.36025892724444
7.919075328,0.9991353472912884,-83.78331676841228
7.930635776,0.9993984620885026,-84.20967625715186
7.942196736,0.9996911921653341,-84.63974282857158
7.953757184,0.9999995245480724,-85.07382997185678
7.965318144,1.0003086469845668,-85.51208179846287
7.976878592,1.000603417654477,-85.95433881658765
7.988439552,1.000869466913836,-86.40035615742761
8.0,1.0010938098993356,-86.8497132101671
8.011560448,1.001265713003097,-87.30182819474555
8.023121408,1.0013767572904542,-87.75593904821866
8.034681856,1.0014212667631956,-88.21126237064452
8.046242816,1.001397200893028,-88.66692829468082
8.057803264,1.0013053383232702,-89.12209839345958
8.069364224,1.0011500126199715,-89.575954174993
8.080924672,1.0009388901215919,-90.02769901824948
8.092485632,1.0006817020539498,-90.47669700093142
8.10404608,1.0003910721862015,-90.9224383211179
8.11560704,1.0000809171487597,-91.36460939241076
8.127167488,0.9997662013849351,-91.80303180096134
8.138728448,0.9994621333265125,-92.23773189619888
8.150288896,0.9991837084340834,-92.66893375115166
8.161849856,0.9989443196815184,-93.09702375709392
8.173410304,0.9987556696379059,-93.5225917441705
8.184971264,0.998627131050288,-93.94633770238255
8.196531712,0.9985650467285356,-94.36907996076972
8.208092672,0.9985726590972482,-94.79166005483887
8.21965312,0.9986495156487964,-95.21497859760663
8.23121408,0.9987924016915447,-95.63985981951267
8.242774528,0.9989940782835283,-96.06717745815219
8.254335488,0.9992450800432109,-96.49754185214073
8.265895936,0.9995332998486406,-96.931529152461
8.277456896,0.9998447292403483,-97.36954547935062
8.289017344,1.000164408722298,-97.81174876849536
8.300577792,1.000476731989171,-98.25819218334286
8.312138752,1.0007666466843543,-98.70869619203778
8.3236992,1.001020143841955,-99.16282544972564
8.33526016,1.0012246910315992,-99.62007746150427
8.346820608,1.0013704642172279,-100.07978906286688
8.358381568,1.0014501428705853,-100.54112479833971
8.369942016,1.0014599837512619,-101.00328291427068
8.381502976,1.0013991564783045,-101.46534605397879
8.393063424,1.0012705193756226,-101.92645732383906
8.404624384,1.00108020624607,-102.38573949838631
8.416184832,1.000837087004705,-102.8425523283314
8.427745792,1.0005530059145615,-103.29623405664614
8.43930624,1.000241560471895,-103.7463406359881
8.4508672,0.9999177847524933,-104.19265854594605
8.462427648,0.9995969945868816,-104.63511424002716
8.473988608,0.9992953897685022,-105.0738010234932
8.485549056,0.999027183203712,-105.50906277222742
8.497110016,0.9988055931400599,-105.94143948269068
8.508670464,0.9986415615254622,-106.37152730397317
8.520231424,0.9985430992829342,-106.80014769053793
8.531791872,0.9985151250339008,-107.22814633362512
8.543352832,0.9985592724415091,-107.65645206535646
8.55491328,0.9986734324148814,-108.0859602792393
8.56647424,0.9988523845617335,-108.51751219104192
8.578034688,0.9990873483256718,-108.95188453576469
8.589595136,0.9993670467326412,-109.38973005603775
8.601155584,0.9996782243304682,-109.83154763878161
8.612716544,1.0000054920858756,-110.27761044335602
8.624277504,1.0003333763474602,-110.7280354459948
8.635838464,1.0006459360031175,-111.18274498746332
8.6473984,1.0009277720929781,-111.64141339179366
8.65895936,1.001165350009517,-112.10362492027329
8.67052032,1.0013471413326513,-112.56867805607173
8.68208128,1.0014643340930176,-113.0358715528874
8.693641216,1.0015109438298675,-113.50433446305013
8.705202176,1.0014845345324528,-113.97313695328425
8.716763136,1.001386405618827,-114.4413682970018
8.728324096,1.0012210405600677,-114.90821137154143
8.739884032,1.0009962548242917,-115.37279226314718
8.751444992,1.0007227578593039,-115.83443677747174
8.763005952,1.0004136415800344,-116.2926325199873
8.774566912,1.0000837180622717,-116.74697920151618
8.786126848,0.9997490698670555,-117.19734876284109
8.797687808,0.9994257591249958,-117.64372743084101
8.809248768,0.9991295177317794,-118.08642049709604
8.820809728,0.9988748558652136,-118.52575027617634
8.832369664,0.9986740707207077,-118.96241391956988
8.843930624,0.9985371423570397,-119.39709027029407
8.855491584,0.9984708868184158,-119.83067773954131
8.86705152,0.9984787335325996,-120.2640680836002
8.87861248,0.9985603348369907,-120.69821662702958
8.89017344,0.998712066367577,-121.13405461683759
8.9017344,0.998926555683215,-121.5723881169004
8.913294336,0.9991936208999566,-122.01398690538169
8.924855296,0.9995004428580466,-122.45943013737936
8.936416256,0.9998321509025284,-122.9091070547449
8.947977216,1.0001728456544408,-123.3632609925188
8.959537152,1.0005058870168388,-123.82190384461907
8.971098112,1.000815376492716,-124.28481244724644
8.982659072,1.001086157551012,-124.75162056036554
8.994220032,1.0013050706959696,-125.22174566690848
9.005779968,1.0014614710369278,-125.6944570771247
9.017340928,1.0015476288413272,-126.16892807748434
9.028901888,1.001559324015359,-126.64424616196902
9.040462848,1.0014957195629286,-127.11947863789632
9.052022784,1.0013596180128876,-127.59367262513756
9.063583744,1.0011576314956845,-128.06595813206175
9.075144704,1.0008992128747216,-128.53556761653115
9.086705664,1.0005966184168145,-129.00182535168238
9.0982656,1.000264434222372,-129.4643168733229
9.10982656,0.9999186547122789,-129.9227059567
9.12138752,0.9995759105027261,-130.376938733048
9.13294848,0.9992528689417824,-130.82714768343345
9.144508416,0.9989650940386552,-131.27366225212393
9.156069376,0.9987269018152747,-131.71704519695032
9.167630336,0.9985497430646296,-132.15795790885318
9.179190272,0.9984423987413791,-132.5972256021919
9.190751232,0.9984103998803765,-133.03580088899517
9.202312192,0.9984552870973087,-133.47464621213143
9.213873152,0.9985753104006282,-133.91469484889117
9.225433088,0.998764649132939,-134.35688657464914
9.236994048,0.9990143109162627,-134.8021018733948
9.248555008,0.9993123722480256,-135.25091547515044
9.260115968,0.9996445270980789,-135.70397546607822
9.271675904,0.9999947282177383,-136.16153029302916
9.283236864,1.0003461165691485,-136.62374889525898
9.294797824,1.0006815690333228,-137.09049057958921
9.306358784,1.000985028259229,-137.5615228980324
9.31791872,1.0012416374753978,-138.03629708140616
9.32947968,1.00143902678865,-138.51411455806934
9.34104064,1.001567428041062,-138.9942505242028
9.3526016,1.0016205334933257,-139.4757665604422
9.364161536,1.0015955877487093,-139.95767439323222
9.375722496,1.0014935401831995,-140.43901936945426
9.387283456,1.0013191504080456,-140.91879928550057
9.398844416,1.0010806079037597,-141.39623035949737
9.410404352,1.0007893267166053,-141.87056078873633
9.421965312,1.0004589831954105,-142.34114764839856
9.433526272,1.0001056540378634,-142.80761182499583
9.445086208,0.9997462654415104,-143.26977910181182
9.456647168,0.9993980766336529,-143.72763355404354
9.468208128,0.9990781113962912,-144.181466102713
9.479769088,0.9988019343175447,-144.6316621979206
9.491329024,0.9985830379454675,-145.0788995899468
9.502889984,0.9984321014440475,-145.52395468942007
9.514450944,0.9983567260793701,-145.96773754669957
9.526011904,0.998360847354105,-146.41122768672162
9.53757184,0.9984443046831667,-146.8554804894741
9.5491328,0.9986034239365326,-147.30141165690128
9.56069376,0.9988306103280298,-147.74998769393522
9.57225472,0.9991149973696877,-148.20197078151517
9.583814656,0.999443065691692,-148.65803321639515
9.595375616,0.9997989177016611,-149.11863240253484
9.606936576,1.0001654380727338,-149.58397066621708
9.618497536,1.0005249890651275,-150.0541035464255
9.630057472,1.0008602413533363,-150.52883964385492
9.641618432,1.0011547295839505,-151.0077766476644
9.653179392,1.0013944310998526,-151.49027305555376
9.664740352,1.0015675025360504,-151.97559515507066
9.676300288,1.0016653573855783,-152.46285001329318
9.687861248,1.0016833194786543,-152.9510534323909
9.699422208,1.0016200762730463,-153.43919540882126
9.710983168,1.0014785482587742,-153.9262421765891
9.722543104,1.0012652163276734,-154.41129736619905
9.734104064,1.0009902582948427,-154.89347603995003
9.745665024,1.0006667909972524,-155.3720901994818
9.75722496,1.0003101052558776,-155.84661758926086
9.76878592,0.9999373199694421,-156.31670871478465
9.78034688,0.9995665637795114,-156.7822765869244
9.79190784,0.9992155418257365,-157.24344492727946
9.803467776,0.9989015009664864,-157.70059554450938
9.815028736,0.9986395266922679,-158.15424597092039
9.826589696,0.9984428204309479,-158.6051510549802
9.838150656,0.998320885962484,-159.05414530787772
9.849710592,0.9982797630554805,-159.50229039289414
9.861271552,0.9983218588022361,-159.95060471547222
9.872832512,0.9984454003426293,-160.40010436442367
9.884393472,0.9986445088872432,-160.85183185203616
9.895953408,0.9989097772919125,-161.3066540642561
9.907514368,0.9992284985033382,-161.76535283083734
9.919075328,0.9995855179097805,-162.22850449010267
9.930636288,0.9999636190910142,-162.69651588069453
9.942196224,1.0003446431156875,-163.1694897798067
9.953757184,1.0007100378918155,-163.6473806545363
9.965318144,1.0010422498434919,-164.12986725012325
9.976879104,1.001325207091539,-164.61643686544687
9.98843904,1.001545079480751,-165.10639645715148
10.0,1.0016911062429272,-165.59886763059413
10.01156096,1.0017560155117287,-166.09287196069718
10.023120896,1.0017365587708862,-166.58736221642704
10.034681856,1.0016333406513025,-167.08132931134324
10.046242816,1.0014510189051098,-167.5736981998967
10.057803776,1.0011982185676764,-168.06350841509897
10.069363712,1.0008868111933371,-168.5499962781406
10.080924672,1.0005315948073183,-169.03245927398723
10.092485632,1.0001496731874402,-169.51046017105284
10.104046592,0.9997590887371595,-169.98374525386913
10.115606528,0.999379056523385,-170.45231732632485
10.127167488,0.9990276642459542,-170.91642075080085
10.138728448,0.9987221983544629,-171.37651371338845
10.150289408,0.9984775034859539,-171.83326760520964
10.161849344,0.9983057287102448,-172.28754181884332
10.173410304,0.9982153419706514,-172.7402442316782
10.184971264,0.9982109914960705,-173.192509893476
10.196532224,0.9982932230739147,-173.64541147818125
10.20809216,0.9984582002003799,-174.10000222541464
10.21965312,0.9986984065254113,-174.55733049867462
10.23121408,0.9990022834370692,-175.01825550852192
10.24277504,0.9993552516902441,-175.48349206475234
10.254334976,0.9997404970079969,-175.95358019394092
10.265895936,1.0001394250125302,-176.42879866501684
10.277456896,1.0005329444065734,-176.90918816248413
10.289016832,1.0009019780528354,-177.3945803532032
10.300577792,1.0012285733914765,-177.8845570194397
10.312138752,1.001497170756326,-178.37848178658467
10.323699712,1.0016943394855589,-178.87554676822518
10.335259648,1.0018105910314632,-179.3747784365673
10.346820608,1.0018398711746046,-179.87513155320795
10.358381568,1.001780804934648,179.62449557984058
10.369942528,1.0016355899411746,179.12520765911685
10.381502464,1.0014111001562107,178.62804435588788
10.393063424,1.0011178944383037,178.13394772739414
10.404624384,1.000769702203564,177.64369640093037
10.416185344,1.000383160361483,177.15789723086277
10.42774528,0.9999768220297118,176.6769376004299
10.43930624,0.9995700467204098,176.20096937948168
10.4508672,0.9991826462578686,175.7298678001406
10.46242816,0.9988333141933178,175.26330629235298
10.473988096,0.9985391941307727,174.80066882578097
10.485549056,0.9983146021400707,174.34121286282098
10.497110016,0.9981708048283428,173.8839733335301
10.508670976,0.9981147856608813,173.4278800042979
10.520230912,0.9981498893865487,172.97179011252646
10.531791872,0.9982743923492491,172.51457653917578
10.543352832,0.9984829505011337,172.0551125637017
10.554913792,0.9987654323033218,171.59241491358685
10.566473728,0.999108555711361,171.12561709975955
10.578034688,0.9994959175494476,170.65402944033593
10.589595648,0.9999088905199399,170.17723328716676
10.601155584,1.0003275237205387,169.695033297571
