freq,mag,phase
6.0,0.9999908540144968,62.4056816850299
6.008,0.9999912539757929,62.232562171350985
6.016,0.9999916401418262,62.059386910698116
6.024,0.999992012777053,61.88615589077083
6.032,0.9999923721429923,61.7128690996473
6.04,0.9999927184982417,61.53952652578533
6.048,0.9999930520984911,61.36612815802342
6.056,0.9999933731965396,61.192673985581834
6.064,0.9999936820423095,61.01916399806355
6.072,0.9999939788828621,60.84559818545534
6.08,0.9999942639624129,60.67197653812877
6.088,0.9999945375223465,60.498299046841154
6.096,0.9999947998012321,60.32456570273662
6.104,0.99999505103484,60.15077649734709
6.112,0.9999952914561543,59.976931422593175
6.12,0.9999955212953916,59.80303047078524
6.128,0.9999957407800135,59.62907363462435
6.136,0.999995950134744,59.45506090720316
6.144,0.9999961495815836,59.28099228200699
6.152,0.9999963393398251,59.106867752914646
6.16,0.9999965196260705,58.93268731419939
6.168,0.9999966906542447,58.75845096052987
6.176,0.9999968526356109,58.584158686971094
6.184,0.9999970057787885,58.40981048898524
6.192,0.9999971502897654,58.235406362432585
6.2,0.9999972863719162,58.06094630357247
6.208,0.9999974142260165,57.88643030906411
6.216,0.9999975340502592,57.711858375967445
6.224,0.9999976460402688,57.537230501744126
6.232,0.9999977503891188,57.362546684258284
6.24,0.9999978472873463,57.1878069217774
6.248,0.9999979369229675,57.013011212973126
6.256,0.9999980194814939,56.8381595569222
6.264,0.999998095145948,56.663251953107206
6.272,0.9999981640968784,56.4882884014174
6.28,0.9999982265123761,56.31326890214957
6.288,0.99999828256809,56.13819345600877
6.296,0.9999983324372423,55.96306206410917
6.304,0.9999983762906451,55.787874727974824
6.312,0.9999984142967147,55.61263144954045
6.32,0.9999984466214893,55.43733223115219
6.328,0.9999984734286428,55.261977075568396
6.336,0.9999984948795015,55.08656598596039
6.344,0.9999985111330599,54.91109896591315
6.352,0.9999985223459968,54.735576019426105
6.36,0.9999985286726899,54.55999715091387
6.368,0.9999985302652327,54.38436236520692
6.376,0.9999985272734497,54.208671667552316
6.384,0.9999985198449124,54.03292506361447
6.392,0.9999985081249548,53.85712255947573
6.4,0.99999849225669,53.68126416163715
6.408,0.9999984723810253,53.50534987701918
6.416,0.9999984486366772,53.329379712962215
6.424,0.999998421160189,53.153353677227415
6.432,0.9999983900859455,52.977271777997274
6.44,0.9999983555461891,52.801134023876216
6.448,0.9999983176710346,52.624940423891374
6.456,0.9999982765884871,52.44869098749302
6.464,0.9999982324244555,52.27238572455543
6.472,0.9999981853027696,52.09602464537719
6.48,0.999998135345196,51.91960776068212
6.4879999999999995,0.9999980826714524,51.74313508161961
6.496,0.9999980273992256,51.566606619765295
6.504,0.9999979696441851,51.39002238712175
6.5120000000000005,0.9999979095200002,51.21338239611875
6.52,0.9999978471383553,51.03668665961421
6.5280000000000005,0.9999977826089657,50.85993519089438
6.536,0.9999977160395932,50.683128003674675
6.5440000000000005,0.9999976475360621,50.50626511209994
6.552,0.9999975772022741,50.32934653074527
6.5600000000000005,0.9999975051402256,50.15237227461617
6.568,0.9999974314500217,49.97534235914942
6.5760000000000005,0.9999973562298929,49.79825680021325
6.584,0.9999972795762104,49.62111561410811
6.592,0.9999972015835017,49.443918817566875
6.6,0.9999971223444666,49.26666642775553
6.608,0.9999970419499921,49.08935846227353
6.616,0.9999969604891692,48.91199493915425
6.624,0.9999968780493066,48.734575876865456
6.632,0.9999967947159492,48.557101294309724
6.64,0.9999967105728905,48.37957121082483
6.648,0.99999662570219,48.20198564618425
6.656,0.9999965401841888,48.02434462059748
6.664,0.9999964540975241,47.846648154710444
6.672,0.9999963675191453,47.66889626960596
6.68,0.9999962805243298,47.49108898680398
6.688,0.9999961931866973,47.3132263282621
6.696,0.9999961055782268,47.1353083163758
6.704,0.999996017769271,46.957334973978924
6.712,0.999995929828572,46.77930632434389
6.72,0.9999958418232764,46.60122239118208
6.728,0.9999957538189508,46.42308319864418
6.736,0.9999956658795975,46.2448887713205
6.744,0.9999955780676698,46.06663913424121
6.752,0.9999954904440858,45.88833431287671
6.76,0.9999954030682464,45.709974333137886
6.768,0.9999953159980477,45.531559221376384
6.776,0.9999952292898985,45.35308900438487
6.784,0.9999951429987338,45.17456370939734
6.792,0.9999950571780304,44.995983364089284
6.8,0.9999949718798234,44.817347996578015
6.808,0.9999948871547195,44.63865763542283
6.816,0.999994803051912,44.45991230962529
6.824,0.999994719619198,44.28111204862938
6.832,0.9999946369029906,44.102256882321726
6.84,0.9999945549483364,43.92334684103184
6.848,0.9999944737989293,43.744381955532226
6.856,0.9999943934971239,43.56536225703862
6.864,0.9999943140839536,43.3862877772101
6.872,0.9999942355991435,43.20715854814931
6.88,0.9999941580811246,43.027974602402544
6.888,0.9999940815670505,42.84873597295989
6.896,0.9999940060928107,42.669442693255434
6.904,0.9999939316930452,42.49009479716729
6.912,0.9999938584011612,42.31069231901775
6.92,0.9999937862493444,42.13123529357338
6.928,0.9999937152685775,41.95172375604511
6.936,0.9999936454886509,41.772157742088325
6.944,0.9999935769381801,41.592537287802934
6.952,0.9999935096446195,41.412862429733416
6.96,0.9999934436342754,41.2331332048689
6.968,0.9999933789323228,41.053349650643185
6.976,0.999993315562817,40.873511804934815
6.984,0.999993253548711,40.69361970606707
6.992,0.9999931929118681,40.51367339280796
7.0,0.999993133673075,40.333672904370324
7.008,0.9999930758520587,40.153618280411706
7.016,0.9999930194674984,39.97350956103445
7.024,0.9999929645370415,39.79334678678562
7.032,0.9999929110773152,39.61312999865698
7.04,0.9999928591039436,39.43285923808498
7.048,0.9999928086315591,39.252534546950656
7.056,0.9999927596738176,39.072155967579626
7.064,0.9999927122434122,38.89172354274202
7.072,0.999992666352087,38.711237315652305
7.08,0.999992622010651,38.53069732996937
7.088,0.9999925792289914,38.35010362979627
7.096,0.9999925380160882,38.16945625968024
7.104,0.9999924983800268,37.98875526461247
7.112,0.9999924603280121,37.808000690028074
7.12,0.9999924238663827,37.62719258180591
7.128,0.9999923890006233,37.44633098626847
7.136,0.9999923557353785,37.2654159501817
7.144,0.9999923240744667,37.08444752075479
7.152,0.999992294020893,36.90342574564017
7.16,0.9999922655768623,36.7223506729331
7.168,0.9999922387437932,36.54122235117169
7.176,0.9999922135223309,36.36004082933658
7.184,0.9999921899123599,36.178806156850754
7.192,0.9999921679130175,35.997518383579326
7.2,0.9999921475227068,35.81617755982938
7.208,0.99999212873911,35.634783736349576
7.216,0.9999921115592005,35.45333696433008
7.224,0.9999920959792562,35.2718372954022
7.232,0.9999920819948726,35.09028478163818
7.24,0.9999920696009751,34.908679475550855
7.248,0.9999920587918318,34.72702143009346
7.256,0.9999920495610661,34.54531069865925
7.264,0.9999920419016695,34.363547335081286
7.272,0.9999920358060138,34.18173139363208
7.28,0.9999920312658638,33.999862929023216
7.288,0.9999920282723892,33.81794199640514
7.296,0.9999920268161775,33.635968651366746
7.304,0.9999920268872462,33.45394294993504
7.312,0.9999920284750545,33.271864948574816
7.32,0.9999920315685161,33.089734704188224
7.328,0.9999920361560106,32.90755227411446
7.336,0.9999920422253957,32.72531771612936
7.344,0.9999920497640201,32.54303108844499
7.352,0.9999920587587333,32.360692449709276
7.36,0.9999920691958996,32.17830185900555
7.368,0.9999920810614091,31.99585937585219
7.376,0.9999920943406879,31.813365060202116
7.384,0.9999921090187127,31.630818972442412
7.392,0.9999921250800192,31.448221173393858
7.4,0.9999921425087158,31.265571724310455
7.4079999999999995,0.9999921612884943,31.082870686879
7.416,0.9999921814026405,30.900118123218533
7.4239999999999995,0.9999922028340466,30.717314095880003
7.432,0.9999922255652219,30.53445866784555
7.4399999999999995,0.9999922495783047,30.351551902528275
7.448,0.9999922748550711,30.168593863771424
7.4559999999999995,0.999992301376949,29.98558461584817
7.464,0.999992329125027,29.802524223460832
7.4719999999999995,0.9999923580800651,29.61941275174058
7.48,0.9999923882225076,29.43625026624659
7.4879999999999995,0.9999924195324913,29.253036832965797
7.496,0.999992451989858,29.06977251831207
7.504,0.9999924855741636,28.886457389125887
7.5120000000000005,0.9999925202646898,28.703091512673456
7.52,0.9999925560404536,28.51967495664647
7.5280000000000005,0.9999925928802184,28.336207789161147
7.536,0.9999926307625034,28.152690078757974
7.5440000000000005,0.999992669665595,27.969121894400722
7.552,0.9999927095675555,27.78550330547623
7.5600000000000005,0.9999927504462343,27.60183438179334
7.568,0.9999927922792772,27.41811519358264
7.5760000000000005,0.9999928350441365,27.23434581149548
7.584,0.9999928787180804,27.050526306603647
7.5920000000000005,0.999992923278204,26.866656750398317
7.6,0.9999929687014373,26.68273721478975
7.6080000000000005,0.9999930149645556,26.49876777210629
7.616,0.9999930620441895,26.314748495093927
7.6240000000000006,0.9999931099168329,26.13067945691537
7.632,0.9999931585588542,25.94656073114951
7.640000000000001,0.9999932079465033,25.762392391790552
7.648,0.9999932580559233,25.57817451324747
7.656000000000001,0.9999933088631577,25.393907170343017
7.664,0.9999933603441594,25.209590438313267
7.672,0.9999934124748017,25.025224392806575
7.68,0.9999934652308844,24.840809109883036
7.688,0.9999935185881448,24.6563446660136
7.696,0.9999935725222651,24.471831138079317
7.704,0.9999936270088813,24.287268603370553
7.712,0.9999936820235918,24.1026571395862
7.72,0.9999937375419663,23.917996824832848
7.728,0.9999937935395535,23.733287737623982
7.736,0.9999938499918896,23.548529956879165
7.744,0.9999939068745065,23.36372356192323
7.752,0.9999939641629398,23.178868632485386
7.76,0.9999940218327372,22.993965248698412
7.768,0.9999940798594661,22.809013491097808
7.776,0.9999941382187215,22.624013440620914
7.784,0.9999941968861341,22.438965178606026
7.792,0.9999942558373773,22.253868786791575
7.8,0.9999943150481753,22.06872434731518
7.808,0.9999943744943108,21.883531942712775
7.816,0.999994434151632,21.698291655917707
7.824,0.9999944939960604,21.51300357025984
7.832,0.9999945540035968,21.327667769464632
7.84,0.9999946141503313,21.142284337652164
7.848,0.9999946744124467,20.95685335933629
7.856,0.9999947347662284,20.77137491942363
7.864,0.9999947951880697,20.585849103212635
7.872,0.9999948556544797,20.40027599639264
7.88,0.999994916142089,20.21465568504292
7.888,0.9999949766276575,20.028988255631663
7.896,0.9999950370880798,19.843273795015033
7.904,0.9999950975003926,19.657512390436175
7.912,0.9999951578417806,19.471704129524216
7.92,0.9999952180895824,19.28584910029328
7.928,0.9999952782212982,19.099947391141427
7.936,0.999995338214594,18.913999090849707
7.944,0.9999953980473095,18.72800428858107
7.952,0.9999954576974625,18.54196307387939
7.96,0.9999955171432553,18.355875536668385
7.968,0.9999955763630809,18.169741767250603
7.976,0.9999956353355283,17.98356185630632
7.984,0.9999956940393879,17.79733589489255
7.992,0.999995752453658,17.611063974441905
8.0,0.9999958105575479,17.424746186761567
8.008,0.9999958683304864,17.238382624032216
8.016,0.9999959257521243,17.051973378806817
8.024000000000001,0.999995982802341,16.865518544009745
8.032,0.9999960394612496,16.679018212935542
8.04,0.9999960957092004,16.492472479247766
8.048,0.999996151526788,16.30588143697789
8.056000000000001,0.9999962068948545,16.119245180524345
8.064,0.9999962617944939,15.932563804651242
8.072,0.9999963162070583,15.745837404487178
8.08,0.9999963701141611,15.559066075524168
8.088000000000001,0.9999964234976821,15.372249913616589
8.096,0.9999964763397713,15.18538901497991
8.104,0.9999965286228535,14.998483476189472
8.112,0.9999965803296325,14.811533394179396
8.120000000000001,0.9999966314430945,14.62453886624148
8.128,0.9999966819465135,14.437499990023948
8.136,0.9999967318234536,14.250416863530132
8.144,0.9999967810577735,14.063289585117422
8.152000000000001,0.9999968296336308,13.876118253496093
8.16,0.999996877535484,13.68890296772805
8.168,0.9999969247480979,13.5016438272255
8.176,0.9999969712565453,13.314340931749832
8.184000000000001,0.9999970170462121,13.126994381410455
8.192,0.9999970621027993,12.939604276663497
8.2,0.9999971064123263,12.752170718310463
8.208,0.9999971499611338,12.564693807497102
8.216000000000001,0.9999971927358879,12.377173645712194
8.224,0.999997234723582,12.189610334786249
8.232,0.9999972759115398,12.002003976890123
8.24,0.9999973162874181,11.814354674533861
8.248000000000001,0.999997355839209,11.62666253056549
8.256,0.9999973945552437,11.43892764816964
8.264,0.9999974324241928,11.251150130866208
8.272,0.9999974694350713,11.063330082509106
8.280000000000001,0.9999975055772387,10.875467607285064
8.288,0.9999975408404019,10.68756280971226
8.296,0.9999975752146176,10.49961579463889
8.304,0.9999976086902944,10.311626667241951
8.312,0.9999976412581937,10.123595533026048
8.32,0.9999976729094326,9.935522497821776
8.328,0.9999977036354853,9.747407667784705
8.336,0.9999977334281845,9.559251149393729
8.344,0.9999977622797234,9.371053049450037
8.352,0.9999977901826563,9.18281347507544
8.36,0.9999978171299019,8.99453253371136
8.368,0.9999978431147418,8.806210333117106
8.376,0.9999978681308248,8.617846981368878
8.384,0.9999978921721653,8.429442586858041
8.392,0.9999979152331454,8.240997258290104
8.4,0.9999979373085172,8.052511104682985
8.408,0.9999979583934016,7.863984235365955
8.416,0.9999979784832896,7.675416759977956
8.424,0.9999979975740445,7.486808788466501
8.432,0.9999980156618999,7.298160431085951
8.44,0.9999980327434632,7.109471798396447
8.448,0.9999980488157132,6.920743001262168
8.456,0.9999980638760027,6.731974150850257
8.464,0.9999980779220572,6.543165358629047
8.472,0.9999980909519766,6.354316736367011
8.48,0.9999981029642333,6.165428396130953
8.488,0.9999981139576746,5.976500450284953
8.496,0.9999981239315204,5.787533011488569
8.504,0.9999981328853655,5.598526192695748
8.512,0.9999981408191762,5.409480107153033
8.52,0.999998147733293,5.220394868398455
8.528,0.9999981536284293,5.031270590259749
8.536,0.9999981585056693,4.84210738685322
8.544,0.9999981623664701,4.652905372581965
8.552,0.9999981652126593,4.463664662134711
8.56,0.9999981670464347,4.274385370484052
8.568,0.9999981678703633,4.085067612885273
8.576,0.9999981676873817,3.895711504874553
8.584,0.9999981665007934,3.706317162267821
8.592,0.9999981643142691,3.516884701158929
8.6,0.9999981611318445,3.3274142379184997
8.608,0.9999981569579199,3.1379058891921003
8.616,0.9999981517972596,2.9483597718990793
8.624,0.9999981456549883,2.7587760032307274
8.632,0.9999981385365925,2.5691547006491153
8.64,0.9999981304479169,2.3794959818852432
8.648,0.9999981213951636,2.189799964937873
8.656,0.999998111384891,2.0000667680716733
8.664,0.9999981004240113,1.8102965098160324
8.672,0.9999980885197882,1.620489308963215
8.68,0.9999980756798378,1.4306452845671587
8.688,0.9999980619121228,1.2407645559416163
8.696,0.9999980472249533,1.0508472426589626
8.704,0.9999980316269842,0.8608934645483203
8.712,0.9999980151272122,0.6709033416943576
8.72,0.9999979977349741,0.48087699443541804
8.728,0.9999979794599445,0.29081454336230517
8.736,0.9999979603121345,0.10071610931640369
8.744,0.9999979403018873,-0.08941818661153438
8.752,0.9999979194398766,-0.2795882230832783
8.76,0.9999978977371048,-0.4697938785143379
8.768,0.9999978752048998,-0.6600350310758587
8.776,0.9999978518549115,-0.8503115586958442
8.784,0.9999978276991103,-1.0406233390610584
8.792,0.9999978027497837,-1.230970249618254
8.8,0.9999977770195335,-1.4213521675760774
8.808,0.9999977505212732,-1.6117689699063036
8.815999999999999,0.9999977232682234,-1.8022205333457075
8.824,0.9999976952739118,-1.9927067343975062
8.832,0.9999976665521668,-2.1832274493328634
8.84,0.9999976371171162,-2.3737825541925455
8.847999999999999,0.9999976069831832,-2.5643719247885963
8.856,0.999997576165084,-2.754995436705834
8.864,0.999997544677823,-2.945652965303353
8.872,0.9999975125366902,-3.1363443857162077
8.879999999999999,0.9999974797572577,-3.3270695728570745
8.888,0.9999974463553767,-3.517828401417774
8.896,0.9999974123471724,-3.7086207458707734
8.904,0.9999973777490411,-3.899446480470877
8.911999999999999,0.9999973425776467,-4.090305479256909
8.92,0.9999973068499172,-4.2811976160532215
8.928,0.9999972705830396,-4.472122764471228
8.936,0.9999972337944574,-4.663080797911082
8.943999999999999,0.9999971965018656,-4.85407158956338
8.952,0.9999971587232074,-5.045095012410671
8.96,0.9999971204766694,-5.236150939228994
8.968,0.9999970817806786,-5.427239242589578
8.975999999999999,0.9999970426538975,-5.618359794860523
8.984,0.9999970031152193,-5.809512468208353
8.992,0.9999969631837653,-6.000697134599522
9.0,0.9999969228788789,-6.191913665802153
9.008,0.9999968822201223,-6.3831619333877
9.016,0.9999968412272715,-6.574441808732521
9.024000000000001,0.9999967999203128,-6.765753163019387
9.032,0.999996758319437,-6.957095867239212
9.04,0.9999967164450355,-7.148469792192754
9.048,0.9999966743176961,-7.339874808492144
9.056000000000001,0.9999966319581974,-7.531310786562462
9.064,0.9999965893875057,-7.722777596643399
9.072,0.9999965466267681,-7.914275108791027
9.08,0.9999965036973099,-8.105803192879293
9.088000000000001,0.9999964606206282,-8.297361718601607
9.096,0.9999964174183883,-8.488950555472533
9.104,0.9999963741124182,-8.68056957282952
9.112,0.9999963307247031,-8.872218639834427
9.120000000000001,0.999996287277382,-9.063897625475116
9.128,0.9999962437927413,-9.255606398567137
9.136,0.999996200293211,-9.447344827755444
9.144,0.9999961568013579,-9.639112781515983
9.152000000000001,0.9999961133398823,-9.830910128157218
9.16,0.9999960699316118,-10.02273673582185
9.168,0.9999960265994975,-10.214592472488548
9.176,0.9999959833666064,-10.40647720597351
9.184000000000001,0.9999959402561187,-10.598390803932011
9.192,0.9999958972913214,-10.790333133860118
9.2,0.9999958544956025,-10.982304063096436
9.208,0.9999958118924474,-11.17430345882364
9.216000000000001,0.9999957695054313,-11.366331188070053
9.224,0.9999957273582161,-11.558387117711357
9.232,0.9999956854745435,-11.750471114472322
9.24,0.9999956438782306,-11.942583044928353
9.248000000000001,0.9999956025931627,-12.134722775507093
9.256,0.9999955616432908,-12.326890172490076
9.264,0.9999955210526237,-12.519085102014502
9.272,0.9999954808452233,-12.711307430074797
9.280000000000001,0.9999954410451993,-12.90355702252415
9.288,0.9999954016767029,-13.095833745076245
9.296,0.999995362763923,-13.288137463306986
9.304,0.9999953243310783,-13.480468042656069
9.312000000000001,0.9999952864024134,-13.672825348428509
9.32,0.9999952490021928,-13.865209245796398
9.328,0.9999952121546949,-14.057619599800619
9.336,0.9999951758842076,-14.250056275352394
9.344,0.9999951402150202,-14.442519137234802
9.352,0.9999951051714209,-14.63500805010473
9.36,0.9999950707776882,-14.827522878494147
9.368,0.9999950370580882,-15.020063486812115
9.376,0.9999950040368658,-15.212629739346063
9.384,0.9999949717382416,-15.405221500263776
9.392,0.9999949401864039,-15.597838633614703
9.4,0.9999949094055065,-15.790481003331912
9.408,0.9999948794196589,-15.983148473233415
9.416,0.9999948502529229,-16.175840907024106
9.424,0.9999948219293069,-16.368558168297113
9.432,0.9999947944727593,-16.561300120535744
9.44,0.999994767907164,-16.754066627114746
9.448,0.9999947422563334,-16.94685755130238
9.456,0.9999947175440034,-17.139672756261575
9.464,0.9999946937938272,-17.332512105052043
9.472,0.999994671029371,-17.52537546063146
9.48,0.9999946492741062,-17.718262685857514
9.488,0.9999946285514054,-17.911173643489164
9.496,0.9999946088845354,-18.10410819618862
9.504,0.9999945902966533,-18.29706620652258
9.512,0.9999945728107988,-18.49004753696431
9.52,0.9999945564498895,-18.683052049894833
9.528,0.9999945412367159,-18.87607960760491
9.536,0.9999945271939344,-19.06913007229641
9.544,0.9999945143440627,-19.26220330608414
9.552,0.9999945027094734,-19.455299170997257
9.56,0.9999944923123893,-19.648417528981124
9.568,0.9999944831748767,-19.841558241898703
