freq,mag,phase
6.0,0.9999938220905511,-51.192475752618556
6.008,0.9999960142351747,-51.5583127396879
6.016,0.9999981134883162,-51.923876623105826
6.024,1.0,-52.28916564797974
6.032,1.0,-52.654178077961
6.04,0.9999999999999999,-53.01891219527546
6.048,0.9999999999999999,-53.383366300751874
6.056,1.0,-53.747538713848336
6.064,1.0,-54.11142777267658
6.072,1.0,-54.475031834024286
6.08,1.0,-54.83834927337533
6.088,0.9999999999999999,-55.201378484927986
6.096,1.0,-55.56411788161122
6.104,1.0,-55.926565895098875
6.112,1.0000000000000002,-56.288720975821974
6.12,0.9999999999999999,-56.65058159297898
6.128,1.0,-57.0121462345442
6.136,0.9999999999999999,-57.37341340727415
6.144,1.0,-57.73438163671213
6.152,1.0,-58.09504946719073
6.16,1.0,-58.45541546183259
6.168,1.0,-58.815478202549315
6.176,1.0,-59.17523629003834
6.184,1.0,-59.534688343778164
6.192,1.0,-59.893833002021644
6.2,1.0,-60.25266892178759
6.208,0.9999999999999999,-60.611194778850425
6.216,1.0,-60.9694092677282
6.224,1.0,-61.327311101668826
6.232,1.0,-61.68489901263456
6.24,1.0,-62.04217175128479
6.248,0.9999999999999999,-62.39912808695709
6.256,1.0,-62.75576680764665
6.264,1.0,-63.11208671998398
6.272,0.9999999999999999,-63.4680866492111
6.28,1.0,-63.82376543915589
6.288,1.0,-64.1791219522051
6.296,1.0,-64.53415506927551
6.304,1.0,-64.8888636897838
6.312,1.0,-65.24324673161468
6.32,1.0,-65.59730313108741
6.328,1.0,-65.95103184292124
6.336,1.0,-66.30443184019883
6.344,0.9999999999999999,-66.65750211432857
6.352,0.9999999999999999,-67.01024167500528
6.36,0.9999999999999999,-67.36264955016959
6.368,1.0,-67.71472478596588
6.376,1.0,-68.06646644669878
6.384,1.0,-68.41787361478828
6.392,0.9999999999999999,-68.76894539072373
6.4,0.9999999999999999,-69.11968089301618
6.408,1.0,-69.47007925814971
6.416,0.9999999999999999,-69.82013964053124
6.424,1.0,-70.16986121243926
6.432,0.9999999999999999,-70.51924316397125
6.44,1.0,-70.86828470298981
6.448,1.0,-71.2169850550677
6.456,1.0,-71.5653434634316
6.464,1.0,-71.91335918890485
6.472,1.0,-72.26103150984886
6.48,1.0,-72.60835972210359
6.4879999999999995,0.9999999999999999,-72.95534313892665
6.496,1.0,-73.30198109093199
6.504,1.0,-73.6482729260263
6.5120000000000005,1.0,-73.99421800934596
6.52,0.9999999999999999,-74.33981572319142
6.5280000000000005,0.9999999999999999,-74.68506546696189
6.536,1.0,-75.02996665708798
6.5440000000000005,0.9999999999999999,-75.37451872696438
6.552,1.0,-75.71872112688051
6.5600000000000005,1.0,-76.06257332395148
6.568,1.0,-76.40607480204696
6.5760000000000005,1.0,-76.7492250617202
6.584,1.0,-77.09202362013528
6.592,1.0,-77.43447001099443
6.6,1.0,-77.77656378446379
6.608,0.9999999999999999,-78.1183045070987
6.616,1.0,-78.45969176176825
6.624,0.9999999999999999,-78.800725147579
6.632,1.0,-79.14140427979791
6.64,1.0,-79.48172878977466
6.648,0.9999999999999999,-79.8216983248632
6.656,0.9999999999999999,-80.16131254834269
6.664,1.0,-80.50057113933764
6.672,0.9999999999999999,-80.83947379273754
6.68,0.9999999999999999,-81.17802021911591
6.688,1.0,-81.51621014464858
6.696,1.0,-81.85404331103146
6.704,0.9999999999999999,-82.1915194753978
6.712,1.0,-82.52863841023488
6.72,0.9999999999999999,-82.86539990330003
6.728,1.0,-83.20180375753641
6.736,0.9999999999999999,-83.53784979098803
6.744,0.999999582751642,-83.87353783671442
6.752,0.9999989905017657,-84.20886774270487
6.76,0.9999984039882681,-84.5438393717921
6.768,0.9999978234839396,-84.87845260156573
6.776,0.9999972492507051,-85.212707324285
6.784,0.9999966815398027,-85.54660344679151
6.792,0.9999961205919615,-85.88014089042122
6.8,0.9999955666375778,-86.21331959091631
6.808,0.9999950198968914,-86.54613949833671
6.816,0.9999944805801598,-86.8786005769711
6.824,0.9999939488878312,-87.21070280524783
6.832,0.9999934250107188,-87.54244617564548
6.84,0.9999929091301697,-87.87383069460306
6.848,0.9999924014182374,-88.20485638243001
6.856,0.99999190203785,-88.53552327321603
6.864,0.999991411142978,-88.86583141474058
6.872,0.9999909288788015,-89.19578086838216
6.88,0.9999904553818756,-89.52537170902748
6.888,0.999989990780296,-89.85460402498033
6.896,0.9999895351938601,-90.18347791787048
6.904,0.9999890887342319,-90.51199350256209
6.912,0.9999886515050992,-90.8401509070624
6.92,0.9999882236023371,-91.16795027242989
6.928,0.9999878051141632,-91.49539175268264
6.936,0.9999873961212957,-91.8224755147064
6.944,0.9999869966971097,-92.14920173816266
6.952,0.9999866069077905,-92.47557061539666
6.96,0.9999862268124874,-92.80158235134525
6.968,0.999985856463465,-93.1272371634448
6.976,0.9999854959062543,-93.45253528153907
6.984,0.9999851451798005,-93.77747694778701
6.992,0.999984804316612,-94.10206241657059
7.0,0.999984473342906,-94.4262919544026
7.008,0.9999841522787537,-94.75016583983454
7.016,0.9999838411382231,-95.07368436336445
7.024,0.9999835399295232,-95.39684782734489
7.032,0.9999832486551421,-95.71965654589083
7.04,0.9999829673119887,-96.04211084478777
7.048,0.9999826958915291,-96.36421106139976
7.056,0.9999824343799237,-96.6859575445777
7.064,0.9999821827581626,-97.00735065456756
7.072,0.9999819410021991,-97.32839076291883
7.08,0.9999817090830814,-97.64907825239307
7.088,0.9999814869670844,-97.96941351687248
7.096,0.9999812746158386,-98.28939696126885
7.104,0.999981071986458,-98.60902900143229
7.112,0.9999808790316668,-98.92831006406062
7.12,0.999980695699924,-99.24724058660838
7.128,0.999980521935548,-99.56582101719653
7.136,0.999980357678838,-99.88405181452191
7.144,0.9999802028661946,-100.20193344776722
7.152,0.9999800574302403,-100.51946639651098
7.16,0.9999799212999352,-100.83665115063795
7.168,0.9999797944006951,-101.15348821024942
7.176,0.9999796766545064,-101.46997808557414
7.184,0.9999795679800386,-101.78612129687924
7.192,0.9999794682927571,-102.10191837438134
7.2,0.999979377505033,-102.41736985815821
7.208,0.9999792955262539,-102.7324762980604
7.216,0.9999792222629291,-103.04723825362335
7.224,0.9999791576187987,-103.36165629397959
7.232,0.999979101494935,-103.67573099777147
7.24,0.9999790537898499,-103.98946295306392
7.248,0.9999790143995935,-104.30285275725775
7.256,0.9999789832178562,-104.6159010170031
7.264,0.9999789601360672,-104.92860834811326
7.272,0.9999789450434935,-105.24097537547887
7.28,0.9999789378273339,-105.55300273298228
7.288,0.9999789383728162,-105.8646910634125
7.296,0.9999789465632878,-106.17604101838027
7.304,0.9999789622803112,-106.4870532582336
7.312,0.9999789854037527,-106.79772845197354
7.32,0.9999790158118707,-107.10806727717056
7.328,0.9999790533814058,-107.41807041988093
7.336,0.999979097987665,-107.72773857456389
7.344,0.9999791495046099,-108.03707244399871
7.352,0.9999792078049367,-108.34607273920267
7.36,0.999979272760161,-108.65474017934898
7.368,0.9999793442406985,-108.96307549168532
7.376,0.999979422115944,-109.27107941145275
7.384,0.9999795062543506,-109.57875268180493
7.392,0.9999795965235058,-109.88609605372778
7.4,0.9999796927902077,-110.19311028595972
7.4079999999999995,0.999979794920539,-110.49979614491198
7.416,0.9999799027799412,-110.80615440458976
7.4239999999999995,0.9999800162332844,-111.1121858465132
7.432,0.9999801351449394,-111.41789125963967
7.4399999999999995,0.9999802593788459,-111.72327144028542
7.448,0.999980388798581,-112.02832719204864
7.4559999999999995,0.999980523267425,-112.33305932573218
7.464,0.9999806626484282,-112.63746865926743
7.4719999999999995,0.9999808068044727,-112.9415560176378
7.48,0.9999809555983379,-113.24532223280359
7.4879999999999995,0.9999811088927604,-113.54876814362635
7.496,0.9999812665504942,-113.85189459579459
7.504,0.9999814284343714,-114.15470244174915
7.5120000000000005,0.9999815944073583,-114.4571925406098
7.52,0.9999817643326145,-114.75936575810128
7.5280000000000005,0.999981938073545,-115.0612229664812
7.536,0.9999821154938584,-115.3627650444668
7.5440000000000005,0.9999822964576175,-115.6639928771637
7.552,0.9999824808292928,-115.96490735599373
7.5600000000000005,0.9999826684738121,-116.2655093786246
7.568,0.9999828592566117,-116.56579984889865
7.5760000000000005,0.9999830530436836,-116.86577967676334
7.584,0.9999832497016249,-117.16544977820115
7.5920000000000005,0.9999834490976819,-117.46481107516092
7.6,0.999983651099797,-117.76386449548865
7.6080000000000005,0.9999838555766527,-118.06261097285987
7.616,0.9999840623977141,-118.36105144671137
7.6240000000000006,0.9999842714332714,-118.65918686217456
7.632,0.9999844825544812,-118.95701817000813
7.640000000000001,0.9999846956334059,-119.25454632653228
7.648,0.9999849105430526,-119.55177229356252
7.656000000000001,0.9999851271574111,-119.84869703834481
7.664,0.9999853453514913,-120.14532153349025
7.672,0.9999855650013582,-120.44164675691115
7.68,0.999985785984167,-120.73767369175708
7.688,0.9999860081781975,-121.03340332635132
7.696,0.9999862314628863,-121.32883665412815
7.704,0.9999864557188588,-121.62397467357053
7.712,0.9999866808279605,-121.91881838814798
7.72,0.9999869066732865,-122.21336880625536
7.728,0.9999871331392116,-122.50762694115184
7.736,0.9999873601114169,-122.80159381090048
7.744,0.9999875874769182,-123.09527043830828
7.752,0.9999878151240921,-123.38865785086666
7.76,0.9999880429427005,-123.68175708069258
7.768,0.9999882708239175,-123.9745691644699
7.776,0.9999884986603493,-124.26709514339151
7.784,0.9999887263460615,-124.55933606310168
7.792,0.999988953776597,-124.8512929736391
7.8,0.9999891808489998,-125.14296692938032
7.808,0.9999894074618337,-125.43435898898355
7.816,0.9999896335152028,-125.72547021533322
7.824,0.9999898589107692,-126.01630167548475
7.832,0.9999900835517724,-126.30685444061011
7.84,0.9999903073430438,-126.59712958594335
7.848,0.9999905301910252,-126.8871281907272
7.856,0.9999907520037842,-127.17685133815975
7.864,0.9999909726910265,-127.46630011534181
7.872,0.9999911921641133,-127.75547561322462
7.88,0.9999914103360719,-128.044378926558
7.888,0.9999916271216097,-128.3330111538393
7.896,0.9999918424371248,-128.62137339726226
7.904,0.9999920562007182,-128.90946676266702
7.912,0.9999922683322039,-129.19729235948984
7.92,0.9999924787531177,-129.4848513007141
7.928,0.999992687386727,-129.77214470282107
7.936,0.9999928941580393,-130.05917368574148
7.944,0.9999930989938092,-130.34593937280775
7.952,0.9999933018225459,-130.63244289070602
7.96,0.9999935025745191,-130.91868536942945
7.968,0.9999937011817656,-131.20466794223142
7.976,0.9999938975780932,-131.4903917455793
7.984,0.9999940916990858,-131.77585791910892
7.992,0.999994283482108,-132.06106760557913
8.0,0.9999944728663067,-132.3460219508271
8.008,0.9999946597926155,-132.63072210372397
8.016,0.9999948442037558,-132.91516921613098
8.024000000000001,0.9999950260442388,-133.19936444285582
8.032,0.9999952052603659,-133.48330894160978
8.04,0.9999953818002302,-133.7670038729652
8.048,0.9999955556137149,-134.05045040031342
8.056000000000001,0.9999957266524946,-134.33364968982275
8.064,0.9999958948700324,-134.61660291039755
8.072,0.9999960602215787,-134.89931123363732
8.08,0.9999962226641701,-135.1817758337964
8.088000000000001,0.9999963821566249,-135.46399788774383
8.096,0.9999965386595412,-135.74597857492392
8.104,0.9999966921352935,-136.02771907731733
8.112,0.9999968425480273,-136.3092205794022
8.120000000000001,0.9999969898636552,-136.59048426811597
8.128,0.9999971340498521,-136.87151133281742
8.136,0.9999972750760501,-137.1523029652497
8.144,0.9999974129134309,-137.43286035950294
8.152000000000001,0.9999975475349211,-137.71318471197773
8.16,0.9999976789151843,-137.99327722134896
8.168,0.9999978070306156,-138.27313908853037
8.176,0.9999979318593315,-138.55277151663893
8.184000000000001,0.999998053381164,-138.8321757109598
8.192,0.9999981715776511,-139.11135287891204
8.2,0.9999982864320287,-139.39030423001438
8.208,0.9999983979292204,-139.66903097585163
8.216000000000001,0.9999985060558296,-139.94753433004098
8.224,0.9999986108001276,-140.22581550819936
8.232,0.9999987121520454,-140.5038757279108
8.24,0.9999988101031618,-140.7817162086945
8.248000000000001,0.9999989046466924,-141.0593381719724
8.256,0.9999989957774795,-141.3367428410384
8.264,0.9999990834919792,-141.61393144102712
8.272,0.9999991677882503,-141.8909051988835
8.280000000000001,0.9999992486659421,-142.16766534333195
8.288,0.9999993261262812,-142.44421310484697
8.296,0.9999994001720593,-142.7205497156236
8.304,0.9999994708076199,-142.99667640954817
8.312,0.9999995380388453,-143.27259442216928
8.32,0.9999996018731423,-143.54830499066986
8.328,0.9999996623194286,-143.82380935383875
8.336,0.9999997193881182,-144.09910875204324
8.344,0.9999997730911081,-144.37420442720136
8.352,0.9999998234417619,-144.64909762275545
8.36,0.9999998704548961,-144.92378958364492
8.368,0.9999999141467651,-145.1982815562805
8.376,0.9999999545350445,-145.47257478851785
8.384,0.9999999916388166,-145.74667052963224
8.392,0.9999999999999998,-146.02057003029316
8.4,0.9999999999999999,-146.29427454253954
8.408,1.0,-146.5677853197549
8.416,1.0,-146.84110361664352
8.424,0.9999999999999999,-147.11423068920593
8.432,0.9999999999999999,-147.38716779471594
8.44,0.9999999999999999,-147.65991619169685
8.448,1.0,-147.9324771398989
8.456,1.0,-148.20485190027634
8.464,1.0,-148.47704173496544
8.472,1.0,-148.749047907262
8.48,1.0,-149.02087168160034
8.488,1.0,-149.2925143235313
8.496,1.0,-149.56397709970162
8.504,0.9999999999999999,-149.8352612778328
8.512,1.0,-150.1063681267012
8.52,0.9999999999999999,-150.3772989161171
8.528,1.0,-150.6480549169057
8.536,1.0,-150.91863740088675
8.544,1.0,-151.189047640856
8.552,1.0,-151.4592869105656
8.56,0.9999999999999999,-151.7293564847059
8.568,1.0,-151.9992576388866
8.576,0.9999999694381315,-152.26899164961912
8.584,0.9999999344006156,-152.53855979429818
8.592,0.9999998970125411,-152.80796335118472
8.6,0.9999998573243776,-153.07720359938827
8.608,0.999999815387494,-153.34628181885026
8.616,0.9999997712541381,-153.61519929032673
8.624,0.9999997249774184,-153.88395729537248
8.632,0.9999996766112823,-154.1525571163243
8.64,0.9999996262104968,-154.42100003628542
8.648,0.999999573830629,-154.68928733910946
8.656,0.9999995195280251,-154.9574203093853
8.664,0.9999994633597911,-155.22540023242155
8.672,0.9999994053837711,-155.49322839423198
8.68,0.9999993456585285,-155.7609060815204
8.688,0.9999992842433255,-156.02843458166672
8.696,0.999999221198102,-156.29581518271223
8.704,0.9999991565834555,-156.56304917334614
8.712,0.9999990904606212,-156.8301378428913
8.72,0.9999990228914509,-157.0970824812914
8.728,0.9999989539383931,-157.36388437909702
8.736,0.9999988836644721,-157.63054482745315
8.744,0.9999988121332678,-157.89706511808612
8.752,0.999998739408895,-158.1634465432912
8.76,0.9999986655559836,-158.42969039592003
8.768,0.9999985906396567,-158.69579796936898
8.776,0.9999985147255113,-158.96177055756658
8.784,0.9999984378795977,-159.2276094549626
8.792,0.9999983601683985,-159.4933159565159
8.8,0.9999982816588086,-159.75889135768378
8.808,0.9999982024181142,-160.02433695441044
8.815999999999999,0.999998122513973,-160.28965404311663
8.824,0.9999980420143939,-160.55484392068874
8.832,0.9999979609877151,-160.81990788446828
8.84,0.9999978795025856,-161.084847232242
8.847999999999999,0.999997797627944,-161.34966326223173
8.856,0.9999977154329979,-161.61435727308458
8.864,0.999997632987205,-161.8789305638632
8.872,0.9999975503602503,-162.14338443403645
8.879999999999999,0.9999974676220286,-162.40772018347025
8.888,0.9999973848426229,-162.67193911241847
8.896,0.9999973020922845,-162.93604252151397
8.904,0.9999972194414134,-163.20003171175992
8.911999999999999,0.9999971369605379,-163.46390798452157
8.92,0.9999970547202941,-163.72767264151767
8.928,0.9999969727914068,-163.99132698481236
8.936,0.9999968912446701,-164.25487231680714
8.943999999999999,0.9999968101509265,-164.5183099402333
8.952,0.9999967295810476,-164.78164115814428
8.96,0.9999966496059148,-165.04486727390784
8.968,0.9999965702963998,-165.3079895911991
8.975999999999999,0.9999964917233438,-165.5710094139934
8.984,0.9999964139575401,-165.8339280465593
8.992,0.999996337069713,-166.09674679345164
9.0,0.9999962611304999,-166.35946695950486
9.008,0.9999961862104307,-166.62208984982692
9.016,0.9999961123799102,-166.8846167697925
9.024000000000001,0.999996039709198,-167.14704902503695
9.032,0.9999959682683899,-167.4093879214502
9.04,0.9999958981273991,-167.67163476517106
9.048,0.9999958293559379,-167.93379086258128
9.056000000000001,0.9999957620234977,-168.19585752029994
9.064,0.999995696199332,-168.45783604517794
9.072,0.9999956319524373,-168.7197277442929
9.08,0.9999955693515344,-168.98153392494376
9.088000000000001,0.9999955084650508,-169.2432558946456
9.096,0.9999954493611019,-169.504894961125
9.104,0.9999953921074736,-169.76645243231496
9.112,0.9999953367716042,-170.02792961635063
9.120000000000001,0.9999952834205659,-170.28932782156411
9.128,0.9999952321210481,-170.55064835648056
9.136,0.999995182939339,-170.81189252981372
9.144,0.9999951359413088,-171.07306165046177
9.152000000000001,0.9999950911923919,-171.33415702750307
9.16,0.9999950487575701,-171.59517997019236
9.168,0.9999950087013545,-171.85613178795705
9.176,0.9999949710877692,-172.11701379039317
9.184000000000001,0.9999949359803355,-172.37782728726205
9.192,0.9999949034420523,-172.63857358848642
9.2,0.9999948735353827,-172.8992540041475
9.208,0.9999948463222358,-173.15986984448142
9.216000000000001,0.99999482186395,-173.4204224198759
9.224,0.9999948002212781,-173.6809130408673
9.232,0.9999947814543692,-173.94134301813762
9.24,0.9999947656227565,-174.20171366251174
9.248000000000001,0.9999947527853362,-174.46202628495413
9.256,0.999994743000357,-174.72228219656645
9.264,0.9999947363254011,-174.98248270858508
9.272,0.9999947328173703,-175.24262913237826
9.280000000000001,0.99999473253247,-175.50272277944364
9.288,0.9999947355261956,-175.76276496140602
9.296,0.9999947418533149,-176.02275699001515
9.304,0.9999947515678568,-176.2827001771433
9.312000000000001,0.9999947647230931,-176.54259583478316
9.32,0.9999947813715271,-176.80244527504584
9.328,0.9999948015648767,-177.06224981015893
9.336,0.9999948253540616,-177.32201075246454
9.344,0.9999948527891895,-177.58172941441728
9.352,0.9999948839195417,-177.8414071085828
9.36,0.9999949187935585,-178.10104514763583
9.368,0.9999949574588279,-178.3606448443587
9.376,0.9999949999620702,-178.62020751163953
9.384,0.999995046349125,-178.87973446247113
9.392,0.9999950966649397,-179.13922700994897
9.4,0.9999951509535544,-179.3986864672704
9.408,0.9999952092580915,-179.65811414773268
9.416,0.9999952716207408,-179.91751136473232
9.424,0.9999953380827487,179.82312056823682
9.432,0.9999954086844051,179.563780337584
9.44,0.9999954834650321,179.3044666296235
9.448,0.9999955624629722,179.045178130575
9.456,0.9999956457155752,178.7859135265652
9.464,0.9999957332591882,178.52667150362834
9.472,0.9999958251291432,178.26745074770773
9.48,0.9999959213597472,178.00824994465594
9.488,0.9999960219842698,177.74906778023654
9.496,0.999996127034933,177.4899029401241
9.504,0.9999962365429006,177.23075410990572
9.512,0.9999963505382675,176.9716199750812
9.52,0.9999964690500504,176.71249922106452
9.528,0.999996592106176,176.45339053318358
9.536,0.9999967197334724,176.19429259668198
9.544,0.9999968519576592,175.93520409671885
9.552,0.9999969888033376,175.67612371836995
9.56,0.9999971302939817,175.41705014662807
9.568,0.9999972764519282,175.15798206640386
9.576,0.9999974272983687,174.89891816252606
9.584,0.9999975828533402,174.6398571197426
9.592,0.9999977431357171,174.38079762272062
9.6,0.9999979081632019,174.12173835604733
9.608,0.9999980779523181,173.86267800423045
9.616,0.999998252518402,173.60361525169884
9.624,0.9999984318755937,173.3445487828027
9.632,0.9999986160368313,173.0854772818146
9.64,0.9999988050138425,172.82639943292938
9.648,0.9999989988171373,172.56731392026532
9.656,0.9999991974560021,172.30821942786395
9.664,0.9999994009384908,172.0491146396911
9.672,0.9999996092714214,171.78999823963716
9.68,0.9999998224603664,171.5308689115177
9.688,1.0,171.27172533907373
9.696,1.0,171.01256620597275
9.704,0.9999999999999999,170.7533901958086
9.712,0.9999999999999999,170.49419599210276
9.72,1.0,170.23498227830422
9.728,0.9999999999999999,169.9757477377906
