freq,mag,phase
6.0,0.9999928085032762,-8.063851250169716
6.008,0.9999948802035068,-8.416110181524505
6.016,0.9999968742561347,-8.76830989933158
6.024,0.9999987920385299,-9.120447117459557
6.032,1.0,-9.472518555167458
6.04,1.0,-9.82452093734223
6.048,0.9999999999999999,-10.176450994735346
6.056,0.9999999999999999,-10.52830546419836
6.064,0.9999999999999998,-10.88008108891744
6.072,1.0,-11.231774618646794
6.08,1.0,-11.583382809940982
6.088,1.0,-11.934902426386051
6.096,1.0,-12.286330238829457
6.104,1.0,-12.63766302560873
6.112,0.9999999999999999,-12.988897572778901
6.12,0.9999999999999998,-13.34003067433855
6.128,0.9999999999999999,-13.691059132454521
6.136,1.0,-14.041979757685223
6.144,1.0,-14.392789369202514
6.152,1.0,-14.743484795012078
6.16,1.0,-15.094062872172382
6.168,1.0,-15.444520447011927
6.176,1.0,-15.794854375345084
6.184,1.0,-16.14506152268628
6.192,1.0,-16.495138764462414
6.2,0.9999999999999999,-16.845082986223808
6.208,1.0,-17.194891083853197
6.216,0.9999999999999999,-17.544559963773235
6.224,1.0,-17.89408654315198
6.232,1.0,-18.243467750106742
6.24,1.0,-18.592700523906082
6.248,1.0,-18.941781815169772
6.256,1.0,-19.290708586067097
6.264,1.0,-19.639477810513043
6.272,1.0,-19.988086474362678
6.28,1.0,-20.336531575603356
6.288,1.0,-20.68481012454517
6.296,0.9999999999999999,-21.03291914400914
6.304,1.0,-21.380855669513416
6.312,0.9999999999999999,-21.728616749457544
6.32,0.9999999999999999,-22.07619944530435
6.328,1.0,-22.42360083175985
6.336,0.9999999999999999,-22.770817996950974
6.344,1.0,-23.117848042601246
6.352,1.0,-23.46468808420393
6.36,1.0,-23.811335251193285
6.368,0.9999999999999999,-24.157786687113425
6.376,0.9999999999999999,-24.504039549784903
6.384,0.9999999999999999,-24.850091011469015
6.392,1.0,-25.19593825902994
6.4,1.0,-25.541578494094363
6.408,1.0,-25.88700893320887
6.416,1.0,-26.232226807994966
6.424,0.9999999999999999,-26.577229365301736
6.432,1.0,-26.922013867356128
6.44,0.9999999999999999,-27.26657759191077
6.448,1.0,-27.610917832389486
6.456,1.0,-27.955031898030278
6.464,0.9999999999999999,-28.29891711402597
6.472,1.0,-28.642570821662293
6.48,1.0,-28.98599037845357
6.4879999999999995,1.0,-29.32917315827596
6.496,1.0,-29.672116551498284
6.504,1.0,-30.014817965109863
6.5120000000000005,0.9999999999999999,-30.357274822846886
6.52,1.0,-30.699484565314933
6.5280000000000005,1.0,-31.04144465011038
6.536,1.0,-31.383152551937904
6.5440000000000005,1.0,-31.72460576272685
6.552,1.0,-32.06580179174369
6.5600000000000005,0.9999999999999999,-32.40673816570329
6.568,1.0,-32.74741242887622
6.5760000000000005,1.0,-33.08782214319508
6.584,1.0,-33.4279648883567
6.592,0.9999999999999998,-33.76783826192318
6.6,1.0,-34.10743987941941
6.608,1.0,-34.44676737442845
6.616,1.0,-34.78581839868434
6.624,0.9999999999999999,-35.12459062216236
6.632,1.0,-35.4630817331666
6.64,0.9999999999999999,-35.80128943841515
6.648,0.9999999999999999,-36.13921146312267
6.656,1.0,-36.476845551080466
6.664,0.9999999999999999,-36.81418946473391
6.672,0.9999999999999999,-37.15124098525744
6.68,0.9999999999999999,-37.48799791262704
6.688,1.0000000000000002,-37.82445806569012
6.696,0.9999999999999999,-38.1606192822329
6.704,1.0,-38.49647941904531
6.712,1.0000000000000002,-38.83203635198337
6.72,1.0,-39.16728797602904
6.728,1.0,-39.502232205347696
6.736,1.0,-39.83686697334293
6.744,0.999999371673642,-40.17119023270907
6.752,0.9999986587105821,-40.505199955481125
6.76,0.9999979483347734,-40.8388941330823
6.768,0.9999972409109562,-41.172270776369075
6.776,0.9999965367949463,-41.50532791567392
6.784,0.9999958363337109,-41.8380636008454
6.792,0.9999951398654485,-42.17047590128615
6.8,0.9999944477196673,-42.502562905988135
6.808,0.9999937602172664,-42.834322723565855
6.816,0.9999930776706152,-43.165753482286924
6.824,0.9999924003836351,-43.49685333010039
6.832,0.999991728651882,-43.827620434662784
6.84,0.9999910627626265,-44.15805298336167
6.848,0.9999904029949376,-44.48814918333708
6.856,0.9999897496197653,-44.817907261500494
6.864,0.9999891029000246,-45.14732546455163
6.872,0.999988463090678,-45.47640205899296
6.88,0.9999878304388209,-45.80513533114187
6.888,0.9999872051837653,-46.133523587140786
6.896,0.999986587557124,-46.46156515296494
6.904,0.9999859777828979,-46.78925837442793
6.912,0.9999853760775586,-47.11660161718522
6.92,0.9999847826501354,-47.44359326673536
6.928,0.9999841977023011,-47.77023172841912
6.936,0.9999836214284581,-48.09651542741649
6.944,0.9999830540158238,-48.422442808741565
6.952,0.9999824956445177,-48.7480123372354
6.96,0.9999819464876469,-49.07322249755673
6.968,0.9999814067113951,-49.39807179417058
6.976,0.9999808764751061,-49.722558751335185
6.984,0.9999803559313732,-50.046681913086374
6.992,0.9999798452261245,-50.37043984322043
7.0,0.9999793444987102,-50.69383112527478
7.008,0.9999788538819901,-51.01685436250673
7.016,0.9999783735024201,-51.33950817787041
7.024,0.9999779034801386,-51.66179121399165
7.032,0.9999774439290541,-51.9837021331411
7.04,0.9999769949569319,-52.305239617205494
7.048,0.9999765566654801,-52.626402367656986
7.056,0.9999761291504375,-52.94718910552076
7.064,0.999975712501659,-53.26759857134083
7.072,0.9999753068032019,-53.587629525144045
7.08,0.9999749121334135,-53.90728074640241
7.088,0.9999745285650161,-54.22655103399364
7.096,0.9999741561651923,-54.545439206159955
7.104,0.9999737949956722,-54.86394410046547
7.112,0.9999734451128183,-55.182064573751454
7.12,0.99997310656771,-55.4997995020905
7.128,0.9999727794062302,-55.81714778073869
7.136,0.9999724636691476,-56.134108324086355
7.144,0.9999721593922037,-56.45068006560727
7.152,0.9999718666061959,-56.76686195780628
7.16,0.9999715853370608,-57.08265297216538
7.168,0.9999713156059585,-57.398052099088396
7.176,0.9999710574293558,-57.7130583478442
7.184,0.9999708108191089,-58.02767074650842
7.192,0.9999705757825452,-58.3418883419037
7.2,0.9999703523225473,-58.655710199538674
7.208,0.9999701404376319,-58.96913540354562
7.216,0.9999699401220347,-59.282163056616525
7.224,0.9999697513657871,-59.59479227993808
7.232,0.9999695741548005,-59.90702221312534
7.24,0.9999694084709446,-60.218852014153896
7.248,0.9999692542921268,-60.53028085929111
7.256,0.9999691115923718,-60.84130794302591
7.264,0.9999689803419004,-61.15193247799752
7.272,0.9999688605072068,-61.4621536949228
7.28,0.999968752051138,-61.77197084252274
7.288,0.999968654932969,-62.08138318744765
7.296,0.9999685691084813,-62.39039001420109
7.304,0.9999684945300376,-62.69899062506313
7.312,0.9999684311466581,-63.007184340012145
7.32,0.9999683789040951,-63.31497049664576
7.328,0.9999683377449091,-63.62234845010086
7.336,0.9999683076085404,-63.9293175729724
7.344,0.9999682884313843,-64.23587725523146
7.352,0.9999682801468637,-64.54202690414215
7.36,0.9999682826855002,-64.84776594417785
7.368,0.999968295974987,-65.15309381693629
7.376,0.9999683199402601,-65.458009981054
7.384,0.9999683545035676,-65.76251391211966
7.392,0.9999683995845404,-66.06660510258685
7.4,0.9999684551002614,-66.37028306168587
7.4079999999999995,0.9999685209653345,-66.67354731533474
7.416,0.9999685970919511,-66.97639740604971
7.4239999999999995,0.9999686833899598,-67.27883289285441
7.432,0.9999687797669311,-67.58085335118923
7.4399999999999995,0.9999688861282243,-67.88245837281895
7.448,0.9999690023770536,-68.1836475657407
7.4559999999999995,0.9999691284145522,-68.48442055409026
7.464,0.9999692641398358,-68.78477697804881
7.4719999999999995,0.9999694094500677,-69.08471649374798
7.48,0.999969564240521,-69.3842387731753
7.4879999999999995,0.9999697284046396,-69.68334350407821
7.496,0.999969901834102,-69.98203038986834
7.504,0.9999700844188799,-70.28029914952444
7.5120000000000005,0.9999702760472998,-70.57814951749566
7.52,0.999970476606102,-70.87558124360338
7.5280000000000005,0.9999706859804997,-71.1725940929437
7.536,0.9999709040542368,-71.46918784578828
7.5440000000000005,0.9999711307096448,-71.7653622974859
7.552,0.9999713658277017,-72.06111725836249
7.5600000000000005,0.9999716092880857,-72.35645255362195
7.568,0.9999718609692316,-72.65136802324541
7.5760000000000005,0.9999721207483856,-72.94586352189123
7.584,0.9999723885016595,-73.23993891879367
7.5920000000000005,0.9999726641040838,-73.53359409766225
7.6,0.9999729474296598,-73.82682895657976
7.6080000000000005,0.9999732383514125,-74.11964340790101
7.616,0.9999735367414418,-74.41203737815042
7.6240000000000006,0.9999738424709723,-74.70401080792016
7.632,0.999974155410404,-74.99556365176734
7.640000000000001,0.9999744754293608,-75.28669587811169
7.648,0.9999748023967402,-75.57740746913227
7.656000000000001,0.9999751361807596,-75.86769842066494
7.664,0.9999754766490048,-76.15756874209865
7.672,0.9999758236684757,-76.44701845627257
7.68,0.9999761771056326,-76.73604759937227
7.688,0.9999765368264409,-77.02465622082637
7.696,0.9999769026964155,-77.31284438320274
7.704,0.9999772745806651,-77.60061216210484
7.712,0.9999776523439348,-77.8879596460679
7.72,0.9999780358506482,-78.17488693645502
7.728,0.9999784249649503,-78.46139414735333
7.736,0.9999788195507474,-78.74748140547011
7.744,0.999979219471748,-79.0331488500288
7.752,0.9999796245915026,-79.31839663266513
7.76,0.9999800347734425,-79.60322491732333
7.768,0.9999804498809189,-79.88763388015217
7.776,0.999980869777239,-80.17162370940126
7.784,0.9999812943257057,-80.45519460531733
7.792,0.999981723389651,-80.73834678004052
7.8,0.999982156832475,-81.02108045750093
7.808,0.9999825945176783,-81.30339587331513
7.816,0.9999830363088986,-81.58529327468281
7.824,0.9999834820699428,-81.86677292028364
7.832,0.999983931664822,-82.14783508017419
7.84,0.9999843849577831,-82.42848003568504
7.848,0.9999848418133408,-82.70870807931801
7.856,0.9999853020963094,-82.98851951464361
7.864,0.9999857656718334,-83.26791465619878
7.872,0.9999862324054176,-83.54689382938453
7.88,0.999986702162957,-83.8254573703641
7.888,0.9999871748107653,-84.10360562596125
7.896,0.9999876502156031,-84.38133895355864
7.904,0.9999881282447063,-84.65865772099666
7.912,0.9999886087658133,-84.93556230647235
7.92,0.9999890916471907,-85.2120530984387
7.928,0.9999895767576602,-85.48813049550415
7.936,0.9999900639666235,-85.76379490633235
7.944,0.9999905531440871,-86.03904674954232
7.952,0.9999910441606873,-86.31388645360879
7.96,0.9999915368877137,-86.58831445676289
7.968,0.9999920311971309,-86.86233120689322
7.976,0.9999925269616032,-87.13593716144712
7.984,0.9999930240545161,-87.4091327873324
7.992,0.9999935223499965,-87.6819185608193
8.0,0.999994021722936,-87.95429496744292
8.008,0.999994522049009,-88.22626250190588
8.016,0.9999950232046936,-88.49782166798151
8.024000000000001,0.9999955250672922,-88.76897297841714
8.032,0.9999960275149482,-89.039716954838
8.04,0.9999965304266661,-89.31005412765165
8.048,0.9999970336823288,-89.57998503595239
8.056000000000001,0.9999975371627144,-89.84951022742625
8.064,0.9999980407495137,-90.11863025825647
8.072,0.9999985443253468,-90.3873456930295
8.08,0.999999047773779,-90.65565710464115
8.088000000000001,0.9999995509793345,-90.92356507420314
8.096,1.0,-91.19107019095031
8.104,1.0,-91.45817305214837
8.112,1.0,-91.72487426300172
8.120000000000001,1.0,-91.99117443656182
8.128,0.9999999999999999,-92.25707419363613
8.136,1.0,-92.52257416269774
8.144,0.9999999999999999,-92.78767497979486
8.152000000000001,1.0,-93.05237728846122
8.16,0.9999999999999999,-93.31668173962679
8.168,1.0,-93.58058899152917
8.176,1.0,-93.84409970962527
8.184000000000001,1.0,-94.1072145665033
8.192,0.9999999999999999,-94.36993424179562
8.2,1.0,-94.63225942209205
8.208,0.9999999999999999,-94.89419080085345
8.216000000000001,1.0,-95.15572907832579
8.224,1.0,-95.41687496145488
8.232,1.0,-95.67762916380178
8.24,1.0,-95.93799240545836
8.248000000000001,0.9999999999999999,-96.19796541296334
8.256,0.9999999999999999,-96.45754891921925
8.264,1.0,-96.71674366340972
8.272,0.9999999999999999,-96.9755503909171
8.280000000000001,0.9999999999999999,-97.23396985324082
8.288,1.0,-97.49200280791612
8.296,0.9999999999999998,-97.74965001843363
8.304,1.0,-98.00691225415906
8.312,0.9999999999999999,-98.26379029025362
8.32,1.0,-98.52028490759515
8.328,0.9999999999999999,-98.77639689269927
8.336,1.0,-99.03212703764181
8.344,1.0,-99.28747613998098
8.352,0.9999999999999999,-99.54244500268085
8.36,1.0,-99.7970344340346
8.368,1.0,-100.05124524758912
8.376,1.0,-100.30507826206929
8.384,0.9999999999999999,-100.55853430130377
8.392,0.9999999999999999,-100.81161419415028
8.4,0.9999999999999999,-101.06431877442246
8.408,1.0,-101.31664888081639
8.416,0.9999999999999999,-101.56860535683839
8.424,0.9999999999999999,-101.82018905073267
8.432,0.9999999999999998,-102.07140081541039
8.44,1.0,-102.32224150837813
8.448,0.9999999999999999,-102.5727119916682
8.456,1.0,-102.82281313176833
8.464,0.9999999999999999,-103.07254579955286
8.472,0.9999999999999999,-103.32191087021361
8.48,0.9999999999999999,-103.57090922319222
8.488,1.0,-103.81954174211207
8.496,1.0000000000000002,-104.06780931471171
8.504,1.0,-104.31571283277795
8.512,1.0,-104.56325319208027
8.52,0.9999999999999999,-104.81043129230511
8.528,1.0,-105.05724803699135
8.536,1.0,-105.30370433346563
8.544,1.0,-105.54980109277903
8.552,0.9999999999999999,-105.7955392296434
8.56,1.0,-106.0409196623691
8.568,1.0,-106.28594331280257
8.576,1.0,-106.53061110626504
8.584,0.9999999999999999,-106.77492397149113
8.592,1.0,-107.01888284056879
8.6,1.0,-107.26248864887884
8.608,0.9999999999999999,-107.50574233503609
8.616,0.9999999999999999,-107.74864484082995
8.624,1.0,-107.9911971111665
8.632,1.0,-108.2334000940103
8.64,0.9999999999999999,-108.47525474032753
8.648,1.0,-108.71676200402872
8.656,1.0,-108.9579228419131
8.664,0.9999999999999999,-109.19873821361234
8.672,0.9999999999999999,-109.43920908153595
8.68,1.0,-109.67933641081605
8.688,1.0,-109.91912116925381
8.696,1.0,-110.15856432726534
8.704,1.0,-110.39766685782908
8.712,1.0,-110.6364297364328
8.72,0.9999999999999999,-110.87485394102193
8.728,0.9999999999999999,-111.11294045194771
8.736,1.0,-111.35069025191646
8.744,0.9999999999999999,-111.58810432593874
8.752,1.0,-111.8251836612797
8.76,1.0,-112.06192924740918
8.768,1.0,-112.2983420759532
8.776,1.0,-112.5344231406449
8.784,0.9999999999999999,-112.77017343727705
8.792,0.9999999999999999,-113.00559396365414
8.8,0.9999999999999998,-113.24068571954572
8.808,1.0,-113.47544970663954
8.815999999999999,1.0,-113.70988692849588
8.824,1.0,-113.94399839050172
8.832,0.9999999999999999,-114.17778509982577
8.84,0.9999999999999999,-114.41124806537393
8.847999999999999,0.9999999999999999,-114.6443882977452
8.856,0.9999999999999999,-114.87720680918812
8.864,1.0,-115.10970461355738
8.872,0.9999999999999999,-115.34188272627141
8.879999999999999,1.0,-115.5737421642701
8.888,0.9999999999999999,-115.80528394597314
8.896,1.0,-116.03650909123853
8.904,1.0,-116.26741862132191
8.911999999999999,1.0,-116.49801355883636
8.92,1.0,-116.7282949277124
8.928,1.0,-116.95826375315835
8.936,1.0,-117.18792106162161
8.943999999999999,0.9999999999999999,-117.41726788075013
8.952,0.9999999999999999,-117.64630523935425
8.96,0.9999999999999999,-117.87503416736894
8.968,1.0,-118.10345569581675
8.975999999999999,0.9999999999999999,-118.3315708567711
8.984,0.9999999999999999,-118.55938068331986
8.992,1.0,-118.78688620952938
9.0,1.0,-119.0140884704091
9.008,1.0,-119.24098850187667
9.016,0.9999999999999999,-119.46758734072318
9.024000000000001,0.9999999999999999,-119.69388602457884
9.032,1.0,-119.91988559187949
9.04,1.0,-120.14558708183311
9.048,1.0,-120.37099153438697
9.056000000000001,1.0,-120.59609999019486
9.064,1.0,-120.82091349058526
9.072,1.0,-121.0454330775295
9.08,0.9999999999999998,-121.26965979361049
9.088000000000001,1.0,-121.49359468199172
9.096,1.0,-121.71723878638679
9.104,1.0000000000000002,-121.94059315102938
9.112,0.9999999999999999,-122.1636588206435
9.120000000000001,1.0,-122.38643684041399
9.128,1.0,-122.60892825595768
9.136,1.0,-122.8311341132949
9.144,1.0000000000000002,-123.05305545882125
9.152000000000001,0.9999999999999999,-123.2746933392797
9.16,0.9999999999999999,-123.49604880173308
9.168,1.0000000000000002,-123.71712289353735
9.176,1.0,-123.93791666231475
9.184000000000001,1.0,-124.15843115592716
9.192,1.0,-124.37866742245053
9.2,1.0,-124.59862651014919
9.208,1.0,-124.81830946745058
9.216000000000001,1.0,-125.03771734292025
9.224,0.9999999999999999,-125.25685118523735
9.232,1.0,-125.47571204317066
9.24,1.0,-125.69430096555462
9.248000000000001,0.9999999999999999,-125.91261900126558
9.256,1.0,-126.13066719919907
9.264,1.0,-126.34844660824665
9.272,0.9999999999999998,-126.56595827727377
9.280000000000001,1.0,-126.78320325509722
9.288,1.0,-127.00018259046351
9.296,1.0,-127.21689733202754
9.304,1.0,-127.43334852833122
9.312000000000001,0.9999999999999999,-127.64953722778263
9.32,0.9999999999999999,-127.86546447863553
9.328,0.9999999999999999,-128.0811313289694
9.336,1.0,-128.2965388266692
9.344,0.9999999999999999,-128.51168801940588
9.352,0.9999999999999999,-128.72657995461734
9.36,0.9999999999999999,-128.94121567948912
9.368,1.0000000000000002,-129.1555962409361
9.376,0.9999999999999999,-129.36972268558375
9.384,0.9999999999999998,-129.58359605975065
9.392,1.0,-129.79721740942995
9.4,0.9999999999999999,-130.01058778027272
9.408,1.0,-130.22370821757008
9.416,0.9999999999999999,-130.43657976623686
9.424,0.9999999999999999,-130.6492034707946
9.432,1.0,-130.8615803753555
9.44,1.0,-131.07371152360616
9.448,1.0,-131.2855979587922
9.456,1.0,-131.4972407237022
9.464,1.0,-131.70864086065305
9.472,1.0,-131.91979941147468
9.48,0.9999999999999999,-132.1307174174956
9.488,1.0,-132.3413959195282
9.496,1.0,-132.55183595785502
9.504,0.9999999999999999,-132.7620385722145
9.512,0.9999999999999999,-132.97200480178765
9.52,0.9999999999999998,-133.18173568518446
9.528,1.0,-133.391232260431
9.536,1.0,-133.6004955649563
9.544,1.0000000000000002,-133.8095266355801
9.552,1.0,-134.01832650850014
9.56,0.9999999999999999,-134.22689621928026
9.568,0.9999999999999999,-134.4352368028385
9.576,1.0,-134.64334929343542
9.584,1.0,-134.8512347246626
9.592,1.0,-135.05889412943182
9.6,1.0,-135.26632853996378
9.608,1.0,-135.47353898777763
9.616,0.9999999999999999,-135.68052650368028
9.624,1.0,-135.8872921177565
9.632,1.0,-136.09383685935848
9.64,1.0,-136.3001617570965
9.648,1.0,-136.50626783882896
9.656,0.9999999999999999,-136.71215613165324
9.664,1.0,-136.91782766189652
9.672,0.9999999999999999,-137.12328345510687
9.68,1.0,-137.32852453604437
9.688,0.9999999999999999,-137.53355192867298
9.696,1.0,-137.73836665615178
9.704,0.9999999999999998,-137.9429697408273
9.712,0.9999999999999998,-138.14736220422523
9.72,1.0,-138.3515450670432
9.728,0.9999999999999998,-138.55551934914277
9.736,0.9999999999999999,-138.7592860695426
9.744,0.9999999999999999,-138.96284624641103
9.752,1.0,-139.16620089705938
9.76,0.9999999999999998,-139.36935103793505
9.768,1.0,-139.57229768461528
9.776,1.0,-139.7750418518004
9.784,0.9999999999999999,-139.97758455330825
9.792,1.0,-140.17992680206746
9.8,0.9999999999999999,-140.38206961011244
9.808,1.0,-140.58401398857717
9.816,1.0,-140.78576094769022
9.824,1.0,-140.98731149676914
9.832,1.0,-141.1886666442156
9.84,1.0,-141.38982739751037
9.847999999999999,1.0,-141.59079476320866
9.856,0.9999999999999999,-141.79156974693558
9.864,1.0,-141.99215335338158
9.872,1.0,-142.19254658629828
9.879999999999999,1.0,-142.39275044849455
9.888,0.9999999999999999,-142.59276594183248
9.896,1.0000000000000002,-142.79259406722352
9.904,1.0,-142.9922358246249
9.911999999999999,1.0,-143.19169221303662
9.92,0.9999999999999998,-143.39096423049756
9.928,1.0,-143.59005287408257
9.936,1.0,-143.7889591398997
9.943999999999999,1.0000000000000002,-143.98768402308713
9.952,1.0,-144.18622851781066
9.96,1.0,-144.38459361726095
9.968,1.0,-144.58278031365128
9.975999999999999,0.9999999999999999,-144.78078959821528
9.984,0.9999999999999999,-144.978622461205
9.992,0.9999999999999999,-145.17627989188856
10.0,0.999999777613664,-145.37376287854852
10.008,0.9999993240927129,-145.57107240848035
10.016,0.9999988698297367,-145.76820946799072
10.024000000000001,0.9999984148736183,-145.965175042396
10.032,0.9999979592731181,-146.161970116021
