freq,mag,phase
6.0,0.9999928701339668,102.1107675676664
6.008,0.9999948941530007,101.99143775276637
6.016,0.9999968945251243,101.87204647019155
6.024,0.999998871425555,101.75259366634506
6.032,1.0,101.63307928781767
6.04,1.0,101.51350328138986
6.048,0.9999999999999999,101.39386559403404
6.056,1.0,101.2741661729166
6.064,1.0,101.1544049654002
6.072,1.0,101.03458191904603
6.08,0.9999999999999999,100.91469698161607
6.088,0.9999999999999999,100.7947501010754
6.096,1.0,100.67474122559459
6.104,0.9999999999999999,100.55467030355214
6.112,0.9999999999999999,100.43453728353694
6.12,1.0,100.31434211435074
6.128,0.9999999999999999,100.19408474501078
6.136,0.9999999999999999,100.07376512475234
6.144,1.0,99.95338320303146
6.152,1.0,99.83293892952761
6.16,1.0,99.7124322541465
6.168,1.0,99.59186312702288
6.176,0.9999999999999999,99.47123149852352
6.184,1.0,99.35053731925007
6.192,0.9999999999999999,99.22978054004207
6.2,0.9999999999999999,99.1089611119802
6.208,1.0,98.98807898638918
6.216,0.9999999999999999,98.86713411484128
6.224,1.0,98.74612644915939
6.232,0.9999999999999999,98.62505594142053
6.24,1.0,98.50392254395922
6.248,1.0,98.3827262093711
6.256,1.0,98.2614668905165
6.264,1.0,98.14014454052415
6.272,1.0,98.018759112795
6.28,0.9999999999999999,97.89731056100607
6.288,1.0,97.7757988391145
6.296,1.0,97.65422390136159
6.304,0.9999999999999999,97.53258570227699
6.312,1.0,97.41088419668297
6.32,1.0,97.28911933969894
6.328,0.9999999999999998,97.16729108674583
6.336,0.9999999999999999,97.04539939355081
6.344,1.0,96.92344421615199
6.352,0.9999999999999999,96.80142551090336
6.36,0.9999999999999999,96.67934323447977
6.368,1.0,96.55719734388211
6.376,1.0,96.43498779644248
6.384,0.9999999999999999,96.31271454982985
6.392,0.9999999999999999,96.19037756205529
6.4,1.0,96.0679767914781
6.408,1.0,95.94551219681131
6.416,1.0,95.82298373712798
6.424,0.9999999999999999,95.70039137186731
6.432,0.9999999999999999,95.57773506084104
6.44,1.0,95.45501476423996
6.448,1.0,95.33223044264071
6.456,1.0,95.20938205701269
6.464,1.0,95.08646956872512
6.472,0.9999999999999999,94.96349293955441
6.48,1.0,94.84045213169165
6.4879999999999995,1.0,94.7173471077503
6.496,1.0,94.59417783077413
6.504,1.0,94.47094426424542
6.5120000000000005,0.9999999999999999,94.34764637209317
6.52,1.0,94.2242841187019
6.5280000000000005,0.9999999999999999,94.10085746892018
6.536,0.9999999999999999,93.97736638807002
6.5440000000000005,1.0,93.85381084195573
6.552,1.0,93.73019079687386
6.5600000000000005,0.9999999999999998,93.6065062196225
6.568,1.0,93.48275707751172
6.5760000000000005,0.9999999999999998,93.35894333837332
6.584,1.0,93.23506497057176
6.592,0.9999999999999999,93.1111219430144
6.6,0.9999999999999999,92.98711422516271
6.608,1.0,92.86304178704339
6.616,0.9999999999999999,92.73890459925956
6.624,1.0,92.61470263300248
6.632,0.9999999999999999,92.49043586006331
6.64,0.9999999999999999,92.36610425284496
6.648,0.9999999999999999,92.24170778437426
6.656,1.0,92.11724642831422
6.664,1.0,91.99272015897643
6.672,0.9999999999999999,91.86812895133339
6.68,1.0,91.74347278103123
6.688,0.9999999999999999,91.61875162440202
6.696,0.9999999999999999,91.49396545847647
6.704,1.0,91.36911426099617
6.712,1.0,91.24419801042596
6.72,1.0,91.11921668596592
6.728,0.9999999999999999,90.99417026756319
6.736,1.0,90.86905873592325
6.744,0.9999999999999998,90.74388207252075
6.752,1.0,90.61864025960982
6.76,0.9999999999999998,90.49333328023353
6.768,1.0000000000000002,90.36796111823242
6.776,1.0,90.24252375825199
6.784,1.0,90.11702118574897
6.792,0.9999999999999999,89.99145338699589
6.8,1.0,89.86582034908407
6.808,0.9999999999999999,89.74012205992456
6.816,0.9999999999999999,89.61435850824655
6.824,0.9999999999999999,89.48852968359323
6.832,1.0,89.36263557631446
6.84,1.0,89.23667617755582
6.848,1.0,89.11065147924359
6.856,0.9999999999999999,88.9845614740651
6.864,1.0,88.8584061554437
6.872,1.0,88.73218551750783
6.88,1.0,88.60589955505303
6.888,1.0,88.47954826349654
6.896,1.0,88.35313163882294
6.904,1.0,88.2266496775201
6.912,1.0,88.10010237650388
6.92,0.9999999999999999,87.97348973303065
6.928,1.0,87.84681174459543
6.936,0.9999999999999999,87.72006840881478
6.944,1.0,87.59325972329177
6.952,0.9999999999999998,87.4663856854612
6.96,1.0,87.33944629241324
6.968,1.0,87.21244154069196
6.976,1.0,87.08537142606683
6.984,1.0,86.95823594327373
6.992,1.0,86.83103508572181
7.0,1.0,86.70376884516295
7.008,1.0,86.57643721131973
7.016,1.0,86.44904017146676
7.024,0.9999999999999999,86.32157770996206
7.032,0.9999999999999999,86.1940498077215
7.04,1.0,86.06645644163284
7.048,1.0,85.93879758390153
7.056,1.0,85.81107320132372
7.064,1.0,85.68328325447895
7.072,0.9999999999999999,85.55542769683646
7.08,0.9999999999999999,85.42750647376782
7.088,1.0,85.29951952145937
7.096,0.9999999999999999,85.17146676571755
7.104,1.0,85.04334812066057
7.112,1.0,84.91516348729121
7.12,1.0,84.78691275194488
7.128,1.0,84.65859578461016
7.136,1.0,84.53021243712003
7.144,1.0,84.40176254121363
7.152,1.0,84.2732459064729
7.16,1.0,84.14466231814184
7.168,1.0,84.01601153483998
7.176,1.0,83.8872932861895
7.184,1.0,83.75850727038107
7.192,1.0,83.62965315171154
7.2,0.9999999999999999,83.50073055813932
7.208,0.9999999999999999,83.37173907891048
7.216,1.0,83.24267826232473
7.224,1.0,83.11354761372279
7.232,0.9999999999999999,82.9843465937915
7.24,1.0,82.85507461730103
7.248,1.0,82.72573105240002
7.256,1.0,82.59631522061495
7.264,1.0,82.4668263977086
7.272,1.0,82.33726381556514
7.28,1.0,82.20762666527388
7.288,1.0,82.0779141015819
7.296,1.0000000000000002,81.94812524887604
7.304,1.0,81.81825920883271
7.312,1.0,81.68831506984326
7.32,1.0,81.5582919182665
7.328,0.9999999999999999,81.4281888515074
7.336,0.9999999999999999,81.29800499283054
7.344,1.0,81.16773950773089
7.352,0.9999999999999999,81.03739162157592
7.36,0.999996457889754,80.90696063812514
7.368,0.9999915292744119,80.77644595841775
7.376,0.999986591493013,80.64584709942497
7.384,0.9999816684771871,80.5151637117687
7.392,0.9999767853633367,80.3843955957656
7.4,0.9999719681439112,80.25354271502582
7.4079999999999995,0.9999672432687338,80.12260520687263
7.416,0.9999626372067476,79.99158338892279
7.4239999999999995,0.9999581759814374,79.8604777612952
7.432,0.9999538846955343,79.72928900409218
7.4399999999999995,0.9999497870621372,79.5980179700095
7.448,0.9999459049600085,79.46666567216356
7.4559999999999995,0.9999422580301045,79.33523326746567
7.464,0.9999388633288994,79.20372203610151
7.4719999999999995,0.9999357350512906,79.0721333578681
7.48,0.9999328843324601,78.94046868626965
7.4879999999999995,0.999930319133996,78.808729521366
7.496,0.9999280442154493,78.67691738239154
7.504,0.9999260611883212,78.54503378112842
7.5120000000000005,0.9999243686459011,78.41308019691992
7.52,0.9999229623591989,78.28105805408279
7.5280000000000005,0.9999218355272572,78.14896870228523
7.536,0.9999209790685875,78.01681340029604
7.5440000000000005,0.9999203819402238,77.88459330329933
7.552,0.9999200314712253,77.75230945380848
7.5600000000000005,0.9999199136984683,77.61996277604982
7.568,0.9999200136941296,77.48755407356647
7.5760000000000005,0.9999203158761095,77.35508402969562
7.584,0.999920804294605,77.22255321051553
7.5920000000000005,0.9999214628900255,77.08996206982447
7.6,0.9999222757193234,76.95731095571303
7.6080000000000005,0.9999232271493902,76.82460011830655
7.616,0.9999243020176691,76.69182971828681
7.6240000000000006,0.9999254857611184,76.5589998358485
7.632,0.9999267645156057,76.42611047979247
7.640000000000001,0.9999281251883068,76.29316159651187
7.648,0.9999295555060908,76.16015307867707
7.656000000000001,0.9999310440429667,76.02708477347201
7.664,0.9999325802297596,75.8939564902789
7.672,0.9999341543489461,75.76076800774312
7.68,0.9999357575175217,75.62751908018309
7.688,0.9999373816604048,75.49420944333396
7.696,0.9999390194766669,75.36083881943415
7.704,0.9999406644005836,75.22740692167949
7.712,0.9999423105591845,75.09391345807848
7.72,0.9999439527277367,74.96035813475223
7.728,0.9999455862843335,74.82674065872429
7.736,0.9999472071645332,74.69306074024824
7.744,0.9999488118167887,74.55931809472197
7.752,0.9999503971592419,74.42551244423484
7.76,0.9999519605383006,74.29164351879248
7.768,0.9999534996892967,74.15771105726122
7.776,0.9999550126994166,74.02371480807005
7.784,0.9999564979730082,73.8896545297058
7.792,0.9999579541993209,73.75552999103232
7.8,0.9999593803226458,73.62134097146269
7.808,0.9999607755148253,73.48708726100843
7.816,0.9999621391500417,73.35276866022808
7.824,0.9999634707817826,73.21838498009414
7.832,0.9999647701218723,73.0839360417944
7.84,0.9999660370214397,72.9494216764823
7.848,0.9999672714536947,72.81484172498801
7.856,0.9999684734983856,72.68019603750047
7.864,0.9999696433278057,72.54548447322912
7.872,0.9999707811942259,72.41070690005228
7.88,0.9999718874186342,72.27586319415832
7.888,0.99997296238067,72.14095323968425
7.896,0.9999740065096424,72.00597692835596
7.904,0.999975020276534,71.87093415913294
7.912,0.999976004186901,71.73582483786045
7.92,0.9999769587745773,71.60064887693044
7.928,0.9999778845961071,71.46540619495337
7.936,0.9999787822258343,71.33009671644153
7.944,0.9999796522515779,71.19472037150481
7.952,0.9999804952708377,71.05927709555927
7.96,0.9999813118874706,70.92376682904882
7.968,0.9999821027087933,70.78818951718027
7.976,0.9999828683430583,70.65254510967115
7.984,0.9999836093972702,70.51683356051088
7.992,0.9999843264752999,70.38105482773396
8.0,0.9999850201762669,70.24520887320615
8.008,0.999985691093157,70.1092956624219
8.016,0.9999863398116513,69.9733151643135
8.024000000000001,0.9999869669091405,69.83726735107132
8.032,0.9999875729539026,69.70115219797415
8.04,0.9999881585044287,69.56496968322983
8.048,0.9999887241088731,69.42871978782534
8.056000000000001,0.999989270304618,69.29240249538586
8.064,0.9999897976179365,69.15601779204239
8.072,0.9999903065637414,69.01956566630741
8.08,0.9999907976454098,68.88304610895834
8.088000000000001,0.9999912713546741,68.74645911292805
8.096,0.9999917281715696,68.60980467320222
8.104,0.9999921685644307,68.47308278672305
8.112,0.9999925929899315,68.336293452299
8.120000000000001,0.9999930018931618,68.19943667052038
8.128,0.9999933957077342,68.06251244367984
8.136,0.999993774855919,67.92552077569816
8.144,0.9999941397487996,67.78846167205462
8.152000000000001,0.9999944907864475,67.6513351397219
8.16,0.9999948283581144,67.51414118710473
8.168,0.9999951528424323,67.37687982398279
8.176,0.9999954646076287,67.23955106145698
8.184000000000001,0.9999957640117463,67.1021549118992
8.192,0.9999960514028694,66.96469138890527
8.2,0.9999963271193563,66.82716050725071
8.208,0.9999965914900697,66.68956228284945
8.216000000000001,0.9999968448346146,66.55189673271512
8.224,0.9999970874635731,66.41416387492472
8.232,0.9999973196787372,66.27636372858458
8.24,0.9999975417733448,66.13849631379847
8.248000000000001,0.9999977540323084,66.00056165163768
8.256,0.9999979567324463,65.86255976411327
8.264,0.9999981501427053,65.72449067414938
8.272,0.9999983345243842,65.58635440555898
8.280000000000001,0.9999985101313513,65.44815098302068
8.288,0.9999986772102574,65.3098804320571
8.296,0.9999988360007447,65.17154277901459
8.304,0.9999989867356525,65.03313805104418
8.312,0.9999991296412162,64.89466627608395
8.32,0.9999992649372625,64.75612748284202
8.328,0.9999993928373984,64.6175217007812
8.336,0.9999995135491969,64.47884896010397
8.344,0.9999996272743782,64.34010929173907
8.352,0.9999997342089822,64.2013027273282
8.36,0.9999998345435414,64.06242929921422
8.368,0.9999999284632439,63.923489040429594
8.376,0.9999999999999999,63.78448198468594
8.384,1.0,63.645408166363765
8.392,0.9999999999999999,63.50626762050341
8.4,1.0,63.36706038279603
8.408,1.0,63.22778648957559
8.416,0.9999999999999999,63.08844597781094
8.424,1.0,62.949038885098794
8.432,1.0,62.80956524965676
8.44,1.0,62.67002511031729
8.448,1.0,62.530418506521414
8.456,0.9999999999999999,62.39074547831342
8.464,1.0,62.25100606633556
8.472,1.0,62.1112003118232
8.48,1.0,61.97132825660023
8.488,1.0,61.831389943074896
8.496,0.9999999999999999,61.691385414235704
8.504,0.9999999999999999,61.5513147136478
8.512,1.0,61.411177885449405
8.52,1.0,61.27097497434867
8.528,0.9999999999999998,61.13070602562053
8.536,0.9999999999999999,60.99037108510404
8.544,1.0,60.84997019919952
8.552,0.9999999999999999,60.70950341486638
8.56,1.0,60.568970779620585
8.568,0.9999999999999999,60.42837234153281
8.576,0.9999999999999999,60.28770814922609
8.584,0.9999999999999999,60.146978251874444
8.592,1.0,60.00618269920084
8.6,0.9999999999999999,59.86532154147581
8.608,1.0,59.72439482951588
8.616,0.9999999999999999,59.583402614682406
8.624,1.0,59.44234494888017
8.632,1.0,59.301221884556384
8.64,1.0,59.1600334746995
8.648,1.0,59.018779772838464
8.656,1.0,58.877460833041695
8.664,0.9999999999999999,58.73607670991633
8.672,1.0,58.59462745860752
8.68,0.9999999999999999,58.45311313479786
8.688,1.0,58.31153379470658
8.696,0.9999999778436807,58.169889495089365
8.704,0.9999999177031267,58.02818029323752
8.712,0.9999998557453723,57.886406246977884
8.72,0.9999997920265346,57.744567414672225
8.728,0.9999997266012723,57.60266385521712
8.736,0.9999996595228232,57.46069562804349
8.744,0.9999995908430406,57.31866279311659
8.752,0.9999995206124296,57.17656541093561
8.76,0.9999994488801803,57.03440354253373
8.768,0.9999993756942036,56.89217724947779
8.776,0.9999993011011602,56.74988659386842
8.784,0.9999992251464953,56.607531638339786
8.792,0.9999991478744672,56.465112446059784
8.8,0.9999990693281784,56.322629080729776
8.808,0.9999989895496033,56.18008160658488
8.815999999999999,0.9999989085796166,56.037470088393825
8.824,0.999998826458021,55.89479459145909
8.832,0.9999987432235724,55.75205518161703
8.84,0.9999986589140071,55.609251925237984
8.847999999999999,0.9999985735660659,55.46638488922629
8.856,0.9999984872155182,55.32345414102048
8.864,0.9999983998971856,55.18045974859354
8.872,0.9999983116449659,55.03740178045301
8.879999999999999,0.9999982224918538,54.89428030564105
8.888,0.9999981324699637,54.75109539373475
8.896,0.9999980416105504,54.60784711484638
8.904,0.9999979499440298,54.464535539623505
8.911999999999999,0.9999978574999978,54.32116073924924
8.92,0.9999977643072522,54.17772278544239
8.928,0.9999976703938093,54.03422175045788
8.936,0.9999975757869228,53.89065770708688
8.943999999999999,0.9999974805131028,53.747030728656966
8.952,0.9999973845981318,53.60334088903247
8.96,0.9999972880670832,53.459588262614794
8.968,0.9999971909443365,53.315772924342596
8.975999999999999,0.9999970932535945,53.171894949691946
8.984,0.999996995017899,53.02795441467674
8.992,0.9999968962596448,52.88395139584894
9.0,0.9999967970005967,52.73988597029887
9.008,0.9999966972619027,52.59575821565531
9.016,0.9999965970641086,52.45156821008587
9.024000000000001,0.9999964964271725,52.30731603229736
9.032,0.999996395370477,52.16300176153593
9.04,0.9999962939128437,52.01862547758735
9.048,0.9999961920725459,51.87418726077722
9.056000000000001,0.9999960898673202,51.72968719197136
9.064,0.9999959873143806,51.585125352576036
9.072,0.9999958844304286,51.44050182453808
9.08,0.9999957812316665,51.29581669034526
9.088000000000001,0.9999956777338079,51.15107003302657
9.096,0.9999955739520894,51.006261936152406
9.104,0.9999954699012806,50.86139248383473
9.112,0.999995365595697,50.71646176072744
9.120000000000001,0.9999952610492081,50.57146985202656
9.128,0.9999951562752489,50.426416843470484
9.136,0.9999950512868296,50.28130282134013
9.144,0.9999949460965453,50.136127872459184
9.152000000000001,0.9999948407165853,49.99089208419439
9.16,0.9999947351587439,49.84559554445571
9.168,0.9999946294344277,49.70023834169643
9.176,0.9999945235546658,49.554820564913456
9.184000000000001,0.9999944175301173,49.40934230364753
9.192,0.9999943113710822,49.263803647983366
9.2,0.9999942050875074,49.1182046885498
9.208,0.9999940986889962,48.97254551651992
9.216000000000001,0.9999939921848163,48.82682622361145
9.224,0.9999938855839077,48.6810469020866
9.232,0.9999937788948897,48.53520764475244
9.24,0.9999936721260698,48.3893085449609
9.248000000000001,0.99999356528545,48.24334969660903
9.256,0.9999934583807353,48.09733119413907
9.264,0.9999933514193398,47.951253132538476
9.272,0.9999932444083933,47.805115607340156
9.280000000000001,0.9999931373547499,47.65891871462253
9.288,0.9999930302649948,47.51266255100967
9.296,0.9999929231454473,47.36634721367125
9.304,0.9999928160021725,47.21997280032272
9.312000000000001,0.999992708840984,47.07353940922543
9.32,0.9999926016674517,46.92704713918663
9.328,0.9999924944869074,46.780496089559435
9.336,0.9999923873044516,46.63388636024297
9.344,0.9999922801249581,46.48721805168247
9.352,0.999992172953081,46.34049126486907
9.36,0.9999920657932606,46.193706101340176
9.368,0.9999919586497272,46.04686266317907
9.376,0.9999918515265097,45.899961053015225
9.384,0.9999917444274369,45.753001374024095
9.392,0.9999916373561475,45.60598372992728
9.4,0.9999915303160914,45.45890822499228
9.408,0.9999914233105374,45.311774964032644
9.416,0.999991316342577,45.16458405240776
9.424,0.9999912094151292,45.017335596022996
9.432,0.9999911025309468,44.87002970132938
9.44,0.99999099569262,44.72266647532379
9.448,0.9999908889025811,44.575246025548644
9.456,0.9999907821631101,44.42776846009193
9.464,0.9999906754763387,44.28023388758701
9.472,0.999990568844254,44.132642417212665
9.48,0.9999904622687047,43.984994158692714
9.488,0.9999903557514046,43.83728922229616
9.496,0.9999902492939359,43.689527718836736
9.504,0.9999901428977551,43.5417097596731
9.512,0.9999900365641962,43.393835456708324
9.52,0.9999899302944754,43.24590492238998
9.528,0.9999898240896941,43.09791826970975
9.536,0.9999897179508443,42.94987561220341
9.544,0.9999896118788112,42.80177706395042
9.552,0.9999895058743774,42.65362273957394
9.56,0.9999893999382279,42.50541275424034
9.568,0.9999892940709519,42.35714722365922
9.576,0.9999891882730481,42.20882626408293
9.584,0.999989082544927,42.06044999230649
9.592,0.9999889768869157,41.91201852566712
9.6,0.9999888712992603,41.76353198204423
9.608,0.9999887657821304,41.6149904798588
9.616,0.9999886603356218,41.466394138073376
9.624,0.9999885549597605,41.31774307619151
9.632,0.9999884496545045,41.169037414257666
9.64,0.9999883444197493,41.0202772728566
9.648,0.9999882392553298,40.87146277311334
9.656,0.9999881341610233,40.72259403669249
9.664,0.9999880291365532,40.57367118579816
9.672,0.9999879241815913,40.42469434317336
9.68,0.9999878192957632,40.27566363209974
9.688,0.9999877144786472,40.126579176397115
9.696,0.9999876097297812,39.97744110042313
9.704,0.9999875050486633,39.828249529072686
9.712,0.9999874004347554,39.67900458777768
9.72,0.9999872958874862,39.529706402506406
9.728,0.9999871914062533,39.38035509976326
9.736,0.9999870869904269,39.230950806588034
9.744,0.9999869826393519,39.08149365055571
9.752,0.9999868783523506,38.931983759775676
9.76,0.9999867741287252,38.782421262891546
9.768,0.9999866699677606,38.632806289080285
9.776,0.9999865658687276,38.48313896805201
9.784,0.9999864618308837,38.3334194300492
9.792,0.9999863578534779,38.18364780584635
9.8,0.999986253935751,38.03382422674919
9.808,0.999986150076939,37.88394882459437
9.816,0.9999860462762757,37.73402173174856
9.824,0.999985942532995,37.584043081108234
9.832,0.9999858388463319,37.43401300609866
9.84,0.9999857352155267,37.283931640673615
9.847999999999999,0.9999856316398267,37.13379911931454
9.856,0.9999855281184866,36.98361557702996
9.864,0.9999854246507738,36.83338114935489
9.872,0.9999853212359681,36.683095972350166
9.879999999999999,0.9999852178733641,36.53276018260162
9.888,0.9999851145622752,36.382373917219475
9.896,0.999985011302033,36.23193731383776
9.904,0.9999849080919914,36.08145051061347
9.911999999999999,0.9999848049315267,35.93091364622581
9.92,0.9999847018200422,35.78032685987556
9.928,0.999984598756967,35.629690291284284
9.936,0.9999844957417605,35.47900408069361
9.943999999999999,0.9999843927739127,35.32826836886436
9.952,0.999984289852947,35.17748329707579
9.96,0.9999841869784211,35.026649007124924
9.968,0.9999840841499297,34.87576564132567
