freq,mag,phase
6.0,1.0005992339991472,-127.97160093924286
6.002285056,1.000482418831873,-128.11808057650686
6.004570112,1.0003347905671145,-128.26264165573994
6.006855168,1.0001658700584488,-128.40491033519692
6.009140224,0.9999863769745437,-128.54466313854846
6.01142528,0.9998075571528178,-128.6818195026693
6.013710336,0.9996409346394124,-128.8164327758407
6.015995392,0.9994968584726972,-128.9487810398941
6.018280448,0.9993847067203385,-129.0793036400924
6.020565504,0.9993113525206349,-129.20843262334833
6.02285056,0.9992817470907335,-129.33681867857572
6.025135616,0.9992974458375631,-129.46515146845616
6.027420672,0.9993578561761643,-129.59397411678736
6.029705728,0.9994589041376442,-129.7239953501664
6.031990784,0.9995942918512306,-129.85571695768266
6.03427584,0.9997554380822464,-129.98961460840363
6.036560896,0.9999320811087364,-130.12593152029353
6.038845952,1.0001131340986253,-130.26490473616238
6.041131008,1.0002870466956246,-130.40644793709347
6.043416064,1.0004428052858336,-130.5503605002778
6.04570112,1.0005707466913818,-130.69633108286874
6.047986176,1.0006623934473347,-130.84391210079838
6.050271232,1.00071228203381,-130.9925167367057
6.052556288,1.00071707474546,-131.14153181760057
6.054841344,1.0006764203453111,-131.29029500987235
6.0571264,1.0005930161270558,-131.43810220117197
6.059411456,1.0004719172471368,-131.5844951425289
6.061696512,1.0003209845903216,-131.7289103017949
6.063981568,1.0001495434122023,-131.87095545119365
6.066266624,0.9999685661276183,-132.01043824477338
6.06855168,0.9997894673614159,-132.14734734778946
6.070836736,0.9996235895319089,-132.28170594976433
6.073121792,0.999481595501863,-132.41381723460344
6.075406848,0.9993722305087814,-132.54413389143426
6.077691904,0.9993026615673182,-132.67311758602227
6.07997696,0.999277278930866,-132.80139210555424
6.082262016,0.9992976188712036,-132.9296480704042
6.084547072,0.9993625782777291,-133.05851676085177
6.086832128,0.999467934480328,-133.18865775150505
6.089117184,0.9996070078932704,-133.32055155235983
6.09140224,0.999771120553184,-133.45462042051128
6.093687296,0.9999498149906028,-133.59118904981898
6.095972352,1.0001316620559444,-133.73042188938098
6.098257408,1.0003053208141257,-133.87221199389185
6.100542464,1.0004596788375546,-134.0163603435535
6.10282752,1.000584935676701,-134.16253830874857
6.105112576,1.0006733290240426,-134.31029227875447
6.107397632,1.0007191076555424,-134.45901809532901
6.1096832,1.0007193650058956,-134.60808285584682
6.111968256,1.000674160365955,-134.75678152184676
6.114253312,1.0005862847655342,-134.90456843947675
6.116538368,1.0004611250833344,-135.05077509442324
6.118823424,1.000306785628064,-135.19494345062265
6.12110848,1.0001329128913152,-135.33679789428493
6.123393536,0.9999505747804477,-135.47599086794492
6.125678592,0.9997712472623279,-135.61260989337356
6.127963648,0.999606330470888,-135.74668309164437
6.130248704,0.9994662624870876,-135.87853546505235
6.13253376,0.9993598965042012,-136.0086287258314
6.134818816,0.9992941353882675,-136.13740825064573
6.137103872,0.9992731114169181,-136.26559540772175
6.139388928,0.9992981077394169,-136.39378085715296
6.141673984,0.999367653361895,-136.5226870230049
6.14395904,0.9994772569449566,-136.6528389012979
6.146244096,0.9996200351643861,-136.78485961762004
6.148529152,0.9997870429615444,-136.91913291665648
6.150814208,0.9999674430603391,-137.0559469284333
6.153099264,1.0001501228578806,-137.1953544306131
6.15538432,1.0003233547627528,-137.33735784121038
6.157669376,1.0004761363739443,-137.4817447791261
6.159954432,1.0005988655949347,-137.62814888632272
6.162239488,1.0006837760817764,-137.7760090739783
6.164524544,1.0007253578072504,-137.9248084791898
6.1668096,1.000721074203795,-138.07388434773452
6.169094656,1.000671172709315,-138.22256865406868
6.171379712,1.000578817143876,-138.3702335879308
6.173664768,1.0004497597239324,-138.51624918546997
6.175949824,1.000292125578217,-138.66020214482376
6.17823488,1.000115836154275,-138.80175381822227
6.180519936,0.99993223696756,-138.94066484608229
6.182804992,0.9997528208976941,-139.07693781010857
6.185090048,0.999588852779657,-139.2107152707261
6.187375104,0.9994509969019277,-139.3422966030869
6.18966016,0.9993478077807764,-139.47209472249892
6.191945216,0.9992859045397401,-139.600716909447
6.194230272,0.9992692497344025,-139.72876353429368
6.196515328,0.9992989205038377,-139.85687676118783
6.198800384,0.999373063473847,-139.9857351360985
6.20108544,0.9994869962146401,-140.11597952392134
6.203370496,0.9996334220099288,-140.24814083359823
6.205655552,0.9998032056410039,-140.38253313932034
6.207940608,0.9999855175027305,-140.51951617302726
6.210225664,1.0001688616880788,-140.65912936347016
6.21251072,1.0003415067021357,-140.80134962543772
6.214795776,1.0004925997182643,-140.9459201454073
6.217080832,1.0006126917816531,-141.0924558642242
6.219365888,1.000694013310818,-141.24044800932123
6.221650944,1.0007314118405601,-141.38930279855776
6.223936,1.0007225277458958,-141.53837446534078
6.226221056,1.000667985348467,-141.68695908061153
6.228506112,1.0005711082071707,-141.8344664184663
6.230791168,1.0004380614998627,-141.98029287524884
6.233076224,1.0002771094570106,-142.12398507536716
6.23536128,1.0000986304616157,-142.26522883064035
6.237646336,0.9999138387905919,-142.40379431365753
6.239931392,0.9997343647079638,-142.5397316106394
6.242216448,0.9995716266649209,-142.6731690739426
6.244501504,0.999435975581304,-142.80444748221345
6.24678656,0.9993359950825794,-142.93395622841496
6.249071616,0.9992780993135238,-143.0623648979592
6.251356672,0.9992659462929432,-143.19020023549888
6.253641728,0.9993003020449757,-143.31827356116142
6.255926784,0.9993790754702422,-143.44709863520802
6.25821184,0.9994971821980506,-143.57736561839164
6.260496896,0.9996473035261776,-143.70957470544326
6.262781952,0.9998197900587528,-143.8441408824007
6.265067008,1.000003821120384,-143.98127989767298
6.267352064,1.0001876857855982,-144.12112389662224
6.26963712,1.00035971476246,-144.2635007693686
6.271922176,1.0005090816883453,-144.40823472027307
6.274207232,1.00062634007147,-144.55487883823568
6.276492288,1.0007039346925244,-144.70299272781122
6.278777344,1.0007370677546545,-144.85186302976783
6.2810624,1.0007235848995872,-145.0008325137242
6.283347456,1.0006642477968808,-145.14935393405526
6.285632512,1.0005629408357894,-145.2966667975219
6.287917568,1.0004258479542911,-145.44223239476
6.290202624,1.0002618581774312,-145.58563002625027
6.29248768,1.0000811440793456,-145.72653154398043
6.294772736,0.9998951766113074,-145.8647622157569
6.297057792,0.9997157832104392,-146.0003160041343
6.299342848,0.999554371289997,-146.1334068020306
6.301627904,0.9994210653649075,-146.26433170956167
6.30391296,0.9993244600608718,-146.39355651138388
6.306198016,0.9992705289031565,-146.52173980650755
6.308483072,0.9992629218416966,-146.64938857343176
6.310768128,0.9993020056790324,-146.77730255651804
6.313053184,0.9993854050753238,-146.90614544185144
6.31533824,0.9995078338574177,-147.03639627507545
6.317623296,0.9996614655934054,-147.16869968534846
6.319908352,0.9998366802803919,-147.30337399321996
6.322193408,1.0000223405848476,-147.44068051765544
6.324478976,1.0002066743445428,-147.58061064738718
6.326764032,1.0003779812551257,-147.7232011519845
6.329049088,1.000525482511535,-147.8680406426427
6.331334144,1.0006397539244682,-148.0148197184548
6.3336192,1.0007136041078262,-148.16294677247973
6.335904256,1.000742404080409,-148.31178899907334
6.338189312,1.0007241815395624,-148.4607060236393
6.340474368,1.0006601241611028,-148.60908528341795
6.342759424,1.0005543340361427,-148.75617890150755
6.34504448,1.000413373898703,-148.90150506523594
6.347329536,1.000246185404881,-149.0445944357011
6.349614592,1.0000633534960006,-149.18508635182167
6.351899648,0.9998763531236619,-149.3229237632075
6.354184704,0.9996972320012959,-149.45807442311516
6.35646976,0.9995371462951431,-149.59078245441228
6.358754816,0.9994062977440262,-149.7213438810864
6.361039872,0.9993131673495069,-149.85027926740574
6.363324928,0.9992634338791954,-149.97815960034995
6.365609984,0.9992604081977313,-150.1056614757205
6.36789504,0.999304343938384,-150.23341916990748
6.370180096,0.9993924110100793,-150.36214565202525
6.372465152,0.9995189998677124,-150.49241785571374
6.374750208,0.999676196397971,-150.62478076286033
6.377035264,0.9998540463171854,-150.7595676638605
6.37932032,1.0000411732442673,-150.89698147846266
6.381605376,1.0002258527902694,-151.03708804487349
6.383890432,1.0003963089938526,-151.1797900387911
6.386175488,1.0005417358572193,-151.32473804770555
6.388460544,1.0006530067680857,-151.4715852956958
6.3907456,1.0007230850134823,-151.61977041999776
6.393030656,1.000747359044345,-151.76856849585286
6.395315712,1.000724425855174,-151.91741390997856
6.397600768,1.0006556246272498,-152.06556567374113
6.399885824,1.0005453806478355,-152.21243678059085
6.40217088,1.0004004949049026,-152.35743058205813
6.404455936,1.0002302153799534,-152.500160387256
6.406740992,1.0000453374544955,-152.64029285494283
6.409026048,0.9998575595409689,-152.7777101271125
6.411311104,0.999678621096376,-152.9124465480994
6.41359616,0.9995200367956314,-153.04473022264193
6.415881216,0.999391848799215,-153.17490226583445
6.418166272,0.9993021383536218,-153.3034913152811
6.420451328,0.9992567008357381,-153.43110333632367
6.422736384,0.9992583628280787,-153.5583420633581
6.42502144,0.9993070865960583,-153.68597571342724
6.427306496,0.9993998328058075,-153.81462526335739
6.429591552,0.9995306866261816,-153.9448959944049
6.431876608,0.9996913952677734,-154.07726886895523
6.434161664,0.9998717103400722,-154.2121217357906
6.43644672,1.0000603604656517,-154.3496521002995
6.438731776,1.0002451944290467,-154.48989639485143
6.441016832,1.0004147405935517,-154.63271389303705
6.443301888,1.0005580500014857,-154.77776088795216
6.445586944,1.0006661677884154,-154.92463498081963
6.447872,1.0007321956648967,-155.07279114471106
6.450157056,1.0007519311579112,-155.2215542326916
6.452442112,1.0007241256167987,-155.37026888366964
6.454727168,1.0006505874732161,-155.51820208516057
6.457012224,1.0005357760874831,-155.66477206321247
6.45929728,1.000387091037257,-155.80947218016144
6.461582336,1.0002137679669623,-155.95179512699588
6.463867392,1.000026935041573,-156.091494443035
6.466152448,0.9998382793539151,-156.22846818751916
6.468437504,0.9996597652171745,-156.3627660077265
6.47072256,0.9995028271098502,-156.49460574337178
6.473007616,0.9993773118088948,-156.62436389873676
6.475292672,0.9992912807182935,-156.75261597653704
6.477577728,0.9992501799556113,-156.87989725213964
6.479862784,0.999256599328394,-157.00694557159375
6.48214784,0.9993102270732332,-157.1343800782059
6.484432896,0.9994076605056064,-157.2629377880332
6.486717952,0.9995427390170498,-157.39316618144616
6.489003008,0.999706777127625,-157.52557550653037
6.491288064,0.9998895982648277,-157.66045076022374
6.49357312,1.0000795394963955,-157.798090237385
6.495858176,1.000264605714107,-157.93840800123374
6.498143232,1.0004329711319462,-158.08133644904012
6.500428288,1.0005740522681745,-158.22644300109954
6.502713344,1.0006789019538531,-158.3733700345983
6.5049984,1.0007408613443927,-158.52146118110838
6.507283456,1.0007560516049459,-158.67012754518007
6.509568512,1.0007233413988572,-158.81866318825413
6.511853568,1.0006449831104043,-158.96638166688354
6.514138624,1.0005257263378124,-159.11267041036635
6.51642368,1.0003732104465242,-159.25698033227349
6.518708736,1.0001968820625768,-159.39890392239957
6.520993792,1.000008189461334,-159.53815929827917
6.523278848,0.9998188363108437,-159.67462789433122
6.525563904,0.9996409029929454,-159.80846025703715
6.52784896,0.9994856798401947,-159.93985978625534
6.530134016,0.9993630421847886,-160.06919396567412
6.532419072,0.9992807252463254,-160.1970453214731
6.534704128,0.999244072425364,-160.3240363130794
6.536989184,0.9992553582270826,-160.45078779240868
6.53927424,0.9993138276278785,-160.57806829234315
6.541559808,0.9994159674006117,-160.70651808408556
6.543844864,0.9995552676191931,-160.83668625636494
6.54612992,0.9997227520383798,-160.9690885599752
6.548414976,0.999908018269341,-161.10402378764357
6.550700032,1.0000991340422414,-161.24172356390457
6.552985088,1.0002841916844487,-161.38214080313696
6.555270144,1.0004514543215106,-161.52508739075
6.5575552,1.0005901534674515,-161.67025381579433
6.559840256,1.000691596462944,-161.81716368062607
6.562125312,1.000749396143291,-161.96522400258547
6.564410368,1.0007598604590444,-162.11374908017555
6.566695424,1.000722176282651,-162.2620891992406
6.56898048,1.0006389593923741,-162.40957534083458
6.571265536,1.0005152430048925,-162.55551784195336
6.573550592,1.0003588513884332,-162.69944523657247
6.575835648,1.000179766781244,-162.84089362091348
6.578120704,0.9999891415124108,-162.9796377658834
6.58040576,0.9997992138287531,-163.11565797024227
6.582690816,0.9996219447393357,-163.24896925007351
6.584975872,0.9994685697692185,-163.37988865535212
6.587260928,0.9993489125392078,-163.508795482588
6.589545984,0.9992704962854796,-163.63624724848998
6.59183104,0.9992383002562066,-163.76286447934643
6.594116096,0.9992544724137238,-163.88939128020485
6.596401152,0.9993179052385156,-164.0164388820999
6.598686208,0.9994247585154099,-164.14476458468818
6.600971264,0.9995681406249953,-164.27482741621952
6.60325632,0.9997389920493588,-164.40723259936
6.605541376,0.9999265256932279,-164.54222553302046
6.607826432,1.0001188039437228,-164.67995856763494
6.610111488,1.0003037880436778,-164.8204362599024
6.612396544,1.000469562478738,-164.96343503159392
6.6146816,1.0006058053073552,-165.10860090730736
6.616966656,1.0007037169764998,-165.255497438409
6.619251712,1.0007573593252495,-165.40346802449324
6.621536768,1.0007629510941782,-165.55187429750774
6.623821824,1.0007203278145318,-165.69998783181595
6.62610688,1.0006322506132932,-165.84713931575482
6.628391936,1.0005040017418267,-165.99274173759224
6.630676992,1.0003438511469425,-166.13624189729174
6.632962048,1.0001619002829403,-166.27723365431643
6.635247104,0.9999696669901263,-166.4154909817816
6.63753216,0.9997792303145386,-166.55094717856838
6.639817216,0.9996027858772879,-166.68376655710406
6.642102272,0.9994514272825894,-166.8141752256417
6.644387328,0.9993347888480657,-166.94258350981966
6.646672384,0.9992603476468953,-167.06960204605392
6.64895744,0.9992328293175534,-167.19589390564317
6.651242496,0.9992540186568881,-167.32211755679288
6.653527552,0.9993225090153717,-167.4489611632138
6.655812608,0.9994340606874241,-167.57713213737233
6.658097664,0.9995815084374128,-167.70715990585842
6.66038272,0.9997557163470743,-167.8395244603925
6.662667776,0.9999454815167801,-167.97451785537308
6.664952832,1.000138845641917,-168.11227706207004
6.667237888,1.0003235737493292,-168.25279538256197
6.669522944,1.0004879935223232,-168.39583317216787
6.671808,1.0006215940756307,-168.54099165277617
6.674093056,1.0007159169314268,-168.6878291323801
6.676378112,1.0007649455345085,-168.8357075550436
6.678663168,1.0007657951731768,-168.983895281249
6.680948224,1.0007182413203721,-169.1317706178227
6.68323328,1.000625141866853,-169.27862582255517
6.685518336,1.0004924202732004,-169.42381292072685
6.687803392,1.0003285767187575,-169.56684179703404
6.690088448,1.0001439077400252,-169.70733081809843
6.692373504,0.9999499736178802,-169.84506852924946
6.69465856,0.9997592616672248,-169.98001717003515
6.696943616,0.9995836974061361,-170.11223745497017
6.699228672,0.9994344631366874,-170.24211794389467
6.701513728,0.9993210362436176,-170.3700688039933
6.703798784,0.9992506945857473,-170.4966724689038
6.70608384,0.9992279272371428,-170.62256486740364
6.708368896,0.9992541410209885,-170.7485008387077
6.710653952,0.9993276196473613,-170.87509819267854
6.712939008,0.9994439647814388,-171.00310747851586
6.715224064,0.9995956340635778,-171.13306149246392
6.71750912,0.9997730434656685,-171.26536865004735
6.719794176,0.999964935093882,-171.40037229884
6.722079232,1.000159287976153,-171.53813645289964
6.724364288,1.0003436190685355,-171.67866037721416
6.726649344,1.0005063683669746,-171.8217296210808
6.7289344,1.0006371929719615,-171.96687465654287
6.731219456,1.0007278496396177,-172.1136275629053
6.733504512,1.0007724467504424,-172.2613623111912
6.735789568,1.000768294207836,-172.40937627074314
6.738074624,1.0007155333387572,-172.55696232923816
6.74035968,1.0006175217066133,-172.70344881681265
6.742644736,1.0004803451427264,-172.8482319438853
6.744929792,1.0003128493411624,-172.99076727507673
6.747214848,1.000125416503378,-173.13075778788058
6.749499904,0.9999300563726047,-173.26793238873677
6.75178496,0.9997389304265,-173.40227508260614
6.754070016,0.9995644852768699,-173.53395502796795
6.756355072,0.9994174739832893,-173.66328391958945
6.75864064,0.9993074138295569,-173.79071153023727
6.760925696,0.9992413089140207,-173.9168823112833
6.763210752,0.9992232985273927,-174.04238853567222
6.765495808,0.9992546594495388,-174.1679995770283
6.767780864,0.999333257154586,-174.29441320602953
6.77006592,0.9994542797547576,-174.42224104782898
6.772350976,0.9996100777774224,-174.55206167043158
6.774636032,0.9997906761568651,-174.6843260560167
6.776921088,0.9999847383847169,-174.81930315871145
6.779206144,1.000179804803965,-174.95709803798803
6.7814912,1.0003636920024752,-175.0976151916281
6.783776256,1.0005246962151255,-175.24063585393392
6.786061312,1.0006526943164151,-175.3857376574288
6.788346368,1.0007394080723888,-175.5324153972644
6.790631424,1.0007794236252223,-175.67996997848044
6.79291648,1.0007702348053826,-175.82776398222185
6.795201536,1.0007122641973805,-175.97506612283811
6.797486592,1.0006092992236801,-176.12116720406885
6.799771648,1.0004677522597958,-176.26550835658327
6.802056704,1.000296542704751,-176.40754718651542
6.80434176,1.0001065186219398,-176.54697200535992
6.806626816,0.9999097646167411,-176.6835518645189
6.808911872,0.999718616768619,-176.81731033011184
6.811196928,0.9995452389180364,-176.9483971886326
6.813481984,0.9994006421884899,-177.07714593089545
6.81576704,0.9992940594572158,-177.20407943414625
6.818052096,0.9992323289826758,-177.32975770957282
6.820337152,0.9992192722922877,-177.45489556623238
6.822622208,0.9992556988608698,-177.58015321970774
6.824907264,0.9993394627030847,-177.70629772755882
6.82719232,0.9994653497822127,-177.83395609523407
6.829477376,0.999625093535368,-177.96364837427262
6.831762432,0.999808874886732,-178.09584553075103
6.834047488,1.000004812279089,-178.2307979218986
6.836332544,1.0002006910796901,-178.36857057052765
6.8386176,1.0003839608541665,-178.50909722232717
6.840902656,1.0005430603739918,-178.65207853160095
6.843187712,1.000668024502102,-178.79713323600555
6.845472768,1.0007507402847136,-178.94367630917466
6.847757824,1.000786110604556,-179.09105963389038
6.85004288,1.0007716723449254,-179.23860026592382
6.852327936,1.0007086647482129,-179.38555299985427
6.854612992,1.0006006822901,-179.53126186143655
6.856898048,1.0004546541278934,-179.67511842201935
6.859183104,1.0002798999723455,-179.81663325801435
6.86146816,1.0000873246318445,-179.95548415622164
6.863753216,0.9998892165243274,179.90856348062835
6.866038272,0.9996979740331533,179.7754166603194
6.868323328,0.9995260231100136,179.6449408402705
6.870608384,0.9993840109114996,179.51673188156283
6.87289344,0.9992809318736068,179.39035376264724
6.875178496,0.9992235780127388,179.26514770280284
6.877463552,0.9992155680105214,179.14045070559092
6.879748608,0.9992573798850065,179.0154827278986
6.882033664,0.9993463382957837,178.8896247069605
6.88431872,0.9994768620996901,178.76215600417518
6.886603776,0.9996407690039666,178.6325769502433
6.888888832,0.9998273594112042,178.5004657474574
6.891173888,1.0000252615507492,178.36557765978472
6.893458944,1.000221685253297,178.227837631296
6.895744,1.000404237448125,178.08733625010473
6.898029056,1.0005613315206172,177.94437984838402
6.900314112,1.0006831602511241,177.79938946808895
6.902599168,1.0007617754818967,177.653000623599
6.904884224,1.0007921770509476,177.50582061114113
6.90716928,1.00077267934875,177.35857280187201
