freq,mag,phase
6.0,0.9999975986694861,99.4276995146249
6.008,0.9999978582909952,99.30499158055693
6.016,0.9999981078389458,99.18222389451337
6.024,0.9999983475373411,99.05939636571965
6.032,0.9999985776074961,98.93650890357172
6.04,0.9999987982680476,98.81356141763727
6.048,0.9999990097349682,98.69055381765719
6.056,0.9999992122215765,98.5674860135468
6.064,0.9999994059385504,98.44435791539713
6.072,0.9999995910939385,98.32116943347634
6.08,0.999999767893173,98.19792047823096
6.088,0.9999999365390809,98.07461096028716
6.096,1.0,97.95124079045218
6.104,1.0,97.82780987971547
6.112,0.9999999999999999,97.70431813925019
6.12,1.0,97.5807654804143
6.128,1.0,97.457151814752
6.136,1.0000000000000002,97.33347705399498
6.144,1.0,97.20974111006372
6.152,0.9999999999999999,97.08594389506875
6.16,0.9999999999999999,96.96208532131202
6.168,1.0,96.83816530128804
6.176,1.0,96.71418374768537
6.184,0.9999999999999999,96.59014057338769
6.192,0.9999999999999998,96.4660356914752
6.2,1.0,96.34186901522588
6.208,1.0,96.21764045811676
6.216,0.9999999999999999,96.0933499338252
6.224,0.9999999999999999,95.96899735623009
6.232,1.0,95.8445826394132
6.24,0.9999999999999998,95.72010569766044
6.248,0.9999999999999998,95.59556644546308
6.256,1.0,95.470964797519
6.264,1.0,95.34630066873399
6.272,0.9999999999999999,95.22157397422299
6.28,1.0,95.09678462931132
6.288,0.9999999999999999,94.97193254953592
6.296,0.9999999999999999,94.84701765064668
6.304,0.9999999999999999,94.72203984860755
6.312,1.0,94.59699905959789
6.32,1.0,94.47189520001363
6.328,1.0,94.34672818646855
6.336,0.9999999999999999,94.22149793579548
6.344,0.9999999999999998,94.09620436504758
6.352,1.0,93.97084739149949
6.36,1.0,93.84542693264856
6.368,1.0,93.71994290621616
6.376,1.0,93.5943952301488
6.384,1.0,93.46878382261937
6.392,1.0,93.34310860202834
6.4,0.9999999999999999,93.21736948700494
6.408,1.0,93.0915663964085
6.416,1.0,92.96569924932943
6.424,1.0,92.83976796509057
6.432,1.0,92.71377246324839
6.44,1.0,92.58771266359405
6.448,0.9999999999999999,92.4615884861547
6.456,0.9999999999999998,92.33539985119464
6.464,0.9999999999999999,92.20914667921645
6.472,0.9999999999999999,92.0828288909622
6.48,0.9999999999999998,91.95644640741466
6.4879999999999995,0.9999999999999999,91.82999914979841
6.496,1.0,91.70348703958095
6.504,0.9999999999999999,91.57690999847405
6.5120000000000005,1.0,91.45026794843464
6.52,1.0,91.32356081166631
6.5280000000000005,0.9999999999999998,91.19678851062001
6.536,0.9999999999999999,91.06995096799567
6.5440000000000005,1.0,90.94304810674295
6.552,0.9999999999999998,90.81607985006265
6.5600000000000005,1.0,90.68904612140764
6.568,0.9999999999999999,90.56194684448418
6.5760000000000005,1.0,90.43478194325289
6.584,0.9999999999999999,90.30755134192997
6.592,1.0,90.18025496498822
6.6,0.9999999999999999,90.05289273715826
6.608,0.9999999999999999,89.9254645834296
6.616,0.9999999999999999,89.79797042905172
6.624,1.0,89.67041019953518
6.632,1.0,89.54278382065277
6.64,0.9999999999999999,89.41509121844052
6.648,1.0,89.28733231919884
6.656,0.9999999999999999,89.15950704949361
6.664,0.9999999999999999,89.03161533615723
6.672,0.9999999999999999,88.90365710628971
6.68,1.0,88.77563228725977
6.688,1.0,88.64754080670582
6.696,0.9999999999999999,88.51938259253716
6.704,1.0,88.39115757293492
6.712,0.9999999999999998,88.26286567635313
6.72,1.0,88.13450683151986
6.728,1.0,88.00608096743815
6.736,1.0,87.87758801338714
6.744,1.0,87.74902789892303
6.752,0.9999999999999999,87.62040055388016
6.76,1.0,87.49170590837204
6.768,1.0,87.36294389279236
6.776,1.0,87.23411443781596
6.784,1.0,87.10521747439995
6.792,1.0,86.97625293378462
6.8,0.9999999999999999,86.84722074749448
6.808,0.9999999999999999,86.71812084733924
6.816,0.9999999999999999,86.58895316541488
6.824,1.0,86.4597176341045
6.832,0.9999999999999999,86.33041418607945
6.84,0.9999999999999999,86.2010427543002
6.848,1.0,86.07160327201737
6.856,1.0,85.94209567277268
6.864,1.0,85.81251989039991
6.872,0.9999999999999999,85.6828758590259
6.88,1.0,85.55316351307141
6.888,0.9999999999999999,85.42338278725218
6.896,1.0,85.2935336165798
6.904,0.9999999999999999,85.16361593636267
6.912,1.0,85.03362968220696
6.92,0.9999999999999999,84.90357479001747
6.928,1.0,84.77345119599865
6.936,1.0,84.64325883665536
6.944,1.0,84.51299764879401
6.952,1.0,84.38266756952328
6.96,1.0,84.25226853625506
6.968,0.9999999999999999,84.12180048670541
6.976,0.9999999999999999,83.99126335889541
6.984,1.0,83.86065709115202
6.992,1.0,83.729981622109
7.0,1.0,83.59923689070779
7.008,1.0,83.46842283619833
7.016,0.9999999999999999,83.33753939813997
7.024,0.9999999999999999,83.20658651640231
7.032,0.9999999999999998,83.07556413116609
7.04,0.9999999999999999,82.94447218292395
7.048,0.9999999999999999,82.81331061248135
7.056,0.9999999999999999,82.6820793609574
7.064,1.0,82.55077836978563
7.072,0.9999999999999999,82.41940758071492
7.08,1.0,82.28796693581019
7.088,0.9999999999999999,82.15645637745334
7.096,1.0,82.02487584834397
7.104,1.0,81.89322529150022
7.112,1.0,81.76150465025954
7.12,1.0,81.62971386827952
7.128,0.9999999999999999,81.49785288953868
7.136,0.9999999999999998,81.36592165833719
7.144,1.0,81.23392011929768
7.152,0.9999999999999999,81.10184821736601
7.16,1.0,80.96970589781208
7.168,1.0,80.83749310623043
7.176,1.0,80.7052097885412
7.184,0.9999999999999999,80.57285589099075
7.192,1.0,80.44043136015239
7.2,0.9999999999999999,80.30793614292713
7.208,1.0,80.1753701865445
7.216,0.9999999999999998,80.04273343856312
7.224,0.9999999999999999,79.91002584687153
7.232,1.0,79.77724735968883
7.24,0.9999999999999999,79.64439792556543
7.248,0.9999999999999999,79.51147749338374
7.256,1.0,79.37848601235882
7.264,1.0,79.24542343203913
7.272,1.0,79.11228970230717
7.28,1.0,78.97908477338012
7.288,0.9999999999999999,78.84580859581064
7.296,1.0000000000000002,78.71246112048738
7.304,0.9999999999999999,78.57904229863568
7.312,0.9999999999999999,78.4455520818183
7.32,1.0,78.31199042193596
7.328,1.0,78.17835727122807
7.336,1.0,78.0446525822732
7.344,1.0,77.91087630798997
7.352,1.0,77.77702840163742
7.36,0.9999999999999999,77.64310881681577
7.368,1.0,77.50911750746695
7.376,0.9999999999999999,77.37505442787527
7.384,1.0,77.24091953266796
7.392,0.9999999999999998,77.10671277681578
7.4,1.0,76.97243411563362
7.4079999999999995,0.9999999999999999,76.83808350478108
7.416,0.9999999999999998,76.70366090026296
7.4239999999999995,1.0,76.56916625843
7.432,0.9999999999999999,76.43459953597919
7.4399999999999995,0.9999999999999999,76.29996068995467
7.448,1.0,76.16524967774785
7.4559999999999995,1.0,76.03046645709836
7.464,0.9999999999999999,75.89561098609428
7.4719999999999995,1.0,75.76068322317293
7.48,0.9999999999999999,75.6256831271211
7.4879999999999995,0.9999999999999999,75.4906106570759
7.496,1.0,75.35546577252494
7.504,0.9999999999999999,75.22024843330715
7.5120000000000005,1.0,75.08495859961296
7.52,0.9999999999999999,74.9495962319852
7.5280000000000005,1.0,74.81416129131908
7.536,1.0,74.6786537388632
7.5440000000000005,0.9999999999999999,74.54307353621961
7.552,0.9999999999999999,74.40742064534453
7.5600000000000005,0.9999999999999999,74.27169502854865
7.568,1.0,74.13589664849783
7.5760000000000005,1.0,74.00002546821322
7.584,0.9999999999999999,73.864081451072
7.5920000000000005,1.0000000000000002,73.72806456080764
7.6,1.0,73.5919747615105
7.6080000000000005,1.0,73.45581201762803
7.616,0.9999999999999999,73.31957629396553
7.6240000000000006,1.0,73.18326755568611
7.632,0.9999999999999999,73.04688576831165
7.640000000000001,0.9999999999999999,72.91043089772272
7.648,0.9999999999999999,72.77390291015926
7.656000000000001,1.0,72.63730177222092
7.664,0.9999999999999999,72.50062745086746
7.672,1.0,72.36387991341901
7.68,1.0,72.22705912755667
7.688,0.9999999999999999,72.09016506132275
7.696,1.0,71.95319768312108
7.704,0.9999999999999999,71.81615696171754
7.712,0.9999999999999999,71.67904286624034
7.72,1.0,71.54185536618031
7.728,0.9999999999999999,71.40459443139133
7.736,1.0,71.2672600320907
7.744,1.0,71.12985213885935
7.752,1.0,70.99237072264229
7.76,0.9999999999999998,70.85481575474893
7.768,1.0,70.71718720685328
7.776,0.9999999999999999,70.57948505099446
7.784,1.0,70.44170925957687
7.792,1.0,70.30385980537052
7.8,0.9999999999999999,70.16593666151135
7.808,0.9999999999999999,70.02793980150156
7.816,1.0,69.88986919920985
7.824,1.0,69.75172482887172
7.832,1.0,69.61350666508977
7.84,0.9999999999999999,69.47521468283395
7.848,1.0,69.3368488574419
7.856,1.0,69.19840916461905
7.864,0.9999999999999999,69.05989558043916
7.872,0.9999999999999999,68.92130808134429
7.88,1.0,68.78264664414527
7.888,0.9999999999999999,68.6439112460218
7.896,0.9999999999999999,68.50510186452281
7.904,1.0,68.3662184775666
7.912,0.9999999999999999,68.22726106344119
7.92,1.0,68.08822960080442
7.928,0.9999999999999999,67.9491240686843
7.936,0.9999999999999999,67.80994444647916
7.944,0.9999999999999999,67.67069071395791
7.952,1.0,67.5313628512602
7.96,1.0,67.3919608388967
7.968,1.0,67.25248465774922
7.976,1.0000000000000002,67.11293428907105
7.984,1.0,66.97330971448703
7.992,1.0,66.83361091599379
8.0,0.9999999999999999,66.69383787595997
8.008,1.0,66.55399057712636
8.016,0.9999999999999999,66.41406900260611
8.024000000000001,0.9999999999999999,66.27407313588489
8.032,1.0,66.1340029608212
8.04,0.9999999999999999,65.99385846164627
8.048,0.9999999999999999,65.85363962296447
8.056000000000001,0.9999999999999999,65.71334642975339
8.064,0.9999999999999999,65.57297886736406
8.072,1.0,65.43253692152099
8.08,1.0,65.2920205783224
8.088000000000001,1.0,65.15142982424044
8.096,1.0,65.01076464612126
8.104,1.0,64.87002503118514
8.112,1.0,64.72921096702667
8.120000000000001,1.0,64.58832244161493
8.128,0.9999999999999998,64.44735944329362
8.136,0.9999999999999999,64.30632196078112
8.144,0.9999999999999999,64.16520998317066
8.152000000000001,1.0,64.02402349993051
8.16,1.0,63.88276250090411
8.168,1.0,63.741426976310095
8.176,1.0,63.60001691674247
8.184000000000001,0.9999999999999999,63.45853231317083
8.192,0.9999999999999999,63.31697315694037
8.2,1.0,63.175339439771996
8.208,1.0,63.03363115376244
8.216000000000001,1.0,62.89184829138457
8.224,0.9999999999999999,62.74999084548725
8.232,1.0,62.60805880929553
8.24,1.0,62.466052176410784
8.248000000000001,1.0000000000000002,62.323970940810874
8.256,1.0,62.181815096850166
8.264,1.0000000000000002,62.039584639259665
8.272,1.0,61.89727956314705
8.280000000000001,1.0000000000000002,61.75489986399696
8.288,0.9999999999999999,61.61244553767096
8.296,1.0,61.469916580407606
8.304,0.9999999999999999,61.32731298882261
8.312,0.9999999999999999,61.18463475990905
8.32,1.0,61.04188189103718
8.328,1.0,60.89905437995487
8.336,0.9999999999999999,60.75615222478734
8.344,1.0,60.6131754240377
8.352,1.0,60.47012397658655
8.36,1.0,60.32699788169251
8.368,1.0,60.18379713899199
8.376,1.0,60.04052174849956
8.384,1.0000000000000002,59.89717171060774
8.392,0.9999999999999999,59.75374702608744
8.4,0.9999999999999999,59.610247696087725
8.408,0.9999999999999999,59.466673722136214
8.416,1.0,59.323025106138864
8.424,1.0,59.17930185038039
8.432,1.0,59.035503957524085
8.44,0.9999999999999999,58.891631430612094
8.448,0.9999999999999999,58.747684273065374
8.456,1.0,58.603662488684016
8.464,1.0,58.45956608164699
8.472,0.9999999999999999,58.31539505651268
8.48,1.0,58.17114941821856
8.488,1.0,58.02682917208164
8.496,0.9999999999999999,57.882434323798336
8.504,1.0,57.73796487944467
8.512,1.0,57.59342084547639
8.52,1.0,57.44880222872908
8.528,1.0,57.30410903641819
8.536,1.0,57.15934127613926
8.544,0.9999999999999999,57.014498955867886
8.552,0.9999999999999999,56.86958208396004
8.56,0.9999999999999999,56.72459066915197
8.568,0.9999999999999999,56.5795247205605
8.576,0.9999999999999999,56.434384247682985
8.584,0.9999999999999999,56.289169260397586
8.592,1.0,56.14387976896325
8.6,1.0,55.99851578402004
8.608,1.0,55.853077316588966
8.616,0.9999999999999999,55.707564378072476
8.624,1.0,55.561976980254215
8.632,0.9999999999999999,55.416315135299534
8.64,1.0,55.2705788557553
8.648,1.0,55.12476815455031
8.656,0.9999999999999999,54.97888304499517
8.664,1.0,54.8329235407828
8.672,1.0,54.68688965598814
8.68,0.9999999999999998,54.54078140506875
8.688,1.0,54.39459880286463
8.696,1.0,54.248341864598586
8.704,0.9999999999999999,54.10201060587628
8.712,0.9999999999999999,53.95560504268653
8.72,1.0,53.80912519140128
8.728,0.9999999999999999,53.66257106877603
8.736,1.0000000000000002,53.515942691949775
8.744,1.0,53.369240078445394
8.752,0.9999999999999999,53.222463246169696
8.76,1.0,53.0756122134137
8.768,1.0,52.928686998852754
8.776,0.9999999999999999,52.78168762154687
8.784,1.0,52.63461410094076
8.792,0.9999999271895021,52.48746645686419
8.8,0.9999998408910402,52.34024470953209
8.808,0.9999997551146279,52.19294887954487
8.815999999999999,0.9999996699046023,52.04557898788862
8.824,0.9999995853055305,51.89813505593519
8.832,0.9999995013622002,51.75061710544272
8.84,0.9999994181196065,51.60302515855566
8.847999999999999,0.9999993356229419,51.45535923780503
8.856,0.9999992539175836,51.3076193661087
8.864,0.9999991730490824,51.15980556677173
8.872,0.9999990930631515,51.01191786348653
8.879999999999999,0.9999990140056523,50.86395628033315
8.888,0.9999989359225855,50.71592084177948
8.896,0.999998858860077,50.567811572681705
8.904,0.9999987828643655,50.41962849828449
8.911999999999999,0.9999987079817921,50.27137164422115
8.92,0.9999986342587859,50.123041036514095
8.928,0.9999985617418521,49.97463670157518
8.936,0.99999849047756,49.82615866620583
8.943999999999999,0.9999984205125295,49.677606957597426
8.952,0.9999983518934192,49.528981603331644
8.96,0.9999982846669129,49.38028263138081
8.968,0.9999982188797064,49.2315100701082
8.975999999999999,0.9999981545784961,49.08266394826826
8.984,0.9999980918099636,48.93374429500711
8.992,0.999998030620764,48.78475113986281
9.0,0.999997971057513,48.635684512765806
9.008,0.9999979131667728,48.48654444403909
9.016,0.9999978569950382,48.33733096439871
9.024000000000001,0.9999978025887247,48.18804410495418
9.032,0.9999977499941541,48.03868389720882
9.04,0.9999976992575411,47.889250373060015
9.048,0.9999976504249795,47.739743564799696
9.056000000000001,0.9999976035424288,47.59016350511489
9.064,0.9999975586557008,47.4405102270879
9.072,0.9999975158104453,47.290783764196746
9.08,0.9999974750521359,47.14098415031569
9.088000000000001,0.9999974364260577,46.991111419715594
9.096,0.9999973999772924,46.841165607064426
9.104,0.9999973657507044,46.69114674742747
9.112,0.9999973337909265,46.54105487626803
9.120000000000001,0.9999973041423476,46.390890029447796
9.128,0.999997276849096,46.240652243227245
9.136,0.9999972519550288,46.09034155426615
9.144,0.999997229503714,45.939957999623964
9.152000000000001,0.9999972095384201,45.78950161676051
9.16,0.9999971921020995,45.638972443536275
9.168,0.999997177237376,45.48837051821292
9.176,0.9999971649865295,45.33769587945376
9.184000000000001,0.9999971553914828,45.18694856632444
9.192,0.9999971484937873,45.0361286182933
9.2,0.9999971443346084,44.88523607523184
9.208,0.9999971429547128,44.734270977415306
9.216000000000001,0.999997144394452,44.58323336552332
9.224,0.9999971486937517,44.43212328064033
9.232,0.9999971558920944,44.280940764256066
9.24,0.9999971660285071,44.1296858582662
9.248000000000001,0.9999971791415473,43.97835860497294
9.256,0.9999971952692888,43.8269590470855
9.264,0.9999972144493079,43.67548722772068
9.272,0.9999972367186695,43.52394319040347
9.280000000000001,0.999997262113912,43.37232697906763
9.288,0.9999972906710359,43.220638638056386
9.296,0.9999973224254884,43.06887821212276
9.304,0.9999973574121496,42.91704574643036
9.312000000000001,0.9999973956653194,42.76514128655408
9.32,0.9999974372187043,42.61316487848053
9.328,0.9999974821054023,42.46111656860868
9.336,0.9999975303578909,42.30899640375057
9.344,0.9999975820080131,42.15680443113192
9.352,0.9999976370869641,42.004540698392745
9.36,0.9999976956252778,41.85220525358807
9.368,0.9999977576528137,41.69979814518841
9.376,0.9999978231987441,41.547319422080676
9.384,0.9999978922915406,41.39476913356859
9.392,0.9999979649589612,41.24214732937362
9.4,0.9999980412280378,41.089454059635344
9.408,0.9999981211250629,40.93668937491246
9.416,0.9999982046755774,40.783853326183156
9.424,0.9999982919043578,40.63094596484612
9.432,0.9999983828354037,40.47796734272093
9.44,0.9999984774919254,40.324917512049026
9.448,0.9999985758963311,40.17179652549421
9.456,0.9999986780702173,40.01860443614351
9.464,0.9999987840343528,39.86534129750778
9.472,0.99999889380867,39.71200716352256
9.48,0.999999007412252,39.5586020885486
9.488,0.9999991248633205,39.40512612737288
9.496,0.9999992461792256,39.25157933520903
9.504,0.999999371376433,39.09796176769835
9.512,0.999999500470514,38.94427348091034
9.52,0.9999996334761335,38.79051453134366
9.528,0.9999997704070397,38.63668497592664
9.536,0.9999999112760535,38.48278487201829
9.544,1.0,38.328814277408874
9.552,1.0,38.1747732503208
9.56,0.9999999999999999,38.020661849409215
9.568,1.0,37.866480133763126
9.576,1.0,37.71222816290571
9.584,1.0,37.55790599679554
9.592,1.0,37.40351369582698
9.6,0.9999999999999998,37.24905132083137
9.608,1.0,37.09451893307738
9.616,1.0,36.93991659427221
9.624,1.0,36.78524436656206
9.632,1.0,36.630502312533174
9.64,1.0,36.475690495212405
9.648,1.0,36.32080897806828
9.656,1.0,36.1658578250115
9.664,1.0,36.01083710039608
9.672,1.0,35.855746869019775
9.68,0.9999999999999999,35.70058719612529
9.688,0.9999999999999999,35.54535814740069
9.696,0.9999999999999998,35.39005978898056
9.704,1.0,35.234692187446505
9.712,0.9999999999999999,35.07925540982822
9.72,1.0,34.9237495236041
9.728,1.0,34.768174596702195
9.736,1.0,34.61253069750086
9.744,1.0,34.456817894829754
9.752,1.0,34.301036257970445
9.76,0.9999999999999999,34.145185856657385
9.768,1.0,33.989266761078596
9.776,1.0,33.83327904187658
9.784,1.0,33.67722277014895
9.792,1.0,33.52109801744943
9.8,1.0,33.364904855788524
9.808,1.0,33.208643357634365
9.816,0.9999999999999999,33.052313595913404
9.824,1.0,32.895915644011396
9.832,1.0,32.739449575773946
9.84,0.9999999999999999,32.58291546550755
9.847999999999999,1.0,32.4263133879801
9.856,0.9999999999999999,32.269643418421865
9.864,1.0000000000000002,32.11290563252618
9.872,1.0,31.956100106450247
9.879999999999999,1.0,31.799226916815815
9.888,1.0,31.642286140709995
9.896,0.9999999999999999,31.48527785568607
9.904,1.0,31.32820213976415
9.911999999999999,1.0,31.17105907143191
9.92,1.0,31.013848729645304
9.928,0.9999999999999999,30.856571193829456
9.936,0.9999999999999999,30.699226543879238
9.943999999999999,1.0,30.541814860159946
9.952,0.9999999999999998,30.384336223508036
9.96,0.9999999999999999,30.22679071523198
9.968,0.9999999999999999,30.069178417112774
9.975999999999999,1.0,29.91149941140463
9.984,1.0,29.7537537808357
9.992,0.9999999999999999,29.595941608608804
10.0,1.0,29.438062978401987
10.008,1.0,29.280117974369162
10.016,1.0,29.122106681140767
10.024000000000001,0.9999999999999999,28.964029183824472
10.032,1.0,28.80588556800571
10.04,0.9999999999999999,28.647675919748266
10.048,0.9999999999999999,28.489400325594872
10.056000000000001,0.9999999999999999,28.3310588725679
10.064,0.9999999999999999,28.172651648169857
10.072,0.9999999999999999,28.01417874038389
10.08,0.9999999999999999,27.855640237674354
10.088000000000001,0.9999999999999999,27.697036228987464
10.096,1.0,27.538366803751746
10.104,0.9999999999999999,27.37963205187842
10.112,1.0000000000000002,27.220832063762053
10.120000000000001,1.0,27.06196693028102
10.128,0.9999999999999999,26.903036742797948
10.136,1.0,26.744041593160116
10.144,0.9999999999999999,26.58498157369989
10.152000000000001,1.0,26.42585677723532
10.16,0.9999999999999999,26.266667297070345
10.168,1.0,26.107413226995245
10.176,1.0,25.948094661286966
10.184000000000001,0.9999999999999999,25.78871169470965
10.192,1.0,25.629264422514822
10.2,0.9999999999999999,25.46975294044169
10.208,1.0,25.310177344717484
10.216000000000001,1.0,25.150537732057863
10.224,0.9999999999999998,24.990834199667052
10.232,1.0,24.831066845238066
10.24,1.0,24.671235766952993
