freq,mag,phase
6.0,0.9999875839790974,40.117320253627014
6.008,0.9999878514926304,39.90328210224221
6.016,0.9999881125582084,39.68917822776536
6.024,0.9999883672548184,39.47500887964441
6.032,0.9999886156610692,39.26077430832955
6.04,0.9999888578551922,39.046474765271114
6.048,0.9999890939150399,38.832110502917565
6.056,0.999989323918084,38.61768177471329
6.064,0.9999895479414159,38.403188835096515
6.072,0.9999897660617445,38.188631939497036
6.08,0.9999899783553953,37.974011344334016
6.088,0.99999018489831,37.75932730701372
6.096,0.9999903857660454,37.54458008592717
6.104,0.9999905810337714,37.329769940447825
6.112,0.9999907707762717,37.114897130929165
6.12,0.9999909550679413,36.89996191870232
6.128,0.9999911339827873,36.684964566073496
6.136,0.9999913075944258,36.469905336321645
6.144,0.9999914759760832,36.25478449369578
6.152,0.9999916392005932,36.03960230341246
6.16,0.9999917973403987,35.82435903165317
6.168,0.9999919504675476,35.6090549455617
6.176,0.9999920986536945,35.39369031324142
6.184,0.9999922419700992,35.17826540375259
6.192,0.9999923804876251,34.96278048710951
6.2,0.9999925142767392,34.7472358342779
6.208,0.9999926434075113,34.53163171717185
6.216,0.9999927679496128,34.31596840865111
6.224,0.999992887972317,34.100246182518106
6.232,0.9999930035444965,33.88446531351501
6.24,0.9999931147346237,33.668626077320745
6.248,0.9999932216107708,33.45272875054794
6.256,0.9999933242406073,33.23677361073993
6.264,0.9999934226914007,33.020760936367616
6.272,0.999993517030015,32.804691006826324
6.28,0.9999936073229112,32.58856410243263
6.288,0.999993693636145,32.37238050442121
6.296,0.9999937760353674,32.156140494941496
6.304,0.9999938545858247,31.93984435705446
6.312,0.9999939293523551,31.723492374729304
6.32,0.9999940003993915,31.507084832840018
6.328,0.9999940677909589,31.290622017162054
6.336,0.9999941315906744,31.07410421436891
6.344,0.999994191861747,30.857531712028567
6.352,0.9999942486669764,30.640904798600058
6.36,0.999994302068753,30.424223763429957
6.368,0.9999943521290569,30.20748889674866
6.376,0.9999943989094586,29.990700489666914
6.384,0.9999944424711171,29.773858834172092
6.392,0.9999944828747804,29.556964223124496
6.4,0.9999945201807845,29.34001695025363
6.408,0.999994554449054,29.123017310154484
6.416,0.9999945857391003,28.90596559828367
6.424,0.999994614110022,28.688862110955636
6.432,0.9999946396205047,28.47170714533873
6.44,0.9999946623288204,28.254500999451352
6.448,0.9999946822928277,28.037243972157974
6.456,0.9999946995699698,27.819936363165173
6.464,0.9999947142172767,27.602578473017587
6.472,0.9999947262913629,27.385170603093876
6.48,0.9999947358484276,27.167713055602647
6.4879999999999995,0.9999947429442557,26.950206133578316
6.496,0.999994747634216,26.732650140876864
6.504,0.9999947499732617,26.51504538217185
6.5120000000000005,0.9999947500159296,26.297392162949883
6.52,0.9999947478163418,26.07969078950668
6.5280000000000005,0.9999947434282025,25.8619415689424
6.536,0.9999947369048008,25.64414480915769
6.5440000000000005,0.9999947282990084,25.426300818848922
6.552,0.9999947176632807,25.208409907504183
6.5600000000000005,0.9999947050496569,24.99047238539839
6.568,0.9999946905097586,24.77248856358927
6.5760000000000005,0.9999946740947909,24.554458753912396
6.584,0.9999946558555415,24.336383268977087
6.592,0.9999946358423824,24.11826242216135
6.6,0.9999946141052669,23.900096527607698
6.608,0.9999945906937329,23.681885900218195
6.616,0.9999945656569005,23.46363085564992
6.624,0.9999945390434734,23.2453317103102
6.632,0.9999945109017379,23.02698878135184
6.64,0.9999944812795638,22.808602386668365
6.648,0.999994450224404,22.590172844889178
6.656,0.9999944177832955,22.371700475374716
6.664,0.999994384002858,22.15318559821155
6.672,0.9999943489292951,21.93462853420747
6.68,0.9999943126083947,21.71602960488651
6.688,0.9999942750855279,21.497389132484013
6.696,0.9999942364056508,21.278707439941513
6.704,0.9999941966133028,21.059984850901806
6.712,0.9999941557526094,20.841221689703744
6.72,0.9999941138672793,20.622418281377207
6.728,0.9999940710006076,20.403574951637896
6.736,0.9999940271954738,20.184692026882168
6.744,0.9999939824943438,19.965769834181827
6.752,0.9999939369392689,19.746808701278876
6.76,0.9999938905718868,19.52780895658023
6.768,0.9999938434334222,19.308770929152406
6.776,0.9999937955646858,19.089694948716215
6.784,0.999993747006077,18.870581345641327
6.792,0.9999936977975815,18.65143045094094
6.8,0.999993647978774,18.432242596266285
6.808,0.9999935975888178,18.213018113901224
6.816,0.9999935466664643,17.99375733675668
6.824,0.9999934952500551,17.774460598365206
6.832,0.9999934433775215,17.555128232875344
6.84,0.9999933910863853,17.33576057504609
6.848,0.999993338413759,17.11635796024129
6.856,0.9999932853963464,16.89692072442395
6.864,0.999993232070443,16.67744920415062
6.872,0.9999931784719378,16.457943736565657
6.88,0.9999931246363123,16.238404659395492
6.888,0.9999930705986408,16.018832310942912
6.896,0.9999930163935931,15.799227030081251
6.904,0.9999929620554332,15.579589156248558
6.912,0.9999929076180208,15.359919029441784
6.92,0.999992853114812,15.140216990210892
6.928,0.9999927985788586,14.920483379653003
6.936,0.9999927440428117,14.700718539406381
6.944,0.9999926895389188,14.480922811644595
6.952,0.9999926350990277,14.261096539070465
6.96,0.9999925807545847,14.041240064910074
6.968,0.9999925265366375,13.821353732906749
6.976,0.9999924724758341,13.601437887315
6.984,0.9999924186024252,13.38149287289443
6.992,0.9999923649462634,13.16151903490364
7.0,0.9999923115368056,12.94151671909408
7.008,0.9999922584031128,12.721486271703894
7.016,0.9999922055738507,12.501428039451744
7.024,0.9999921530772922,12.281342369530593
7.032,0.9999921009413159,12.061229609601488
7.04,0.9999920491934091,11.841090107787267
7.048,0.9999919978606671,11.62092421266632
7.056,0.9999919469697959,11.400732273266252
7.064,0.9999918965471108,11.180514639057566
7.072,0.9999918466185395,10.960271659947328
7.08,0.9999917972096223,10.740003686272754
7.088,0.9999917483455126,10.519711068794846
7.096,0.9999917000509784,10.299394158691948
7.104,0.9999916523504028,10.079053307553336
7.112,0.999991605267786,9.85868886737272
7.12,0.999991558826746,9.638301190541759
7.128,0.9999915130505185,9.417890629843583
7.136,0.9999914679619596,9.197457538446253
7.144,0.9999914235835462,8.97700226989617
7.152,0.9999913799373766,8.75652517811158
7.16,0.9999913370451725,8.53602661737592
7.168,0.9999912949282798,8.315506942331227
7.176,0.9999912536076689,8.094966507971531
7.184,0.9999912131039383,7.874405669636159
7.192,0.9999911734373119,7.653824783003117
7.2,0.9999911346276446,7.433224204082337
7.208,0.9999910966944194,7.212604289209057
7.216,0.9999910596567521,6.991965395037006
7.224,0.9999910235333895,6.771307878531723
7.232,0.9999909883427135,6.550632096963762
7.24,0.9999909541027395,6.329938407901926
7.248,0.999990920831121,6.109227169206457
7.256,0.9999908885451473,5.8884987390222605
7.264,0.9999908572617466,5.667753475772013
7.272,0.9999908269974886,5.44699173814938
7.28,0.9999907977685832,5.226213885112098
7.288,0.9999907695908832,5.005420275875126
7.296,0.9999907424798863,4.784611269903758
7.304,0.9999907164507347,4.563787226906689
7.312,0.9999906915182184,4.342948506829093
7.32,0.9999906676967746,4.1220954698457035
7.328,0.9999906450004912,3.901228476353854
7.336,0.9999906234431066,3.6803478869664734
7.344,0.9999906030380118,3.459454062505176
7.352,0.999990583798252,3.238547363993205
7.36,0.9999905657365273,3.0176281526484234
7.368,0.9999905488651956,2.796696789876348
7.376,0.9999905331962715,2.5757536372630567
7.384,0.9999905187414309,2.354799056568181
7.392,0.9999905055120107,2.1338334097178273
7.4,0.9999904935190103,1.9128570587975127
7.4079999999999995,0.9999904827730938,1.6918703660451087
7.416,0.9999904732845906,1.4708736938436264
7.4239999999999995,0.9999904650634982,1.2498674047143883
7.432,0.9999904581194828,1.0288518613095383
7.4399999999999995,0.9999904524618815,0.8078274264053179
7.448,0.9999904480997026,0.5867944628945359
7.4559999999999995,0.9999904450416294,0.36575333377982644
7.464,0.9999904432960196,0.14470440216608357
7.4719999999999995,0.999990442870908,-0.07635196874626397
7.48,0.999990443774008,-0.29741541566887225
7.4879999999999995,0.9999904460127139,-0.5184855752322204
7.496,0.9999904495941004,-0.7395620839931942
7.504,0.9999904545249273,-0.9606445784419217
7.5120000000000005,0.9999904608116377,-1.18173269500931
7.52,0.9999904684603633,-1.4028260700739161
7.5280000000000005,0.999990477476923,-1.6239243399695071
7.536,0.9999904878668265,-1.8450271409919197
7.5440000000000005,0.9999904996352753,-2.0661341094066517
7.552,0.9999905127871646,-2.2872448814557207
7.5600000000000005,0.999990527327084,-2.508359093365287
7.568,0.9999905432593214,-2.7294763813525043
7.5760000000000005,0.9999905605878627,-2.9505963816331433
7.584,0.9999905793163945,-3.1717187304284775
7.5920000000000005,0.9999905994483053,-3.3928430639728955
7.6,0.9999906209866881,-3.6139690185208164
7.6080000000000005,0.9999906439343412,-3.835096230354279
7.616,0.9999906682937713,-4.056224335789867
7.6240000000000006,0.999990694067193,-4.277352971186347
7.632,0.9999907212565331,-4.498481772951551
7.640000000000001,0.999990749863431,-4.719610377550029
7.648,0.9999907798892406,-4.9407384215099475
7.656000000000001,0.9999908113350326,-5.161865541430742
7.664,0.9999908442015962,-5.382991373990016
7.672,0.9999908784894398,-5.604115555951164
7.68,0.999990914198795,-5.825237724170392
7.688,0.9999909513296161,-6.046357515604128
7.696,0.9999909898815847,-6.267474567316246
7.704,0.9999910298541076,-6.488588516485372
7.712,0.9999910712463226,-6.709699000412133
7.72,0.9999911140570984,-6.930805656526459
7.728,0.9999911582850364,-7.151908122394828
7.736,0.9999912039284738,-7.373006035727552
7.744,0.9999912509854828,-7.594099034386055
7.752,0.9999912994538765,-7.815186756390098
7.76,0.9999913493312076,-8.036268839925102
7.768,0.999991400614771,-8.257344923349363
7.776,0.9999914533016061,-8.47841464520132
7.784,0.9999915073884988,-8.69947764420682
7.792,0.9999915628719833,-8.920533559286339
7.8,0.9999916197483432,-9.141582029562262
7.808,0.9999916780136147,-9.362622694366095
7.816,0.9999917376635876,-9.583655193245708
7.824,0.9999917986938077,-9.804679165972564
7.832,0.9999918610995783,-10.025694252548933
7.84,0.9999919248759621,-10.246700093215136
7.848,0.999991990017784,-10.467696328456707
7.856,0.9999920565196317,-10.68868259901166
7.864,0.9999921243758588,-10.90965854587762
7.872,0.9999921935805861,-11.130623810319056
7.88,0.9999922641277033,-11.351578033874453
7.888,0.9999923360108716,-11.572520858363472
7.896,0.9999924092235253,-11.793451925894125
7.904,0.9999924837588736,-12.014370878869942
7.912,0.9999925596099026,-12.23527735999709
7.92,0.9999926367693777,-12.456171012291536
7.928,0.9999927152298447,-12.677051479086167
7.936,0.9999927949836322,-12.897918404037908
7.944,0.9999928760228541,-13.118771431134824
7.952,0.9999929583394102,-13.339610204703234
7.96,0.9999930419249888,-13.560434369414772
7.968,0.9999931267710693,-13.781243570293494
7.976,0.9999932128689233,-14.002037452722918
7.984,0.9999933002096161,-14.222815662453078
7.992,0.9999933887840101,-14.443577845607576
8.0,0.9999934785827655,-14.664323648690601
8.008,0.9999935695963428,-14.885052718593926
8.016,0.9999936618150043,-15.105764702604015
8.024000000000001,0.9999937552288158,-15.326459248408812
8.032,0.9999938498276499,-15.547136004104821
8.04,0.9999939456011864,-15.76779461820419
8.048,0.9999940425389144,-15.988434739641523
8.056000000000001,0.9999941406301353,-16.209056017780743
8.064,0.9999942398639634,-16.42965810242208
8.072,0.9999943402293285,-16.650240643809113
8.08,0.9999944417149774,-16.87080329263551
8.088000000000001,0.9999945443094762,-17.091345700051836
8.096,0.9999946480012121,-17.31186751767248
8.104,0.9999947527783947,-17.532368397582616
8.112,0.9999948586290585,-17.7528479923449
8.120000000000001,0.9999949655410642,-17.9733059550062
8.128,0.9999950735021015,-18.193741939104456
8.136,0.99999518249969,-18.414155598675578
8.144,0.9999952925211814,-18.634546588260065
8.152000000000001,0.9999954035537609,-18.85491456290968
8.16,0.9999955155844497,-19.075259178194223
8.168,0.9999956286001068,-19.29558009020834
8.176,0.9999957425874297,-19.515876955578133
8.184000000000001,0.9999958575329576,-19.73614943146766
8.192,0.9999959734230727,-19.956397175585735
8.2,0.9999960902440009,-20.176619846192587
8.208,0.9999962079818154,-20.39681710210641
8.216000000000001,0.9999963266224371,-20.6169886027098
8.224,0.9999964461516367,-20.83713400795645
8.232,0.9999965665550365,-21.057252978377754
8.24,0.9999966878181127,-21.277345175089245
8.248000000000001,0.9999968099261953,-21.497410259796965
8.256,0.999996932864472,-21.717447894804078
8.264,0.9999970566179882,-21.93745774301737
8.272,0.9999971811716493,-22.15743946795361
8.280000000000001,0.9999973065102231,-22.377392733745843
8.288,0.9999974326183395,-22.597317205149896
8.296,0.9999975594804944,-22.817212547550774
8.304,0.9999976870810493,-23.037078426968975
8.312,0.999997815404234,-23.256914510066608
8.32,0.999997944434148,-23.47672046415403
8.328,0.9999980741547619,-23.69649595719573
8.336,0.9999982045499191,-23.916240657816946
8.344,0.9999983356033365,-24.13595423530952
8.352,0.9999984672986075,-24.355636359638417
8.36,0.9999985996192026,-24.575286701447578
8.368,0.99999873254847,-24.79490493206639
8.376,0.9999988660696384,-25.014490723515458
8.384,0.9999990001658183,-25.234043748513
8.392,0.9999991348200024,-25.45356368048065
8.4,0.9999992700150677,-25.673050193549766
8.408,0.999999405733777,-25.892502962567093
8.416,0.9999995419587792,-26.111921663101167
8.424,0.9999996786726116,-26.33130597144781
8.432,0.9999998158577015,-26.550655564636536
8.44,0.9999999534963651,-26.769970120435964
8.448,0.9999999999999999,-26.98924931736018
8.456,0.9999999999999999,-27.208492834674104
8.464,1.0,-27.427700352399736
8.472,1.0,-27.646871551321578
8.48,0.9999999999999999,-27.866006112992768
8.488,0.9999999999999999,-28.085103719740367
8.496,0.9999999999999999,-28.304164054671524
8.504,0.9999999999999999,-28.52318680167874
8.512,0.9999999999999999,-28.742171645445854
8.52,1.0,-28.961118271453355
8.528,1.0,-29.180026365984244
8.536,1.0,-29.398895616129284
8.544,1.0,-29.617725709792907
8.552,1.0,-29.836516335698217
8.56,1.0,-30.055267183392996
8.568,0.9999999999999999,-30.273977943254636
8.576,0.9999999999999999,-30.492648306495894
8.584,1.0,-30.71127796517002
8.592,1.0,-30.92986661217634
8.6,1.0,-31.14841394126526
8.608,0.9999999999999999,-31.366919647043808
8.616,1.0,-31.58538342498063
8.624,1.0,-31.803804971411527
8.632,1.0,-32.02218398354417
8.64,0.9999999999999999,-32.240520159463756
8.648,1.0,-32.45881319813763
8.656,1.0,-32.677062799420796
8.664,1.0,-32.89526866406053
8.672,1.0,-33.113430493701834
8.68,1.0,-33.33154799089197
8.688,1.0,-33.54962085908582
8.696,1.0,-33.76764880265039
8.704,1.0,-33.98563152687006
8.712,0.9999999999999999,-34.20356873795106
8.72,1.0,-34.42146014302662
8.728,0.9999999999999999,-34.63930545016144
8.736,0.9999999999999998,-34.85710436835664
8.744,0.9999999999999998,-35.07485660755429
8.752,1.0,-35.292561878642225
8.76,1.0,-35.510219893458505
8.768,1.0,-35.72783036479623
8.776,1.0,-35.94539300640782
8.784,1.0,-36.16290753300979
8.792,1.0,-36.38037366028699
8.8,1.0,-36.59779110489734
8.808,1.0,-36.8151595844759
8.815999999999999,0.9999999999999999,-37.03247881763952
8.824,1.0,-37.24974852399115
8.832,1.0,-37.466968424123905
8.84,0.9999999999999999,-37.68413823962546
8.847999999999999,1.0,-37.901257693082506
8.856,0.9999999999999999,-38.11832650808458
8.864,1.0,-38.335344409228355
8.872,1.0,-38.55231112212172
8.879999999999999,0.9999999999999999,-38.76922637338799
8.888,1.0,-38.98608989066983
8.896,1.0,-39.20290140263313
8.904,0.9999999999999999,-39.41966063897116
8.911999999999999,1.0,-39.63636733040842
8.92,0.9999999999999999,-39.85302120870456
8.928,1.0,-40.069622006658044
8.936,1.0,-40.28616945811013
8.943999999999999,1.0,-40.50266329794858
8.952,0.9999999999999999,-40.71910326211147
8.96,1.0,-40.93548908759062
8.968,1.0,-41.15182051243542
8.975999999999999,0.9999999999999999,-41.368097275756476
8.984,0.9999999999999999,-41.58431911772913
8.992,0.9999999999999999,-41.800485779596784
9.0,0.9999999999999999,-42.01659700367466
9.008,1.0,-42.232652533353054
9.016,0.9999999999999999,-42.448652113100955
9.024000000000001,1.0,-42.66459548846905
9.032,1.0,-42.88048240609326
9.04,0.9999999999999999,-43.096312613698075
9.048,1.0,-43.3120858600997
9.056000000000001,1.0,-43.52780189520919
9.064,1.0,-43.74346047003555
9.072,0.9999999999999999,-43.95906133668909
9.08,0.9999999999999999,-44.17460424838433
9.088000000000001,1.0,-44.39008895944292
9.096,0.9999999999999999,-44.605515225296685
9.104,1.0,-44.82088280249078
9.112,0.9999999999999999,-45.03619144868625
9.120000000000001,1.0000000000000002,-45.25144092266308
9.128,1.0,-45.466630984322784
9.136,1.0,-45.68176139469149
9.144,1.0,-45.89683191592245
9.152000000000001,1.0,-46.11184231129867
9.16,1.0,-46.32679234523561
9.168,1.0,-46.541681783283764
9.176,0.9999999999999998,-46.75651039213131
9.184000000000001,1.0,-46.971277939606274
9.192,0.9999999999999999,-47.18598419467928
9.2,1.0,-47.400628927465846
9.208,1.0,-47.615211909228826
9.216000000000001,1.0,-47.82973291238049
9.224,0.9999999999999999,-48.044191710484945
9.232,1.0,-48.25858807826042
9.24,1.0,-48.47292179158134
9.248000000000001,1.0,-48.68719262748039
9.256,1.0,-48.901400364150625
9.264,1.0,-49.115544780947616
9.272,1.0,-49.32962565839138
9.280000000000001,1.0,-49.54364277816812
9.288,0.9999999999999999,-49.75759592313232
9.296,0.9999999999999999,-49.9714848773086
9.304,0.9999999999999999,-50.185309425893415
9.312000000000001,1.0,-50.39906935525672
9.32,1.0,-50.612764452943765
9.328,0.9999999999999999,-50.82639450767684
9.336,0.9999999999999999,-51.03995930935673
9.344,0.9999999999999999,-51.25345864906417
9.352,1.0,-51.466892319061664
9.36,0.9999999999999999,-51.68026011279453
9.368,1.0,-51.893561824892764
9.376,1.0,-52.10679725117191
9.384,0.9999999999999999,-52.319966188634865
9.392,1.0,-52.53306843547265
9.4,0.9999999999999999,-52.74610379106609
9.408,0.9999999999999999,-52.95907205598659
9.416,0.9999999999999999,-53.171973031997574
9.424,0.9999999999999999,-53.38480652205536
9.432,1.0,-53.59757233031035
9.44,1.0,-53.81027026210782
9.448,0.9999999999999999,-54.022900123989196
9.456,1.0,-54.23546172369258
9.464,0.9999999999999999,-54.447954870154035
9.472,1.0,-54.660379373508064
9.48,1.0,-54.87273504508873
9.488,0.9999999999999999,-55.08502169743014
9.496,1.0,-55.29723914426754
9.504,1.0,-55.509387200537645
9.512,1.0,-55.72146568237975
9.52,1.0,-55.9334744071361
9.528,1.0,-56.14541319335281
9.536,0.9999999999999999,-56.35728186078031
9.544,1.0,-56.56908023037433
9.552,0.9999999999999998,-56.78080812429621
9.56,1.0,-56.99246536591401
9.568,1.0,-57.204051779802796
9.576,1.0,-57.415567191745914
9.584,1.0,-57.62701142873535
9.592,1.0,-57.83838431897292
9.6,1.0,-58.04968569187104
9.608,1.0,-58.260915378053994
9.616,0.9999999999999999,-58.47207320935877
9.624,1.0,-58.68315901883681
9.632,1.0,-58.894172640755066
9.64,1.0,-59.105113910597986
9.648,1.0,-59.31598266506915
9.656,0.9999999999999999,-59.52677874209369
9.664,1.0,-59.73750198082038
9.672,1.0,-59.94815222162492
9.68,1.0,-60.15872930611266
9.688,1.0,-60.3692330771226
9.696,0.9999999999999999,-60.57966337873135
9.704,1.0,-60.790020056258186
9.712,0.9999999999999999,-61.00030295627028
9.72,0.9999999999999999,-61.21051192658926
9.728,1.0,-61.42064681629812
9.736,1.0,-61.63070747574975
9.744,0.9999999999999999,-61.84069375657614
9.752,0.9999999999999999,-62.05060551169936
9.76,1.0,-62.260442595343626
9.768,0.9999999999999999,-62.47020486304968
9.776,1.0,-62.67989217169064
9.784,1.0,-62.88950437949063
9.792,1.0,-63.09904134604554
9.8,1.0,-63.30850293234738
9.808,0.9999999999999999,-63.517889000811415
9.816,1.0,-63.72719941530787
9.824,1.0,-63.93643404119752
9.832,1.0,-64.14559274537315
9.84,1.0,-64.35467539630598
9.847999999999999,1.0,-64.56368186409995
