freq,mag,phase
6.0,0.9995773495275071,-89.81427862573295
6.00247296,0.9995773458897015,-89.94749781712086
6.00494592,0.9996048655752382,-90.08096520505718
6.00741888,0.999657873121297,-90.21498590562531
6.00989184,0.9997326111469015,-90.3500100115197
6.0123648,0.9998244648876029,-90.48622691088747
6.01483776,0.9999278478357951,-90.62387153756158
6.01731072,1.000035932163117,-90.76304727729854
6.01978368,1.0001421985941235,-90.90382634043259
6.02225664,1.0002396622674545,-91.04608621567998
6.0247296,1.000322327852077,-91.1896949527106
6.02720256,1.0003847666622823,-91.3343579054283
6.02967552,1.0004232731378526,-91.47975185059042
6.03214848,1.0004354022233608,-91.625568084688
6.03462144,1.0004203056835665,-91.77135682322124
6.0370944,1.0003789573818318,-91.91676163717545
6.03956736,1.0003137003247238,-92.06142845758276
6.04204032,1.0002291315842406,-92.20498812043574
6.04451328,1.0001301539846301,-92.3472527630317
6.04698624,1.0000232843703523,-92.48807782267369
6.0494592,0.9999150705582878,-92.62730853397596
6.05193216,0.9998125451533811,-92.76503648893588
6.05440512,0.9997220761047854,-92.90138795080618
6.05687808,0.999649290116444,-93.03656294386269
6.05935104,0.9995991368004425,-93.17088679581508
6.061824,0.9995743783244063,-93.30464952407253
6.06429696,0.9995765957456894,-93.43827705180495
6.06676992,0.9996060502759774,-93.57217933612877
6.06924288,0.9996605693428746,-93.70666670940587
6.07171584,0.999736718675204,-93.84210202694779
6.0741888,0.9998300853256633,-93.97882976219614
6.07666176,0.9999341882508151,-94.11697764023315
6.07913472,1.0000426917180643,-94.25672427538957
6.081607168,1.0001488439746224,-94.39800628087137
6.084080128,1.0002458338657672,-94.54081363644495
6.086553088,1.0003276840079376,-94.68488679557666
6.089026048,1.000389091045593,-94.83005122153638
6.091499008,1.0004261397459306,-94.97592729439414
6.093971968,1.0004365273643083,-95.12217896628658
6.096444928,1.0004196523237852,-95.26837622061879
6.098917888,1.0003764531239492,-95.41416248656846
6.101390848,1.0003097571176347,-95.55920223843317
6.103863808,1.0002238507399925,-95.70313613086223
6.106336768,1.0001239397737276,-95.84574949714694
6.108809728,1.0000163227661278,-95.98681938994243
6.111282688,0.9999080295563253,-96.12640118029458
6.113755648,0.9998057793116861,-96.26440953762165
6.116228608,0.9997158958171354,-96.40108052804433
6.118701568,0.9996441812361953,-96.5365753480298
6.121174528,0.9995952656463782,-96.67119909373142
6.123647488,0.9995721653849235,-96.80534847559396
6.126120448,0.9995760526183762,-96.9393674693879
6.128593408,0.9996072234650533,-97.07364006853396
6.131066368,0.9996634788698162,-97.20858837991811
6.133539328,0.9997411003317931,-97.34448969627965
6.136012288,0.9998354402960964,-97.4816429869288
6.138485248,0.9999403882723816,-97.62029312267488
6.140958208,1.0000493141441813,-97.76052716343082
6.143431168,1.000155411689047,-97.90228139436256
6.145904128,1.0002520586292432,-98.04554966076661
6.148377088,1.0003330576010747,-98.19011497236124
6.150850048,1.0003932820591668,-98.33574969147844
6.153323008,1.0004288423793757,-98.4820485183385
6.155795968,1.0004375911878003,-98.6286791894039
6.158268928,1.0004190247117513,-98.77529402101797
6.160741888,1.0003741403337567,-98.92147800575701
6.163214848,1.0003059274585115,-99.06682074488862
6.165687808,1.0002186458643993,-99.2110219180106
6.168160768,1.0001176999861228,-99.35394281957039
6.170633728,1.0000095671842721,-99.49534091026533
6.173106688,0.9999010204625082,-99.63516481993585
6.175579648,0.9997989741103784,-99.77344880999152
6.178052608,0.9997098445832898,-99.91039483207503
6.180525568,0.9996391464863703,-100.04619186402878
6.182998528,0.9995914660232847,-100.181144381354
6.185471488,0.9995699030934023,-100.31564262049226
6.187944448,0.9995756480535031,-100.44997017287878
6.190417408,0.9996085185452434,-100.5846068153777
6.192890368,0.9996663170965465,-100.71993075381492
6.195363328,0.9997454647898838,-100.85628840376839
6.197836288,0.999840990219157,-100.99386836665813
6.200309248,0.9999466508524253,-101.13294179338598
6.202782208,1.0000560937122631,-101.27361519386187
6.205255168,1.0001620970762757,-101.41586694397488
6.207728128,1.0002582625796403,-101.5595697539907
6.210201088,1.000338402981671,-101.70458001042736
6.212674048,1.0003972817517526,-101.85062497830938
6.215147008,1.0004312838995912,-101.9973267917087
6.217619968,1.000438363407755,-102.14435608313842
6.220092928,1.000418144837952,-102.29132651898144
6.222565888,1.0003716673743905,-102.4378096296674
6.225038848,1.0003019565663687,-102.58346700415987
6.227511808,1.0002133604545906,-102.72795261226497
6.229984768,1.000111439320766,-102.87112952123096
6.232457728,1.0000026713050236,-103.01277220918789
6.234930688,0.9998939354347187,-103.15284882484885
6.237403648,0.9997921935640792,-103.29138908862983
6.239876608,0.999703763911387,-103.42855683631043
6.242349056,0.9996341947368508,-103.56464307587157
6.244822016,0.9995878556381543,-103.69986343738393
6.247294976,0.9995678097783055,-103.83459013709783
6.249767936,0.999575235738421,-103.96931136402021
6.252240896,0.9996098122216784,-104.10426618794719
6.254713856,0.999669297703044,-104.23995932960283
6.257186816,0.9997498050367171,-104.37666098809112
6.259659776,0.999846427636297,-104.51469351782346
6.262132736,0.9999528791304002,-104.65420206361168
6.264605696,1.000062676397482,-104.7952732073671
6.267078656,1.0001687355422388,-104.93793062209531
6.269551616,1.0002643540578624,-105.0820849138301
6.272024576,1.0003435491721466,-105.22748007141575
6.274497536,1.00040125097445,-105.373869990083
6.276970496,1.0004338250210545,-105.52097230279242
6.279443456,1.0004394008092437,-105.66834664432243
6.281916416,1.0004173186365266,-105.81562694318991
6.284389376,1.0003692178280539,-105.96238744138495
6.286862336,1.0002978953145942,-106.10833543612655
6.289335296,1.0002079111407753,-106.25306960030578
6.291808256,1.0001052100653034,-106.3964690301939
6.294281216,0.99999588690039,-106.53831011739446
6.296754176,0.9998870511422304,-106.67860244835943
6.299227136,0.9997854801167738,-106.81738234221447
6.301700096,0.9996976663199193,-106.95476783485975
6.304173056,0.9996291812647539,-107.09105808132655
6.306646016,0.999584138576969,-107.22650105896732
6.309118976,0.9995656954366993,-107.36151446595211
6.311591936,0.9995749760384626,-107.49648430896214
6.314064896,0.9996111488487359,-107.63177004815809
6.316537856,0.9996722439500181,-107.76778580365864
6.319010816,0.9997541536332862,-107.90484386752624
6.321483776,0.9998518459918597,-108.04324091435308
6.323956736,0.9999592026095628,-108.18313226599766
6.326429696,1.0000693358602357,-108.3245927678327
6.328902656,1.000175269191276,-108.46761853723186
6.331375616,1.000270365621428,-108.61218162774412
6.333848576,1.0003486318501653,-108.7579318344287
6.336321536,1.000405096636834,-108.90471438250272
6.338794496,1.0004362615616875,-109.05213488552322
6.341267456,1.0004401995369918,-109.19981184357208
6.343740416,1.0004163692833903,-109.34734477051904
6.346213376,1.0003665078792146,-109.49437633358181
6.348686336,1.0002936886871778,-109.64053933796669
6.351159296,1.0002026315661177,-109.7855254335729
6.353632256,1.0000987851750256,-109.9290869074006
6.356105216,0.9999890522276286,-110.07113766949756
6.358578176,0.999880057092343,-110.21158585427538
6.361051136,0.9997788176803609,-110.35051655800457
6.363524096,0.9996915917437706,-110.4881260987584
6.365997056,0.9996241758705093,-110.62457070596575
6.368470016,0.9995806928143788,-110.7602378428841
6.370942976,0.9995638348939386,-110.89551818491913
6.373415936,0.999574676083778,-111.03071184834273
6.375888896,0.9996127146043507,-111.16628451366374
6.378361856,0.9996752329810468,-111.30257177385076
6.380834816,0.9997586255402815,-111.43995015908145
6.383307776,0.9998573434244721,-111.57870204572501
6.385780736,0.9999653612243598,-111.71892618784295
6.388253696,1.00007587612923,-111.8607300639094
6.390726656,1.0001816029371848,-112.00413535471546
6.393199616,1.0002762419042264,-112.14900693023293
6.395672576,1.0003536570089697,-112.29512243780108
6.398145536,1.0004089643623941,-112.44218296907384
6.400617984,1.0004386639575251,-112.5899305879878
6.403090944,1.0004408261689566,-112.73788018271377
6.405563904,1.0004153376112355,-112.8856833962631
6.408036864,1.0003638043948884,-113.03293550104613
6.410509824,1.000289539255,-113.17927800392411
6.412982784,1.0001972303341014,-113.32444667338393
6.415455744,1.0000924414230892,-113.46815880612907
6.417928704,0.9999820362114898,-113.61036467240727
6.420401664,0.9998729465533234,-113.75096941142309
6.422874624,0.9997720322184748,-113.89002693234757
6.425347584,0.9996857384208165,-114.027775891173
6.427820544,0.9996193376409603,-114.16437978462513
6.430293504,0.9995771742769982,-114.30022655025448
6.432766464,0.9995619194737139,-114.43568902470105
6.435239424,0.9995744064738062,-114.5711058267919
6.437712384,0.9996140785270925,-114.70692096093941
6.440185344,0.9996783363035078,-114.84347103424935
6.442658304,0.9997630116897238,-114.9811203622092
6.445131264,0.9998628524913801,-115.12017560632147
6.447604224,0.9999715744423643,-115.26069416889212
6.450077184,1.0000822809644758,-115.40284463763605
6.452550144,1.0001880989961984,-115.54656883788698
6.455023104,1.0002821661109027,-115.69174395533874
6.457496064,1.0003585679996971,-115.83815433512741
6.459969024,1.0004126457336358,-115.98551397025828
6.462441984,1.0004407737607974,-116.13350366971626
6.464914944,1.0004413469499682,-116.28166213309501
6.467387904,1.0004142153089692,-116.4296911281984
6.469860864,1.0003610659527526,-116.57715047659488
6.472333824,1.000285332353112,-116.72360924417693
6.474806784,1.0001916508875452,-116.86893006865154
6.477279744,1.0000860997746464,-117.01277653980817
6.479752704,0.9999752531424781,-117.15507236987767
6.482225664,0.9998659826990972,-117.29580894341343
6.484698624,0.9997655212827452,-117.43497644946969
6.487171584,0.9996798056965008,-117.57280989234411
6.489644544,0.9996144891703895,-117.7095644251371
6.492117504,0.9995738183315138,-117.84553231827995
6.494590464,0.9995600943522367,-117.9811379309709
6.497063424,0.999574391762112,-118.11676671769193
6.499536384,0.9996156138413321,-118.25275991958692
6.502009344,0.99968142314323,-118.38959462739017
6.504482304,0.9997675914557335,-118.52746244197229
6.506955264,0.9998684484055278,-118.666751298255
6.509428224,0.9999779468278881,-118.80757179768452
6.511901184,1.000088960410112,-118.94997322798628
6.514374144,1.0001944809844727,-119.0939918489002
6.516847104,1.0002881403398436,-119.23941108183944
6.519320064,1.0003636271388334,-119.3861112605451
6.521793024,1.0004164002182947,-119.53372825928994
6.524265984,1.0004430657680825,-119.68189864251505
6.526738944,1.0004419244536429,-119.83029975636714
6.529211904,1.000413111106534,-119.97851792268757
6.531684864,1.000358335996548,-120.12609827473965
6.534157824,1.0002810743459583,-120.2727186657906
6.536630784,1.0001862202711176,-120.41811784350254
6.539103744,1.0000796923340802,-120.56205471706895
6.541576704,0.9999683273989859,-120.704430619961
6.544049664,0.9998590882798163,-120.84518970688973
6.546522624,0.9997587985762844,-120.98445197905752
6.548995584,0.9996739790457111,-121.12236888788824
6.551468544,0.999609796723085,-121.25918840694821
6.553941504,0.999570403778234,-121.39527288788615
6.556414464,0.9995582795601956,-121.53100346174142
6.558887424,0.9995743118489161,-121.66676231338823
6.561359872,0.9996172590580196,-121.8029487833061
6.563832832,0.9996846265081987,-121.93995761248141
6.566305792,0.9997719690810616,-122.07808383543278
6.568778752,0.9998739868219433,-122.21758075770698
6.571251712,0.9999841156440561,-122.35863069995564
6.573724672,1.0000954999353897,-122.5013140254955
6.576197632,1.0002009259536555,-122.64554222443473
6.578670592,1.0002939507471778,-122.79120621468088
6.581143552,1.0003684690031376,-122.9380941236848
6.583616512,1.0004199889318723,-123.08592410961188
6.586089472,1.000445070240066,-123.23433914670375
6.588562432,1.0004423195801322,-123.38285158794478
6.591035392,1.000411813218905,-123.53121446643675
6.593508352,1.0003554011049687,-123.67886924556068
6.595981312,1.000276779663074,-123.82558819488204
6.598454272,1.0001806541435028,-123.97104714859923
6.600927232,1.0000733616189221,-124.11506784572465
6.603400192,0.9999614666627978,-124.25742915893312
6.605873152,0.9998521308541541,-124.39823714605568
6.608346112,0.9997523237805607,-124.5375399858475
6.610819072,0.9996681766380905,-124.67547380882299
6.613292032,0.9996050917459085,-124.8123846048662
6.615764992,0.9995671450880551,-124.94853769713171
6.618237952,0.999556650428766,-125.0843400645416
6.620710912,0.9995742626740706,-125.22021719895794
6.623183872,0.9996189786607557,-125.35654305165018
6.625656832,0.9996878420257133,-125.49369469051018
6.628129792,0.9997766219719232,-125.63199633404228
6.630602752,0.9998797177764845,-125.77169008220679
6.633075712,0.9999904801479798,-125.91292292823904
6.635548672,1.0001020510582825,-126.0558384943714
6.638021632,1.000207426030931,-126.20027002228532
6.640494592,1.0002997267300615,-126.34614177074103
6.642967552,1.0003733773039913,-126.49325432385831
6.645440512,1.0004235064667097,-126.64123991304804
6.647913472,1.0004471783405595,-126.78978458973594
6.650386432,1.0004427913230942,-126.93842670794811
6.652859392,1.000410516614996,-127.08685202238793
6.655332352,1.000352574419625,-127.23461153956288
6.657805312,1.0002722914807463,-127.3813832200155
6.660278272,1.0001751424817715,-127.52684478905852
6.662751232,1.0000669512813416,-127.67086825064705
6.665224192,0.9999545773922823,-127.81326639230836
6.667697152,0.9998451579139523,-127.95405937043842
6.670170112,0.9997457000414126,-128.09334749210146
6.672643072,0.9996623718137672,-128.23131380815047
6.675116032,0.9996004472513257,-128.36819757383256
6.677588992,0.9995639413817696,-128.50437756518906
6.680061952,0.9995549225409973,-128.64026141039324
6.682534912,0.9995743155110225,-128.776201917227
6.685007872,0.9996206893434263,-128.91261919730712
6.687480832,0.9996911722679988,-129.04990311954793
6.689953792,0.9997812728904347,-129.188320978071
6.692426752,0.9998853563609278,-129.3281938266553
6.694899712,0.9999967923576224,-129.4696166040599
6.697372672,1.000108561097687,-129.612627507616
6.699845632,1.0002137364721122,-129.75724253809003
6.702318592,1.000305453621711,-129.9033099998631
6.704791552,1.0003781490849566,-130.0505605875068
6.707264512,1.00042710537023,-130.19866743372972
6.709737472,1.0004491287898087,-130.34732377006938
6.712210432,1.000443030095384,-130.49607922768897
6.714683392,1.0004090895038158,-130.64452486586177
6.717156352,1.0003493856220063,-130.7923392746014
6.719629312,1.0002677994641418,-130.93912976835296
6.72210176,1.0001693557315074,-131.08458089627223
6.72457472,1.0000603103649115,-131.22857728247263
6.72704768,0.9999475584260215,-131.37093921663492
6.72952064,0.9998381709017223,-131.51168684479316
6.7319936,0.9997391011387676,-131.6509157214642
6.73446656,0.9996565901944497,-131.78886039677334
6.73693952,0.9995957692852755,-131.92571953703742
6.73941248,0.9995606926915772,-132.0618939057209
6.74188544,0.9995534053501165,-132.19779329260456
6.7443584,0.9995745279940057,-132.3337426298219
6.74683136,0.9996225587366876,-132.4702640874008
6.74930432,0.9996945998148545,-132.6076013181133
6.75177728,0.9997859711838707,-132.7461379049548
6.75425024,0.9998911450437316,-132.88610800391893
6.7567232,1.0000032560607452,-133.0276589732074
6.75919616,1.0001152654589092,-133.1708497890734
6.76166912,1.0002201834730768,-133.3155913617269
6.76414208,1.0003114032120055,-133.46176317662133
6.76661504,1.0003829514664093,-133.6090999881429
6.769088,1.0004306248759696,-133.75733052079445
6.77156096,1.0004512324705725,-133.90603770418497
6.77403392,1.0004433101516161,-134.05483962254314
6.77650688,1.0004076870176168,-134.203342678155
6.77897984,1.0003463879067234,-134.35113421588267
6.7814528,1.0002633318481586,-134.49787601849488
6.78392576,1.0001637603187012,-134.64329781809448
6.78639872,1.0000538331438191,-134.78718176371896
6.78887168,0.9999405966227553,-134.9294849812542
6.79134464,0.9998313029401917,-135.07019666871244
6.7938176,0.999732616679383,-135.20933583237016
6.79629056,0.9996508994610321,-135.34718846476605
6.79876352,0.9995913333387016,-135.48398706543352
6.80123648,0.9995576981615126,-135.62013387603326
6.80370944,0.9995520706595992,-135.75602571384178
6.8061824,0.9995748137883793,-135.89202124184786
6.80865536,0.9996245380676597,-136.02847833166575
6.81112832,0.9996981119495741,-136.16590255218418
6.81360128,0.9997909011341789,-136.30451551160814
6.81607424,0.9998970163221431,-136.44456964374837
6.8185472,1.0000097244727812,-136.58622527226754
6.82102016,1.000121971034873,-136.72945862122447
6.82349312,1.000226703363467,-136.87432971524333
6.82596608,1.000317150578786,-137.0205857658008
6.82843904,1.0003878217354503,-137.1680019087897
6.830912,1.000434095396158,-137.31627011154518
6.83338496,1.000453056277042,-137.46501574281095
6.83585792,1.0004436055872674,-137.61384905707945
6.83833088,1.0004061678695917,-137.76232101774423
6.84080384,1.000343226980918,-137.91006544131545
6.8432768,1.0002587510853782,-138.05674841847392
6.84574976,1.0001578643471807,-138.20206824072847
6.84822272,1.0000472408006034,-138.34588387716528
6.85069568,0.9999336597926638,-138.48805221017616
6.85316864,0.9998242541201207,-138.62861349826667
6.8556416,0.9997260866483761,-138.7676454123629
6.85811456,0.9996452201141139,-138.905397634702
6.86058752,0.9995868634856447,-139.04210817900022
6.86306048,0.9995546509189012,-139.17820322143587
6.86553344,0.999550616985597,-139.31399317308373
6.8680064,0.9995750988153089,-139.44993088901433
6.87047936,0.9996265886038302,-139.58645600189865
6.87295232,0.9997017050553901,-139.72386048388864
6.87542528,0.9997958234328431,-139.86247822422027
6.87789824,0.9999029309183319,-140.00258481829593
6.880370688,1.0000162809244555,-140.1442836521836
6.882843648,1.0001287255876554,-140.28760407975923
6.885316608,1.0002331510444966,-140.43251881139446
6.887789568,1.0003229850151845,-140.5788271242486
6.890262528,1.0003925310860151,-140.72629562001268
6.892735488,1.000437423110119,-140.87460878743948
6.895208448,1.0004548964699456,-141.02334198016445
6.897681408,1.000443680836144,-141.1720966075787
6.900154368,1.0004044986928744,-141.32053461648485
6.902627328,1.0003399884735413,-141.46820255877074
6.905100288,1.000254011988075,-141.61478722001513
6.907573248,1.0001520419344956,-141.75997855510906
6.910046208,1.0000405246171753,-141.90364806750074
6.912519168,0.999926512140876,-142.04567837050263
6.914992128,0.9998171711298555,-142.18606624036843
6.917465088,0.9997194907739032,-142.3249518317926
6.919938048,0.9996394948311037,-142.46253984657525
6.922411008,0.9995823328523228,-142.59913382287974
6.924883968,0.9995516381441633,-142.73509073891418
6.927356928,0.9995493149329079,-142.8707823336445
6.929829888,0.9995755867966251,-143.00664951894487
6.932302848,0.9996287484495054,-143.14311528061123
6.934775808,0.9997053626927894,-143.28053053872986
6.937248768,0.9998008175478441,-143.41916558480474
6.939721728,0.9999089000335508,-143.55926575855716
6.942194688,1.0000228307080772,-143.70099466446743
6.944667648,1.0001354872055366,-143.84433483071405
6.947140608,1.0002396196277648,-143.98924230290513
6.949613568,1.0003287892637032,-144.13561859743618
6.952086528,1.0003973004420794,-144.28305147682315
6.954559488,1.000440851193067,-144.4313435235636
6.957032448,1.0004566660983008,-144.58000347364106
6.959505408,1.0004437387512135,-144.7287342312397
6.961978368,1.0004028756891568,-144.87705164165197
6.964451328,1.0003366607837576,-145.02460405766158
6.966924288,1.0002492157886809,-145.17104371443585
6.969397248,1.0001460970984104,-145.31610025593847
6.971870208,1.0000337895421574,-145.45956316457668
6.974343168,0.9999194586461138,-145.6014240309057
6.976816128,0.9998101532793388,-145.74158304469623
6.979289088,0.9997129103028867,-145.88029546298733
6.981762048,0.9996338300976793,-146.0177006625748
