freq,mag,phase
6.0,0.9999905021105856,88.81234033573551
6.008,0.9999918464714547,88.66683528364288
6.016,0.9999931618228717,88.52123796188647
6.024,0.9999944484772741,88.3755483177011
6.032,0.9999957067455982,88.22976629877053
6.04,0.9999969369372805,88.08389185323003
6.048,0.9999981393602522,87.93792492966914
6.056,0.999999314320943,87.7918654771343
6.064,0.9999999999999999,87.64571344513158
6.072,1.0,87.4994687836293
6.08,0.9999999999999999,87.35313144306076
6.088,0.9999999999999999,87.20670137432693
6.096,1.0,87.06017852879913
6.104,1.0,86.91356285832175
6.112,1.0,86.76685431521491
6.12,0.9999999999999999,86.62005285227723
6.128,1.0,86.47315842278847
6.136,1.0,86.3261709805123
6.144,1.0,86.17909047969897
6.152,1.0,86.03191687508806
6.16,0.9999999999999999,85.88465012191115
6.168,1.0,85.73729017589466
6.176,1.0,85.58983699326241
6.184,1.0,85.4422905307385
6.192,1.0000000000000002,85.29465074554996
6.2,1.0,85.14691759542951
6.208,0.9999999999999999,84.99909103861826
6.216,0.9999999999999999,84.85117103386854
6.224,1.0,84.70315754044653
6.232,1.0,84.55505051813515
6.24,0.9999999999999999,84.40684992723659
6.248,1.0,84.2585557285753
6.256,1.0,84.1101678835006
6.264,1.0,83.9616863538894
6.272,0.9999999999999999,83.81311110214916
6.28,0.9999999999999999,83.6644420912204
6.288,0.9999999999999999,83.51567928457959
6.296,0.9999999999999999,83.36682264624197
6.304,1.0,83.21787214076414
6.312,1.0,83.06882773324699
6.32,1.0,82.91968938933839
6.328,0.9999999999999998,82.77045707523598
6.336,0.9999999999999999,82.62113075768995
6.344,1.0,82.47171040400576
6.352,1.0,82.32219598204699
6.36,1.0,82.17258746023808
6.368,1.0,82.02288480756707
6.376,0.9999999999999999,81.87308799358848
6.384,0.9999999999999999,81.72319698842598
6.392,0.9999999999999998,81.57321176277523
6.4,0.9999999999999998,81.42313228790667
6.408,0.9999999999999999,81.27295853566822
6.416,1.0,81.1226904784882
6.424,1.0,80.97232808937797
6.432,0.9999999999999999,80.82187134193488
6.44,0.9999999999999999,80.67132021034483
6.448,1.0,80.52067466938531
6.456,0.9999999999999998,80.369934694428
6.464,1.0000000000000002,80.21910026144165
6.472,1.0,80.06817134699477
6.48,1.0,79.91714792825859
6.4879999999999995,0.9999999999999999,79.7660299830097
6.496,0.9999999999999999,79.61481748963278
6.504,0.9999999999999999,79.46351042712371
6.5120000000000005,1.0,79.31210877509189
6.52,1.0,79.1606125137635
6.5280000000000005,1.0,79.00902162398386
6.536,0.9999999999999999,78.8573360872206
6.5440000000000005,1.0,78.70555588556614
6.552,1.0,78.55368100174069
6.5600000000000005,1.0,78.40171141909482
6.568,1.0,78.24964712161257
6.5760000000000005,1.0,78.09748809391381
6.584,1.0,77.94523432125746
6.592,1.0,77.7928857895439
6.6,0.9999999999999999,77.64044248531799
6.608,1.0,77.48790439577178
6.616,0.9999999999999999,77.33527150874727
6.624,0.9999999999999998,77.18254381273914
6.632,1.0,77.02972129689769
6.64,1.0,76.87680395103143
6.648,0.9999999999999999,76.72379176560997
6.656,0.9999999999999999,76.57068473176672
6.664,0.9999999999999999,76.41748284130175
6.672,1.0,76.26418608668443
6.68,1.0,76.11079446105632
6.688,0.9999999999999999,75.95730795823384
6.696,1.0,75.80372657271113
6.704,0.9999999999999998,75.65005029966264
6.712,0.9999999999999999,75.49627913494612
6.72,0.9999999999999999,75.34241307510516
6.728,1.0,75.18845211737211
6.736,1.0,75.03439625967063
6.744,0.9999999999999999,74.88024550061868
6.752,0.9999999999999999,74.72599983953108
6.76,1.0,74.57165927642232
6.768,1.0,74.41722381200928
6.776,1.0,74.26269344771397
6.784,0.9999999999999999,74.10806818566628
6.792,1.0,73.95334802870663
6.8,0.9999999999999999,73.79853298038884
6.808,1.0,73.64362304498268
6.816,1.0,73.48861822747669
6.824,1.0,73.3335185335809
6.832,1.0,73.17832396972952
6.84,0.9999999999999999,73.02303454308354
6.848,1.0,72.86765026153363
6.856,0.9999999999999999,72.71217113370264
6.864,0.9999999999999998,72.55659716894846
6.872,0.9999999999999999,72.40092837736655
6.88,0.9999999999999999,72.24516476979282
6.888,1.0,72.08930635780605
6.896,1.0,71.93335315373076
6.904,0.9999999999999999,71.77730517063985
6.912,1.0000000000000002,71.6211624223572
6.92,1.0,71.46492492346036
6.928,1.0,71.30859268928322
6.936,1.0,71.15216573591859
6.944,1.0,70.99564408022101
6.952,0.9999999999999999,70.83902773980914
6.96,0.9999999999999999,70.68231673306859
6.968,0.9999999999999998,70.52551107915443
6.976,1.0,70.36861079799391
6.984,0.9999999999999999,70.21161591028901
6.992,1.0,70.05452643751899
7.0,0.9999999999999999,69.89734240194306
7.008,1.0,69.74006382660308
7.016,1.0,69.58269073532585
7.024,1.0,69.42522315272602
7.032,1.0,69.26766110420847
7.04,0.9999999999999999,69.11000461597094
7.048,1.0,68.95225371500648
7.056,1.0,68.79440842910623
7.064,0.9999999999999999,68.63646878686174
7.072,0.9999999999999999,68.47843481766759
7.08,1.0000000000000002,68.32030655172403
7.088,0.9999999999999999,68.16208402003929
7.096,1.0,68.00376725443225
7.104,1.0,67.8453562875349
7.112,1.0,67.68685115279483
7.12,1.0,67.52825188447774
7.128,1.0,67.36955851766996
7.136,1.0,67.21077108828074
7.144,1.0,67.051889633045
7.152,0.9999999999999999,66.89291418952556
7.16,1.0,66.73384479611569
7.168,1.0,66.5746814920415
7.176,1.0,66.41542431736445
7.184,0.9999999999999999,66.25607331298369
7.192,1.0,66.09662852063842
7.2,1.0,65.93708998291048
7.208,0.9999999999999999,65.77745774322658
7.216,0.9999999999999999,65.61773184586075
7.224,1.0,65.45791233593664
7.232,1.0,65.29799925943003
7.24,1.0,65.13799266317102
7.248,1.0,64.97789259484647
7.256,1.0,64.81769910300227
7.264,1.0,64.65741223704575
7.272,0.9999999999999998,64.4970320472479
7.28,1.0,64.33655858474573
7.288,1.0,64.17599190154449
7.296,0.9999999999999999,64.01533205052004
7.304,1.0,63.85457908542104
7.312,0.9999999999999999,63.693733060871246
7.32,0.9999999999999999,63.53279403237175
7.328,1.0000000000000002,63.37176205630317
7.336,1.0,63.21063718992793
7.344,1.0,63.04941949139244
7.352,1.0,62.88810901972932
7.36,1.0,62.726705834859516
7.368,1.0,62.565209997594515
7.376,1.0,62.403621569638545
7.384,0.9999999999999999,62.241940613590636
7.392,1.0,62.08016719294684
7.4,1.0,61.91830137210229
7.4079999999999995,1.0,61.75634321635336
7.416,1.0,61.594292791899626
7.4239999999999995,0.9999999999999999,61.432150165846245
7.432,1.0,61.26991540620562
7.4399999999999995,0.9999997617010373,61.107588581899826
7.448,0.9999994745804206,60.94516976276236
7.4559999999999995,0.9999991905645432,60.78265901954045
7.464,0.9999989097038676,60.620056423896756
7.4719999999999995,0.999998632047619,60.45736204841169
7.48,0.9999983576437901,60.2945759665851
7.4879999999999995,0.9999980865391455,60.13169825283848
7.496,0.999997818779226,59.968728982516744
7.504,0.999997554408354,59.80566823189035
7.5120000000000005,0.9999972934696383,59.64251607815704
7.52,0.9999970360049771,59.47927259944391
7.5280000000000005,0.9999967820550654,59.31593787480915
7.536,0.9999965316593983,59.152511984244136
7.5440000000000005,0.9999962848562757,58.98899500867502
7.552,0.9999960416828078,58.82538702996485
7.5600000000000005,0.9999958021749205,58.66168813091519
7.568,0.9999955663673591,58.49789839526817
7.5760000000000005,0.9999953342936946,58.334017907707945
7.584,0.999995105986328,58.170046753862906
7.5920000000000005,0.9999948814764956,58.005985020307044
7.6,0.9999946607942746,57.84183279456208
7.6080000000000005,0.9999944439685868,57.67759016509878
7.616,0.9999942310272062,57.513257221339124
7.6240000000000006,0.9999940219967626,57.34883405365766
7.632,0.9999938169027464,57.184320753383425
7.640000000000001,0.9999936157695162,57.019717412801384
7.648,0.9999934186203016,56.855024125154344
7.656000000000001,0.9999932254772106,56.690240984644326
7.664,0.9999930363612339,56.52536808643445
7.672,0.999992851292251,56.36040552665028
7.68,0.9999926702890352,56.19535340238157
7.688,0.9999924933692595,56.030211811683785
7.696,0.9999923205495029,55.86498085357961
7.704,0.9999921518452543,55.69966062806052
7.712,0.9999919872709194,55.5342512360883
7.72,0.9999918268398268,55.36875277959646
7.728,0.9999916705642327,55.2031653614918
7.736,0.9999915184553277,55.03748908565577
7.744,0.999991370523242,54.871724056946
7.752,0.9999912267770509,54.70587038119763
7.76,0.9999910872247817,54.53992816522477
7.768,0.9999909518734192,54.373897516821785
7.776,0.999990820728912,54.20777854476477
7.784,0.9999906937961773,54.0415713588128
7.792,0.9999905710791088,53.875276069709265
7.8,0.9999904525805814,53.7088927891832
7.808,0.9999903383024582,53.54242162995052
7.816,0.999990228245596,53.37586270571523
7.824,0.9999901224098523,53.20921613117082
7.832,0.9999900207940905,53.042482022001316
7.84,0.9999899233961875,52.87566049488253
7.848,0.9999898302130388,52.70875166748326
7.856,0.9999897412405659,52.54175565846642
7.864,0.9999896564737218,52.37467258749017
7.872,0.9999895759064983,52.20750257520901
7.88,0.9999894995319321,52.040245743274866
7.888,0.9999894273421108,51.87290221433824
7.896,0.9999893593281803,51.70547211204912
7.904,0.9999892954803514,51.537955561058105
7.912,0.9999892357879059,51.370352687017345
7.92,0.9999891802392035,51.20266361658158
7.928,0.9999891288216881,51.03488847740905
7.936,0.9999890815218958,50.86702739816241
7.944,0.9999890383254605,50.6990805085097
7.952,0.9999889992171206,50.53104793912522
7.96,0.999988964180727,50.36292982169034
7.968,0.9999889331992499,50.1947262888944
7.976,0.9999889062547836,50.026437474435525
7.984,0.9999888833285567,49.8580635130214
7.992,0.9999888644009369,49.68960454037004
8.0,0.9999888494514385,49.52106069321058
8.008,0.99998883845873,49.35243210928397
8.016,0.9999888314006405,49.183718927343584
8.024000000000001,0.9999888282541679,49.01492128715616
8.032,0.999988828995485,48.84603932950218
8.04,0.9999888335999475,48.677073196176664
8.048,0.9999888420421007,48.50802302998959
8.056000000000001,0.9999888542956877,48.338888974766746
8.064,0.9999888703336555,48.169671175350175
8.072,0.9999888901281639,48.000369777598515
8.08,0.9999889136505913,47.83098492838774
8.088000000000001,0.9999889408715436,47.661516775611624
8.096,0.9999889717608607,47.49196546818214
8.104,0.9999890062876245,47.32233115602981
8.112,0.9999890444201671,47.15261399010425
8.120000000000001,0.9999890861260767,46.982814122374485
8.128,0.9999891313722071,46.81293170582943
8.136,0.9999891801246842,46.64296689447794
8.144,0.9999892323489143,46.47291984334931
8.152000000000001,0.9999892880095916,46.3027907084936
8.16,0.9999893470707062,46.13257964698187
8.168,0.999989409495552,45.96228681690618
8.176,0.999989475246734,45.79191237738002
8.184000000000001,0.9999895442861773,45.621456488538485
8.192,0.9999896165751334,45.450919311538335
8.2,0.9999896920741908,45.280301008558084
8.208,0.9999897707432798,45.10960174279815
8.216000000000001,0.9999898525416833,44.93882167848098
8.224,0.9999899374280431,44.767960980851036
8.232,0.9999900253603694,44.59701981617472
8.24,0.9999901162960482,44.42599835174044
8.248000000000001,0.9999902101918493,44.25489675585864
8.256,0.9999903070039351,44.08371519786164
8.264,0.999990406687869,43.91245384810352
8.272,0.9999905091986231,43.741112877959964
8.280000000000001,0.9999906144905871,43.5696924598283
8.288,0.9999907225175769,43.39819276712717
8.296,0.9999908332328415,43.226613974296285
8.304,0.9999909465890741,43.05495625679622
8.312,0.9999910625384185,42.88321979110828
8.32,0.9999911810324782,42.71140475473398
8.328,0.9999913020223258,42.53951132619499
8.336,0.99999142545851,42.36753968503246
8.344,0.9999915512910664,42.19549001180699
8.352,0.9999916794695243,42.023362488097916
8.36,0.9999918099429164,41.85115729650313
8.368,0.999991942659788,41.678874620638354
8.376,0.9999920775682041,41.506514645136946
8.384,0.9999922146157606,41.33407755564906
8.392,0.9999923537495914,41.16156353884139
8.4,0.9999924949163782,40.988972782396324
8.408,0.9999926380623595,40.81630547501158
8.416,0.9999927831333391,40.6435618063993
8.424,0.9999929300746948,40.4707419672857
8.432,0.9999930788313903,40.29784614940998
8.44,0.9999932293479799,40.12487454552404
8.448,0.9999933815686214,39.95182734939126
8.456,0.9999935354370834,39.77870475578616
8.464,0.9999936908967554,39.60550696049317
8.472,0.9999938478906567,39.432234160306116
8.48,0.9999940063614458,39.25888655302706
8.488,0.99999416625143,39.085464337465694
8.496,0.9999943275025749,38.91196771343808
8.504,0.9999944900565128,38.73839688176598
8.512,0.9999946538545542,38.564752044275544
8.52,0.999994818837696,38.391033403796634
8.528,0.9999949849466309,38.217241164161386
8.536,0.9999951521217576,38.04337553020352
8.544,0.9999953203031905,37.8694367077568
8.552,0.9999954894307694,37.69542490365428
8.56,0.9999956594440691,37.52134032572675
8.568,0.9999958302824095,37.34718318280187
8.576,0.9999960018848648,37.17295368470261
8.584,0.9999961741902742,36.9986520422463
8.592,0.9999963471372514,36.82427846724293
8.6,0.9999965206641945,36.64983317249425
8.608,0.9999966947092966,36.47531637179197
8.616,0.9999968692105553,36.30072827991676
8.624,0.9999970441057835,36.12606911263649
8.632,0.9999972193326184,35.95133908670502
8.64,0.9999973948285329,35.776538419860486
8.648,0.9999975705308455,35.601667330824014
8.656,0.9999977463767302,35.42672603929788
8.664,0.9999979223032276,35.25171476596425
8.672,0.9999980982472546,35.07663373248327
8.68,0.9999982741456156,34.90148316149162
8.688,0.9999984499350122,34.72626327660064
8.696,0.9999986255520547,34.550974302394906
8.704,0.9999988009332716,34.37561646443013
8.712,0.999998976015121,34.20018998923174
8.72,0.9999991507340018,34.024695104292725
8.728,0.9999993250262628,33.84913203807217
8.736,0.9999994988282157,33.673501019993
8.744,0.9999996720761438,33.49780228044043
8.752,0.9999998447063153,33.32203605075977
8.76,1.0,33.146202563254654
8.768,1.0,32.97030205118488
8.776,1.0,32.79433474876454
8.784,0.9999999999999999,32.61830089115982
8.792,0.9999999999999999,32.44220071448706
8.8,1.0,32.26603445581044
8.808,1.0,32.0898023531401
8.815999999999999,0.9999999999999998,31.913504645429658
8.824,1.0,31.73714157257418
8.832,0.9999999999999999,31.56071337540796
8.84,1.0,31.384220295702157
8.847999999999999,1.0,31.207662576162452
8.856,1.0,31.031040460426777
8.864,1.0,30.854354193062996
8.872,0.9999999999999999,30.67760401956647
8.879999999999999,1.0,30.500790186357502
8.888,1.0,30.323912940779
8.896,1.0000000000000002,30.146972531094026
8.904,1.0,29.9699692064832
8.911999999999999,0.9999999999999999,29.792903217042095
8.92,1.0,29.615774813778682
8.928,1.0,29.438584248610855
8.936,1.0,29.26133177436365
8.943999999999999,1.0,29.084017644766515
8.952,1.0,28.906642114450676
8.96,1.0,28.729205438946494
8.968,0.9999999999999999,28.551707874680606
8.975999999999999,0.9999999999999999,28.374149678973065
8.984,0.9999999999999999,28.196531110034556
8.992,0.9999999999999999,28.01885242696364
9.0,1.0,27.84111388974382
9.008,0.9999999999999999,27.663315759240504
9.016,0.9999999999999999,27.485458297198125
9.024000000000001,1.0,27.30754176623732
9.032,1.0,27.12956642985179
9.04,1.0,26.951532552405162
9.048,1.0,26.773440399128095
9.056000000000001,0.9999999999999999,26.595290236115193
9.064,0.9999999999999999,26.417082330321854
9.072,1.0,26.238816949561006
9.08,1.0,26.060494362500034
9.088000000000001,0.9999999999999999,25.882114838657685
9.096,1.0,25.703678648400686
9.104,0.9999999999999999,25.52518606294047
9.112,1.0,25.34663735432997
9.120000000000001,1.0,25.16803279546032
9.128,0.9999999999999999,24.98937266005753
9.136,1.0,24.810657222678962
9.144,1.0,24.631886758710074
9.152000000000001,1.0,24.45306154436103
9.16,1.0,24.27418185666325
9.168,1.0,24.09524797346575
9.176,1.0,23.916260173431844
9.184000000000001,1.0,23.737218736035633
9.192,0.9999999999999998,23.558123941558378
9.2,1.0,23.378976071084903
9.208,1.0,23.199775406500006
9.216000000000001,0.9999999999999999,23.020522230485014
9.224,1.0,22.841216826513957
9.232,0.9999999999999999,22.66185947884991
9.24,1.0,22.48245047254133
9.248000000000001,1.0,22.302990093418444
9.256,0.9999999999999999,22.12347862808946
9.264,0.9999999999999999,21.943916363936673
9.272,1.0,21.764303589112824
9.280000000000001,1.0,21.584640592537355
9.288,0.9999999999999999,21.40492766389252
9.296,0.9999999999999999,21.225165093619456
9.304,1.0,21.045353172914396
9.312000000000001,0.9999999999999999,20.865492193724926
9.32,1.0,20.685582448745908
9.328,0.9999999999999999,20.505624231415588
9.336,1.0,20.325617835911657
9.344,1.0,20.145563557147465
9.352,1.0,19.96546169076776
9.36,1.0,19.785312533145024
9.368,1.0,19.605116381375122
9.376,1.0,19.42487353327366
9.384,1.0,19.244584287371573
9.392,1.0,19.06424894291142
9.4,1.0,18.88386779984299
9.408,1.0,18.70344115881958
9.416,0.9999999999999999,18.522969321193546
9.424,1.0,18.342452589012506
9.432,1.0,18.161891265014976
9.44,0.9999999999999999,17.9812856526265
9.448,0.9999999999999999,17.800636055955188
9.456,1.0,17.61994277978797
9.464,1.0,17.43920612958601
9.472,0.9999999999999999,17.25842641148095
9.48,0.9999999999999999,17.077603932270364
9.488,1.0,16.896738999413937
9.496,1.0,16.715831921028922
9.504,1.0,16.53488300588629
9.512,1.0,16.35389256340621
9.52,0.9999999999999999,16.17286090365417
9.528,1.0,15.991788337336443
9.536,0.9999999999999999,15.810675175796185
9.544,1.0,15.629521731008943
9.552,1.0,15.448328315578745
9.56,1.0,15.267095242733559
9.568,1.0,15.085822826321406
9.576,1.0,14.904511380805845
9.584,1.0,14.723161221262064
9.592,0.9999999999999999,14.541772663372367
9.6,0.9999999999999998,14.360346023422293
9.608,0.9999999999999998,14.178881618296119
9.616,0.9999999999999999,13.997379765472933
9.624,0.9999999999999999,13.815840783022212
9.632,1.0,13.634264989599883
9.64,0.9999999999999999,13.452652704443915
9.648,0.9999999999999999,13.271004247370414
9.656,1.0,13.089319938769217
9.664,1.0,12.90760009960002
9.672,1.0,12.725845051387989
9.68,1.0,12.544055116219925
9.688,0.9999999999999999,12.362230616739893
9.696,0.9999999999999999,12.18037187614544
9.704,0.9999999999999998,11.99847921818321
9.712,0.9999998952859764,11.816552967145231
9.72,0.9999996372289633,11.634593447864578
9.728,0.9999993747819552,11.45260098571169
9.736,0.9999991079883536,11.270575906590027
9.744,0.9999988368935674,11.088518536932487
9.752,0.9999985615450321,10.906429203697115
9.76,0.9999982819922312,10.724308234363527
9.768,0.999997998286716,10.542155956928667
9.776,0.9999977104821238,10.35997269990332
9.784,0.9999974186341999,10.177758792307916
9.792,0.9999971228008141,9.995514563669069
9.8,0.9999968230419813,9.813240344015467
9.808,0.99999651941988,9.630936463874454
9.816,0.9999962119988698,9.448603254268004
9.824,0.9999959008455096,9.266241046709355
9.832,0.9999955860285759,9.083850173199052
9.84,0.999995267619079,8.90143096622164
9.847999999999999,0.99999494569028,8.718983758741832
9.856,0.9999946203177077,8.53650888420108
9.864,0.999994291579173,8.354006676514166
9.872,0.9999939595547858,8.171477470065643
9.879999999999999,0.9999936243269675,7.988921599706372
9.888,0.9999932859804679,7.806339400750183
9.896,0.9999929446023763,7.623731208970649
9.904,0.999992600282135,7.441097360597703
9.911999999999999,0.9999922531115523,7.2584381923143
9.92,0.9999919031848126,7.075754041253307
9.928,0.9999915505984871,6.893045244994411
9.936,0.9999911954515451,6.710312141560928
9.943999999999999,0.9999908378453608,6.527555069416656
9.952,0.9999904778837226,6.344774367462934
9.96,0.9999901156728397,6.1619703750357475
9.968,0.9999897513213485,5.979143431902719
9.975999999999999,0.9999893849403165,5.796293878260155
9.984,0.9999890166432484,5.613422054730301
9.992,0.9999886465460865,5.4305283023586295
10.0,0.9999882747672136,5.247612962611044
10.008,0.9999879014274528,5.064676377371111
10.016,0.999987526650067,4.881718888937503
10.024000000000001,0.9999871505607559,4.698740840021509
10.032,0.999986773287653,4.515742573744407
10.04,0.9999863949613199,4.332724433634903
10.048,0.9999860157147387,4.1496867636267885
10.056000000000001,0.9999856356833048,3.9666299080566096
10.064,0.9999852550048179,3.7835542116612597
10.072,0.9999848738194671,3.6004600195755985
10.08,0.9999844922698203,3.4173476773302847
