freq,mag,phase
6.0,0.9999994079018156,111.51610426126746
6.008,0.9999994662042453,111.4188686151188
6.016,0.9999995206473076,111.32160981024084
6.024,0.999999571313807,111.2243278096065
6.032,0.9999996182857966,111.12702257620408
6.04,0.9999996616445803,111.02969407303742
6.048,0.9999997014707142,110.93234226312602
6.056,0.9999997378440106,110.83496710950511
6.064,0.9999997708435406,110.7375685752259
6.072,0.999999800547636,110.64014662335549
6.08,0.9999998270338916,110.54270121697719
6.088,0.9999998503791678,110.44523231919048
6.096,0.9999998706595954,110.34773989311124
6.104,0.9999998879505743,110.25022390187176
6.112,0.9999999023267796,110.15268430862096
6.12,0.9999999138621627,110.05512107652442
6.128,0.9999999226299532,109.95753416876452
6.136,0.9999999287026626,109.85992354854058
6.144,0.9999999321520872,109.76228917906894
6.152,0.9999999330493093,109.66463102358307
6.16,0.9999999314647016,109.56694904533367
6.168,0.9999999274679275,109.46924320758886
6.176,0.9999999211279461,109.3715134736342
6.184,0.9999999125130136,109.27375980677282
6.192,0.9999999016906858,109.17598217032551
6.2,0.9999998887278218,109.07818052763098
6.208,0.9999998736905849,108.98035484204573
6.216,0.9999998566444471,108.8825050769443
6.224,0.9999998376541904,108.7846311957194
6.232,0.9999998167839104,108.68673316178189
6.24,0.9999997940970178,108.58881093856104
6.248,0.9999997696562424,108.49086448950455
6.256,0.9999997435236346,108.39289377807862
6.264,0.9999997157605693,108.29489876776812
6.272,0.9999996864277473,108.19687942207672
6.28,0.9999996555851981,108.0988357045269
6.288,0.9999996232922839,108.00076757866015
6.296,0.9999995896077009,107.90267500803695
6.304,0.9999995545894823,107.80455795623702
6.312,0.9999995182950017,107.70641638685935
6.32,0.9999994807809746,107.60825026352224
6.328,0.9999994421034617,107.5100595498635
6.336,0.9999994023178724,107.41184420954053
6.344,0.9999993614789656,107.31360420623042
6.352,0.9999993196408543,107.21533950362996
6.36,0.999999276857007,107.11705006545586
6.368,0.9999992331802519,107.0187358554448
6.376,0.9999991886627766,106.92039683735352
6.384,0.9999991433561352,106.82203297495892
6.392,0.9999990973112468,106.72364423205819
6.4,0.9999990505784011,106.62523057246884
6.408,0.9999990032072599,106.52679196002887
6.416,0.9999989552468599,106.4283283585968
6.424,0.9999989067456151,106.32983973205182
6.432,0.9999988577513207,106.23132604429388
6.44,0.9999988083111547,106.13278725924368
6.448,0.9999987584716814,106.03422334084294
6.456,0.9999987082788533,105.93563425305437
6.464,0.9999986577780143,105.83701995986178
6.472,0.9999986070139031,105.73838042527018
6.48,0.9999985560306549,105.63971561330588
6.4879999999999995,0.9999985048718042,105.54102548801664
6.496,0.9999984535802886,105.44231001347158
6.504,0.9999984021984504,105.3435691537615
6.5120000000000005,0.9999983507680402,105.2448028729988
6.52,0.999998299330219,105.14601113531764
6.5280000000000005,0.9999982479255611,105.04719390487395
6.536,0.9999981965940575,104.94835114584573
6.5440000000000005,0.999998145375118,104.84948282243286
6.552,0.999998094307574,104.75058889885739
6.5600000000000005,0.9999980434296815,104.65166933936345
6.568,0.9999979927791238,104.5527241082176
6.5760000000000005,0.9999979423930145,104.4537531697086
6.584,0.9999978923078998,104.35475648814779
6.592,0.9999978425597618,104.25573402786887
6.6,0.9999977931840208,104.15668575322827
6.608,0.9999977442155381,104.0576116286051
6.616,0.99999769568862,103.95851161840119
6.624,0.9999976476370184,103.85938568704127
6.632,0.9999976000939355,103.76023379897296
6.64,0.9999975530920258,103.66105591866696
6.648,0.9999975066633989,103.56185201061703
6.656,0.9999974608396226,103.4626220393401
6.664,0.999997415651725,103.36336596937639
6.672,0.9999973711301984,103.26408376528943
6.68,0.9999973273050009,103.16477539166615
6.688,0.9999972842055607,103.06544081311706
6.696,0.9999972418607768,102.96607999427613
6.704,0.9999972002990245,102.86669289980104
6.712,0.9999971595481553,102.7672794943732
6.72,0.9999971196355023,102.66783974269777
6.728,0.9999970805878811,102.56837360950382
6.736,0.9999970424315943,102.4688810595444
6.744,0.9999970051924324,102.36936205759655
6.752,0.9999969688956782,102.26981656846137
6.76,0.9999969335661095,102.17024455696419
6.768,0.9999968992280004,102.07064598795459
6.776,0.9999968659051259,101.9710208263064
6.784,0.9999968336207647,101.87136903691793
6.792,0.9999968023977,101.77169058471185
6.8,0.9999967722582248,101.67198543463543
6.808,0.999996743224143,101.5722535516605
6.816,0.9999967153167736,101.47249490078359
6.824,0.9999966885569523,101.37270944702594
6.832,0.999996662965035,101.27289715543363
6.84,0.9999966385609003,101.17305799107754
6.848,0.9999966153639529,101.0731919190536
6.856,0.9999965933931262,100.97329890448265
6.864,0.9999965726668846,100.87337891251063
6.872,0.9999965532032273,100.77343190830865
6.88,0.9999965350196897,100.673457857073
6.888,0.9999965181333482,100.57345672402523
6.896,0.9999965025608214,100.47342847441226
6.904,0.999996488318274,100.37337307350634
6.912,0.999996475421419,100.27329048660523
6.92,0.9999964638855207,100.17318067903219
6.928,0.9999964537253974,100.07304361613606
6.936,0.9999964449554255,99.97287926329136
6.944,0.9999964375895399,99.87268758589828
6.952,0.9999964316412392,99.77246854938274
6.96,0.9999964271235878,99.67222211919655
6.968,0.9999964240492177,99.57194826081736
6.976,0.9999964224303332,99.47164693974878
6.984,0.9999964222787123,99.3713181215204
6.992,0.9999964236057098,99.2709617716879
7.0,0.9999964264222613,99.17057785583302
7.008,0.9999964307388846,99.0701663395637
7.016,0.9999964365656829,98.96972718851413
7.024,0.9999964439123484,98.86926036834468
7.032,0.9999964527881647,98.76876584474219
7.04,0.9999964632020092,98.66824358341978
7.048,0.9999964751623568,98.56769355011703
7.056,0.9999964886772819,98.46711571060005
7.064,0.9999965037544623,98.36651003066149
7.072,0.9999965204011813,98.26587647612052
7.08,0.99999653862433,98.16521501282305
7.088,0.9999965584304121,98.06452560664167
7.096,0.9999965798255447,97.96380822347565
7.104,0.9999966028154623,97.86306282925113
7.112,0.9999966274055196,97.76228938992108
7.12,0.9999966536006938,97.66148787146534
7.128,0.9999966814055882,97.56065823989069
7.136,0.9999967108244343,97.4598004612309
7.144,0.9999967418610947,97.3589145015468
7.152,0.9999967745190677,97.2580003269263
7.16,0.9999968088014872,97.15705790348436
7.168,0.9999968447111287,97.05608719736321
7.176,0.9999968822504086,96.95508817473223
7.184,0.999996921421391,96.85406080178807
7.192,0.9999969622257876,96.75300504475467
7.2,0.9999970046649613,96.65192086988336
7.208,0.9999970487399304,96.55080824345279
7.216,0.9999970944513696,96.44966713176906
7.224,0.9999971417996139,96.34849750116572
7.232,0.9999971907846614,96.24729931800387
7.24,0.9999972414061756,96.14607254867208
7.248,0.9999972936634888,96.04481715958659
7.256,0.9999973475556048,95.9435331171912
7.264,0.999997403081202,95.84222038795734
7.272,0.9999974602386353,95.74087893838423
7.28,0.9999975190259406,95.63950873499874
7.288,0.9999975794408363,95.53810974435554
7.296,0.9999976414807262,95.4366819330371
7.304,0.9999977051427034,95.33522526765373
7.312,0.9999977704235519,95.23373971484358
7.32,0.9999978373197501,95.13222524127274
7.328,0.9999979058274739,95.03068181363521
7.336,0.9999979759425994,94.92910939865298
7.344,0.999998047660705,94.82750796307606
7.352,0.9999981209770749,94.72587747368242
7.36,0.999998195886702,94.62421789727814
7.368,0.999998272384291,94.5225292006974
7.376,0.9999983504642597,94.4208113508025
7.384,0.9999984301207445,94.31906431448382
7.392,0.9999985113476008,94.21728805866
7.4,0.9999985941384064,94.11548255027786
7.4079999999999995,0.9999986784864661,94.01364775631247
7.416,0.9999987643848116,93.91178364376705
7.4239999999999995,0.9999988518262068,93.80989017967326
7.432,0.9999989408031494,93.70796733109094
7.4399999999999995,0.999999031307874,93.60601506510837
7.448,0.9999991233323549,93.50403334884206
7.4559999999999995,0.9999992168683092,93.402022149437
7.464,0.9999993119071995,93.29998143406652
7.4719999999999995,0.9999994084402359,93.19791116993244
7.48,0.9999995064583808,93.0958113242649
7.4879999999999995,0.9999996059523492,92.99368186432267
7.496,0.9999997069126134,92.89152275739286
7.504,0.9999998093294054,92.78933397079118
7.5120000000000005,0.9999999131927187,92.68711547186176
7.52,1.0,92.58486722797741
7.5280000000000005,0.9999999999999999,92.48258920653934
7.536,0.9999999999999999,92.3802813749775
7.5440000000000005,1.0,92.27794370075026
7.552,1.0,92.17557615134473
7.5600000000000005,0.9999999999999999,92.07317869427655
7.568,1.0,91.97075129709009
7.5760000000000005,0.9999999999999999,91.86829392735825
7.584,1.0,91.76580655268272
7.5920000000000005,0.9999999999999999,91.66328914069375
7.6,0.9999999999999999,91.56074165905038
7.6080000000000005,0.9999999999999998,91.45816407544022
7.616,0.9999999999999999,91.35555635757977
7.6240000000000006,1.0,91.25291847321405
7.632,1.0,91.15025039011697
7.640000000000001,1.0000000000000002,91.04755207609104
7.648,1.0,90.94482349896766
7.656000000000001,0.9999999999999999,90.84206462660683
7.664,1.0,90.73927542689746
7.672,0.9999999999999999,90.63645586775708
7.68,1.0,90.53360591713209
7.688,1.0,90.43072554299765
7.696,0.9999999999999999,90.32781471335768
7.704,0.9999999999999999,90.22487339624487
7.712,0.9999999999999998,90.12190155972074
7.72,1.0,90.01889917187557
7.728,0.9999999999999999,89.91586620082842
7.736,0.9999999999999999,89.81280261472719
7.744,0.9999999999999999,89.70970838174853
7.752,1.0,89.60658347009787
7.76,0.9999999999999999,89.50342784800951
7.768,1.0,89.40024148374644
7.776,1.0000000000000002,89.2970243456005
7.784,1.0,89.19377640189231
7.792,1.0,89.09049762097125
7.8,1.0,88.9871879712155
7.808,0.9999999999999999,88.88384742103203
7.816,0.9999999999999999,88.78047593885651
7.824,1.0,88.67707349315343
7.832,1.0,88.57364005241604
7.84,1.0,88.47017558516632
7.848,1.0,88.36668005995497
7.856,1.0,88.26315344536147
7.864,0.9999999999999999,88.15959570999398
7.872,1.0,88.0560068224894
7.88,0.9999999999999999,87.95238675151333
7.888,0.9999999999999999,87.84873546576004
7.896,1.0,87.74505293395254
7.904,1.0,87.64133912484242
7.912,0.9999999999999999,87.53759400721
7.92,1.0,87.43381754986422
7.928,1.0,87.3300097216426
7.936,1.0,87.22617049141137
7.944,1.0,87.12229982806524
7.952,1.0,87.01839770052761
7.96,0.9999999999999999,86.91446407775038
7.968,0.9999999999999999,86.81049892871401
7.976,1.0,86.70650222242747
7.984,0.9999999999999999,86.60247392792829
7.992,1.0,86.49841401428242
8.0,1.0,86.39432245058434
8.008,1.0,86.29019920595697
8.016,1.0,86.1860442495516
8.024000000000001,0.9999999999999999,86.08185755054801
8.032,1.0,85.97763907815431
8.04,0.9999999999999998,85.87338880160696
8.048,1.0,85.76910669017079
8.056000000000001,1.0,85.66479271313891
8.064,0.9999999999999999,85.56044683983276
8.072,0.9999999999999999,85.45606903960199
8.08,1.0,85.35165928182447
8.088000000000001,0.9999999999999999,85.24721753590634
8.096,1.0,85.1427437712819
8.104,1.0,85.03823795741356
8.112,1.0,84.93370006379185
8.120000000000001,0.9999999999999999,84.82913005993542
8.128,1.0,84.724527915391
8.136,1.0,84.61989359973329
8.144,1.0,84.51522708256499
8.152000000000001,1.0,84.4105283335168
8.16,0.9999999999999999,84.30579732224734
8.168,0.9999999999999999,84.20103401844312
8.176,1.0,84.0962383918185
8.184000000000001,0.9999999999999998,83.99141041211566
8.192,0.9999999999999999,83.88655004910463
8.2,1.0,83.78165727258312
8.208,0.9999999999999998,83.67673205237656
8.216000000000001,0.9999999999999998,83.57177435833812
8.224,0.9999999999999999,83.46678416034858
8.232,0.9999999999999999,83.36176142831631
8.24,1.0,83.25670613217723
8.248000000000001,1.0,83.15161824189478
8.256,0.9999999999999999,83.04649772745998
8.264,1.0,82.94134455889115
8.272,0.9999999999999998,82.83615870623403
8.280000000000001,1.0,82.73094013956177
8.288,1.0,82.62568882897484
8.296,0.9999999999999999,82.52040474460092
8.304,1.0,82.41508785659491
8.312,0.9999999999999999,82.30973813513893
8.32,0.9999999999999999,82.20435555044216
8.328,1.0,82.09894007274094
8.336,0.9999999999999999,81.99349167229856
8.344,1.0,81.8880103194054
8.352,1.0,81.78249598437866
8.36,1.0,81.67694863756252
8.368,1.0,81.5713682493279
8.376,0.9999999999999999,81.46575479007264
8.384,1.0,81.36010823022116
8.392,1.0,81.25442854022468
8.4,1.0,81.14871569056099
8.408,1.0,81.0429696517345
8.416,1.0,80.93719039427603
8.424,0.9999999999999999,80.83137788874305
8.432,1.0,80.72553210571927
8.44,1.0,80.61965301581483
8.448,1.0,80.51374058966618
8.456,0.9999999999999998,80.40779479793599
8.464,0.9999999999999999,80.30181561131307
8.472,1.0,80.19580300051246
8.48,1.0,80.08975693627514
8.488,1.0,79.9836773893682
8.496,1.0,79.87756433058456
8.504,0.9999999999999999,79.7714177307432
8.512,1.0,79.6652375606887
8.52,0.9999999999999999,79.55902379129155
8.528,0.9999999999999999,79.45277639344789
8.536,0.9999999999999999,79.3464953380795
8.544,1.0,79.24018059613371
8.552,1.0,79.13383213858337
8.56,1.0,79.02744993642672
8.568,1.0,78.92103396068745
8.576,1.0,78.81458418241446
8.584,1.0,78.70810057268196
8.592,1.0,78.60158310258926
8.6,1.0,78.49503174326084
8.608,0.9999999999999999,78.38844646584612
8.616,1.0,78.28182724151957
8.624,0.9999999999999999,78.17517404148045
8.632,0.9999999999999999,78.06848683695294
8.64,1.0,77.96176559918584
8.648,1.0,77.85501029945273
8.656,1.0,77.7482209090517
8.664,1.0,77.64139739930545
8.672,1.0,77.534539741561
8.68,1.0,77.42764790718991
8.688,0.9999999999999999,77.32072186758786
8.696,1.0,77.2137615941749
8.704,0.9999999999999999,77.10676705839509
8.712,1.0,76.99973823171668
8.72,0.9999999999999998,76.89267508563177
8.728,1.0,76.78557759165652
8.736,1.0,76.67844572133076
8.744,1.0,76.5712794462182
8.752,0.9999999999999999,76.46407873790608
8.76,1.0,76.35684356800539
8.768,1.0,76.24957390815047
8.776,0.9999999999999999,76.14226972999916
8.784,1.0,76.03493100523256
8.792,1.0,75.92755770555519
8.8,0.9999999999999998,75.8201498026945
8.808,1.0,75.7127072684012
8.815999999999999,0.9999999999999999,75.60523007444895
8.824,1.0,75.49771819263425
8.832,1.0,75.39017159477652
8.84,0.9999999999999999,75.28259025271787
8.847999999999999,1.0,75.17497413832304
8.856,0.9999999999999999,75.0673232234793
8.864,0.9999999999999999,74.95963748009649
8.872,1.0,74.85191688010677
8.879999999999999,1.0,74.74416139546456
8.888,0.9999999999999999,74.63637099814645
8.896,1.0,74.52854566015121
8.904,1.0,74.42068535349966
8.911999999999999,1.0000000000000002,74.31279005023437
8.92,0.9999999999999999,74.20485972241985
8.928,0.9999999999999999,74.09689434214233
8.936,1.0,73.9888938815097
8.943999999999999,1.0,73.88085831265131
8.952,1.0,73.77278760771797
8.96,1.0,73.66468173888191
8.968,0.9999999999999999,73.55654067833655
8.975999999999999,0.9999999999999998,73.44836439829648
8.984,1.0,73.34015287099729
8.992,1.0,73.23190606869558
9.0,0.9999999999999998,73.12362396366883
9.008,1.0,73.01530652821523
9.016,1.0,72.9069537346536
9.024000000000001,1.0,72.79856555532335
9.032,1.0,72.69014196258438
9.04,0.9999999999999999,72.58168292881682
9.048,0.9999999999999999,72.47318842642116
9.056000000000001,1.0,72.36465842781796
9.064,0.9999999999999999,72.25609290544791
9.072,0.9999999999999999,72.14749183177155
9.08,0.9999999999999999,72.0388551792692
9.088000000000001,0.9999999999999999,71.93018292044104
9.096,1.0,71.8214750278068
9.104,1.0,71.7127314739057
9.112,1.0,71.60395223129639
9.120000000000001,1.0,71.49513727255678
9.128,1.0,71.38628657028406
9.136,0.9999999999999999,71.27740009709436
9.144,1.0,71.16847782562289
9.152000000000001,0.9999999999999999,71.05951972852364
9.16,0.9999999999999999,70.95052577846943
9.168,0.9999999999999999,70.84149594815163
9.176,1.0,70.73243021028019
9.184000000000001,1.0,70.62332853758346
9.192,0.9999999999999999,70.51419090280811
9.2,0.9999999999999999,70.40501727871897
9.208,0.9999999999999999,70.29580763809889
9.216000000000001,0.9999999999999999,70.1865619537488
9.224,0.9999999999999999,70.07728019848743
9.232,0.9999999999999999,69.9679623451512
9.24,1.0,69.85860836659413
9.248000000000001,0.9999999999999999,69.74921823568782
9.256,0.9999999999999999,69.63979192532122
9.264,1.0,69.53032940840052
9.272,1.0,69.42083065784905
9.280000000000001,0.9999999999999999,69.3112956466072
9.288,1.0,69.20172434763232
9.296,0.9999999999999999,69.09211673389841
9.304,1.0,68.98247277839624
9.312000000000001,1.0,68.87279245413313
9.32,0.9999999999999999,68.76307573413285
9.328,1.0,68.65332259143543
9.336,0.9999999999999999,68.54353299909707
9.344,1.0,68.4337069301901
9.352,1.0000000000000002,68.32384435780278
9.36,1.0,68.21394525503918
9.368,1.0,68.10400959501906
9.376,1.0,67.9940373508778
9.384,1.0,67.88402849576616
9.392,1.0,67.77398300285031
9.4,1.0,67.66390084531155
9.408,1.0,67.55378199634632
9.416,0.9999999999999999,67.44362642916593
9.424,0.9999999999999999,67.33343411699664
9.432,0.9999999999999999,67.22320503307927
9.44,1.0,67.11293915066933
9.448,1.0,67.00263644303666
9.456,1.0,66.89229688346555
9.464,1.0,66.78192044525433
9.472,1.0,66.67150710171555
9.48,0.9999999999999999,66.56105682617552
9.488,1.0,66.4505695919745
9.496,0.9999999999999999,66.34004537246635
9.504,1.0,66.2294841410185
9.512,1.0,66.11888587101173
9.52,1.0,66.00825053584018
9.528,1.0,65.89757810891108
9.536,0.9999999999999999,65.78686856364473
9.544,0.9999999999999999,65.67612187347426
9.552,1.0,65.56533801184561
9.56,1.0,65.45451695221728
9.568,0.9999999999999999,65.34365866806033
9.576,1.0,65.23276313285808
9.584,0.9999999999999998,65.12183032010618
9.592,1.0,65.01086020331226
9.6,1.0,64.89985275599602
9.608,1.0,64.78880795168885
9.616,1.0,64.6777257639339
9.624,0.9999999999999999,64.56660616628588
9.632,1.0,64.45544913231087
9.64,0.9999999999999999,64.34425463558622
9.648,0.9999999999999999,64.2330226497005
9.656,0.9999999999999999,64.12175314825315
9.664,1.0,64.01044610485461
9.672,0.9999999999999998,63.899101493125976
9.68,1.0,63.78771928669895
9.688,0.9999999999999999,63.67629945921571
9.696,0.9999999999999999,63.56484198432874
9.704,0.9999999999999998,63.45334683570068
9.712,1.0,63.341813987004244
9.72,1.0,63.230243411922025
9.728,0.9999999999999999,63.11863508414643
9.736,1.0,63.00698897737943
9.744,1.0,62.8953050653325
9.752,1.0,62.783583321726496
9.76,0.9999999999999999,62.67182372029144
9.768,1.0,62.560026234766426
9.776,1.0,62.44819083889953
9.784,0.9999999999999999,62.336317506447514
9.792,0.9999999999999999,62.22440621117592
9.8,0.9999999999999998,62.11245692685867
9.808,0.9999999999999999,62.00046962727812
9.816,0.9999999999999999,61.88844428622483
9.824,1.0,61.7763808774975
9.832,1.0,61.66427937490265
9.84,1.0,61.55213975225475
9.847999999999999,1.0,61.439961983375824
9.856,1.0,61.32774604209544
9.864,1.0,61.215491902250555
9.872,1.0,61.1031995376854
9.879999999999999,1.0,60.99086892225121
9.888,1.0,60.87850002980624
9.896,1.0,60.76609283421554
9.904,1.0,60.65364730935084
9.911999999999999,1.0,60.54116342909035
9.92,1.0,60.428641167318695
9.928,1.0,60.316080497926734
9.936,0.9999999999999999,60.203481394811455
9.943999999999999,1.0,60.09084383187577
9.952,0.9999999999999999,59.97816778302834
9.96,1.0,59.86545322218365
9.968,0.9999999999999999,59.75270012326162
9.975999999999999,0.9999999999999999,59.63990846018752
9.984,1.0,59.527078206891915
9.992,1.0,59.41420933731045
10.0,1.0,59.3013018253838
10.008,1.0,59.18835564505736
10.016,1.0,59.075370770281175
10.024000000000001,0.9999999999999999,58.96234717500996
10.032,0.9999999999999999,58.8492848332027
10.04,1.0,58.73618371882268
10.048,1.0000000000000002,58.62304380583722
10.056000000000001,1.0,58.50986506821768
10.064,1.0,58.39664747993924
10.072,0.9999999999999999,58.28339101498068
10.08,1.0,58.170095647324366
10.088000000000001,1.0,58.05676135095604
10.096,1.0,57.943388099864734
10.104,1.0,57.82997586804256
10.112,1.0000000000000002,57.71652462948456
10.120000000000001,0.9999999999999999,57.603034358188665
10.128,1.0,57.48950502815552
10.136,1.0,57.37593661338819
