freq,mag,phase
6.0,0.9999905449628292,-106.40263301869933
6.008,0.9999912692071171,-106.79821544599277
6.016,0.9999919726163357,-107.19370367439694
6.024,0.9999926554695935,-107.58909752877368
6.032,0.9999933180447665,-107.98439683982916
6.04,0.9999939606184839,-108.37960144409482
6.048,0.9999945834661099,-108.7747111839085
6.056,0.9999951868617319,-109.16972590739493
6.064,0.999995771078145,-109.5646454684466
6.072,0.9999963363868359,-109.95946972670396
6.08,0.9999968830579704,-110.35419854753584
6.088,0.9999974113603799,-110.74883180201942
6.096,0.9999979215615447,-111.14336936692027
6.104,0.9999984139275843,-111.53781112467213
6.112,0.9999988887232416,-111.93215696335652
6.12,0.9999993462118721,-112.3264067766822
6.128,0.9999997866554277,-112.72056046396467
6.136,1.0000000000000002,-113.1146179301052
6.144,1.0,-113.50857908556999
6.152,0.9999999999999999,-113.90244384636911
6.16,1.0,-114.29621213403519
6.168,1.0,-114.68988387560219
6.176,1.0,-115.08345900358388
6.184,1.0,-115.47693745595217
6.192,0.9999999999999998,-115.87031917611564
6.2,0.9999999999999999,-116.26360411289727
6.208,1.0,-116.65679222051286
6.216,1.0,-117.04988345854865
6.224,0.9999999999999999,-117.4428777919394
6.232,0.9999999999999999,-117.83577519094581
6.24,0.9999999999999999,-118.22857563113226
6.248,0.9999999999999999,-118.62127909334411
6.256,1.0,-119.01388556368529
6.264,0.9999999999999999,-119.40639503349529
6.272,1.0,-119.79880749932637
6.28,0.9999999999999999,-120.19112296292091
6.288,0.9999999999999999,-120.58334143118783
6.296,0.9999999999999999,-120.9754629161799
6.304,1.0,-121.36748743507026
6.312,0.9999999999999999,-121.75941501012913
6.32,1.0,-122.1512456687005
6.328,1.0,-122.54297944317845
6.336,1.0,-122.93461637098363
6.344,0.9999999999999998,-123.32615649453972
6.352,1.0,-123.71759986124947
6.36,1.0,-124.10894652347095
6.368,1.0,-124.50019653849368
6.376,1.0,-124.89134996851466
6.384,1.0,-125.28240688061419
6.392,0.9999999999999999,-125.67336734673188
6.4,0.9999999999999999,-126.06423144364236
6.408,1.0,-126.45499925293113
6.416,1.0,-126.84567086097012
6.424,1.0,-127.2362463588934
6.432,1.0,-127.62672584257265
6.44,1.0,-128.01710941259273
6.448,1.0,-128.40739717422704
6.456,1.0,-128.79758923741306
6.464,0.9999999999999999,-129.18768571672743
6.472,1.0,-129.57768673136144
6.48,1.0,-129.9675924050962
6.4879999999999995,1.0000000000000002,-130.35740286627777
6.496,1.0,-130.7471182477925
6.504,1.0,-131.13673868704166
6.5120000000000005,0.9999999999999998,-131.52626432591714
6.52,0.9999999999999999,-131.91569531077576
6.5280000000000005,1.0,-132.30503179241495
6.536,1.0,-132.69427392604703
6.5440000000000005,1.0,-133.08342187127465
6.552,1.0,-133.4724757920651
6.5600000000000005,1.0,-133.86143585672582
6.568,1.0,-134.2503022378784
6.5760000000000005,1.0,-134.63907511243428
6.584,1.0,-135.02775466156854
6.592,1.0,-135.41634107069524
6.6,1.0,-135.80483452944202
6.608,1.0,-136.1932352316245
6.616,0.9999999999999999,-136.5815433752212
6.624,1.0,-136.96975916234805
6.632,1.0,-137.35788279923298
6.64,0.9999999999999999,-137.7459144961906
6.648,0.9999999999999999,-138.13385446759668
6.656,1.0000000000000002,-138.5217029318627
6.664,0.9999999999999999,-138.90946011141043
6.672,1.0,-139.29712623264646
6.68,0.9999999999999999,-139.68470152593673
6.688,0.9999999999999999,-140.07218622558096
6.696,1.0,-140.4595805697873
6.704,1.0,-140.8468848006466
6.712,1.0,-141.23409916410714
6.72,1.0,-141.62122390994887
6.728,0.9999999999999999,-142.00825929175815
6.736,1.0,-142.39520556690192
6.744,0.9999999999999999,-142.78206299650245
6.752,1.0,-143.16883184541166
6.76,0.9999999999999999,-143.55551238218558
6.768,1.0,-143.94210487905897
6.776,0.999999915395135,-144.32860961191957
6.784,0.9999996985122562,-144.71502686028285
6.792,0.9999994806791915,-145.10135690726617
6.8,0.9999992620180364,-145.4876000395636
6.808,0.9999990426491985,-145.87375654742021
6.816,0.9999988226914035,-146.25982672460665
6.824,0.9999986022616995,-146.64581086839368
6.832,0.999998381475461,-147.03170927952655
6.84,0.999998160446393,-147.41752226219984
6.848,0.9999979392865362,-147.8032501240316
6.856,0.9999977181062741,-148.18889317603833
6.864,0.9999974970143335,-148.5744517326092
6.872,0.999997276117793,-148.95992611148085
6.88,0.999997055522088,-149.34531663371192
6.888,0.9999968353310136,-149.7306236236577
6.896,0.9999966156467338,-150.11584740894466
6.904,0.9999963965697843,-150.5009883204453
6.912,0.9999961781990784,-150.8860466922526
6.92,0.9999959606319143,-151.2710228616548
6.928,0.99999574396398,-151.65591716911024
6.936,0.9999955282893594,-152.04072995822185
6.944,0.9999953137005382,-152.42546157571206
6.952,0.9999951002884108,-152.81011237139748
6.96,0.9999948881422862,-153.19468269816386
6.968,0.9999946773498948,-153.5791729119407
6.976,0.9999944679973943,-153.96358337167615
6.984,0.9999942601693769,-154.34791443931198
6.992,0.9999940539488764,-154.7321664797584
7.0,0.9999938494173735,-155.11633986086892
7.008,0.9999936466548042,-155.5004349534154
7.016,0.9999934457395667,-155.88445213106286
7.024,0.9999932467485281,-156.26839177034472
7.032,0.999993049757031,-156.65225425063758
7.04,0.9999928548389027,-157.03603995413644
7.048,0.9999926620664596,-157.4197492658297
7.056,0.9999924715105184,-157.80338257347427
7.064,0.9999922832404006,-158.1869402675707
7.072,0.9999920973239413,-158.57042274133843
7.08,0.9999919138274966,-158.953830390691
7.088,0.9999917328159521,-159.3371636142111
7.096,0.9999915543527303,-159.720422813126
7.104,0.999991378499797,-160.1036083912828
7.112,0.9999912053176735,-160.48672075512377
7.12,0.9999910348654395,-160.86976031366171
7.128,0.999990867200746,-161.25272747845537
7.136,0.9999907023798186,-161.6356226635847
7.144,0.9999905404574715,-162.01844628562665
7.152,0.99999038148711,-162.40119876363033
7.16,0.9999902255207446,-162.78388051909272
7.168,0.9999900726089946,-163.16649197593424
7.176,0.9999899228010992,-163.54903356047424
7.184,0.9999897761449273,-163.9315057014067
7.192,0.9999896326869822,-164.31390882977598
7.2,0.999989492472414,-164.6962433789524
7.208,0.9999893555450278,-165.07850978460797
7.216,0.99998922194729,-165.46070848469236
7.224,0.9999890917203417,-165.84283991940842
7.232,0.9999889649040024,-166.22490453118843
7.24,0.999988841536784,-166.60690276466957
7.248,0.9999887216558961,-166.98883506667008
7.256,0.9999886052972574,-167.37070188616516
7.264,0.999988492495504,-167.75250367426315
7.272,0.9999883832839987,-168.13424088418122
7.28,0.99998827769484,-168.51591397122172
7.288,0.9999881757588724,-168.89752339274824
7.296,0.9999880775056945,-169.2790696081617
7.304,0.999987982963669,-169.6605530788766
7.312,0.9999878921599333,-170.04197426829728
7.32,0.9999878051204054,-170.42333364179404
7.328,0.9999877218697988,-170.80463166667963
7.336,0.9999876424316269,-171.18586881218553
7.344,0.999987566828216,-171.56704554943832
7.352,0.999987495080714,-171.94816235143597
7.36,0.999987427209098,-172.32921969302467
7.368,0.9999873632321883,-172.71021805087494
7.376,0.9999873031676529,-173.09115790345842
7.384,0.9999872470320236,-173.4720397310243
7.392,0.9999871948406996,-173.85286401557602
7.4,0.9999871466079604,-174.23363124084796
7.4079999999999995,0.9999871023469762,-174.61434189228197
7.416,0.9999870620698154,-174.9949964570045
7.4239999999999995,0.9999870257874572,-175.3755954238027
7.432,0.9999869935098001,-175.75613928310202
7.4399999999999995,0.9999869652456719,-176.1366285269424
7.448,0.999986941002839,-176.51706364895566
7.4559999999999995,0.9999869207880189,-176.89744514434193
7.464,0.9999869046068859,-177.27777350984732
7.4719999999999995,0.9999868924640875,-177.65804924374012
7.48,0.9999868843632477,-178.0382728457885
7.4879999999999995,0.9999868803069805,-178.4184448172372
7.496,0.9999868802969019,-178.7985656607849
7.504,0.9999868843336344,-179.17863588056116
7.5120000000000005,0.9999868924168233,-179.55865598210397
7.52,0.9999869045451429,-179.93862647233644
7.5280000000000005,0.9999869207163071,179.6814521404552
7.536,0.999986940927081,179.30157934664507
7.5440000000000005,0.9999869651732904,178.9217546352895
7.552,0.9999869934498314,178.5419774941503
7.5600000000000005,0.9999870257506819,178.16224740971688
7.568,0.9999870620689092,177.7825638672291
7.5760000000000005,0.9999871023966836,177.40292635069935
7.584,0.9999871467252868,177.02333434293553
7.5920000000000005,0.9999871950451218,176.64378732556295
7.6,0.9999872473457235,176.2642847790472
7.6080000000000005,0.9999873036157702,175.8848261827159
7.616,0.9999873638430906,175.5054110147817
7.6240000000000006,0.9999874280146785,175.1260387523639
7.632,0.9999874961166988,174.7467088715112
7.640000000000001,0.9999875681345005,174.36742084722334
7.648,0.9999876440526259,173.98817415347398
7.656000000000001,0.9999877238548205,173.608968263232
7.664,0.9999878075240445,173.22980264848434
7.672,0.9999878950424809,172.85067678025743
7.68,0.9999879863915482,172.47159012863958
7.688,0.9999880815519087,172.0925421628029
7.696,0.9999881805034798,171.7135323510251
7.704,0.9999882832254438,171.3345601607115
7.712,0.9999883896962571,170.95562505841684
7.72,0.9999884998936637,170.57672650986726
7.728,0.9999886137947004,170.1978639799818
7.736,0.9999887313757113,169.8190369328945
7.744,0.9999888526123561,169.4402448319759
7.752,0.9999889774796201,169.06148713985485
7.76,0.9999891059518248,168.68276331844007
7.768,0.9999892380026374,168.30407282894186
7.776,0.9999893736050824,167.92541513189374
7.784,0.9999895127315502,167.5467896871738
7.792,0.9999896553538076,167.16819595402646
7.8,0.9999898014430076,166.78963339108375
7.808,0.9999899509697007,166.411101456387
7.816,0.9999901039038434,166.03259960740806
7.824,0.9999902602148089,165.6541273010708
7.832,0.9999904198713971,165.27568399377236
7.84,0.999990582841845,164.89726914140473
7.848,0.9999907490938349,164.5188821993757
7.856,0.9999909185945072,164.14052262263036
7.864,0.9999910913104673,163.7621898656723
7.872,0.9999912672077981,163.3838833825847
7.88,0.9999914462520677,163.00560262705164
7.888,0.9999916284083413,162.62734705237912
7.896,0.9999918136411889,162.24911611151626
7.904,0.9999920019146972,161.87090925707625
7.912,0.9999921931924775,161.49272594135758
7.92,0.999992387437677,161.11456561636479
7.928,0.9999925846129877,160.73642773382977
7.936,0.999992784680656,160.3583117452325
7.944,0.9999929876024927,159.98021710182195
7.952,0.9999931933398832,159.6021432546371
7.96,0.9999934018537957,159.22408965452775
7.968,0.9999936131047924,158.84605575217537
7.976,0.9999938270530376,158.46804099811385
7.984,0.9999940436583085,158.0900448427503
7.992,0.9999942628800035,157.7120667363859
8.0,0.9999944846771531,157.33410612923637
8.008,0.9999947090084284,156.95616247145304
8.016,0.9999949358321498,156.57823521314296
8.024000000000001,0.9999951651062986,156.20032380439017
8.032,0.9999953967885244,155.82242769527596
8.04,0.9999956308361551,155.4445463358993
8.048,0.9999958672062054,155.0666791763976
8.056000000000001,0.9999961058553882,154.68882566696738
8.064,0.9999963467401216,154.31098525788445
8.072,0.9999965898165388,153.93315739952456
8.08,0.9999968350404975,153.55534154238362
8.088000000000001,0.9999970823675891,153.17753713709854
8.096,0.9999973317531474,152.79974363446732
8.104,0.9999975831522576,152.42196048546924
8.112,0.9999978365197651,152.04418714128553
8.120000000000001,0.999998091810286,151.66642305331953
8.128,0.9999983489782134,151.28866767321713
8.136,0.9999986079777292,150.91092045288667
8.144,0.9999988687628104,150.53318084451928
8.152000000000001,0.9999991312872396,150.1554483006095
8.16,0.9999993955046129,149.77772227397497
8.168,0.9999996613683492,149.4000022177767
8.176,0.9999999288316981,149.0222875855391
8.184000000000001,1.0,148.6445778311705
8.192,0.9999999999999999,148.2668724089828
8.2,1.0,147.88917077371164
8.208,1.0,147.51147238053625
8.216000000000001,0.9999999999999999,147.13377668509992
8.224,1.0,146.75608314352954
8.232,0.9999999999999999,146.37839121245565
8.24,1.0,146.00070034903234
8.248000000000001,1.0000000000000002,145.6230100109573
8.256,1.0,145.2453196564916
8.264,0.9999999999999998,144.86762874447945
8.272,0.9999999999999998,144.48993673436792
8.280000000000001,1.0,144.11224308622715
8.288,1.0,143.73454726076997
8.296,1.0,143.3568487193712
8.304,0.9999999999999999,142.97914692408784
8.312,1.0,142.6014413376788
8.32,1.0,142.2237314236242
8.328,0.9999999999999999,141.8460166461455
8.336,1.0,141.46829647022446
8.344,1.0,141.09057036162355
8.352,0.9999999999999999,140.71283778690471
8.36,1.0,140.3350982134497
8.368,1.0,139.95735110947874
8.376,1.0,139.57959594407095
8.384,0.9999999999999999,139.2018321871829
8.392,1.0,138.8240593096689
8.4,1.0,138.4462767832997
8.408,1.0,138.06848408078247
8.416,1.0,137.69068067577965
8.424,1.0,137.31286604292887
8.432,0.9999999999999999,136.93503965786164
8.44,1.0,136.55720099722322
8.448,1.0,136.1793495386914
8.456,1.0,135.80148476099626
8.464,1.0,135.42360614393877
8.472,0.9999999999999999,135.04571316841066
8.48,1.0,134.6678053164129
8.488,1.0,134.28988207107554
8.496,0.9999999999999999,133.91194291667605
8.504,1.0,133.53398733865924
8.512,1.0,133.15601482365554
8.52,1.0,132.7780248595007
8.528,0.9999999999999999,132.4000169352542
8.536,1.0,132.02199054121883
8.544,1.0,131.64394516895894
8.552,1.0,131.26588031132016
8.56,1.0,130.88779546244754
8.568,1.0,130.50969011780512
8.576,1.0,130.131563774194
8.584,0.9999999999999999,129.753415929772
8.592,1.0,129.3752460840716
8.6,1.0000000000000002,128.99705373801947
8.608,1.0,128.6188383939545
8.616,1.0000000000000002,128.24059955564718
8.624,0.9999999999999999,127.86233672831749
8.632,1.0,127.48404941865434
8.64,1.0,127.1057371348335
8.648,1.0,126.72739938653676
8.656,1.0,126.34903568496978
8.664,1.0,125.97064554288143
8.672,0.9999999999999999,125.59222847458143
8.68,1.0,125.21378399595963
8.688,1.0,124.83531162450355
8.696,1.0,124.4568108793176
8.704,1.0,124.07828128114082
8.712,0.9999999999999999,123.6997223523656
8.72,1.0,123.32113361705557
8.728,1.0,122.94251460096433
8.736,1.0,122.56386483155312
8.744,1.0,122.18518383800966
8.752,0.9999999999999999,121.80647115126547
8.76,0.9999999999999999,121.42772630401491
8.768,1.0,121.0489488307323
8.776,0.9999999999999999,120.67013826769092
8.784,1.0,120.29129415298004
8.792,1.0,119.91241602652384
8.8,1.0,119.53350343009845
8.808,1.0,119.15455590735061
8.815999999999999,1.0,118.77557300381487
8.824,1.0,118.39655426693174
8.832,1.0,118.0174992460656
8.84,1.0,117.63840749252209
8.847999999999999,1.0,117.25927855956596
8.856,1.0,116.8801120024386
8.864,1.0,116.50090737837589
8.872,1.0,116.12166424662567
8.879999999999999,0.9999999999999999,115.74238216846503
8.888,1.0,115.36306070721795
8.896,1.0,114.98369942827287
8.904,1.0,114.60429789910005
8.911999999999999,1.0,114.22485568926852
8.92,1.0,113.84537237046375
8.928,1.0,113.46584751650494
8.936,0.9999999999999999,113.08628070336212
8.943999999999999,1.0,112.70667150917308
8.952,1.0,112.32701951426073
8.96,0.9999999999999999,111.94732430115019
8.968,0.9999999999999999,111.5675854545858
8.975999999999999,1.0,111.18780256154773
8.984,1.0,110.80797521126917
8.992,0.9999999999999998,110.42810299525335
9.0,0.9999999999999999,110.04818550729014
9.008,0.9999999999999999,109.6682223434726
9.016,1.0,109.2882131022139
9.024000000000001,1.0,108.90815738426411
9.032,1.0,108.5280547927266
9.04,1.0,108.14790493307444
9.048,0.9999999999999999,107.76770741316697
9.056000000000001,1.0,107.38746184326646
9.064,0.9999999999999999,107.00716783605426
9.072,1.0,106.62682500664691
9.08,1.0,106.2464329726126
9.088000000000001,1.0,105.86599135398747
9.096,1.0,105.48549977329155
9.104,1.0,105.10495785554471
9.112,1.0,104.72436522828276
9.120000000000001,1.0,104.34372152157358
9.128,0.9999999999999998,103.96302636803271
9.136,0.9999999999999999,103.58227940283916
9.144,0.9999999999999999,103.20148026375118
9.152000000000001,1.0,102.82062859112212
9.16,1.0,102.43972402791582
9.168,0.9999999999999999,102.05876621972209
9.176,1.0,101.6777548147722
9.184000000000001,0.9999999999999999,101.29668946395446
9.192,1.0,100.91556982082948
9.2,0.9999999999999999,100.5343955416451
9.208,1.0,100.15316628535174
9.216000000000001,1.0,99.7718817136178
9.224,1.0,99.39054149084438
9.232,1.0,99.00914528418005
9.24,1.0,98.62769276353598
9.248000000000001,0.9999999999999998,98.24618360160079
9.256,1.0,97.8646174738552
9.264,1.0,97.48299405858641
9.272,1.0,97.10131303690282
9.280000000000001,0.9999999999999999,96.71957409274869
9.288,1.0,96.33777691291837
9.296,1.0,95.95592118707039
9.304,1.0,95.5740066077419
9.312000000000001,0.9999999999999999,95.19203287036284
9.32,1.0,94.80999967326997
9.328,1.0,94.42790671772063
9.336,1.0,94.04575370790663
9.344,1.0,93.66354035096846
9.352,1.0,93.28126635700826
9.36,1.0,92.89893143910416
9.368,1.0,92.51653531332306
9.376,1.0,92.1340776987347
9.384,0.9999999999999999,91.75155831742437
9.392,1.0,91.36897689450673
9.4,1.0,90.98633315813824
9.408,0.9999999999999999,90.60362683953092
9.416,0.9999999999999999,90.22085767296454
9.424,0.9999999999999999,89.83802539580014
9.432,0.9999999999999999,89.45512974849204
9.44,0.9999999999999999,89.07217047460115
9.448,1.0,88.68914732080681
9.456,0.9999999999999999,88.30606003691987
9.464,1.0,87.92290837589428
9.472,0.9999999999999998,87.53969209384005
9.48,0.9999999999999999,87.15641095003446
9.488,1.0,86.77306470693497
9.496,1.0,86.3896531301902
9.504,0.9999999999999999,86.00617598865247
9.512,0.9999999999999999,85.62263305438869
9.52,0.9999999999999999,85.23902410269264
9.528,0.9999999999999999,84.85534891209564
9.536,1.0,84.4716072643785
9.544,1.0,84.08779894458213
9.552,0.9999999999999999,83.70392374101911
9.56,0.9999999999999999,83.31998144528417
9.568,1.0,82.93597185226542
9.576,0.9999999999999999,82.55189476015462
9.584,1.0,82.16774997045823
9.592,0.9999999999999999,81.78353728800728
9.6,1.0,81.3992565209684
9.608,1.0,81.0149074808532
9.616,1.0,80.63048998252918
9.624,1.0,80.2460038442289
9.632,0.9999999999999999,79.86144888756043
9.64,1.0,79.47682493751644
9.648,1.0,79.0921318224844
9.656,0.9999999999999998,78.70736937425521
9.664,0.9999999999999999,78.32253742803333
9.672,0.9999999999999999,77.93763582244507
9.68,0.9999999999999999,77.5526643995484
9.688,1.0,77.16762300484103
9.696,0.9999999999999999,76.7825114872699
9.704,1.0,76.39732969923902
9.712,1.0,76.01207749661866
9.72,1.0,75.62675473875288
9.728,0.9999999999999998,75.24136128846844
9.736,1.0,74.85589701208205
9.744,0.9999999999999999,74.47036177940902
9.752,1.0,74.08475546377021
9.76,1.0,73.6990779420003
9.768,0.9999999999999999,73.31332909445447
9.776,0.9999999999999999,72.9275088050165
9.784,0.9999999999999999,72.541616961105
9.792,0.9999999999999999,72.15565345368121
9.8,1.0,71.76961817725503
9.808,1.0,71.38351102989235
9.816,0.9999999999999999,70.99733191322089
9.824,1.0,70.61108073243727
9.832,1.0,70.22475739631236
9.84,1.0,69.83836181719808
9.847999999999999,0.9999999999999999,69.4518939110326
9.856,1.0,69.06535359734633
9.864,1.0,68.67874079926759
9.872,1.0,68.29205544352776
9.879999999999999,1.0,67.90529746046639
9.888,1.0,67.51846678403628
9.896,1.0,67.13156335180865
9.904,1.0,66.74458710497751
9.911999999999999,1.0,66.35753798836409
9.92,0.9999999999999999,65.97041595042135
9.928,1.0,65.58322094323833
9.936,0.9999999999999999,65.19595292254388
9.943999999999999,1.0,64.80861184771051
9.952,1.0,64.421197681758
9.96,1.0,64.03371039135718
9.968,1.0,63.64614994683297
9.975999999999999,1.0,63.25851632216741
9.984,0.9999999999999999,62.87080949500269
9.992,1.0,62.48302944664406
10.0,0.9999999999999999,62.09517616206234
10.008,0.9999999999999999,61.70724962989601
10.016,0.9999999999999998,61.31924984245368
10.024000000000001,1.0,60.93117679571622
10.032,0.9999999999999998,60.54303048933845
10.04,1.0,60.1548109266506
10.048,1.0,59.766518114659945
10.056000000000001,1.0,59.3781520640523
10.064,0.9999999999999999,58.9897127891928
10.072,0.9999999999999999,58.601200308126764
10.08,0.9999999999999999,58.21261464258043
10.088000000000001,1.0,57.82395581796175
10.096,0.9999999999999999,57.43522386336043
