freq,mag,phase
6.0,0.9999943320668275,-34.28352447717181
6.008,0.9999960451832933,-34.64945029546527
6.016,0.9999976950838839,-35.01516654875077
6.024,0.9999992830589745,-35.380670618716366
6.032,1.0,-35.745959903387885
6.04,1.0,-36.11103181726387
6.048,0.9999999999999999,-36.47588379144783
6.056,1.0,-36.84051327377806
6.064,0.9999999999999999,-37.20491772895508
6.072,1.0,-37.56909463866647
6.08,0.9999999999999999,-37.933041501709354
6.088,1.0,-38.29675583411023
6.096,1.0,-38.660235169242284
6.104,1.0,-39.0234770579404
6.112,1.0,-39.386479068613475
6.12,1.0,-39.749238787354116
6.128,1.0,-40.11175381804616
6.136,1.0,-40.474021782469244
6.144,1.0,-40.83604032040117
6.152,0.9999999999999999,-41.197807089717564
6.16,1.0,-41.55931976648907
6.168,0.9999999999999999,-41.92057604507594
6.176,1.0,-42.28157363822019
6.184,0.9999999999999999,-42.642310277135095
6.192,1.0,-43.002783711592336
6.2,1.0,-43.36299171000635
6.208,1.0,-43.72293205951644
6.216,1.0,-44.08260256606607
6.224,1.0,-44.44200105447997
6.232,1.0,-44.801125368538344
6.24,1.0,-45.15997337104897
6.248,0.9999999999999999,-45.518542943916366
6.256,1.0,-45.87683198820879
6.264,1.0,-46.23483842422269
6.272,1.0,-46.59256019154439
6.28,1.0,-46.949995249109755
6.288,1.0,-47.30714157526093
6.296,0.9999999999999999,-47.6639971678009
6.304,0.9999999999999999,-48.02056004404559
6.312,1.0,-48.376828240873245
6.32,0.9999999999999999,-48.732799814771774
6.328,0.9999999999999999,-49.08847284188334
6.336,0.9999999999999999,-49.443845418046735
6.344,0.9999999999999999,-49.798915658837174
6.352,1.0000000000000002,-50.15368169960394
6.36,1.0,-50.50814169550544
6.368,0.9999999999999999,-50.86229382154195
6.376,1.0,-51.21613627258607
6.384,0.9999999999999998,-51.569667263410786
6.392,1.0,-51.92288502871526
6.4,1.0,-52.27578782314816
6.408,1.0,-52.62837392132894
6.416,1.0,-52.98064161786659
6.424,1.0,-53.332589227376374
6.432,1.0,-53.684215084494085
6.44,1.0,-54.03551754388816
6.448,1.0,-54.38649498026971
6.456,1.0,-54.73714578840009
6.464,1.0,-55.087468383096564
6.472,1.0,-55.43746119923556
6.48,1.0,-55.787122691754014
6.4879999999999995,0.9999999999999999,-56.13645133564839
6.496,0.9999999999999999,-56.48544562597186
6.504,1.0,-56.83410407782881
6.5120000000000005,1.0,-57.18242522636827
6.52,0.9999999999999999,-57.53040762677409
6.5280000000000005,0.9999999999999999,-57.878049854254336
6.536,1.0,-58.22535050402744
6.5440000000000005,1.0,-58.57230819130755
6.552,1.0,-58.918921551286836
6.5600000000000005,1.0,-59.2651892391168
6.568,1.0,-59.61110992988674
6.5760000000000005,0.9999999999999999,-59.956682318601345
6.584,1.0,-60.301905120155226
6.592,0.9999999999999999,-60.6467770693068
6.6,1.0,-60.99129692064935
6.608,1.0,-61.33546344858074
6.616,1.0,-61.679275447271394
6.624,1.0,-62.0227317306302
6.632,1.0,-62.365831132268944
6.64,1.0,-62.70857250546485
6.648,1.0,-63.05095472312148
6.656,0.9999999999999999,-63.39297667772792
6.664,1.0,-63.7346372813164
6.672,0.9999999999999999,-64.07593546541815
6.68,1.0,-64.4168701810177
6.688,0.9999999999999999,-64.75744039850561
6.696,1.0,-65.09764510762963
6.704,0.9999999999999999,-65.4374833174443
6.712,1.0,-65.77695405625902
6.72,1.0,-66.11605637158469
6.728,0.9999999999999998,-66.45478933007877
6.736,1.0,-66.793152017489
6.744,1.0,-67.13114353859568
6.752,1.0,-67.46876301715243
6.76,1.0,-67.80600959582571
6.768,1.0,-68.14288243613305
6.776,1.0,-68.47938071837966
6.784,0.9999999999999999,-68.81550364159402
6.792,1.0,-69.15125042346214
6.8,0.9999999999999998,-69.4866203002604
6.808,0.9999999999999999,-69.82161252678735
6.816,1.0,-70.15622637629413
6.824,0.9999999999999999,-70.49046114041397
6.832,1.0,-70.82431612909014
6.84,0.9999999999999999,-71.15779067050308
6.848,0.9999999999999999,-71.49088411099633
6.856,0.9999999999999999,-71.8235958150013
6.864,0.9999999999999999,-72.15592516496099
6.872,1.0,-72.48787156125277
6.88,1.0,-72.81943442210999
6.888,1.0,-73.15061318354269
6.896,1.0,-73.48140729925733
6.904,1.0,-73.81181624057544
6.912,1.0,-74.14183949635165
6.92,0.9999999999999998,-74.47147657289037
6.928,0.9999999999999999,-74.80072699386197
6.936,1.0,-75.12959030021793
6.944,0.9999997778919881,-75.45806605010512
6.952,0.9999994312783776,-75.78615381877941
6.96,0.9999990892289833,-76.11385319851831
6.968,0.9999987518162836,-76.441163798533
6.976,0.9999984191083785,-76.76808524487936
6.984,0.9999980911690795,-77.09461718036872
6.992,0.9999977680579971,-77.42075926447741
7.0,0.9999974498306319,-77.74651117325591
7.008,0.9999971365384599,-78.07187259923728
7.016,0.9999968282290218,-78.39684325134493
7.024,0.9999965249460071,-78.72142285479975
7.032,0.9999962267293403,-79.04561115102679
7.04,0.9999959336152665,-79.369407897561
7.048,0.9999956456364327,-79.69281286795291
7.056,0.999995362821974,-80.01582585167334
7.064,0.9999950851975928,-80.33844665401784
7.072,0.9999948127856418,-80.66067509601055
7.08,0.9999945456052044,-80.98251101430755
7.088,0.9999942836721734,-81.30395426109986
7.096,0.9999940269993308,-81.62500470401584
7.104,0.9999937755964253,-81.94566222602339
7.112,0.9999935294702498,-82.2659267253315
7.12,0.999993288624717,-82.58579811529167
7.128,0.999993053060936,-82.90527632429873
7.136,0.9999928227772854,-83.22436129569148
7.144,0.999992597769488,-83.54305298765301
7.152,0.9999923780306846,-83.8613513731106
7.16,0.9999921635515027,-84.17925643963537
7.168,0.9999919543201317,-84.4967681893418
7.176,0.9999917503223902,-84.81388663878671
7.184,0.9999915515417969,-85.13061181886835
7.192,0.9999913579596388,-85.446943774725
7.2,0.9999911695550393,-85.76288256563353
7.208,0.9999909863050227,-86.07842826490759
7.216,0.9999908081845839,-86.39358095979595
7.224,0.9999906351667502,-86.70834075138036
7.232,0.999990467222648,-87.02270775447346
7.24,0.9999903043215641,-87.33668209751652
7.248,0.9999901464310085,-87.65026392247705
7.256,0.9999899935167773,-87.96345338474651
7.264,0.9999898455430132,-88.27625065303758
7.272,0.9999897024722635,-88.58865590928174
7.28,0.9999895642655401,-88.90066934852659
7.288,0.9999894308823799,-89.21229117883331
7.296,0.9999893022808984,-89.52352162117387
7.304,0.9999891784178476,-89.83436090932848
7.312,0.9999890592486729,-90.14480928978301
7.32,0.9999889447275663,-90.45486702162626
7.328,0.9999888348075202,-90.76453437644751
7.336,0.9999887294403814,-91.07381163823402
7.344,0.9999886285769021,-91.38269910326854
7.352,0.9999885321667921,-91.69119708002708
7.36,0.9999884401587699,-91.99930588907655
7.368,0.9999883525006096,-92.30702586297284
7.376,0.9999882691391936,-92.61435734615844
7.384,0.9999881900205572,-92.92130069486105
7.392,0.9999881150899378,-93.22785627699145
7.4,0.9999880442918206,-93.53402447204216
7.4079999999999995,0.9999879775699838,-93.83980567098597
7.416,0.9999879148675443,-94.14520027617482
7.4239999999999995,0.9999878561270001,-94.45020870123855
7.432,0.9999878012902753,-94.75483137098448
7.4399999999999995,0.9999877502987606,-95.05906872129631
7.448,0.9999877030933565,-95.36292119903429
7.4559999999999995,0.9999876596145122,-95.66638926193454
7.464,0.999987619802267,-95.96947337850976
7.4719999999999995,0.9999875835962896,-96.27217402794894
7.48,0.9999875509359151,-96.57449170001861
7.4879999999999995,0.9999875217601838,-96.87642689496325
7.496,0.9999874960078776,-97.17798012340694
7.504,0.9999874736175566,-97.47915190625434
7.5120000000000005,0.9999874545275937,-97.77994277459308
7.52,0.9999874386762099,-98.08035326959524
7.5280000000000005,0.9999874260015078,-98.38038394242037
7.536,0.9999874164415052,-98.68003535411772
7.5440000000000005,0.9999874099341668,-98.97930807552986
7.552,0.9999874064174364,-99.27820268719553
7.5600000000000005,0.9999874058292682,-99.5767197792541
7.568,0.9999874081076561,-99.87485995134907
7.5760000000000005,0.999987413190664,-100.17262381253319
7.584,0.9999874210164548,-100.47001198117286
7.5920000000000005,0.9999874315233178,-100.76702508485384
7.6,0.9999874446496975,-101.06366376028653
7.6080000000000005,0.999987460334219,-101.3599286532125
7.616,0.9999874785157151,-101.65582041831053
7.6240000000000006,0.9999874991332511,-101.95133971910384
7.632,0.9999875221261505,-102.2464872278671
7.640000000000001,0.9999875474340181,-102.54126362553457
7.648,0.9999875749967648,-102.83566960160768
7.656000000000001,0.9999876047546292,-103.12970585406435
7.664,0.9999876366482012,-103.4233730892673
7.672,0.9999876706184421,-103.7166720218741
7.68,0.9999877066067068,-104.00960337474682
7.688,0.999987744554764,-104.30216787886245
7.696,0.9999877844048157,-104.59436627322383
7.704,0.9999878260995165,-104.88619930477093
7.712,0.9999878695819924,-105.17766772829262
7.72,0.9999879147958587,-105.468772306339
7.728,0.999987961685237,-105.75951380913409
7.736,0.9999880101947729,-106.04989301448909
7.744,0.9999880602696524,-106.33991070771607
7.752,0.9999881118556163,-106.62956768154226
7.76,0.9999881648989769,-106.91886473602466
7.768,0.999988219346632,-107.20780267846528
7.776,0.9999882751460788,-107.49638232332696
7.784,0.9999883322454283,-107.78460449214937
7.792,0.9999883905934173,-108.072470013466
7.8,0.9999884501394223,-108.35997972272115
7.808,0.9999885108334702,-108.64713446218788
7.816,0.9999885726262505,-108.93393508088619
7.824,0.9999886354691263,-109.22038243450186
7.832,0.9999886993141456,-109.50647738530571
7.84,0.9999887641140494,-109.79222080207354
7.848,0.9999888298222837,-110.07761356000647
7.856,0.9999888963930067,-110.36265654065178
7.864,0.9999889637810988,-110.6473506318245
7.872,0.9999890319421703,-110.93169672752923
7.88,0.9999891008325684,-111.21569572788275
7.888,0.9999891704093867,-111.49934853903709
7.896,0.9999892406304693,-111.78265607310304
7.904,0.99998931145442,-112.06561924807433
7.912,0.999989382840606,-112.34823898775235
7.92,0.9999894547491647,-112.6305162216713
7.928,0.9999895271410094,-112.91245188502403
7.936,0.9999895999778333,-113.19404691858828
7.944,0.9999896732221137,-113.47530226865365
7.952,0.9999897468371169,-113.75621888694887
7.96,0.9999898207869017,-114.03679773056992
7.968,0.9999898950363216,-114.3170397619084
7.976,0.9999899695510291,-114.59694594858077
7.984,0.9999900442974778,-114.87651726335774
7.992,0.9999901192429244,-115.1557546840946
8.0,0.9999901943554302,-115.43465919366199
8.008,0.9999902696038633,-115.71323177987688
8.016,0.9999903449578996,-115.99147343543484
8.024000000000001,0.999990420388023,-116.26938515784201
8.032,0.999990495865527,-116.54696794934812
8.04,0.9999905713625137,-116.82422281688027
8.048,0.9999906468518941,-117.10115077197666
8.056000000000001,0.9999907223073882,-117.37775283072116
8.064,0.9999907977035235,-117.65403001367856
8.072,0.9999908730156345,-117.92998334583037
8.08,0.9999909482198607,-118.20561385651084
8.088000000000001,0.9999910232931456,-118.4809225793439
8.096,0.9999910982132343,-118.75591055218027
8.104,0.9999911729586717,-119.03057881703579
8.112,0.9999912475088001,-119.30492842002946
8.120000000000001,0.9999913218437562,-119.57896041132248
8.128,0.9999913959444677,-119.85267584505793
8.136,0.9999914697926514,-120.12607577930076
8.144,0.9999915433708083,-120.39916127597851
8.152000000000001,0.9999916166622205,-120.67193340082221
8.16,0.9999916896509479,-120.94439322330827
8.168,0.9999917623218225,-121.21654181660085
8.176,0.9999918346604454,-121.48838025749446
8.184000000000001,0.9999919066531815,-121.75990962635723
8.192,0.9999919782871549,-122.03113100707483
8.2,0.9999920495502431,-122.30204548699513
8.208,0.9999921204310734,-122.57265415687274
8.216000000000001,0.9999921909190157,-122.84295811081458
8.224,0.9999922610041776,-123.11295844622596
8.232,0.9999923306773988,-123.3826562637571
8.24,0.9999923999302446,-123.65205266725016
8.248000000000001,0.9999924687549997,-123.92114876368672
8.256,0.9999925371446623,-124.18994566313584
8.264,0.9999926050929372,-124.45844447870302
8.272,0.9999926725942287,-124.726646326479
8.280000000000001,0.9999927396436348,-124.99455232548941
8.288,0.9999928062369386,-125.26216359764513
8.296,0.9999928723706025,-125.52948126769293
8.304,0.9999929380417605,-125.79650646316664
8.312,0.9999930032482103,-126.0632403143387
8.32,0.9999930679884053,-126.3296839541728
8.328,0.9999931322614484,-126.59583851827598
8.336,0.9999931960670823,-126.8617051448526
8.344,0.999993259405683,-127.12728497465737
8.352,0.9999933222782502,-127.39257915095006
8.36,0.9999933846864003,-127.65758881944991
8.368,0.9999934466323578,-127.92231512829116
8.376,0.9999935081189448,-128.18675922797843
8.384,0.9999935691495763,-128.45092227134322
8.392,0.9999936297282475,-128.7148054135003
8.4,0.9999936898595282,-128.97840981180528
8.408,0.9999937495485511,-129.2417366258117
8.416,0.9999938088010051,-129.50478701722994
8.424,0.9999938676231244,-129.76756214988492
8.432,0.9999939260216809,-130.03006318967613
8.44,0.9999939840039742,-130.29229130453632
8.448,0.9999940415778225,-130.55424766439234
8.456,0.9999940987515514,-130.81593344112486
8.464,0.9999941555339885,-131.07734980853007
8.472,0.9999942119344493,-131.33849794228058
8.48,0.9999942679627306,-131.5993790198876
8.488,0.9999943236291,-131.8599942206631
8.496,0.9999943789442861,-132.12034472568286
8.504,0.9999944339194675,-132.38043171774936
8.512,0.9999944885662662,-132.6402563813559
8.52,0.9999945428967338,-132.8998199026504
8.528,0.9999945969233444,-133.1591234694003
8.536,0.9999946506589835,-133.4181682709573
8.544,0.9999947041169382,-133.6769554982231
8.552,0.9999947573108869,-133.93548634361508
8.56,0.9999948102548902,-134.1937620010329
8.568,0.9999948629633785,-134.45178366582505
8.576,0.9999949154511453,-134.7095525347562
8.584,0.9999949677333336,-134.9670698059747
8.592,0.9999950198254282,-135.22433667898085
8.6,0.999995071743244,-135.48135435459506
8.608,0.999995123502917,-135.7381240349271
8.616,0.9999951751208925,-135.99464692334502
8.624,0.9999952266139169,-136.25092422444527
8.632,0.9999952779990249,-136.5069571440224
8.64,0.9999953292935322,-136.76274688904007
8.648,0.9999953805150223,-137.01829466760142
8.656,0.9999954316813386,-137.273601688921
8.664,0.999995482810573,-137.52866916329586
8.672,0.9999955339210549,-137.78349830207833
8.68,0.999995585031343,-138.03809031764803
8.688,0.9999956361602135,-138.2924464233851
8.696,0.9999956873266501,-138.54656783364317
8.704,0.9999957385498339,-138.8004557637234
8.712,0.9999957898491332,-139.05411142984823
8.72,0.9999958412440936,-139.30753604913608
8.728,0.9999958927544272,-139.5607308395758
8.736,0.9999959444000031,-139.81369702000228
8.744,0.9999959962008366,-140.0664358100716
8.752,0.9999960481770794,-140.3189484302373
8.76,0.9999961003490103,-140.5712361017263
8.768,0.9999961527370229,-140.82330004651593
8.776,0.9999962053616184,-141.07514148731053
8.784,0.9999962582433938,-141.3267616475192
8.792,0.9999963114030324,-141.578161751233
8.8,0.9999963648612935,-141.82934302320373
8.808,0.9999964186390035,-142.08030668882148
8.815999999999999,0.9999964727570451,-142.33105397409415
8.824,0.9999965272363477,-142.58158610562606
8.832,0.999996582097878,-142.8319043105975
8.84,0.9999966373626294,-143.08200981674452
8.847999999999999,0.9999966930516142,-143.33190385233902
8.856,0.9999967491858514,-143.58158764616925
8.864,0.9999968057863592,-143.83106242752046
8.872,0.9999968628741444,-144.0803294261559
8.879999999999999,0.9999969204701931,-144.32938987229844
8.888,0.9999969785954614,-144.57824499661228
8.896,0.9999970372708668,-144.82689603018477
8.904,0.999997096517277,-145.07534420450887
8.911999999999999,0.9999971563555018,-145.32359075146593
8.92,0.9999972168062848,-145.57163690330864
8.928,0.9999972778902924,-145.8194838926441
8.936,0.9999973396281059,-146.06713295241755
8.943999999999999,0.999997402040212,-146.31458531589647
8.952,0.9999974651469942,-146.5618422166544
8.96,0.9999975289687237,-146.80890488855567
8.968,0.999997593525551,-147.0557745657399
8.975999999999999,0.9999976588374955,-147.30245248260746
8.984,0.9999977249244396,-147.54893987380467
8.992,0.9999977918061175,-147.7952379742091
9.0,0.9999978595021084,-148.041348018916
9.008,0.9999979280318266,-148.28727124322424
9.016,0.9999979974145143,-148.53300888262294
9.024000000000001,0.9999980676692325,-148.77856217277784
9.032,0.9999981388148536,-149.02393234951887
9.04,0.9999982108700517,-149.2691206488271
9.048,0.9999982838532963,-149.51412830682244
9.056000000000001,0.999998357782843,-149.75895655975134
9.064,0.9999984326767257,-150.00360664397502
9.072,0.99999850855275,-150.2480797959578
9.08,0.9999985854284832,-150.4923772522558
9.088000000000001,0.9999986633212486,-150.73650024950555
9.096,0.9999987422481168,-150.98045002441324
9.104,0.9999988222258984,-151.22422781374428
9.112,0.9999989032711367,-151.46783485431277
9.120000000000001,0.9999989854001005,-151.7112723829712
9.128,0.9999990686287756,-151.95454163660082
9.136,0.9999991529728596,-152.19764385210195
9.144,0.9999992384477533,-152.44058026638453
9.152000000000001,0.9999993250685539,-152.68335211635886
9.16,0.9999994128500481,-152.92596063892665
9.168,0.9999995018067063,-153.16840707097268
9.176,0.9999995919526735,-153.41069264935592
9.184000000000001,0.999999683301766,-153.65281861090136
9.192,0.9999997758674609,-153.89478619239202
9.2,0.9999998696628929,-154.13659663056131
9.208,0.9999999647008463,-154.37825116208526
9.216000000000001,0.9999999999999999,-154.61975102357513
9.224,1.0,-154.86109745157037
9.232,0.9999999999999999,-155.10229168253173
9.24,1.0,-155.34333495283448
9.248000000000001,1.0,-155.58422849876172
9.256,1.0,-155.8249735564984
9.264,1.0,-156.065571362125
9.272,1.0,-156.3060231516118
9.280000000000001,1.0,-156.54633016081303
9.288,0.9999999999999999,-156.78649362546122
9.296,1.0,-157.02651478116243
9.304,0.9999999999999999,-157.26639486339073
9.312000000000001,1.0,-157.50613510748332
9.32,0.9999999999999999,-157.7457367486358
9.328,1.0,-157.98520102189786
9.336,1.0,-158.2245291621688
9.344,1.0,-158.46372240419316
9.352,1.0,-158.70278198255707
9.36,1.0,-158.94170913168423
9.368,1.0,-159.18050508583246
9.376,0.9999999999999999,-159.41917107909
9.384,1.0,-159.65770834537253
9.392,1.0,-159.89611811841982
9.4,1.0,-160.13440163179303
9.408,0.9999999999999999,-160.37256011887166
9.416,1.0,-160.61059481285133
9.424,1.0,-160.84850694674094
9.432,1.0,-161.08629775336078
9.44,1.0,-161.32396846534007
9.448,1.0,-161.56152031511542
9.456,1.0,-161.79895453492853
9.464,1.0,-162.0362723568251
9.472,1.0,-162.27347501265282
9.48,0.9999999999999999,-162.51056373406055
9.488,0.9999999999999999,-162.7475397524967
9.496,0.9999999999999999,-162.98440429920848
9.504,1.0,-163.2211586052408
9.512,0.9999999999999999,-163.45780390143585
9.52,0.9999999999999999,-163.6943414184321
9.528,1.0,-163.93077238666407
9.536,0.9999999999999999,-164.167098036362
9.544,1.0,-164.40331959755173
9.552,0.9999999999999999,-164.6394383000543
9.56,0.9999999999999999,-164.87545537348657
9.568,1.0,-165.11137204726097
9.576,0.9999999999999999,-165.3471895505862
9.584,1.0,-165.58290911246735
9.592,1.0000000000000002,-165.8185319617069
9.6,1.0,-166.05405932690508
9.608,0.9999999999999999,-166.2894924364611
9.616,0.9999999999999998,-166.52483251857365
9.624,0.9999999999999999,-166.7600808012426
9.632,1.0,-166.99523851226948
9.64,0.9999999999999999,-167.2303068792596
9.648,1.0,-167.46528712962277
9.656,1.0,-167.70018049057558
9.664,1.0,-167.9349881891423
9.672,0.9999999999999999,-168.16971145215746
9.68,0.9999999999999999,-168.40435150626692
9.688,0.9999999999999999,-168.63890957793072
9.696,1.0,-168.87338689342442
9.704,1.0,-169.10778467884197
9.712,1.0,-169.34210416009742
9.72,1.0,-169.57634656292794
9.728,1.0,-169.81051311289576
9.736,1.0,-170.0446050353913
9.744,1.0,-170.27862355563548
9.752,1.0,-170.5125698986828
9.76,0.9999999999999999,-170.74644528942406
9.768,1.0,-170.98025095258959
9.776,0.9999999999999999,-171.213988112752
9.784,0.9999999999999999,-171.44765799432972
9.792,1.0,-171.68126182158994
9.8,1.0,-171.91480081865234
9.808,1.0,-172.14827620949197
9.816,0.9999999999999999,-172.38168921794355
9.824,1.0,-172.61504106770423
9.832,0.9999999999999999,-172.84833298233795
9.84,0.9999999999999999,-173.08156618527883
9.847999999999999,1.0,-173.31474189983513
