freq,mag,phase
6.0,1.0000955115038928,106.16956114488337
6.002285568,0.9999966649118556,105.99445236626772
6.004571648,0.9998967056327525,105.82080446178162
6.006857216,0.9998034267221854,105.64857367735337
6.009142784,0.9997229088324828,105.47763380904892
6.011428352,0.9996602416035445,105.30771405595107
6.013714432,0.9996193394453387,105.13859972076001
6.016,0.9996028627632899,104.96990585451415
6.018285568,0.9996117888031795,104.80128126273128
6.020571648,0.9996455482630756,104.63237141801729
6.022857216,0.9997020449934637,104.46282134570555
6.025142784,0.9997777066364505,104.29231330047197
6.027428352,0.999867827924973,104.12063174970707
6.029714432,0.9999665608351656,103.94759523307678
6.032,1.0000679341820953,103.77312347760527
6.034285568,1.0001654091166006,103.59722536709435
6.036571648,1.0002528697741564,103.42002128446592
6.038857216,1.000324752652316,103.24164825035365
6.041142784,1.0003766135017027,103.06240169616797
6.043428352,1.0004051091054296,102.88262051658256
6.045714432,1.000408499222179,102.70258611450751
6.048,1.0003864801854951,102.52271333791089
6.050285568,1.0003405990957912,102.34335054004765
6.052571648,1.0002735731021037,102.16478999036507
6.054857216,1.0001896618541959,101.98738159243037
6.057142784,1.0000941621725516,101.81126635264769
6.059428352,0.999993086573665,101.63659350288127
6.061714432,0.999892717991886,101.46339555192563
6.064,0.9997995769803454,101.29163963605264
6.066285568,0.9997193696686607,101.12112824921772
6.068571648,0.9996572485572942,100.9516708479967
6.070857216,0.9996169880507342,100.78298189073459
6.073142784,0.9996013839313709,100.61470168501722
6.075428352,0.9996112427463755,100.44650895088013
6.077714432,0.9996459489070715,100.27797605118496
6.08,0.9997034669673612,100.10881276981357
6.082285568,0.9997799680431179,99.93867517553025
6.084571648,0.9998708016333323,99.76734184220992
6.086857216,0.9999702167726415,99.59464964551131
6.089142784,1.0000718242874302,99.42053231576905
6.091428352,1.000169362602342,99.24497949262914
6.093714432,1.000256616029529,99.0680995508203
6.096,1.0003280981857077,98.89007248386534
6.098285568,1.0003794230165204,98.7111841713618
6.100571648,1.0004071272464778,98.5317250511719
6.102857216,1.0004096007766232,98.352072872512
6.105142784,1.0003866498673735,98.17260214134042
6.107428352,1.0003397214100591,97.99362942633903
6.109714432,1.0002717001872823,97.81549936250538
6.112,1.0001869442701619,97.63850130291155
6.114285568,1.0000908555986878,97.4628335346939
6.116571648,0.9999893012371145,97.28860256080823
6.118857216,0.9998888901854943,97.11585603691448
6.121142784,0.9997956514691304,96.94451866333509
6.123428352,0.9997156867684803,96.77448794869855
6.125714432,0.9996540522203391,96.60546324629723
6.128,0.9996145796689292,96.43719379897885
6.130285568,0.9995998240669949,96.26936324389433
6.132571648,0.9996105883798817,96.10154991404337
6.134857216,0.9996464025608609,95.9334086458073
6.137142784,0.99970477181693,95.7646280677553
6.139428352,0.9997822516930784,95.59486191764171
6.141714432,0.9998738275565883,95.42388994447126
6.144,0.9999737783211234,95.25154059401643
6.146285568,1.0000757247112113,95.07772942321836
6.148571648,1.0001734061512582,94.90251314445734
6.150857216,1.0002604768359398,94.72597472140868
6.153142784,1.0003315917652327,94.5482790097498
6.155428352,1.0003822348552271,94.36974140723633
6.157714432,1.0004091046535408,94.19064920556939
6.16,1.0004106579669518,94.01135983337488
6.162285568,1.0003867793586991,93.83224127680495
6.164571648,1.0003387680810079,93.65366454130154
6.166857216,1.0002699063684408,93.47597826232698
6.169142784,1.0001843233560859,93.29938329995545
6.171428352,1.0000874717960475,93.12414029876928
6.173714432,0.9999855084044746,92.95036276992177
6.176,0.9998847741871186,92.77806103617615
6.178285568,0.9997917299068161,92.60717605467731
6.180571648,0.9997120610686535,92.437554272989
6.182857216,0.999650969920588,92.26898856217512
6.185142784,0.9996121928610471,92.10115232066487
6.187428352,0.9995982757996955,91.93371055195593
6.189714432,0.9996101458643706,91.76629519773313
6.192,0.9996469159700362,91.59857497503198
6.194285568,0.9997063058392855,91.43014639364866
6.196571648,0.9997846843140799,91.26074840827494
6.198857216,0.9998770459477316,91.09011976139017
6.201142784,0.9999775135998048,90.91808719415418
6.203428352,1.0000798083477254,90.74463336844043
6.205714432,1.0001774764551465,90.56972470636569
6.208,1.0002643916970193,90.39349137713033
6.210285568,1.0003350635298267,90.2161562279065
6.212571648,1.0003850269257395,90.0379412858486
6.214857216,1.0004111937046167,89.85919086936929
6.217142784,1.000411829207989,89.68025918610645
6.219428352,1.0003867840322784,89.50153302029315
6.221714432,1.0003378623561794,89.32333750861604
6.224,1.0002678576103656,89.14604412569997
6.226285568,1.0001814377298723,88.96987345319931
6.228571648,1.000084052436476,88.79506367247546
6.230857216,0.9999815824306552,88.62170481545755
6.233142784,0.9998807469715156,88.44984524436774
6.235428352,0.9997876728683499,88.27940066615335
6.237714432,0.9997083566614082,88.11024016434656
6.24,0.9996477904832721,87.94207744618946
6.242285568,0.9996097906503458,87.77469317482864
6.244571648,0.9995968360299212,87.6076408461856
6.246857216,0.9996096444031837,87.44063326362973
6.249142784,0.999647480153593,87.2732656613901
6.251428352,0.9997078330344599,87.10521001797105
6.253714432,0.9997871637067193,86.9361618378348
6.256,0.9998803329030904,86.76586781245943
6.258285568,0.9999813612243529,86.59418562411712
6.260571648,1.0000839996269868,86.42102664591404
6.262857216,1.0001817342259611,86.24644333901615
6.265142784,1.0002684654878862,86.07052900383218
6.267428352,1.0003386778289516,85.89351163589377
6.269714432,1.0003879751186042,85.71563613823623
6.272,1.0004132391459122,85.53722020560255
6.274285568,1.0004128578366343,85.35864853656987
6.276571648,1.0003867658370962,85.18029320756304
6.278857216,1.0003367423932417,85.00247896294185
6.281142784,1.0002659353069039,84.82556727144842
6.283428352,1.0001786401085446,84.64983089840396
6.285714432,1.0000805025913124,84.47542075066517
6.288,0.9999775943758701,84.30250437580239
6.290285568,0.9998764614694852,84.13107044598354
6.292571648,0.9997834492333767,83.96106072858619
6.294857216,0.9997045121494706,83.79231871090197
6.297142784,0.9996446187083328,83.62459979322132
6.299428352,0.9996074063362091,83.45760408593856
6.301714432,0.9995952944011174,83.29098541450354
6.304,0.9996091882524212,83.12435380275816
6.306285568,0.9996481247142297,82.95736032427243
6.308571648,0.9997095459747161,82.78964858424509
6.310857216,0.9997897513234579,82.62094717553187
6.313142784,0.9998836088129477,82.45097621615595
6.315428352,0.9999852850131732,82.27959650046621
6.317714432,1.0000882336083552,82.10677360923977
6.32,1.0001860385435264,81.9324928238204
6.322285568,1.0002725597531201,81.75688975480278
6.324571648,1.0003423810911303,81.5801777906884
6.326857216,1.0003908460395798,81.40262673419146
6.329142784,1.0004153079553035,81.22454099982174
6.331428352,1.0004138649191143,81.04632271226944
6.333714432,1.0003867163772624,80.86832357472345
6.336,1.0003356742387575,80.69089577362342
6.338285568,1.0002637959844136,80.514353664975
6.340571648,1.000175645781112,80.33901289142081
6.342857216,1.000076819026282,80.16502932684921
6.345142784,0.9999735492918659,79.99252205992082
6.347428352,0.9998721712250347,79.82153613099537
6.349714432,0.9997793498263243,79.65195787924233
6.352,0.9997007626471159,79.4836352391641
6.354285568,0.9996413284796201,79.3163287719146
6.356571648,0.9996050169786701,79.14973819915949
6.358857216,0.9995938720381545,78.98348966233473
6.361142784,0.999608800211081,78.81724561691874
6.363428352,0.999648802628398,78.65062552006671
6.365714432,0.9997113017504499,78.48325244774453
6.368,0.9997924340741732,78.3148730140058
6.370285568,0.9998871221831968,78.14522835208525
6.372571648,0.9999892996103711,77.97415703492688
6.374857216,1.0000925693109415,77.80163924846924
6.377142784,1.000190421954478,77.62766583486925
6.379428352,1.0002766876931846,77.45235669447112
6.381714432,1.0003460095783563,77.27594039549136
6.384,1.0003938650227682,77.09869596031395
6.386285568,1.0004172569401346,76.92094548475373
6.388571648,1.0004148443277494,76.74305047664421
6.390857216,1.0003866626759081,76.56538958538319
6.393142784,1.0003345017228658,76.38832750038574
6.395428352,1.0002616003401976,76.21218854668794
6.397714432,1.0001725671800996,76.0372224360354
6.4,1.0000730569175857,75.86365596304805
6.402285568,0.9999693323594657,75.6915728348797
6.404571648,0.9998678170856203,75.52098095729102
6.406857216,0.9997750179642748,75.351833929858
6.409142784,0.9996967220267166,75.183927613112
6.411428352,0.999637977214126,75.01703109983274
6.413714432,0.9996024462017844,74.85082813604974
6.416,0.999592378237632,74.68497805511117
6.418285568,0.9996083420351033,74.51909435291958
6.420571648,0.9996494989951659,74.35282915744249
6.422857216,0.9997130091421725,74.18578983554019
6.425142784,0.9997951381314034,74.01772768105103
6.427428352,0.9998906164870193,73.8483866154246
6.429714432,0.9999933813057467,73.67762457372069
6.432,1.000097035855377,73.50537824462994
6.434285568,1.0001949174181735,73.3316695061009
6.436571648,1.0002809111570776,73.1566587990331
6.438857216,1.0003496290575622,72.9805582265944
6.441142784,1.0003967987452118,72.80360357281607
6.443428352,1.0004193352539918,72.62615508446011
6.445714432,1.0004158336496047,72.44859176386578
6.448,1.0003864155002986,72.2712833945675
6.450285568,1.0003331740977064,72.09459125177192
6.452571648,1.0002592856378865,71.91881737259105
6.454857216,1.0001693481943044,71.7442368305445
6.457142784,1.0000690790877795,71.57107686918073
6.459428352,0.9999649025746005,71.39937628969668
6.461714432,0.9998632411966357,71.22922003819204
6.464,0.9997705768757902,71.06045344555913
6.466285568,0.9996927503295904,70.89295436520987
6.468571648,0.9996346199679241,70.72645941433805
6.470857216,0.9995998826570541,70.56064930722101
6.473142784,0.9995908290476625,70.39515893016203
6.475428352,0.9996079214485025,70.22964534048228
6.477714432,0.9996501230581024,70.06369333038866
6.48,0.9997148942843146,69.89700659510831
6.482285568,0.9997979328540055,69.72924502744722
6.484571648,0.9998941962520579,69.56019064233786
6.486857216,0.999997442297113,69.38972484199354
6.489142784,1.0001014271060864,69.21773881147718
6.491428352,1.0001992783867113,69.04433178263736
6.493714432,1.0002851342206358,68.86959705832513
6.496,1.000353331399935,68.69374209637317
6.498285568,1.0003996903577517,68.51708342948288
6.500571648,1.0004212919005597,68.33994625607386
6.502857216,1.0004166835871393,68.16270906550078
6.505142784,1.000386202207431,67.98572081008206
6.507428352,1.000331785915376,67.80936625222685
6.509714432,1.0002568609337155,67.63396536490188
6.512,1.0001660389398332,67.45977446966582
6.514285568,1.0000651147822126,67.28698123682226
6.516571648,0.9999605019786716,67.11569709789417
6.518857216,0.9998586108695608,66.94593085958314
6.521142784,0.9997660132518434,66.77755290958167
6.523428352,0.999688635153849,66.61045854327135
6.525714432,0.9996311672730961,66.44435338548956
6.528,0.9995973248336257,66.27891995094014
6.530285568,0.9995893321519888,66.113799880874
6.532571648,0.9996075265145845,65.94861977268425
6.534857216,0.9996509001665826,65.78299606495284
6.537142784,0.9997167667199781,65.61660963612863
6.539428352,0.9998008070267406,65.44913093099993
6.541714432,0.9998978287953146,65.28037766995648
6.544,1.000001801082284,65.11016719218128
6.546285568,1.0001059085775514,64.93846223866423
6.548571648,1.0002039102099185,64.76529644876162
6.550857216,1.0002894313367217,64.59082591159044
6.553142784,1.000357106765747,64.4152514182721
6.555428352,1.0004027008944039,64.23887415903417
6.557714432,1.0004231995830153,64.0620279382659
6.56,1.000417519129967,63.88507389893526
6.562285568,1.000385939354936,63.70841318305423
6.564571648,1.0003303829821173,63.53238595185907
6.566857216,1.0002543506982522,63.357350805693
6.569142784,1.0001626501519483,63.18351974293982
6.571428352,1.0000610049580836,63.01109806706981
6.573714432,0.9999558866741385,62.84019951189002
6.576,0.9998539353891257,62.67080964941264
6.578285568,0.9997614982612336,62.502840421923516
6.580571648,0.9996844765056235,62.33612652431785
6.582857216,0.9996276795886709,62.17038741056088
6.585142784,0.9995947508669326,62.005310236294235
6.587428352,0.999587793447636,61.84053911667739
6.589714432,0.9996072070356602,61.675699578203336
6.592,0.9996517547935219,61.510404982130744
6.594285568,0.9997187136782426,61.34429682135395
6.596571648,0.9998037580184906,61.177125822753574
6.598857216,0.9999016684004519,61.008639212350836
6.601142784,1.0000061166521328,60.83865121610544
6.603428352,1.0001106536192124,60.667211429844606
6.605714432,1.0002085803777367,60.49429237309256
6.608,1.0002937718467586,60.32006695982116
6.610285568,1.0003609604154804,60.14475854099589
6.612571648,1.000405654608045,59.96864138406131
6.614857216,1.0004252808460603,59.79207006083418
6.617142784,1.0004183975179446,59.61541402721961
6.619428352,1.0003856513713294,59.439059527457374
6.621714432,1.0003288701547817,59.26336493543764
6.624,1.0002517452525306,59.088657188014274
6.626285568,1.00015912717016,58.915188895924295
6.628571648,1.0000567517024501,58.743121109310074
6.630857216,0.9999512539839949,58.57260366854116
6.633142784,0.9998490551933904,58.40358011647297
6.635428352,0.9997569495616158,58.23599106053815
6.637714432,0.9996802762425883,58.06963257307398
6.64,0.9996242482703499,57.90426180558949
6.642285568,0.9995921528634037,57.73954350241101
6.644571648,0.9995863077941485,57.575110729454764
6.646857216,0.9996069025636503,57.4105862569703
6.649142784,0.9996527494963977,57.24559628283054
6.651428352,0.9997207386535671,57.079773567706845
6.653714432,0.9998068817711235,56.91286420168309
6.656,0.999905574925731,56.74461439795165
6.658285568,1.0000106179847315,56.574897636898115
6.660571648,1.0001153796266797,56.40368462636119
6.662857216,1.0002133183404898,56.231002098548096
6.665142784,1.0002982923250998,56.057002910612766
6.667428352,1.000364744782296,55.88192942523087
6.669714432,1.0004087309326637,55.706055896200745
6.672,1.0004272979709687,55.52975287061719
6.674285568,1.000419316088791,55.35338100524156
6.676571648,1.0003852720274182,55.17732191754237
6.678857216,1.0003272684275144,55.00192576334436
6.681142784,1.00024907923083,54.827556408266055
6.683428352,1.0001555958351867,54.65440731441511
6.685714432,1.0000525074312758,54.48271406327232
6.688,0.9999465155048315,54.31254980781059
6.690285568,0.9998443163652092,54.143904271913144
6.692571648,0.9997521851267597,53.97669491251078
6.694857216,0.9996760507216936,53.81069260795055
6.697142784,0.9996207336321511,53.64566994018242
6.699428352,0.9995896574160557,53.48127324731953
6.701714432,0.9995848878006461,53.317158130009
6.704,0.9996067005239254,53.152918696090616
6.706285568,0.9996537227362631,52.98820712047837
6.708571648,0.9997229105580469,52.82269338727197
6.710857216,0.9998100650786359,52.65601362758902
6.713142784,0.9999095080306825,52.48801283735903
6.715428352,1.0000151708069513,52.318513520876074
6.717714432,1.0001202882940747,52.14752194298518
6.72,1.0002182109710411,51.975053468151394
6.722285568,1.0003027781253344,51.80129287606597
6.724571648,1.0003686675469219,51.62643404027963
6.726857216,1.0004117028305326,51.45079522326076
6.729142784,1.0004292302829971,51.27472521012925
6.731428352,1.00042006165182,51.09862444769918
6.733714432,1.0003848061895646,50.92285703458585
6.736,1.000325729537255,50.74776300747009
6.738285568,1.000246390363482,50.573691077086714
6.740571648,1.0001518683597643,50.400882186018926
6.742857216,1.0000481611288314,50.22952504924588
6.745142784,0.9999417050288609,50.05971090579793
6.747428352,0.9998393416283125,49.89142194775662
6.749714432,0.9997474747463894,49.724542913646836
6.752,0.9996717996188841,49.558891018015345
6.754285568,0.9996172099957812,49.394196370411066
6.756571648,0.9995871517934879,49.23014042950162
6.758857216,0.9995834819176974,49.06633364451749
6.761142784,0.999606532669679,48.90238908400737
6.763428352,0.9996547181023878,48.73794693423304
6.765714432,0.9997252007027494,48.57267056728761
6.768,0.9998133217152672,48.40623052324005
6.770285568,0.999913610045301,48.23842791803124
6.772571648,1.0000198555187312,48.06917155155022
6.774857216,1.0001252044142166,47.89837765665036
6.777142784,1.0002231156684604,47.72610681471772
6.779428352,1.0003073111819178,47.55254957221887
6.781714432,1.0003725828138597,47.37790856863357
6.784,1.0004147651245838,47.20249128930965
6.786285568,1.0004312223580099,47.026659215444205
6.788571648,1.0004209008206015,46.85080014473334
6.790857216,1.0003843808807567,46.67528131089965
6.793142784,1.0003240232433748,46.50048213208326
6.795428352,1.000243594130484,46.32670944613395
6.797714432,1.0001481255631541,46.15422312220636
6.8,1.0000437060705365,45.98319632043102
6.802285568,0.9999368303832681,45.81371687409057
6.804571648,0.9998343316915347,45.645753761733026
6.806857216,0.9997425776149104,45.47921078108135
6.809142784,0.9996674414372025,45.31388981628636
6.811428352,0.9996136546820095,45.14951941370171
6.813714432,0.9995845722360059,44.98576828555049
6.816,0.9995820595838047,44.822261076889525
6.818285568,0.9996063335093291,44.6585916351542
6.820571648,0.9996558729694246,44.49440382293476
6.822857216,0.9997274972470355,44.32936121224319
6.825142784,0.9998167012620777,44.16313636419465
6.827428352,0.9999178227224784,43.99554756853933
6.829714432,1.0000246696083406,43.82646915648776
6.832,1.0001302373421703,43.655869216158266
6.834285568,1.0002281644882092,43.483798907813835
6.836571648,1.0003119879019464,43.31040372647026
6.838857216,1.0003765705996286,43.13596223546677
6.841142784,1.0004178466276876,42.96076352731841
6.843428352,1.0004332087492458,42.78515255085108
6.845714432,1.0004216679566262,42.60952222599471
6.848,1.00038384515383,42.43425459516716
6.850285568,1.000322218657166,42.25973270861567
6.852571648,1.000240616730645,42.08624902548492
6.854857216,1.0001442461882324,41.91404774784783
6.857142784,1.0000390680059879,41.743331180791245
6.859428352,0.9999317665594794,41.57418034012726
6.861714432,0.9998292037542559,41.40654367038697
6.864,0.9997376811560004,41.2403212671991
6.866285568,0.9996629928741685,41.075330554579466
6.868571648,0.9996100469628344,40.91125327061055
6.870857216,0.9995820014920764,40.74780527837835
6.873142784,0.9995806509562031,40.58456728620588
6.875428352,0.9996062039969825,40.42116680575435
6.877714432,0.9996570404102945,40.25720309927247
6.88,0.9997297975832158,40.09236251168234
6.882285568,0.9998201030480849,39.926367522854335
6.884571648,0.9999221386406784,39.75897848808657
6.886857216,1.000029481382632,39.590067308774685
6.889142784,1.0001353268379123,39.419618174015554
6.891428352,1.0002332106761067,39.24770955719148
6.893714432,1.0003166102868122,39.074509715901414
6.896,1.0003805451108863,38.90022336078246
6.898285568,1.0004209352005413,38.72522255340635
6.900571648,1.0004351496877129,38.549810857556054
6.902857216,1.000422351564149,38.37441886665543
6.905142784,1.0003831959559482,38.19938771674081
6.907428352,1.0003203571954342,38.02511267237681
6.909714432,1.0002376013055028,37.85189975877047
6.912,1.00014028440545,37.680001887994635
6.914285568,1.0000344200397102,37.509588725929824
6.916571648,0.9999267471428024,37.34072803023733
6.918857216,0.9998239828197871,37.17338978567824
6.921142784,0.99973268244129,37.00747885634596
6.923428352,0.9996586012478332,36.842773216598864
6.925714432,0.9996063875086821,36.67900579453034
6.928,0.9995794073331078,36.515820411407866
6.930285568,0.9995793236789895,36.35285729897088
6.932571648,0.9996061370574159,36.18967389025567
6.934857216,0.9996582368692678,36.025949259211565
6.937142784,0.9997322523069238,35.86132759561453
6.939428352,0.9998235576115589,35.695497329617226
6.941714432,0.999926420903608,35.528267484183
6.944,1.0000343771388553,35.35954605667209
6.946285568,1.0001405101092598,35.18925163336888
6.948571648,1.000238198018498,35.017487128357004
