freq,mag,phase
6.0,0.9999980055784748,124.29884964018585
6.008,0.9999978063981889,124.22205776703012
6.016,0.9999976115870504,124.14525519045752
6.024,0.9999974211407273,124.0684419016851
6.032,0.9999972350548685,123.99161789191801
6.04,0.9999970533251039,123.91478315234963
6.048,0.9999968759470426,123.83793767416181
6.056,0.9999967029162723,123.76108144852489
6.064,0.9999965342283584,123.6842144665979
6.072,0.9999963698788437,123.60733671952879
6.08,0.999996209863246,123.53044819845452
6.088,0.9999960541770588,123.45354889450125
6.096,0.9999959028157491,123.37663879878446
6.104,0.9999957557747564,123.29971790240916
6.112,0.9999956130494919,123.22278619647011
6.12,0.9999954746353367,123.14584367205184
6.128,0.999995340527641,123.06889032022907
6.136,0.9999952107217225,122.99192613206665
6.144,0.999995085212865,122.9149510986199
6.152,0.9999949639963168,122.83796521093468
6.16,0.9999948470672891,122.76096846004778
6.168,0.999994734420955,122.68396083698684
6.176,0.9999946260524466,122.60694233277088
6.184,0.9999945219568542,122.5299129384101
6.192,0.999994422129224,122.45287264490646
6.2,0.9999943265645564,122.37582144325377
6.208,0.9999942352578033,122.29875932443765
6.216,0.9999941482038671,122.22168627943624
6.224,0.9999940653975973,122.14460229921993
6.232,0.9999939868337892,122.06750737475197
6.24,0.9999939125071804,121.99040149698837
6.248,0.9999938424124497,121.91328465687842
6.256,0.999993776544213,121.83615684536471
6.264,0.9999937148970217,121.75901805338351
6.272,0.9999936574653593,121.68186827186496
6.28,0.9999936042436385,121.60470749173328
6.288,0.9999935552261984,121.52753570390705
6.296,0.9999935104073012,121.45035289929955
6.304,0.9999934697811287,121.37315906881881
6.312,0.9999934333417789,121.29595420336817
6.32,0.9999934010832628,121.2187382938462
6.328,0.9999933729995002,121.14151133114729
6.336,0.9999933490843157,121.06427330616167
6.344,0.9999933293314363,120.98702420977595
6.352,0.9999933137344841,120.90976403287306
6.36,0.9999933022869752,120.83249276633292
6.368,0.9999932949823136,120.75521040103236
6.376,0.9999932918137864,120.67791692784577
6.384,0.9999932927745596,120.60061233764505
6.392,0.9999932978576729,120.5232966213002
6.4,0.999993307056034,120.44596976967942
6.408,0.9999933203624141,120.36863177364962
6.416,0.9999933377694419,120.29128262407649
6.424,0.9999933592695976,120.21392231182496
6.432,0.9999933848552067,120.13655082775954
6.44,0.9999934145184344,120.05916816274458
6.448,0.9999934482512791,119.98177430764466
6.456,0.9999934860455647,119.90436925332479
6.464,0.9999935278929354,119.8269529906509
6.472,0.9999935737848468,119.74952551049
6.48,0.9999936237125593,119.67208680371074
6.4879999999999995,0.9999936776671304,119.59463686118357
6.496,0.999993735639407,119.51717567378111
6.504,0.9999937976200163,119.4397032323786
6.5120000000000005,0.999993863599358,119.36221952785407
6.52,0.9999939335675948,119.28472455108887
6.5280000000000005,0.999994007514644,119.2072182929679
6.536,0.9999940854301681,119.12970074438005
6.5440000000000005,0.999994167303564,119.05217189621841
6.552,0.9999942531239534,118.97463173938084
6.5600000000000005,0.999994342880173,118.89708026477012
6.568,0.9999944365607624,118.81951746329442
6.5760000000000005,0.9999945341539542,118.74194332586754
6.584,0.9999946356476616,118.66435784340952
6.592,0.9999947410294665,118.58676100684669
6.6,0.9999948502866075,118.50915280711214
6.608,0.9999949634059669,118.4315332351462
6.616,0.9999950803740574,118.35390228189658
6.624,0.9999952011770088,118.27625993831883
6.632,0.9999953258005537,118.19860619537667
6.64,0.999995454230013,118.12094104404233
6.648,0.999995586450281,118.0432644752969
6.656,0.9999957224458091,117.96557648013057
6.664,0.9999958622005921,117.88787704954309
6.672,0.9999960056981483,117.81016617454401
6.68,0.9999961529215053,117.73244384615298
6.688,0.9999963038531816,117.65471005540013
6.696,0.9999964584751676,117.57696479332625
6.704,0.9999966167689085,117.49920805098321
6.712,0.9999967787152836,117.42143981943413
6.72,0.9999969442945866,117.34366008975367
6.728,0.9999971134865071,117.26586885302834
6.736,0.9999972862701063,117.18806610035662
6.744,0.9999974626237984,117.11025182284939
6.752,0.9999976425253251,117.03242601162984
6.76,0.9999978259517364,116.95458865783395
6.768,0.9999980128793627,116.87673975261049
6.776,0.9999982032837941,116.79887928712122
6.784,0.999998397139852,116.72100725254109
6.792,0.9999985944215658,116.64312364005819
6.8,0.9999987951021456,116.565228440874
6.808,0.9999989991539537,116.48732164620334
6.816,0.9999992065484781,116.40940324727451
6.824,0.9999994172563024,116.33147323532907
6.832,0.9999996312470768,116.25353160162219
6.84,0.9999998484894874,116.17557833742211
6.848,0.9999999999999999,116.09761343401048
6.856,1.0,116.01963688268198
6.864,0.9999999999999999,115.9416486747441
6.872,0.9999999999999999,115.86364880151714
6.88,1.0,115.78563725433379
6.888,0.9999999999999999,115.70761402453876
6.896,1.0,115.62957910348855
6.904,1.0,115.55153248255107
6.912,0.9999999999999999,115.47347415310492
6.92,0.9999999999999999,115.39540410653909
6.928,0.9999999999999999,115.31732233425232
6.936,1.0,115.23922882765234
6.944,1.0,115.16112357815526
6.952,0.9999999999999999,115.08300657718459
6.96,1.0,115.00487781617063
6.968,1.0000000000000002,114.92673728654925
6.976,1.0,114.84858497976091
6.984,0.9999999999999999,114.77042088724966
6.992,1.0,114.6922450004617
7.0,0.9999999999999999,114.61405731084419
7.008,0.9999999999999998,114.53585780984375
7.016,0.9999999999999999,114.457646488905
7.024,1.0,114.37942333946884
7.032,1.0,114.30118835297068
7.04,0.9999999999999999,114.22294152083859
7.048,0.9999999999999999,114.14468283449125
7.056,1.0,114.06641228533587
7.064,1.0,113.98812986476577
7.072,1.0,113.90983556415809
7.08,1.0,113.8315293748711
7.088,0.9999999999999999,113.75321128824156
7.096,0.9999999999999999,113.67488129558173
7.104,1.0,113.59653938817632
7.112,1.0,113.5181855572794
7.12,1.0,113.43981979411069
7.128,0.9999999999999999,113.36144208985223
7.136,1.0,113.28305243564444
7.144,1.0,113.20465082258217
7.152,0.9999999999999999,113.12623724171046
7.16,1.0,113.04781168402015
7.168,1.0,112.96937414044326
7.176,1.0,112.89092460184817
7.184,1.0,112.81246305903439
7.192,0.9999999999999998,112.73398950272741
7.2,1.0,112.65550392357301
7.208,1.0000000000000002,112.57700631213157
7.216,1.0,112.49849665887186
7.224,1.0,112.41997495416481
7.232,1.0,112.34144118827695
7.24,1.0,112.26289535136343
7.248,1.0,112.18433743346101
7.256,0.9999999999999999,112.1057674244806
7.264,0.9999999999999999,112.0271853141996
7.272,0.9999999999999999,111.94859109225389
7.28,1.0,111.86998474812962
7.288,0.9999999999999999,111.79136627115467
7.296,1.0,111.71273565048979
7.304,1.0,111.63409287511952
7.312,0.9999999999999999,111.55543793384278
7.32,0.9999999999999999,111.4767708152632
7.328,1.0,111.3980915077791
7.336,1.0,111.3193999995734
7.344,1.0,111.24069627860285
7.352,1.0,111.1619803325875
7.36,0.9999999999999999,111.0832521489996
7.368,0.9999999999999999,111.00451171505216
7.376,0.9999999999999999,110.92575901768767
7.384,1.0,110.84699404356611
7.392,0.9999999999999999,110.76821677905323
7.4,1.0,110.6894272102082
7.4079999999999995,0.9999999999999999,110.6106253227714
7.416,1.0,110.53181110215183
7.4239999999999995,1.0,110.45298453341465
7.432,0.9999999999999999,110.37414560126821
7.4399999999999995,1.0,110.2952942900515
7.448,0.9999999999999999,110.21643058372103
7.4559999999999995,1.0,110.13755446583811
7.464,1.0,110.05866591955588
7.4719999999999995,1.0,109.97976492760644
7.48,1.0,109.90085147228818
7.4879999999999995,0.9999999999999999,109.82192553545305
7.496,0.9999999999999999,109.74298709849414
7.504,0.9999999999999999,109.66403614233346
7.5120000000000005,1.0,109.58507264740982
7.52,1.0,109.50609659366728
7.5280000000000005,1.0,109.4271079605438
7.536,1.0,109.34810672696034
7.5440000000000005,1.0,109.26909287131043
7.552,1.0,109.19006637145041
7.5600000000000005,0.9999999999999999,109.11102720469005
7.568,1.0,109.03197534778405
7.5760000000000005,1.0,108.95291077692417
7.584,0.9999999999999998,108.8738334677321
7.5920000000000005,1.0,108.79474339525348
7.6,0.9999999999999999,108.71564053395242
7.6080000000000005,0.9999999999999998,108.6365248577075
7.616,1.0,108.5573963398085
7.6240000000000006,1.0,108.47825495295446
7.632,1.0,108.3991006692529
7.640000000000001,1.0000000000000002,108.3199334602204
7.648,1.0,108.24075329678439
7.656000000000001,1.0,108.1615601492866
7.664,1.0,108.08235398748779
7.672,0.9999999999999999,108.00313478057406
7.68,1.0,107.9239024971649
7.688,1.0,107.84465710532281
7.696,1.0,107.76539857256455
7.704,1.0,107.68612686587431
7.712,0.9999999999999999,107.60684195171852
7.72,0.9999999999999999,107.52754379606262
7.728,1.0,107.4482323643895
7.736,1.0,107.36890762171998
7.744,0.9999999999999999,107.28956953263514
7.752,1.0,107.21021806130031
7.76,1.0,107.13085317149124
7.768,0.9999999999999999,107.05147482662187
7.776,0.9999999999999999,106.97208298977408
7.784,0.9999999999999999,106.89267762372911
7.792,1.0,106.8132586910009
7.8,1.0,106.73382615387071
7.808,0.9999999999999999,106.65437997442392
7.816,1.0,106.57492011458784
7.824,0.9999999999999999,106.49544653617129
7.832,1.0,106.41595920090536
7.84,1.0,106.33645807048546
7.848,1.0,106.25694310661446
7.856,1.0,106.1774142710468
7.864,1.0,106.09787152563342
7.872,1.0,106.0183148323675
7.88,1.0,105.93874415343045
7.888,0.9999999999999999,105.85915945123864
7.896,0.9999999999999999,105.77956068848997
7.904,1.0,105.69994782821071
7.912,1.0,105.62032083380207
7.92,0.9999999999999999,105.5406796690864
7.928,1.0,105.46102429835298
7.936,1.0,105.38135468640297
7.944,1.0,105.30167079859346
7.952,1.0,105.22197260088058
7.96,1.0,105.14226005986112
7.968,1.0,105.06253314281295
7.976,0.9999999999999999,104.98279181773357
7.984,0.9999999999999999,104.90303605337705
7.992,0.9999999999999999,104.82326581928892
8.0,1.0,104.74348108583904
8.008,0.9999999999999999,104.66368182425221
8.016,1.0,104.58386800663637
8.024000000000001,1.0,104.50403960600838
8.032,0.9999999999999999,104.42419659631722
8.04,0.9999999999999999,104.34433895246437
8.048,1.0,104.26446665032162
8.056000000000001,1.0,104.18457966674605
8.064,1.0,104.10467797959198
8.072,1.0,104.02476156772018
8.08,1.0,103.94483041100408
8.088000000000001,0.9999999999999999,103.86488449033313
8.096,0.9999999999999999,103.78492378761324
8.104,1.0,103.70494828576432
8.112,0.9999999999999999,103.62495796871488
8.120000000000001,1.0,103.54495282139425
8.128,1.0,103.46493282972152
8.136,1.0,103.38489798059233
8.144,0.9999999999999999,103.30484826186286
8.152000000000001,1.0,103.22478366233165
8.16,1.0000000000000002,103.14470417171871
8.168,1.0,103.06460978064297
8.176,0.9999999999999999,102.98450048059708
8.184000000000001,1.0,102.90437626392094
8.192,1.0,102.82423712377293
8.2,0.9999999999999999,102.74408305409982
8.208,0.9999999999999999,102.66391404960507
8.216000000000001,1.0,102.58373010571601
8.224,0.9999994935486795,102.50353121854965
8.232,0.999998990303303,102.42331738487763
8.24,0.9999984922295395,102.3430886020903
8.248000000000001,0.999997999661822,102.2628448681602
8.256,0.9999975129228086,102.18258618160488
8.264,0.9999970323231031,102.10231254144948
8.272,0.9999965581610162,102.02202394718898
8.280000000000001,0.9999960907223637,101.9417203987505
8.288,0.9999956302803048,101.86140189645555
8.296,0.999995177095214,101.78106844098242
8.304,0.9999947314145945,101.700720033329
8.312,0.9999942934730202,101.62035667477608
8.32,0.9999938634921166,101.53997836685083
8.328,0.9999934416805718,101.45958511129147
8.336,0.9999930282341786,101.37917691001213
8.344,0.9999926233359065,101.2987537650689
8.352,0.9999922271560023,101.21831567862657
8.36,0.9999918398521167,101.1378626529265
8.368,0.9999914615694554,101.05739469025538
8.376,0.9999910924409537,100.97691179291517
8.384,0.9999907325874737,100.89641396319406
8.392,0.9999903821180195,100.81590120333883
8.4,0.9999900411299716,100.73537351552808
8.408,0.9999897097093399,100.65483090184709
8.416,0.9999893879310267,100.57427336426355
8.424,0.9999890758591088,100.49370090460485
8.432,0.9999887735471279,100.41311352453639
8.44,0.9999884810383926,100.3325112255415
8.448,0.9999881983662883,100.25189400890221
8.456,0.9999879255545957,100.17126187568168
8.464,0.9999876626178157,100.0906148267075
8.472,0.9999874095614972,100.00995286255663
8.48,0.9999871663825705,99.92927598354113
8.488,0.9999869330696816,99.84858418969542
8.496,0.9999867096035293,99.76787748076443
8.504,0.9999864959572007,99.6871558561931
8.512,0.9999862920965075,99.60641931511677
8.52,0.9999860979803206,99.52566785635281
8.528,0.9999859135608999,99.44490147839309
8.536,0.9999857387842247,99.36412017939759
8.544,0.9999855735903158,99.28332395718881
8.552,0.9999854179135571,99.20251280924728
8.56,0.9999852716830088,99.12168673270766
8.568,0.9999851348227163,99.0408457243559
8.576,0.999985007252012,98.95998978062707
8.584,0.999984888885811,98.87911889760397
8.592,0.9999847796349003,98.79823307101633
8.6,0.9999846794062186,98.71733229624084
8.608,0.9999845881031305,98.6364165683017
8.616,0.9999845056256923,98.5554858818717
8.624,0.9999844318709079,98.47454023127393
8.632,0.9999843667329796,98.393579610484
8.64,0.999984310103549,98.31260401313256
8.648,0.9999842618719271,98.23161343250852
8.656,0.9999842219253211,98.1506078615624
8.664,0.9999841901490478,98.06958729291027
8.672,0.9999841664267418,97.9885517188378
8.68,0.9999841506405543,97.90750113130476
8.688,0.9999841426713422,97.82643552194976
8.696,0.9999841423988511,97.74535488209526
8.704,0.9999841497018885,97.66425920275262
8.712,0.9999841644584906,97.58314847462768
8.72,0.9999841865460799,97.50202268812606
8.728,0.9999842158416147,97.42088183335905
8.736,0.9999842522217336,97.33972590014928
8.744,0.999984295562888,97.25855487803668
8.752,0.9999843457414734,97.17736875628441
8.76,0.9999844026339484,97.09616752388506
8.768,0.9999844661169489,97.0149511695664
8.776,0.9999845360673975,96.93371968179794
8.784,0.9999846123626028,96.85247304879667
8.792,0.9999846948803554,96.77121125853348
8.8,0.9999847834990165,96.68993429873905
8.808,0.9999848780976023,96.60864215691018
8.815999999999999,0.9999849785558589,96.52733482031564
8.824,0.9999850847543381,96.44601227600232
8.832,0.9999851965744617,96.36467451080122
8.84,0.9999853138985854,96.28332151133324
8.847999999999999,0.9999854366100547,96.20195326401509
8.856,0.9999855645932594,96.12056975506503
8.864,0.999985697733681,96.03917097050866
8.872,0.9999858359179372,95.95775689618432
8.879999999999999,0.9999859790338225,95.87632751774876
8.888,0.9999861269703443,95.79488282068242
8.896,0.9999862796177567,95.71342279029484
8.904,0.9999864368675891,95.6319474117299
8.911999999999999,0.9999865986126735,95.55045666997073
8.92,0.9999867647471661,95.46895054984488
8.928,0.9999869351665696,95.38742903602915
8.936,0.9999871097677484,95.30589211305441
8.943999999999999,0.9999872884489459,95.22433976531013
8.952,0.9999874711097951,95.14277197704907
8.96,0.9999876576513287,95.06118873239166
8.968,0.9999878479759875,94.97959001533036
8.975999999999999,0.999988041987627,94.8979758097338
8.984,0.9999882395915188,94.81634609935095
8.992,0.9999884406943544,94.73470086781508
9.0,0.9999886452042452,94.65304009864771
9.008,0.9999888530307213,94.57136377526218
9.016,0.9999890640847278,94.48967188096759
9.024000000000001,0.9999892782786204,94.40796439897208
9.032,0.9999894955261623,94.32624131238654
9.04,0.9999897157425142,94.24450260422772
9.048,0.9999899388442285,94.16274825742155
9.056000000000001,0.9999901647492396,94.08097825480638
9.064,0.9999903933768541,93.99919257913591
9.072,0.9999906246477411,93.91739121308211
9.08,0.9999908584839189,93.83557413923815
9.088000000000001,0.9999910948087433,93.7537413401211
9.096,0.9999913335468963,93.67189279817464
9.104,0.9999915746243693,93.59002849577156
9.112,0.9999918179684525,93.50814841521627
9.120000000000001,0.9999920635077176,93.42625253874725
9.128,0.9999923111720043,93.34434084853933
9.136,0.9999925608924033,93.2624133267059
9.144,0.999992812601243,93.180469955301
9.152000000000001,0.99999306623207,93.09851071632166
9.16,0.999993321719636,93.01653559170958
9.168,0.9999935789998785,92.93454456335328
9.176,0.999993838009906,92.8525376130898
9.184000000000001,0.9999940986879795,92.77051472270665
9.192,0.9999943609734967,92.68847587394345
9.2,0.9999946248069737,92.60642104849354
9.208,0.999994890130028,92.52435022800566
9.216000000000001,0.9999951568853619,92.44226339408546
9.224,0.9999954250167443,92.36016052829697
9.232,0.9999956944689937,92.27804161216397
9.24,0.9999959651879614,92.19590662717142
9.248000000000001,0.9999962371205126,92.11375555476677
9.256,0.9999965102145115,92.03158837636116
9.264,0.9999967844188025,91.94940507333065
9.272,0.9999970596831937,91.86720562701736
9.280000000000001,0.9999973359584403,91.78499001873064
9.288,0.9999976131962274,91.70275822974813
9.296,0.999997891349153,91.62051024131664
9.304,0.9999981703707125,91.5382460346533
9.312000000000001,0.999998450215282,91.45596559094638
9.32,0.9999987308381015,91.37366889135636
9.328,0.9999990121952593,91.2913559170165
9.336,0.999999294243677,91.20902664903392
9.344,0.999999576941091,91.12668106849029
9.352,0.9999998602460419,91.04431915644253
9.36,1.0,90.9619408939237
9.368,0.9999999999999998,90.87954626194343
9.376,1.0,90.79713524148885
9.384,1.0,90.714707813525
9.392,0.9999999999999999,90.63226395899557
9.4,0.9999999999999999,90.54980365882338
9.408,1.0,90.46732689391104
9.416,1.0,90.38483364514127
9.424,1.0,90.30232389337769
9.432,0.9999999999999999,90.21979761946497
9.44,0.9999999999999999,90.13725480422954
9.448,1.0,90.05469542847987
9.456,1.0,89.97211947300697
9.464,1.0,89.88952691858466
9.472,1.0,89.80691774597011
9.48,1.0,89.72429193590399
9.488,1.0,89.641649469111
9.496,0.9999999999999999,89.55899032630005
9.504,0.9999999999999999,89.47631448816459
9.512,0.9999999999999999,89.39362193538292
9.52,0.9999999999999998,89.3109126486185
9.528,1.0,89.22818660852009
9.536,1.0,89.14544379572212
9.544,1.0,89.06268419084475
9.552,1.0,88.97990777449432
9.56,1.0,88.89711452726335
9.568,1.0,88.81430442973084
9.576,1.0,88.73147746246238
9.584,1.0,88.64863360601045
9.592,1.0,88.56577284091438
9.6,1.0,88.48289514770073
9.608,1.0,88.4000005068832
9.616,1.0,88.31708889896301
9.624,1.0,88.23416030442877
9.632,1.0,88.15121470375684
9.64,1.0,88.06825207741123
9.648,1.0,87.98527240584386
9.656,0.9999999999999999,87.90227566949456
9.664,1.0,87.81926184879119
9.672,1.0,87.73623092414972
9.68,1.0,87.65318287597435
9.688,1.0,87.57011768465748
9.696,0.9999999999999999,87.48703533057987
9.704,1.0,87.40393579411062
9.712,1.0,87.32081905560736
9.72,1.0,87.2376850954161
9.728,1.0000000000000002,87.15453389387147
9.736,0.9999999999999999,87.0713654312966
9.744,1.0,86.98817968800333
9.752,1.0,86.90497664429202
9.76,1.0,86.82175628045185
9.768,1.0,86.73851857676058
9.776,1.0,86.6552635134848
9.784,1.0,86.57199107087975
9.792,0.9999999999999999,86.4887012291895
9.8,0.9999999999999999,86.40539396864689
9.808,0.9999999999999999,86.32206926947354
9.816,0.9999999999999998,86.23872711187987
9.824,1.0,86.15536747606514
9.832,1.0,86.07199034221736
9.84,0.9999999999999999,85.98859569051345
9.847999999999999,0.9999999999999999,85.90518350111905
9.856,1.0,85.82175375418869
9.864,0.9999999999999999,85.73830642986569
9.872,0.9999999999999998,85.65484150828219
9.879999999999999,0.9999999999999999,85.57135896955916
9.888,0.9999999999999999,85.48785879380628
9.896,1.0,85.40434096112217
9.904,1.0,85.32080545159415
9.911999999999999,0.9999999999999999,85.23725224529831
9.92,0.9999999999999999,85.15368132229949
9.928,0.9999999999999999,85.07009266265138
9.936,1.0,84.98648624639634
9.943999999999999,1.0,84.90286205356544
9.952,0.9999999999999999,84.81922006417851
9.96,1.0,84.73556025824408
9.968,0.9999999999999999,84.65188261575935
9.975999999999999,0.9999999999999999,84.56818711671018
9.984,1.0,84.48447374107108
9.992,1.0,84.40074246880526
10.0,1.0,84.31699327986452
10.008,1.0,84.23322615418921
