freq,mag,phase
6.0,0.9997634579097027,-66.13151200148886
6.002285568,0.9997123768054463,-66.24265958619546
6.004571648,0.9996811210541542,-66.35319751492432
6.006857216,0.9996697077538237,-66.46345132732793
6.009142784,0.9996791052399943,-66.5737039689286
6.011428352,0.9997087546486845,-66.68424763501307
6.013714432,0.9997567516743132,-66.79537783892087
6.016,0.9998199482720296,-66.90736316207405
6.018285568,0.9998945552197342,-67.02032898160915
6.020571648,0.9999755517595563,-67.13450181941724
6.022857216,1.0000577895988423,-67.24982324900958
6.025142784,1.0001362161779583,-67.36640062415964
6.027428352,1.0002057649758433,-67.48402691612992
6.029714432,1.0002619578042053,-67.60263588722553
6.032,1.0003012089253922,-67.72190244203725
6.034285568,1.000321094050825,-67.84158682756097
6.036571648,1.0003203645684986,-67.96154307368131
6.038857216,1.0002988904231025,-68.08130805262803
6.041142784,1.0002581227379002,-68.20062376285115
6.043428352,1.0002009024044818,-68.31922903161592
6.045714432,1.0001303162358388,-68.43695942158351
6.048,1.0000514019874946,-68.55358510974345
6.050285568,0.9999691145073267,-68.66905961665867
6.052571648,0.999888312538591,-68.78338520930967
6.054857216,0.9998144825681292,-68.8965922317671
6.057142784,0.9997520718031676,-69.00882644990344
6.059428352,0.999705412982785,-69.12026164489752
6.061714432,0.9996773097649584,-69.23119856415308
6.064,0.999669266301328,-69.34186947614681
6.066285568,0.9996824037546473,-69.45260837848403
6.068571648,0.9997154520632063,-69.56369306780938
6.070857216,0.9997662725714268,-69.67540444615085
6.073142784,0.999832038437429,-69.78800892027445
6.075428352,0.999908075765714,-69.9016417808961
6.077714432,0.9999897561311568,-70.01646632065666
6.08,1.0000720126302745,-70.13252029209713
6.082285568,1.000149441651762,-70.24966621579581
6.084571648,1.0002171035325764,-70.3679458467398
6.086857216,1.000270666393007,-70.48715292994035
6.089142784,1.00030672672358,-70.60699958033621
6.091428352,1.0003233472529414,-70.72727328725033
6.093714432,1.0003189227951181,-70.84760896534186
6.096,1.0002941410555442,-70.96779704918268
6.098285568,1.0002503007196109,-71.08748863953387
6.100571648,1.0001902592631486,-71.20643402534449
6.102857216,1.000117804148191,-71.32444216117113
6.105142784,1.000037769214418,-71.44134072111244
6.107428352,0.999955143168441,-71.5570862052502
6.109714432,0.999874948095839,-71.67165865097854
6.112,0.9998026452846533,-71.78514476452922
6.114285568,0.999742666003305,-71.89765778199047
6.116571648,0.9996989713180794,-72.00947235272464
6.118857216,0.9996739941934165,-72.12073915759116
6.121142784,0.9996695962544065,-72.2318929304651
6.123428352,0.99968611633433,-72.34313438692251
6.125714432,0.9997224815442902,-72.4547436799432
6.128,0.9997762279950143,-72.5670114434579
6.130285568,0.9998441430214491,-72.6802366635995
6.132571648,0.9999216522807007,-72.79449450390504
6.134857216,1.0000040053071468,-72.91000175414842
6.137142784,1.00008595780469,-73.02664321119656
6.139428352,1.0001623008550455,-73.14450863219348
6.141714432,1.0002278855353368,-73.26343255832545
6.144,1.0002788339318496,-73.3831709081173
6.146285568,1.0003119190702094,-73.50358937991301
6.148571648,1.0003249698793837,-73.62434570702986
6.150857216,1.0003170378837154,-73.74514136170164
6.153142784,1.0002885954146936,-73.86568302539179
6.155428352,1.0002418055738387,-73.98573936324314
6.157714432,1.0001791646820224,-74.10501644822966
6.16,1.000105134473695,-74.22326393623457
6.162285568,1.0000241122032774,-74.34046282582528
6.164571648,0.9999412072762492,-74.45640660660986
6.166857216,0.9998620491031104,-74.57124750340304
6.169142784,0.9997913253488612,-74.68497484607225
6.171428352,0.9997337321581065,-74.79779545652464
6.173714432,0.9996928913982964,-74.90995190687282
6.176,0.9996712577905027,-75.02163852007038
6.178285568,0.9996706014763027,-75.13317559985809
6.180571648,0.9996906174830638,-75.24488778306008
6.182857216,0.9997300755448026,-75.35702878707454
6.185142784,0.9997868148539136,-75.46993020348097
6.187428352,0.9998565840692538,-75.58371488907197
6.189714432,0.9999355244961371,-75.69865840387746
6.192,1.0000183739339463,-75.81475198045193
6.194285568,1.0000997793501594,-75.93206630622356
6.196571648,1.0001746931064066,-76.05057849344425
6.198857216,1.0002384138498823,-76.17005854048506
6.201142784,1.0002864878615663,-76.29044353450128
6.203428352,1.0003163885556092,-76.41134487822734
6.205714432,1.0003259418107817,-76.53257052338745
6.208,1.000314436343192,-76.65382086399134
6.210285568,1.0002827268182979,-76.77476222058381
6.212571648,1.0002328904224276,-76.89512385262313
6.214857216,1.0001679874545637,-77.0146684463164
6.217142784,1.0000921162022656,-77.13319475891194
6.219428352,1.000010326129164,-77.25063820712347
6.221714432,0.999927648142727,-77.36684060969492
6.224,0.9998491606198056,-77.48190725853291
6.226285568,0.9997802515839904,-77.59592821433841
6.228571648,0.9997251466385307,-77.70904374209042
6.230857216,0.9996872092380323,-77.82151328228728
6.233142784,0.9996691855596253,-77.93359033237104
6.235428352,0.9996720177772068,-78.04554679763694
6.237714432,0.9996954528119746,-78.15774145207642
6.24,0.9997382530242066,-78.2704152869805
6.242285568,0.9997974278388712,-78.38388374601674
6.244571648,0.9998692909884506,-78.4982779718063
6.246857216,0.9999494312300322,-78.61382140041881
6.249142784,1.0000324892900503,-78.73058455780466
6.251428352,1.0001133933328998,-78.8485426262776
6.253714432,1.0001869266598393,-78.96764379826821
6.256,1.0002483042207921,-79.08776282900929
6.258285568,1.000293677391261,-79.20863612725839
6.260571648,1.0003202635141755,-79.33009046010338
6.262857216,1.0003262318313664,-79.4517839017831
6.265142784,1.0003112602642694,-79.57343705346874
6.267428352,1.0002762935660308,-79.69472097324982
6.269714432,1.0002234872365117,-79.81542582268447
6.272,1.0001563486785243,-79.93522636413805
6.274285568,1.0000789397292753,-80.05403383750256
6.276571648,0.9999963785381681,-80.17166406377095
6.278857216,0.9999139624744412,-80.28810472015256
6.281142784,0.9998367581131216,-80.40339849684956
6.283428352,0.9997696745133624,-80.51768374462638
6.285714432,0.9997171609434652,-80.63109555196904
6.288,0.9996823962240626,-80.74385971523036
6.290285568,0.9996675884833112,-80.85632118588939
6.292571648,0.999674050656609,-80.96875052298317
6.294857216,0.9997008701942316,-81.0814068493607
6.297142784,0.9997466689386529,-81.1946013690394
6.299428352,0.9998084760523857,-81.30862628852378
6.301714432,0.9998822287963688,-81.42363311849066
6.304,0.999963412802033,-81.53979526816296
6.306285568,1.0000466094523408,-81.65720440470375
6.308571648,1.0001268738289535,-81.7757489139735
6.310857216,1.0001988343312458,-81.89546109456445
6.313142784,1.0002578487588454,-82.01615415025213
6.315428352,1.0003004639568798,-82.13758866634826
6.317714432,1.0003235460265274,-82.25952980713447
6.32,1.0003260654957993,-82.38165226483538
6.322285568,1.0003076586107769,-82.50368660549971
6.324571648,1.0002693476703475,-82.62531733363377
6.326857216,1.0002137393450097,-82.74633234056735
6.329142784,1.0001443812848307,-82.86637542006041
6.331428352,1.0000657095368441,-82.9853776656842
6.333714432,0.9999826186064815,-83.10324538942149
6.336,0.9999004339877328,-83.21990013841426
6.338285568,0.9998244727274722,-83.33543674046572
6.340571648,0.9997594816491605,-83.4499699627298
6.342857216,0.9997096773143063,-83.56367724267032
6.345142784,0.9996781164812312,-83.67678895056392
6.347428352,0.999666858533925,-83.78960289735467
6.349714432,0.9996766395218798,-83.9024407189647
6.352,0.9997068451856082,-84.01556723841624
6.354285568,0.999755923555697,-84.12928982975902
6.356571648,0.9998199461813736,-84.24386171509002
6.358857216,0.9998954735381497,-84.35951847269543
6.361142784,0.9999775601990302,-84.4762389960987
6.363428352,1.0000607501779473,-84.5942401040199
6.365714432,1.000140056139083,-84.71347124062824
6.368,1.0002103303623813,-84.83371679193893
6.370285568,1.0002669477637276,-84.9549872003591
6.372571648,1.0003065761826977,-85.07691440117634
6.374857216,1.000326349401744,-85.19934831636887
6.377142784,1.0003253629969435,-85.32188162798504
6.379428352,1.000303479283246,-85.44428595386529
6.381714432,1.0002618931048204,-85.56625042207176
6.384,1.0002037218919044,-85.68751136942883
6.386285568,1.0001323934847974,-85.80781051757104
6.388571648,1.000052397582307,-85.92706087050179
6.390857216,0.9999688271449966,-86.0451088583473
6.393142784,0.9998871782788736,-86.16199728378287
6.395428352,0.9998125031692096,-86.27774285909051
6.397714432,0.9997496443360884,-86.39249953043104
6.4,0.9997024792136422,-86.50650547626809
6.402285568,0.9996742805399587,-86.61992167141055
6.404571648,0.9996663941066127,-86.73312713159777
6.406857216,0.9996798756212115,-86.8463602215411
6.409142784,0.9997133620347296,-86.95999288945332
6.411428352,0.9997650781140026,-87.07424896905393
6.413714432,0.9998316537900359,-87.18937108474275
6.416,0.999908651717199,-87.30556505402049
6.418285568,0.9999915188002599,-87.42292096513582
6.420571648,1.0000747073239626,-87.54152402177638
6.422857216,1.0001528853069312,-87.66126259735856
6.425142784,1.0002214547472414,-87.78215515468979
6.427428352,1.0002755370854985,-87.90392078994313
6.429714432,1.0003119845984791,-88.02640911175281
6.432,1.0003284257726992,-88.14921882474354
6.434285568,1.0003239585584593,-88.27221553958154
6.436571648,1.0002985363181123,-88.39493716518317
6.438857216,1.0002539975372093,-88.51721382559019
6.441142784,1.0001931687641497,-88.63873024914918
6.443428352,1.0001199236566374,-88.75927228582323
6.445714432,1.000038797505752,-88.8786898639175
6.448,0.9999550419368655,-88.99695335922928
6.450285568,0.9998740257353941,-89.11402600379631
6.452571648,0.9998008542219655,-89.2299578463195
6.454857216,0.9997401255685688,-89.3449901791773
6.457142784,0.9996959525736766,-89.45926376997836
6.459428352,0.9996709081370936,-89.57299909200357
6.461714432,0.9996666897901281,-89.6865469988088
6.464,0.9996836144781961,-89.80024328847517
6.466285568,0.9997204402153264,-89.91429345926097
6.468571648,0.9997750615729387,-90.02907336813836
6.470857216,0.9998437475349774,-90.14473190548514
6.473142784,0.9999222600974574,-90.26151233551064
6.475428352,1.000005716095033,-90.37943922415143
6.477714432,1.0000885350421487,-90.49862460174042
6.48,1.000165653639038,-90.61898632557165
6.482285568,1.0002321713338722,-90.74042077359573
6.484571648,1.0002836210184005,-90.86271594443275
6.486857216,1.000317052781079,-90.98565643001872
6.489142784,1.0003301573273902,-91.10890238001039
6.491428352,1.0003220564786937,-91.23225265544592
6.493714432,1.0002931981597725,-91.3553273675836
6.496,1.0002457507099312,-91.47785483103208
6.498285568,1.0001824005487168,-91.59960815529413
6.500571648,1.0001074111789046,-91.72036050019537
6.502857216,1.0000252563604295,-91.83999767616125
6.505142784,0.9999414315092537,-91.95844295609801
6.507428352,0.999861171192936,-92.07569189565984
6.509714432,0.9997897248969634,-92.19184831929606
6.512,0.9997313809629066,-92.30706634040403
6.514285568,0.9996900654977103,-92.42162326445214
6.516571648,0.9996682317868784,-92.53569059599613
6.518857216,0.999667466128484,-92.64959097633738
6.521142784,0.9996879854541271,-92.76366714444893
6.523428352,0.9997279711564779,-92.87819950845635
6.525714432,0.9997851538102707,-92.99345487420118
6.528,0.9998560660991719,-93.10965629259958
6.530285568,0.999935863601646,-93.2269909525463
6.532571648,1.0000197836082578,-93.34552509610667
6.534857216,1.00010228042433,-93.46525382684644
6.537142784,1.000178121716854,-93.58618770959728
6.539428352,1.000242597840178,-93.70811301456224
6.541714432,1.0002913455838798,-93.83093677285466
6.544,1.0003215665678142,-93.95434130630414
6.546285568,1.0003311833326791,-94.07800389370931
6.548571648,1.0003195867500345,-94.20171420364181
6.550857216,1.0002874285482368,-94.32510981985997
6.553142784,1.000237108455273,-94.44787897916457
6.555428352,1.000171301648443,-94.56985400067144
6.557714432,1.0000946047021964,-94.6908467664257
6.56,1.0000116499547662,-94.81062835733833
6.562285568,0.9999279660079481,-94.92922685024539
6.564571648,0.9998485434818019,-95.04662583036809
6.566857216,0.9997787061656482,-95.16298056662772
6.569142784,0.9997229766928886,-95.27841525691058
6.571428352,0.9996846138628908,-95.39321857965218
6.573714432,0.999666113441362,-95.50759130004691
6.576,0.9996689592054835,-95.62185954072349
6.578285568,0.9996927021375542,-95.73634770144413
6.580571648,0.9997358679455174,-95.851351001741
6.582857216,0.9997958186562497,-95.96709561965187
6.585142784,0.9998686546479519,-96.08382189945631
6.587428352,0.9999496323895575,-96.20168760265477
6.589714432,1.0000338995825742,-96.32078390378102
6.592,1.0001157365510434,-96.44109140175937
6.594285568,1.0001901179966504,-96.56255152791115
6.596571648,1.0002524173792788,-96.68504278162133
6.598857216,1.00029845737285,-96.80829545025381
6.601142784,1.0003255853586268,-96.93210035022244
6.603428352,1.0003316576003272,-97.0561663411045
6.605714432,1.0003165268743976,-97.18022997946645
6.608,1.0002812528273841,-97.3038870833501
6.610285568,1.0002277889935,-97.4269413578568
6.612571648,1.000159896220286,-97.54907987801893
6.614857216,1.0000814819540795,-97.6702489485191
6.617142784,0.999997985375843,-97.79018088467467
6.619428352,0.9999145111769013,-97.90890499763854
6.621714432,0.9998361651233981,-98.02651974966324
6.624,0.9997682092036059,-98.14305709135088
6.626285568,0.9997148978520042,-98.25871722279864
6.628571648,0.9996795947520529,-98.37373902840869
6.630857216,0.9996645742617551,-98.48841444061642
6.633142784,0.9996709033641569,-98.60304090828012
6.635428352,0.9996980709819612,-98.71791839672932
6.637714432,0.9997442578857578,-98.83333833864955
6.64,0.9998066725994648,-98.94957525695933
6.642285568,0.9998813092711989,-99.06682292516031
6.644571648,0.9999635020640713,-99.1852253153604
6.646857216,1.0000478949057816,-99.30486946608657
6.649142784,1.0001291059266313,-99.42570601051798
6.651428352,1.00020191251817,-99.5477238715188
6.653714432,1.0002620209954394,-99.67065789742237
6.656,1.0003051700537728,-99.79436923056188
6.658285568,1.0003288706240687,-99.91859498587263
6.660571648,1.0003315145927174,-100.04305822181982
6.662857216,1.0003130420776012,-100.16737200094208
6.665142784,1.0002744100322671,-100.29135507727912
6.667428352,1.0002182270297857,-100.41459361548539
6.669714432,1.0001481756029698,-100.53694762551503
6.672,1.0000685357143335,-100.65822334342315
6.674285568,0.999984297923377,-100.7783192777208
6.676571648,0.9999009743965818,-100.8972185671665
6.678857216,0.9998239688190623,-101.01492375975087
6.681142784,0.9997580270685076,-101.13163203456536
6.683428352,0.9997072760269229,-101.24750925037641
6.685714432,0.9996752247223096,-101.36276167461594
6.688,0.999663630197921,-101.47772631827264
6.690285568,0.9996733555754845,-101.59269731865086
6.692571648,0.9997037800285652,-101.70796733886407
6.694857216,0.9997531056770184,-101.82382905438895
6.697142784,0.9998179613253327,-101.94053434315711
6.699428352,0.9998944729904459,-102.05828987391283
6.701714432,0.9999773968731465,-102.17722351478642
6.704,1.0000617848725804,-102.29736163107448
6.706285568,1.000142166667896,-102.41875448065448
6.708571648,1.0002134291437828,-102.5412302081857
6.710857216,1.0002709992418088,-102.66467006865352
6.713142784,1.000311256729092,-102.78887857743997
6.715428352,1.0003315756871565,-102.91345960785296
6.717714432,1.0003307740681766,-103.03825431851902
6.72,1.0003087429967195,-103.16286364910059
6.722285568,1.0002670721176046,-103.2870331467497
6.724571648,1.0002081878892022,-103.41048235661168
6.726857216,1.0001360678950253,-103.53300233856488
6.729142784,1.000055131205456,-103.65442115917894
6.731428352,0.9999706951213169,-103.77463690051285
6.733714432,0.9998878236961047,-103.89364601574732
6.736,0.9998120475175065,-104.0114930592445
6.738285568,0.9997481504999909,-104.12838410692734
6.740571648,0.9997001732870499,-104.24440393252267
6.742857216,0.9996712179550937,-104.35991835313776
6.745142784,0.9996632042881223,-104.47516809046977
6.747428352,0.9996763569465968,-104.59044617546161
6.749714432,0.9997100889615739,-104.70611486355025
6.752,0.999762267002257,-104.82244422710238
6.754285568,0.9998295717468407,-104.9395878452088
6.756571648,0.9999075752151058,-105.05782783913189
6.758857216,0.9999912574409947,-105.17728828644015
6.761142784,1.00007555074018,-105.29793911115382
6.763428352,1.000154962465804,-105.41983198972538
6.765714432,1.0002245613567997,-105.54279101972742
6.768,1.0002794542210494,-105.66666843862517
6.770285568,1.0003169143948811,-105.79127295692338
6.772571648,1.0003339342126552,-105.91622719340458
6.774857216,1.0003295327879451,-106.04132352552347
6.777142784,1.0003041522169982,-106.16620095044323
6.779428352,1.0002594397965714,-106.2905749164502
6.781714432,1.0001980173193767,-106.41423709595432
6.784,1.0001238985067336,-106.53688049897185
6.786285568,1.000041816781362,-106.6584020829376
6.788571648,0.9999571078534762,-106.77870712768362
6.790857216,0.9998748281727788,-106.89782425820931
6.793142784,0.9998005908464159,-107.01581286928844
6.795428352,0.9997389416625209,-107.1328309792228
6.797714432,0.99969365417942,-107.24907196753352
6.8,0.9996679723370132,-107.3648198680717
6.802285568,0.9996634041167353,-107.48034100091841
6.804571648,0.9996800308212805,-107.59595272870666
6.806857216,0.9997170752527043,-107.71196737405968
6.809142784,0.9997720225669408,-107.82870347763945
6.811428352,0.9998414874158048,-107.94630735045308
6.813714432,0.9999209529823201,-108.0650435551595
6.816,1.0000054328065395,-108.18493662822277
6.818285568,1.0000894520032193,-108.30610195656654
6.820571648,1.0001677713897132,-108.42850045690808
6.822857216,1.0002353380915943,-108.55189214162316
6.825142784,1.0002878888113007,-108.67623273206675
6.827428352,1.0003220856317103,-108.8012131772526
6.829714432,1.0003356568514137,-108.92653325235477
6.832,1.0003279982974305,-109.05188534549585
6.834285568,1.0002991533202403,-109.17703507278138
6.836571648,1.0002513575726424,-109.30158570730116
6.838857216,1.0001874694117863,-109.42537347978859
6.841142784,1.000111476295055,-109.54813350918681
6.843428352,1.0000284439328475,-109.66978805228935
6.845714432,0.9999435497100871,-109.79016533878806
6.848,0.9998620880520013,-109.90938412838841
6.850285568,0.9997893605909948,-110.0274791035676
6.852571648,0.9997298930316195,-110.14462808257649
6.854857216,0.9996876508408288,-110.26105385168216
6.857142784,0.9996652574547262,-110.37698118887619
6.859428352,0.9996640995586505,-110.49279037718527
6.861714432,0.9996842171187591,-110.60872520394427
6.864,0.9997245233804508,-110.72509477441
6.866285568,0.9997821512321193,-110.84220273547017
6.868571648,0.9998537376716518,-110.96030179455889
6.870857216,0.9999345470549014,-111.07946496339896
6.873142784,1.000019480538448,-111.19988200769045
6.875428352,1.000103128522689,-111.32149791559803
6.877714432,1.0001802243360924,-111.44431018200758
6.88,1.000245730538226,-111.56822200488004
6.882285568,1.0002956327582064,-111.69291900817983
6.884571648,1.0003267224794978,-111.81826616641068
6.886857216,1.0003369550233372,-111.94387832694761
6.889142784,1.0003256686228397,-112.0695479396614
6.891428352,1.00029356276202,-112.19487483715058
6.893714432,1.0002427944526964,-112.31961646947552
6.896,1.000176552904799,-112.44350748412204
6.898285568,1.0000989186233429,-112.56638249389414
6.900571648,1.0000150509829113,-112.68810120475108
6.902857216,0.9999301930397915,-112.80857005621306
6.905142784,0.9998495297244353,-112.9278182215284
6.907428352,0.9997784788311069,-113.04603389772792
6.909714432,0.9997214700915331,-113.1633013813873
6.912,0.9996821989795994,-113.27986270612503
6.914285568,0.999663086467369,-113.39604286196872
6.916571648,0.9996653734306398,-113.51206410647957
6.918857216,0.9996889555076682,-113.62830012293409
6.921142784,0.9997322728250972,-113.74506373661414
6.923428352,0.9997926701053914,-113.86256285108584
6.925714432,0.9998661673666956,-113.98105040297877
6.928,0.9999482317907354,-114.1006970705462
