freq,mag,phase
6.0,0.9999967848007631,177.01214136213147
6.008,0.9999961995685916,176.6206309918624
6.016,0.9999956267735839,176.22908494721236
6.024,0.9999950662441094,175.83749867009976
6.032,0.9999945178101937,175.44586759400897
6.04,0.9999939813035116,175.05418714407264
6.048,0.9999934565573764,174.66245273715353
6.056,0.9999929434067331,174.2706597819256
6.064,0.9999924416881484,173.87880367895445
6.072,0.9999919512398016,173.4868798207775
6.08,0.9999914719014774,173.094883591983
6.088,0.9999910035145555,172.70281036928935
6.096,0.9999905459220019,172.31065552162346
6.104,0.9999900989683603,171.91841441019866
6.112,0.9999896624997414,171.5260823885927
6.12,0.9999892363638175,171.13365480282508
6.128,0.9999888204098091,170.74112699143427
6.136,0.9999884144884793,170.3484942855546
6.144,0.9999880184521197,169.955752008993
6.152,0.9999876321545473,169.56289547830576
6.16,0.9999872554510922,169.16992000287507
6.168,0.9999868881985863,168.77682088498537
6.176,0.9999865302553588,168.38359341990022
6.184,0.9999861814812219,167.99023289593856
6.192,0.9999858417374649,167.59673459455144
6.2,0.9999855108868425,167.2030937903991
6.208,0.9999851887935699,166.8093057514276
6.216,0.9999848753233057,166.41536573894638
6.224,0.9999845703431504,166.02126900770574
6.232,0.9999842737216309,165.62701080597452
6.24,0.9999839853286967,165.23258637561867
6.248,0.9999837050357051,164.8379909521796
6.256,0.9999834327154162,164.44321976495382
6.264,0.9999831682419809,164.048268037072
6.272,0.9999829114909311,163.65313098557988
6.28,0.9999826623391738,163.25780382151873
6.288,0.9999824206649776,162.86228175000724
6.296,0.9999821863479652,162.46655997032346
6.304,0.9999819592691056,162.0706336759884
6.312,0.9999817393107008,161.67449805484955
6.32,0.9999815263563816,161.27814828916576
6.328,0.9999813202910938,160.88157955569307
6.336,0.9999811210010895,160.48478702577134
6.344,0.9999809283739225,160.0877658654122
6.352,0.9999807422984321,159.6905112353876
6.36,0.9999805626647386,159.29301829131995
6.368,0.9999803893642331,158.8952821837734
6.376,0.999980222289567,158.49729805834616
6.384,0.999980061334646,158.09906105576417
6.392,0.9999799063946142,157.70056631197644
6.4,0.9999797573658561,157.30180895825137
6.408,0.9999796141459744,156.90278412127472
6.416,0.9999794766337917,156.50348692324928
6.424,0.9999793447293359,156.10391248199585
6.432,0.9999792183338324,155.70405591105586
6.44,0.9999790973496951,155.30391231979604
6.448,0.9999789816805189,154.9034768135144
6.456,0.9999788712310678,154.50274449354822
6.464,0.9999787659072691,154.10171045738397
6.472,0.9999786656162025,153.70036979876897
6.48,0.9999785702660915,153.29871760782524
6.4879999999999995,0.9999784797662971,152.89674897116518
6.496,0.9999783940273052,152.49445897200954
6.504,0.9999783129607195,152.09184269030746
6.5120000000000005,0.9999782364792558,151.6888952028585
6.52,0.9999781644967277,151.28561158343777
6.5280000000000005,0.9999780969280431,150.881986902922
6.536,0.9999780336891921,150.47801622941952
6.5440000000000005,0.9999779746972407,150.0736946284016
6.552,0.9999779198703218,149.669017162837
6.5600000000000005,0.9999778691276262,149.26397889332844
6.568,0.9999778223893948,148.85857487825257
6.5760000000000005,0.9999777795769096,148.4528001739018
6.584,0.999977740612487,148.04664983462965
6.592,0.9999777054194667,147.6401189129981
6.6,0.9999776739222072,147.23320245992886
6.608,0.9999776460460736,146.82589552485672
6.616,0.9999776217174324,146.4181931558863
6.624,0.999977600863643,146.0100903999522
6.632,0.9999775834130479,145.60158230298143
6.64,0.9999775692949668,145.19266391006016
6.648,0.9999775584396872,144.783330265603
6.656,0.9999775507784583,144.3735764135258
6.664,0.99997754624348,143.96339739742203
6.672,0.9999775447678979,143.55278826074263
6.68,0.9999775462857948,143.14174404697923
6.688,0.9999775507321826,142.7302597998512
6.696,0.9999775580429943,142.31833056349635
6.704,0.9999775681550763,141.90595138266517
6.712,0.9999775810061827,141.49311730291927
6.72,0.9999775965349658,141.07982337083362
6.728,0.9999776146809674,140.6660646342024
6.736,0.9999776353846154,140.25183614224932
6.744,0.9999776585872124,139.837132945842
6.752,0.9999776842309305,139.42195009771004
6.76,0.9999777122588034,139.00628265266818
6.768,0.9999777426147177,138.59012566784293
6.776,0.9999777752434091,138.17347420290406
6.784,0.9999778100904513,137.75632332030057
6.792,0.9999778471022511,137.33866808550079
6.8,0.9999778862260407,136.92050356723755
6.808,0.9999779274098709,136.50182483775754
6.816,0.9999779706026034,136.08262697307597
6.824,0.9999780157539042,135.66290505323545
6.832,0.9999780628142375,135.2426541625701
6.84,0.9999781117348563,134.82186938997447
6.848,0.9999781624677982,134.40054582917753
6.856,0.9999782149658776,133.97867857902176
6.864,0.9999782691826781,133.55626274374734
6.872,0.999978325072547,133.13329343328144
6.88,0.9999783825905877,132.7097657635332
6.888,0.9999784416926538,132.28567485669348
6.896,0.999978502335341,131.8610158415407
6.904,0.9999785644759829,131.4357838537516
6.912,0.999978628072642,131.00997403621793
6.92,0.999978693084104,130.58358153936874
6.928,0.9999787594698736,130.1566015214981
6.936,0.9999788271901631,129.72902914909892
6.944,0.9999788962058908,129.30085959720265
6.952,0.9999789664786721,128.87208804972434
6.96,0.9999790379708143,128.44270969981443
6.968,0.9999791106453093,128.01271975021604
6.976,0.999979184465828,127.5821134136286
6.984,0.9999792593967133,127.15088591307754
6.992,0.9999793354029762,126.71903248229043
7.0,0.9999794124502864,126.28654836607893
7.008,0.9999794905049673,125.85342882072797
7.016,0.9999795695339926,125.41966911439036
7.024,0.999979649504975,124.98526452748857
7.032,0.9999797303861663,124.55021035312286
7.04,0.9999798121464457,124.114501897486
7.048,0.9999798947553172,123.67813448028461
7.056,0.9999799781829034,123.24110343516739
7.064,0.999980062399939,122.80340411016003
7.072,0.9999801473777632,122.36503186810693
7.08,0.9999802330883178,121.92598208711983
7.088,0.9999803195041387,121.4862501610336
7.096,0.9999804065983486,121.04583149986865
7.104,0.999980494344656,120.60472153030078
7.112,0.9999805827173449,120.16291569613783
7.12,0.9999806716912719,119.72040945880366
7.128,0.9999807612418584,119.2771982978294
7.136,0.9999808513450866,118.83327771135163
7.144,0.9999809419774935,118.38864321661826
7.152,0.9999810331161634,117.9432903505014
7.16,0.9999811247387265,117.49721467001788
7.168,0.9999812168233484,117.05041175285696
7.176,0.9999813093487285,116.60287719791562
7.184,0.9999814022940916,116.15460662584123
7.192,0.9999814956391846,115.70559567958203
7.2,0.999981589364269,115.25584002494476
7.208,0.9999816834501168,114.80533535115997
7.216,0.9999817778780059,114.35407737145528
7.224,0.9999818726297107,113.90206182363588
7.232,0.9999819676875022,113.44928447067275
7.24,0.9999820630341387,112.99574110129873
7.248,0.9999821586528608,112.54142753061213
7.256,0.9999822545273876,112.08633960068802
7.264,0.9999823506419095,111.63047318119743
7.272,0.9999824469810842,111.17382417003402
7.28,0.9999825435300316,110.71638849394867
7.288,0.9999826402743265,110.2581621091917
7.296,0.9999827371999952,109.79914100216283
7.304,0.9999828342935088,109.33932119006903
7.312,0.9999829315417811,108.87869872158986
7.32,0.9999830289321565,108.41726967755052
7.328,0.9999831264524138,107.95503017160303
7.336,0.9999832240907524,107.49197635091441
7.344,0.9999833218357914,107.02810439686309
7.352,0.9999834196765662,106.56341052574274
7.36,0.999983517602517,106.09789098947367
7.368,0.999983615603491,105.6315420763219
7.376,0.9999837136697305,105.16436011162578
7.384,0.9999838117918718,104.69634145852996
7.392,0.9999839099609378,104.22748251872699
7.4,0.9999840081683362,103.75777973320639
7.4079999999999995,0.999984106405848,103.28722958301088
7.416,0.9999842046656288,102.81582858999975
7.4239999999999995,0.9999843029402002,102.34357331762044
7.432,0.9999844012224438,101.87046037168554
7.4399999999999995,0.9999844995055983,101.39648640115897
7.448,0.9999845977832532,100.92164809894732
7.4559999999999995,0.9999846960493429,100.44594220269961
7.464,0.9999847942981438,99.96936549561265
7.4719999999999995,0.9999848925242647,99.49191480724444
7.48,0.999984990722646,99.01358701433284
7.4879999999999995,0.9999850888885518,98.53437904162236
7.496,0.9999851870175668,98.0542878626958
7.504,0.999985285105588,97.57331050081385
7.5120000000000005,0.9999853831488219,97.09144402975929
7.52,0.9999854811437789,96.60868557468895
7.5280000000000005,0.9999855790872664,96.12503231298993
7.536,0.999985676976386,95.64048147514362
7.5440000000000005,0.999985774808526,95.15503034559315
7.552,0.9999858725813574,94.66867626361874
7.5600000000000005,0.999985970292827,94.18141662421621
7.568,0.9999860679411553,93.69324887898289
7.5760000000000005,0.9999861655248268,93.2041705370064
7.584,0.9999862630425894,92.71417916576054
7.5920000000000005,0.9999863604934444,92.22327239200376
7.6,0.9999864578766441,91.73144790268401
7.6080000000000005,0.9999865551916871,91.23870344584643
7.616,0.9999866524383089,90.74503683154654
7.6240000000000006,0.9999867496164813,90.25044593276576
7.632,0.9999868467264037,89.75492868633252
7.640000000000001,0.9999869437684992,89.25848309384487
7.648,0.9999870407434088,88.76110722259835
7.656000000000001,0.9999871376519864,88.26279920651484
7.664,0.9999872344952916,87.76355724707625
7.672,0.999987331274588,87.26337961425881
7.68,0.9999874279913326,86.76226464747117
7.688,0.9999875246471748,86.26021075649363
7.696,0.9999876212439494,85.75721642241948
7.704,0.9999877177836696,85.25328019859745
7.712,0.9999878142685241,84.74840071157591
7.72,0.9999879107008698,84.24257666204736
7.728,0.9999880070832269,83.73580682579376
7.736,0.9999881034182736,83.22809005463228
7.744,0.9999881997088392,82.71942527736064
7.752,0.9999882959579018,82.20981150070239
7.76,0.9999883921685786,81.69924781025135
7.768,0.9999884883441228,81.18773337141499
7.776,0.9999885844879184,80.67526743035654
7.784,0.999988680603473,80.1618493149352
7.792,0.9999887766944134,79.64747843564443
7.8,0.9999888727644797,79.13215428654755
7.808,0.9999889688175198,78.61587644621075
7.816,0.9999890648574835,78.0986445786326
7.824,0.9999891608884168,77.58045843417021
7.832,0.9999892569144583,77.06131785046114
7.84,0.9999893529398295,76.54122275334107
7.848,0.9999894489688336,76.02017315775655
7.856,0.9999895450058471,75.4981691686724
7.864,0.9999896410553154,74.97521098197382
7.872,0.9999897371217468,74.4512988853618
7.88,0.9999898332097066,73.92643325924251
7.888,0.9999899293238128,73.40061457760955
7.896,0.9999900254687291,72.8738434089185
7.904,0.9999901216491598,72.34612041695404
7.912,0.9999902178698447,71.81744636168824
7.92,0.9999903141355527,71.28782210013043
7.928,0.9999904104510771,70.75724858716745
7.936,0.9999905068212295,70.22572687639433
7.944,0.9999906032508342,69.69325812093462
7.952,0.9999906997447235,69.15984357424988
7.96,0.9999907963077316,68.62548459093811
7.968,0.9999908929446888,68.0901826275203
7.976,0.9999909896604164,67.55393924321469
7.984,0.9999910864597218,67.01675610069834
7.992,0.9999911833473923,66.4786349668555
8.0,0.9999912803281897,65.93957771351188
8.008,0.9999913774068458,65.39958631815507
8.016,0.9999914745880558,64.8586628646395
8.024000000000001,0.9999915718764745,64.31680954387689
8.032,0.9999916692767093,63.77402865451004
8.04,0.9999917667933164,63.23032260357035
8.048,0.999991864430795,62.68569390711862
8.056000000000001,0.999991962193582,62.14014519086855
8.064,0.9999920600860469,61.59367919079173
8.072,0.999992158112487,61.046298753703994
8.08,0.9999922562771222,60.498006837833174
8.088000000000001,0.9999923545840895,59.94880651336726
8.096,0.9999924530374391,59.39870096298194
8.104,0.9999925516411284,58.84769348234737
8.112,0.9999926503990179,58.29578748061414
8.120000000000001,0.9999927493148653,57.742986480877654
8.128,0.9999928483923226,57.18929412061952
8.136,0.99999294763493,56.63471415212624
8.144,0.9999930470461105,56.07925044288493
8.152000000000001,0.9999931466291678,55.52290697595526
8.16,0.9999932463872796,54.96568785031643
8.168,0.9999933463234941,54.40759728118922
8.176,0.9999934464407253,53.848639600333144
8.184000000000001,0.9999935467417489,53.288819256317666
8.192,0.999993647229198,52.72814081476642
8.2,0.9999937479055587,52.16660895857454
8.208,0.9999938487731668,51.6042284880992
8.216000000000001,0.9999939498342024,51.04100432132185
8.224,0.9999940510906873,50.476941493982125
8.232,0.9999941525444808,49.91204515968236
8.24,0.9999942541972753,49.34632058996378
8.248000000000001,0.9999943560505934,48.779773174352584
8.256,0.9999944581057847,48.212408420375475
8.264,0.9999945603640205,47.644231953544555
8.272,0.9999946628262926,47.075249517311775
8.280000000000001,0.9999947654934088,46.50546697299165
8.288,0.99999486836599,45.934890299651926
8.296,0.9999949714444673,45.36352559397188
8.304,0.999995074729078,44.79137907006839
8.312,0.9999951782198656,44.21845705928941
8.32,0.9999952819166723,43.64476600997268
8.328,0.9999953858191419,43.070312487172664
8.336,0.9999954899267121,42.49510317235167
8.344,0.9999955942386165,41.919144863038504
8.352,0.9999956987538791,41.342444472450595
8.36,0.9999958034713134,40.765009029083465
8.368,0.9999959083895215,40.186845676262806
8.376,0.9999960135068895,39.60796167166353
8.384,0.9999961188215883,39.02836438679082
8.392,0.9999962243315708,38.44806130642802
8.4,0.9999963300345694,37.86706002804603
8.408,0.9999964359280973,37.28536826117882
8.416,0.9999965420094439,36.70299382676064
8.424,0.9999966482756767,36.11994465642887
8.432,0.9999967547236384,35.536228791788204
8.44,0.9999968613499456,34.95185438364044
8.448,0.9999969681509916,34.36682969117537
8.456,0.9999970751229411,33.78116308112708
8.464,0.9999971822617323,33.19486302689146
8.472,0.9999972895630765,32.607938107609016
8.48,0.9999973970224585,32.02039700720866
8.488,0.9999975046351349,31.43224851341722
8.496,0.9999976123961346,30.84350151672987
8.504,0.9999977203002614,30.254165009346263
8.512,0.9999978283420904,29.664248084068042
8.52,0.9999979365159729,29.073759933162094
8.528,0.9999980448160339,28.48270984718546
8.536,0.999998153236174,27.89110721377646
8.544,0.9999982617700709,27.298961516407704
8.552,0.9999983704111799,26.70628233310572
8.56,0.9999984791527353,26.113079335133023
8.568,0.9999985879877532,25.519362285637293
8.576,0.9999986969090301,24.925141038263476
8.584,0.9999988059091477,24.330425535733642
8.592,0.9999989149804728,23.73522580839048
8.6,0.999999024115161,23.139551972709082
8.608,0.9999991333051566,22.5434142297733
8.616,0.9999992425421977,21.946822863721064
8.624,0.9999993518178164,21.349788240155103
8.632,0.9999994611233424,20.752320804523695
8.64,0.9999995704499054,20.154431080467422
8.648,0.9999996797884386,19.556129668137206
8.656,0.9999997891296807,18.95742724247937
8.664,0.9999998984641801,18.358334551492767
8.672,1.0,17.758862414454462
8.68,1.0,17.15902172011831
8.688,1.0,16.558823424883393
8.696,1.0,15.958278550936646
8.704,1.0,15.357398184366586
8.712,1.0,14.756193473252592
8.72,1.0,14.154675625726522
8.728,1.0,13.552855908011505
8.736,1.0,12.950745642434402
8.744,1.0,12.348356205416856
8.752,0.9999999999999998,11.74569902544167
8.76,0.9999999999999999,11.142785580999291
8.768,0.9999999999999998,10.539627398511154
8.776,0.9999999999999999,9.936236050234845
8.784,1.0,9.332623152147738
8.792,0.9999999999999999,8.728800361814143
8.8,1.0,8.124779376232661
8.808,0.9999999999999999,7.520571929668835
8.815999999999999,1.0,6.916189791469849
8.824,1.0,6.311644763865564
8.832,1.0,5.706948679755347
8.84,1.0,5.102113400481154
8.847999999999999,1.0,4.497150813588428
8.856,1.0,3.8920728305762555
8.864,1.0,3.28689138463722
8.872,1.0,2.6816184283873836
8.879999999999999,1.0,2.0762659315879235
8.888,0.9999999999999998,1.4708458788599301
8.896,0.9999999999999999,0.8653702673928313
8.904,1.0,0.2598511046469022
8.911999999999999,1.0,-0.34569959394861294
8.92,1.0,-0.9512698073001957
8.928,1.0,-1.5568475109571418
8.936,0.9999999999999999,-2.1624206794205105
8.943999999999999,0.9999999999999999,-2.767977288452457
8.952,1.0,-3.3735053173843164
8.96,0.9999999999999999,-3.9789927514230636
8.968,1.0,-4.584427583955588
8.975999999999999,1.0,-5.189797818849279
8.984,1.0,-5.795091472747415
8.992,1.0,-6.400296577358805
9.0,1.0,-7.005401181741319
9.008,1.0,-7.610393354577726
9.016,1.0,-8.215261186442318
9.024000000000001,1.0,-8.819992792057937
9.032,0.9999999999999999,-9.424576312542841
9.04,1.0,-10.02899991764616
9.048,1.0,-10.633251807970089
9.056000000000001,1.0,-11.237320217178867
9.064,1.0,-11.841193414193649
9.072,1.0,-12.444859705372322
9.08,0.9999999999999998,-13.048307436672374
9.088000000000001,1.0,-13.65152499579679
9.096,0.9999999999999999,-14.254500814322475
9.104,0.9999999999999999,-14.857223369809782
9.112,1.0,-15.459681187891917
9.120000000000001,1.0,-16.06186284434371
9.128,1.0,-16.663756967129704
9.136,1.0,-17.26535223842995
9.144,0.9999999999999999,-17.866637396642503
9.152000000000001,0.9999999999999999,-18.467601238362114
9.16,1.0,-19.068232620335124
9.168,1.0,-19.668520461389075
9.176,0.9999999999999999,-20.268453744336053
9.184000000000001,1.0,-20.86802151784945
9.192,1.0,-21.467212898313885
9.2,1.0,-22.066017071647487
9.208,1.0,-22.664423295095038
9.216000000000001,0.9999999999999999,-23.262420898991955
9.224,1.0,-23.85999928849927
9.232,1.0,-24.457147945308268
9.24,0.9999999999999999,-25.0538564293139
9.248000000000001,1.0,-25.65011438025674
9.256,1.0,-26.245911519333923
9.264,1.0,-26.841237650777614
9.272,0.9999999999999999,-27.43608266340049
9.280000000000001,1.0,-28.03043653210771
9.288,0.9999999999999999,-28.62428931937641
9.296,0.9999999999999999,-29.217631176700817
9.304,1.0000000000000002,-29.810452346002904
9.312000000000001,1.0,-30.402743161008384
9.32,1.0,-30.99449404858819
9.328,1.0,-31.585695530065088
9.336,1.0,-32.17633822248404
9.344,1.0000000000000002,-32.766412839847085
9.352,1.0,-33.35591019431329
9.36,1.0,-33.944821197361115
9.368,1.0,-34.53313686091629
9.376,0.9999999999999999,-35.120848298441395
9.384,1.0,-35.70794672599117
9.392,1.0,-36.294423463228945
9.4,0.9999999999999999,-36.880269934408624
9.408,1.0,-37.46547766931792
9.416,1.0,-38.050038304186906
9.424,1.0,-38.633943582557784
9.432,1.0,-39.21718535611998
9.44,0.9999999999999999,-39.79975558550657
9.448,1.0,-40.38164634105605
9.456,0.9999999999999999,-40.9628498035357
9.464,1.0,-41.543358264830324
9.472,1.0,-42.12316412859273
9.48,1.0,-42.702259910860114
9.488,1.0,-43.2806382406324
9.496,1.0,-43.85829186041664
9.504,1.0000000000000002,-44.435213626733805
9.512,1.0,-45.011396510592206
9.52,1.0,-45.586833597923594
9.528,1.0,-46.16151808998639
9.536,1.0000000000000002,-46.735443303732104
9.544,1.0,-47.30860267213949
9.552,1.0,-47.88098974451244
9.56,1.0,-48.45259818674607
9.568,1.0,-49.02342178155738
9.576,1.0,-49.593454428684794
9.584,1.0,-50.162690145052665
9.592,1.0000000000000002,-50.731123064905745
9.6,1.0,-51.29874743990918
9.608,1.0,-51.865557639219105
9.616,1.0,-52.43154814951997
9.624,1.0000000000000002,-52.99671357503284
9.632,1.0,-53.561048637491446
9.64,1.0,-54.12454817609018
9.648,1.0,-54.68720714740056
9.656,1.0,-55.2490206252605
9.664,1.0,-55.809983800633226
9.672,1.0,-56.37009198143969
9.68,1.0,-56.92934059236157
9.688,1.0,-57.48772517461887
9.696,1.0,-58.04524138571904
9.704,1.0,-58.6018849991816
9.712,1.0,-59.15765190423542
9.72,0.9999999999999999,-59.71253810549247
9.728,1.0,-60.26653972259515
9.736,1.0,-60.81965298984123
9.744,0.9999999999999999,-61.37187425578337
9.752,1.0,-61.92319998280735
9.76,1.0,-62.47362674668585
9.768,1.0,-63.023151236112106
9.776,1.0,-63.57177025221002
9.784,0.9999999999999999,-64.11948070802539
9.792,0.9999999999999999,-64.66627962799454
9.8,0.9999999999999999,-65.21216414739521
9.808,0.9999999999999999,-65.7571315117759
9.816,1.0,-66.30117907636856
9.824,0.9999999999999999,-66.84430430548075
9.832,1.0,-67.38650477187232
9.84,1.0,-67.92777815611255
9.847999999999999,1.0,-68.46812224592279
9.856,1.0,-69.00753493550135
9.864,1.0,-69.5460142248333
9.872,1.0,-70.08355821898519
