freq,mag,phase
6.0,0.9999924196238847,48.42479745688465
6.008,0.9999926114254002,48.23480767769823
6.016,0.9999927978898485,48.04477212774552
6.024,0.9999929791294239,47.85469081903545
6.032,0.9999931552547098,47.664563763993804
6.04,0.9999933263746932,47.474390975463386
6.048,0.999993492596778,47.28417246670396
6.056,0.999993654026799,47.09390825139226
6.064,0.9999938107690349,46.903598343621994
6.072,0.9999939629262248,46.7132427579039
6.08,0.9999941105995783,46.52284150916565
6.088,0.9999942538887926,46.33239461275189
6.096,0.9999943928920637,46.14190208442422
6.104,0.9999945277061011,45.951363940361084
6.112,0.9999946584261413,45.76078019715784
6.12,0.9999947851459613,45.57015087182666
6.128,0.999994907957892,45.379475981796446
6.136,0.9999950269528307,45.1887555449128
6.144,0.9999951422202565,44.99798957943802
6.152,0.9999952538482418,44.807178104050905
6.16,0.9999953619234664,44.61632113784673
6.168,0.9999954665312301,44.4254187003372
6.176,0.9999955677554664,44.23447081145028
6.184,0.9999956656787559,44.04347749153015
6.192,0.9999957603823381,43.85243876133702
6.2,0.9999958519461252,43.66135464204712
6.208,0.9999959404487161,43.47022515525251
6.216,0.9999960259674068,43.27905032296091
6.224,0.999996108578205,43.08783016759564
6.232,0.9999961883558429,42.89656471199545
6.24,0.9999962653737895,42.70525397941432
6.248,0.9999963397042627,42.513897993521404
6.256,0.9999964114182434,42.32249677840072
6.264,0.9999964805854857,42.131050358551086
6.272,0.9999965472745329,41.939558758885944
6.28,0.9999966115527268,41.74802200473305
6.288,0.9999966734862207,41.55644012183447
6.296,0.9999967331399936,41.36481313634618
6.304,0.9999967905778603,41.17314107483796
6.312,0.9999968458624853,40.981423964293235
6.32,0.9999968990553932,40.789661832108685
6.328,0.9999969502169829,40.59785470609419
6.336,0.999996999406538,40.40600261447247
6.344,0.9999970466822394,40.21410558587892
6.352,0.9999970921011776,40.02216364936126
6.36,0.9999971357193645,39.83017683437943
6.368,0.9999971775917446,39.63814517080517
6.376,0.9999972177722075,39.446068688921805
6.384,0.9999972563135994,39.253947419424065
6.392,0.9999972932677349,39.06178139341763
6.4,0.999997328685408,38.869570642418914
6.408,0.999997362616405,38.67731519835482
6.416,0.9999973951095148,38.485015093562325
6.424,0.9999974262125401,38.29267036078828
6.432,0.9999974559723106,38.100281033188985
6.44,0.9999974844346923,37.907847144329935
6.448,0.9999975116446002,37.71536872818545
6.456,0.9999975376460086,37.52284581913836
6.464,0.9999975624819629,37.33027845197962
6.472,0.9999975861945902,37.13766666190802
6.48,0.9999976088251111,36.9450104845297
6.4879999999999995,0.9999976304138497,36.75230995585796
6.496,0.9999976510002453,36.5595651123127
6.504,0.9999976706228628,36.36677599072023
6.5120000000000005,0.9999976893194044,36.1739426283126
6.52,0.9999977071267185,35.981065062727644
6.5280000000000005,0.9999977240808126,35.788143332008055
6.536,0.9999977402168627,35.595177474601456
6.5440000000000005,0.9999977555692241,35.402167529359545
6.552,0.9999977701714413,35.20911353553813
6.5600000000000005,0.9999977840562604,35.01601553279625
6.568,0.999997797255637,34.822873561196126
6.5760000000000005,0.9999978098007485,34.6296876612024
6.584,0.9999978217220031,34.43645787368197
6.592,0.9999978330490512,34.24318423990327
6.6,0.9999978438107943,34.04986680153602
6.608,0.9999978540353959,33.85650560065063
6.616,0.9999978637502918,33.66310067971779
6.624,0.9999978729821992,33.469652081607926
6.632,0.9999978817571272,33.276159849590805
6.64,0.9999978901003865,33.08262402733491
6.648,0.9999978980365997,32.88904465890709
6.656,0.9999979055897104,32.69542178877189
6.664,0.9999979127829923,32.50175546179119
6.672,0.9999979196390613,32.30804572322358
6.68,0.9999979261798814,32.114292618723844
6.688,0.999997932426778,31.92049619434247
6.696,0.9999979384004443,31.726656496525074
6.704,0.9999979441209529,31.532773572111875
6.712,0.9999979496077631,31.338847468337104
6.72,0.9999979548797323,31.144878232828482
6.728,0.9999979599551228,30.950865913606616
6.736,0.9999979648516133,30.756810559084506
6.744,0.9999979695863067,30.56271221806681
6.752,0.999997974175739,30.368570939749446
6.76,0.9999979786358891,30.174386773718844
6.768,0.9999979829821869,29.98015976995145
6.776,0.999997987229522,29.785889978813046
6.784,0.9999979913922538,29.5915774510582
6.792,0.9999979954842185,29.397222237829595
6.8,0.999997999518739,29.20282439065746
6.808,0.999998003508633,29.008383961458883
6.816,0.9999980074662213,28.81390100253721
6.824,0.9999980114033367,28.619375566581397
6.832,0.9999980153313325,28.424807706665327
6.84,0.99999801926109,28.23019747624723
6.848,0.9999980232030277,28.03554492916893
6.856,0.9999980271671094,27.84085011965523
6.864,0.9999980311628515,27.646113102313244
6.872,0.9999980351993322,27.451333932131682
6.88,0.999998039285199,27.256512664480184
6.888,0.9999980434286768,27.061649355108642
6.896,0.9999980476375755,26.866744060146452
6.904,0.9999980519192981,26.67179683610186
6.912,0.9999980562808487,26.476807739861215
6.92,0.99999806072884,26.281776828688294
6.928,0.9999980652695009,26.086704160223526
6.936,0.9999980699086836,25.89158979248329
6.944,0.9999980746518727,25.696433783859202
6.952,0.9999980795041911,25.501236193117315
6.96,0.999998084470408,25.30599707939744
6.968,0.9999980895549464,25.110716502212313
6.976,0.9999980947618903,24.915394521446945
6.984,0.999998100094992,24.72003119735772
6.992,0.9999981055576784,24.52462659057176
7.0,0.9999981111530599,24.329180762086043
7.008,0.9999981168839359,24.133693773266675
7.016,0.999998122752802,23.9381656858481
7.024,0.9999981287618577,23.742596561932263
7.032,0.9999981349130128,23.546986463987853
7.04,0.9999981412078937,23.351335454849508
7.048,0.9999981476478511,23.15564359771693
7.056,0.9999981542339657,22.959910956154165
7.064,0.9999981609670562,22.76413759408867
7.072,0.9999981678476838,22.568323575810602
7.08,0.9999981748761614,22.372468965971873
7.088,0.9999981820525563,22.176573829585394
7.096,0.9999981893767007,21.980638232024194
7.104,0.9999981968481956,21.784662239020527
7.112,0.9999982044664171,21.588645916665108
7.12,0.9999982122305232,21.392589331406157
7.128,0.99999822013946,21.196492550048596
7.136,0.9999982281919673,21.000355639753117
7.144,0.9999982363865848,20.80417866803536
7.152,0.999998244721658,20.607961702765014
7.16,0.9999982531953445,20.411704812164846
7.168,0.9999982618056192,20.215408064809942
7.176,0.9999982705502805,20.019071529626697
7.184,0.9999982794269552,19.822695275891938
7.192,0.9999982884331058,19.626279373232045
7.2,0.9999982975660345,19.42982389162197
7.208,0.9999983068228894,19.233328901384375
7.216,0.9999983162006697,19.036794473188657
7.224,0.9999983256962316,18.840220678050034
7.232,0.9999983353062928,18.64360758732861
7.24,0.9999983450274387,18.446955272728406
7.248,0.999998354856127,18.25026380629645
7.256,0.9999983647886931,18.053533260421762
7.264,0.9999983748213551,17.85676370783447
7.272,0.9999983849502194,17.65995522160477
7.28,0.9999983951712844,17.463107875141993
7.288,0.9999984054804468,17.266221742193625
7.296,0.9999984158735058,17.0692968968443
7.304,0.9999984263461676,16.87233341351489
7.312,0.999998436894051,16.675331366961412
7.32,0.9999984475126916,16.478290832274062
7.328,0.9999984581975465,16.281211884876278
7.336,0.9999984689439982,16.084094600523656
7.344,0.9999984797473606,15.886939055302946
7.352,0.9999984906028822,15.689745325631092
7.36,0.999998501505751,15.492513488254144
7.368,0.9999985124510986,15.295243620246259
7.376,0.999998523434005,15.097935799008685
7.384,0.9999985344495018,14.900590102268701
7.392,0.9999985454925778,14.703206608078546
7.4,0.999998556558182,14.505785394814467
7.4079999999999995,0.9999985676412277,14.308326541175596
7.416,0.9999985787365967,14.11083012618282
7.4239999999999995,0.9999985898391445,13.913296229177954
7.432,0.9999986009437015,13.715724929822366
7.4399999999999995,0.9999986120450791,13.51811630809624
7.448,0.9999986231380725,13.32047044429714
7.4559999999999995,0.9999986342174652,13.122787419039312
7.464,0.9999986452780306,12.925067313252223
7.4719999999999995,0.9999986563145387,12.727310208179814
7.48,0.999998667321757,12.529516185379098
7.4879999999999995,0.9999986782944555,12.331685326719358
7.496,0.9999986892274091,12.133817714380744
7.504,0.9999987001154022,11.935913430853489
7.5120000000000005,0.9999987109532306,11.737972558936436
7.52,0.9999987217357057,11.53999518173629
7.5280000000000005,0.999998732457658,11.341981382666164
7.536,0.9999987431139394,11.143931245444751
7.5440000000000005,0.9999987536994265,10.945844854094902
7.552,0.9999987642090241,10.747722292942797
7.5600000000000005,0.9999987746376677,10.549563646616482
7.568,0.9999987849803267,10.351369000045075
7.5760000000000005,0.9999987952320077,10.153138438457242
7.584,0.9999988053877559,9.954872047380446
7.5920000000000005,0.99999881544266,9.75656991263939
7.6,0.9999988253918529,9.558232120355225
7.6080000000000005,0.9999988352305155,9.359858756944062
7.616,0.9999988449538794,9.1614499091161
7.6240000000000006,0.9999988545572289,8.96300566387416
7.632,0.9999988640359038,8.764526108512815
7.640000000000001,0.9999988733853019,8.566011330616886
7.648,0.9999988826008812,8.367461418060591
7.656000000000001,0.999998891678163,8.168876459006013
7.664,0.9999989006127322,7.970256541902263
7.672,0.999998909400243,7.771601755483939
7.68,0.9999989180364178,7.572912188770181
7.688,0.9999989265170505,7.3741879310633465
7.696,0.9999989348380096,7.175429071947836
7.704,0.999998942995239,6.9766357012888545
7.712,0.9999989509847607,6.777807909231231
7.72,0.9999989588026756,6.578945786198168
7.728,0.9999989664451681,6.380049422890026
7.736,0.9999989739085041,6.181118910283108
7.744,0.9999989811890363,5.982154339628418
7.752,0.9999989882832041,5.783155802450411
7.76,0.9999989951875358,5.584123390545773
7.768,0.9999990018986502,5.385057195982181
7.776,0.9999990084132584,5.185957311097041
7.784,0.9999990147281649,4.98682382849625
7.792,0.9999990208402696,4.787656841052925
7.8,0.9999990267465695,4.588456441906167
7.808,0.9999990324441587,4.389222724459793
7.816,0.9999990379302324,4.189955782381062
7.824,0.9999990432020853,3.990655709599414
7.832,0.9999990482571148,3.7913226003052087
7.84,0.9999990530928218,3.591956548948425
7.848,0.9999990577068119,3.392557650237412
7.856,0.9999990620967957,3.1931259991375858
7.864,0.9999990662605915,2.993661690870153
7.872,0.9999990701961251,2.794164820910825
7.88,0.9999990739014317,2.594635484988517
7.888,0.9999990773746559,2.3950737790840666
7.896,0.9999990806140533,2.195479799428921
7.904,0.9999990836179914,1.9958536425038467
7.912,0.9999990863849502,1.7961954050376194
7.92,0.999999088913523,1.5965051840057163
7.928,0.9999990912024171,1.39678307662901
7.936,0.9999990932504554,1.1970291803724473
7.944,0.9999990950565758,0.9972435929437381
7.952,0.999999096619832,0.7974264122920328
7.96,0.9999990979393952,0.597577736606599
7.968,0.9999990990145534,0.39769766431549597
7.976,0.9999990998447127,0.19778629408424628
7.984,0.9999991004293974,-0.0021562751854986377
7.992,0.9999991007682502,-0.20212994435729048
8.0,0.9999991008610333,-0.4021346140612242
8.008,0.9999991007076284,-0.6021701846952553
8.016,0.9999991003080366,-0.8022365564266546
8.024000000000001,0.9999990996623794,-1.0023336291931548
8.032,0.9999990987708982,-1.2024613027044102
8.04,0.9999990976339549,-1.402619476443439
8.048,0.9999990962520323,-1.6028080496678865
8.056000000000001,0.9999990946257336,-1.8030269214112935
8.064,0.999999092755783,-2.0032759904845485
8.072,0.9999990906430251,-2.2035551554773365
8.08,0.9999990882884262,-2.4038643147594136
8.088000000000001,0.9999990856930722,-2.604203366481889
8.096,0.9999990828581704,-2.8045722085786853
8.104,0.9999990797850493,-3.004970738767992
8.112,0.9999990764751566,-3.2053988545535623
8.120000000000001,0.9999990729300615,-3.405856453225993
8.128,0.9999990691514524,-3.6063434318642056
8.136,0.9999990651411386,-3.8068596873368965
8.144,0.999999060901047,-4.007405116303861
8.152000000000001,0.999999056433226,-4.207979615217264
8.16,0.9999990517398418,-4.408583080323139
8.168,0.9999990468231789,-4.609215407662864
8.176,0.9999990416856406,-4.809876493074453
8.184000000000001,0.9999990363297473,-5.010566232193887
8.192,0.9999990307581366,-5.211284520456581
8.2,0.9999990249735631,-5.412031253098882
8.208,0.9999990189788976,-5.612806325159384
8.216000000000001,0.999999012777126,-5.813609631480249
8.224,0.9999990063713494,-6.014441066708684
8.232,0.9999989997647832,-6.215300525298459
8.24,0.9999989929607564,-6.416187901511226
8.248000000000001,0.9999989859627111,-6.617103089417832
8.256,0.9999989787742011,-6.818045982899838
8.264,0.9999989713988919,-7.019016475651015
8.272,0.99999896384056,-7.220014461178672
8.280000000000001,0.9999989561030919,-7.421039832805001
8.288,0.9999989481904824,-7.622092483668577
8.296,0.9999989401068351,-7.823172306725869
8.304,0.9999989318563604,-8.024279194752603
8.312,0.9999989234433748,-8.225413040345018
8.32,0.9999989148723017,-8.42657373592164
8.328,0.9999989061476668,-8.627761173724341
8.336,0.999998897274101,-8.82897524582013
8.344,0.999998888256336,-9.030215844102242
8.352,0.9999988790992065,-9.231482860291921
8.36,0.9999988698076456,-9.432776185939504
8.368,0.9999988603866877,-9.634095712426218
8.376,0.999998850841463,-9.835441330965276
8.384,0.9999988411772,-10.036812932603658
8.392,0.9999988313992226,-10.238210408223198
8.4,0.9999988215129489,-10.439633648542415
8.408,0.9999988115238907,-10.64108254411758
8.416,0.9999988014376513,-10.84255698534453
8.424,0.9999987912599252,-11.044056862459744
8.432,0.9999987809964962,-11.24558206554218
8.44,0.999998770653236,-11.44713248451437
8.448,0.999998760236104,-11.648708009144185
8.456,0.9999987497511441,-11.850308529046002
8.464,0.9999987392044846,-12.051933933682472
8.472,0.9999987286023371,-12.253584112365623
8.48,0.9999987179509937,-12.455258954258705
8.488,0.9999987072568267,-12.65695834837727
8.496,0.9999986965262873,-12.858682183590993
8.504,0.999998685765903,-13.06043034862478
8.512,0.9999986749822771,-13.262202732060608
8.52,0.9999986641820867,-13.46399922233859
8.528,0.9999986533720815,-13.66581970775885
8.536,0.9999986425590824,-13.867664076482583
8.544,0.9999986317499796,-14.069532216533924
8.552,0.9999986209517303,-14.271424015801035
8.56,0.9999986101713589,-14.47333936203794
8.568,0.9999985994159541,-14.675278142865633
8.576,0.9999985886926676,-14.877240245773915
8.584,0.9999985780087122,-15.079225558122497
8.592,0.9999985673713611,-15.281233967142867
8.6,0.9999985567879449,-15.483265359939335
8.608,0.999998546265851,-15.685319623490972
8.616,0.9999985358125214,-15.887396644652599
8.624,0.9999985254354508,-16.089496310156743
8.632,0.999998515142186,-16.291618506614686
8.64,0.9999985049403226,-16.49376312051831
8.648,0.9999984948375044,-16.695930038241237
8.656,0.9999984848414212,-16.89811914604065
8.664,0.9999984749598074,-17.10033033005843
8.672,0.9999984652004393,-17.302563476322984
8.68,0.9999984555711352,-17.504818470750354
8.688,0.999998446079751,-17.7070951991461
8.696,0.9999984367341807,-17.90939354720637
8.704,0.9999984275423536,-18.11171340051979
8.712,0.9999984185122321,-18.314054644568554
8.72,0.9999984096518112,-18.51641716473029
8.728,0.9999984009691153,-18.718800846279155
8.736,0.9999983924721965,-18.92120557438772
8.744,0.9999983841691338,-19.123631234128055
8.752,0.9999983760680303,-19.32607771047362
8.76,0.999998368177012,-19.528544888300317
8.768,0.9999983605042249,-19.731032652388425
8.776,0.999998353057834,-19.933540887423653
8.784,0.9999983458460217,-20.136069477999047
8.792,0.9999983388769845,-20.33861830861604
8.8,0.9999983321589329,-20.54118726368639
8.808,0.9999983257000881,-20.74377622753323
8.815999999999999,0.9999983195086806,-20.94638508439291
8.824,0.9999983135929486,-21.149013718416345
8.832,0.9999983079611356,-21.351662013670392
8.84,0.999998302621489,-21.554329854139457
8.847999999999999,0.9999982975822578,-21.757017123727046
8.856,0.9999982928516901,-21.95972370625717
8.864,0.9999982884380331,-22.162449485475758
8.872,0.9999982843495289,-22.365194345052224
8.879999999999999,0.9999982805944138,-22.56795816858101
8.888,0.9999982771809167,-22.77074083958307
8.896,0.9999982741172563,-22.97354224150716
8.904,0.9999982714116394,-23.176362257731487
8.911999999999999,0.9999982690722597,-23.37920077156527
8.92,0.9999982671072949,-23.582057666250112
8.928,0.9999982655249048,-23.78493282496146
8.936,0.9999982643332306,-23.987826130810078
8.943999999999999,0.9999982635403917,-24.190737466843743
8.952,0.9999982631544841,-24.393666716048532
8.96,0.9999982631835792,-24.59661376135029
8.968,0.9999982636357206,-24.799578485616177
8.975999999999999,0.9999982645189232,-25.002560771656242
8.984,0.9999982658411712,-25.205560502224838
8.992,0.9999982676104155,-25.40857756002198
9.0,0.9999982698345727,-25.611611827694944
9.008,0.999998272521523,-25.814663187839837
9.016,0.999998275679107,-26.01773152300299
9.024000000000001,0.9999982793151263,-26.22081671568237
9.032,0.9999982834373392,-26.42391864832909
9.04,0.9999982880534601,-26.627037203349055
9.048,0.999998293171158,-26.83017226310429
9.056000000000001,0.9999982987980531,-27.0333237099144
9.064,0.9999983049417168,-27.236491426058045
9.072,0.9999983116096677,-27.43967529377462
9.08,0.9999983188093721,-27.642875195265557
9.088000000000001,0.9999983265482403,-27.84609101269576
9.096,0.9999983348336262,-28.049322628195124
9.104,0.9999983436728237,-28.252569923860182
9.112,0.999998353073067,-28.455832781755397
9.120000000000001,0.9999983630415274,-28.65911108391464
9.128,0.9999983735853117,-28.862404712342673
9.136,0.9999983847114604,-29.06571354901677
9.144,0.9999983964269467,-29.269037475888073
9.152000000000001,0.9999984087386737,-29.47237637488296
9.16,0.9999984216534731,-29.675730127904682
9.168,0.9999984351781033,-29.8790986168348
9.176,0.999998449319248,-30.082481723534702
9.184000000000001,0.9999984640835144,-30.285879329846868
9.192,0.9999984794774308,-30.489291317596496
9.2,0.9999984955074461,-30.69271756859304
9.208,0.9999985121799269,-30.896157964631563
9.216000000000001,0.9999985295011564,-31.099612387494183
9.224,0.9999985474773332,-31.303080718951513
9.232,0.9999985661145684,-31.506562840764357
9.24,0.9999985854188854,-31.710058634684952
9.248000000000001,0.999998605396217,-31.913567982458424
9.256,0.9999986260524046,-32.117090765824294
9.264,0.9999986473931965,-32.320626866518076
9.272,0.9999986694242461,-32.52417616627257
9.280000000000001,0.9999986921511101,-32.7277385468193
9.288,0.9999987155792476,-32.93131388989005
9.296,0.9999987397140178,-33.13490207721833
9.304,0.999998764560679,-33.338502990540924
9.312000000000001,0.9999987901243874,-33.542116511599
9.32,0.9999988164101947,-33.74574252213986
9.328,0.9999988434230469,-33.9493809039184
9.336,0.9999988711677833,-34.15303153869849
9.344,0.9999988996491346,-34.35669430825424
9.352,0.999998928871722,-34.56036909437185
9.36,0.999998958840055,-34.76405577885056
9.368,0.9999989895585303,-34.96775424350463
9.376,0.999999021031431,-35.171464370164266
9.384,0.9999990532629239,-35.375186040677534
9.392,0.99999908625706,-35.57891913691135
9.4,0.9999991200177719,-35.78266354075339
9.408,0.9999991545488723,-35.986419134113035
9.416,0.9999991898540537,-36.1901857989233
9.424,0.9999992259368858,-36.3939634171418
9.432,0.9999992628008165,-36.59775187075263
9.44,0.9999993004491681,-36.801551041767354
9.448,0.9999993388851369,-37.00536081222689
9.456,0.9999993781117937,-37.20918106420253
9.464,0.9999994181320796,-37.4130116797977
9.472,0.9999994589488076,-37.61685254114907
9.48,0.9999995005646604,-37.820703530428354
9.488,0.9999995429821877,-38.02456452984334
9.496,0.9999995862038087,-38.22843542163965
9.504,0.9999996302318074,-38.432316088101906
9.512,0.9999996750683336,-38.63620641155536
9.52,0.9999997207154021,-38.8401062743671
9.528,0.9999997671748895,-39.04401555894772
9.536,0.9999998144485358,-39.24793414775241
9.544,0.9999998625379416,-39.45186192328278
9.552,0.9999999114445686,-39.65579876808783
9.56,0.999999961169737,-39.859744564765755
