freq,mag,phase
6.0,1.0003989065306336,122.35284136105348
6.002287616,1.000031596959194,122.1897262080057
6.004575232,0.999661482994137,122.03201763591153
6.006862848,0.9993130554336898,121.87955802453313
6.009150464,0.999008611549184,121.73189822155719
6.011438592,0.998767294904146,121.58823814187302
6.013726208,0.9986044056290675,121.4475423116717
6.016013824,0.9985304497583828,121.30862763061049
6.01830144,0.998550036090526,121.17011970230809
6.020589056,0.9986621423479968,121.03067729498149
6.022876672,0.9988593413208792,120.8890557610189
6.025164288,0.9991294075182655,120.74401229492992
6.027451904,0.9994552919728587,120.59470915825563
6.029740032,0.9998162440020797,120.440415401795
6.032027648,1.0001893135433688,120.28082810930125
6.034315264,1.0005511473838775,120.11594276991043
6.03660288,1.000878930447824,119.94609051612159
6.038890496,1.0011517877423972,119.77192138920712
6.041178112,1.0013527342373565,119.59433447427124
6.043465728,1.0014689032601143,119.4145120879788
6.045753344,1.001492983725461,119.23366780192175
6.04804096,1.0014234554448733,119.05319073292166
6.050329088,1.001264793276118,118.87438895100273
6.052616704,1.0010266846548252,118.69850393849441
6.05490432,1.0007244610088537,118.52654429381914
6.057191936,1.0003768888018894,118.35928565436667
6.059479552,1.000005911636891,118.19733160801947
6.061767168,0.9996348613140605,118.0407205803219
6.064054784,0.9992875978358803,117.88941531233498
6.0663424,0.9989855604525443,117.74283132438849
6.068630016,0.9987483450904676,117.60023047420587
6.070918144,0.9985907144941859,117.46051202702068
6.07320576,0.998522865240569,117.32249184795364
6.075493376,0.9985491243571605,117.18479050261415
6.077780992,0.998667876978744,117.04608112454905
6.080068608,0.9988714593440405,116.90504517507931
6.082356224,0.9991471082351451,116.76056005217585
6.08464384,0.9994772216763522,116.61169110487158
6.086931456,0.9998413102652247,116.45780857890348
6.089219584,1.0002158696332442,116.29858420383451
6.0915072,1.000577543892408,116.13405417273847
6.093794816,1.0009034419053024,115.96457941924564
6.096082432,1.0011728730998732,115.79079387816505
6.098370048,1.001368976126214,115.61368315997609
6.100657664,1.0014793724056126,115.4343930575552
6.10294528,1.0014970494717301,115.2541879275656
6.105232896,1.0014207402362068,115.07444341509562
6.107520512,1.0012554616717466,114.89644791765231
6.10980864,1.0010115307839775,114.72143044978677
6.112096256,1.0007041431381871,114.55046907891027
6.114383872,1.0003526450474904,114.38430571163896
6.116671488,0.9999793825535728,114.22338100619444
6.118959104,0.999607961909407,114.06793640234898
6.12124672,0.9992614864750817,113.9177363978764
6.123534336,0.9989623677016811,113.77223059555097
6.125821952,0.9987292983183805,113.63066665931984
6.128109568,0.9985773078303725,113.49190926511736
6.130397696,0.9985156551074309,113.35476888690117
6.132685312,0.9985487316096888,113.21784979546294
6.134972928,0.9986741979039038,113.07980621627628
6.137260544,0.9988841904342112,112.93936316472993
6.13954816,0.9991653939452242,112.79535972268748
6.141835776,0.999500156826977,112.64691840235494
6.144123392,0.9998671548205039,112.49337080130172
6.146411008,1.000243205617738,112.33448511986404
6.148699136,1.000604510217886,112.17028035215847
6.150986752,1.000928267850263,112.00112508325817
6.153274368,1.001194053030058,111.82774512555469
6.155561984,1.0013852569278812,111.65106819745218
6.1578496,1.0014897675271102,111.47228897955144
6.160137216,1.0015006661122108,111.29269692733355
6.162424832,1.0014175753540056,111.1136405133915
6.164712448,1.0012455892758279,110.93645339412777
6.167000064,1.0009954995546002,110.76236826575544
6.169288192,1.000682955652974,110.59237931751478
6.171575808,1.0003278853240478,110.42722394417716
6.173863424,0.9999523990591471,110.26739333776234
6.17615104,0.9995803894115727,110.11303917447765
6.178438656,0.9992353115425693,109.96391941656267
6.180726272,0.9989391133710219,109.81948364346283
6.183013888,0.9987104449416498,109.67892852307963
6.185301504,0.9985639744737455,109.54109705726077
6.18758912,0.9985089458583393,109.40479627477083
6.189877248,0.9985489002558551,109.26862407331019
6.192164864,0.9986812257838061,109.1312295809808
6.19445248,0.9988978214388107,108.99132754784029
6.196740096,0.9991846874712454,108.84778635930057
6.199027712,0.9995238235600526,108.69971487180197
6.201315328,0.9998937165729517,108.54651719204251
6.203602944,1.0002710156485273,108.38791688095785
6.20589056,1.0006319080373849,108.22401988909337
6.208178688,1.0009535001440844,108.05517519178208
6.210466304,1.001215475177244,107.88213571392622
6.21275392,1.0014015300468984,107.7058555409847
6.215041536,1.0014998327761466,107.52757672508886
6.217329152,1.0015039401057104,107.34858351719588
6.219616768,1.0014138133762942,107.17021500432922
6.221904384,1.00123510812147,106.99380050322422
6.224192,1.0009788562280835,106.82058061209142
6.226479616,1.0006612888250905,106.65152931998665
6.228767744,1.0003024051096627,106.48741428117717
6.23105536,0.999924824779428,106.32864699919784
6.233342976,0.9995523773906511,106.17537783138283
6.235630592,0.9992087571431479,106.02731224270188
6.237918208,0.9989156627359939,105.88393798572889
6.240205824,0.9986915079003726,105.7443520527235
6.24249344,0.9985509205436628,105.6074442615586
6.244781056,0.9985024118392603,105.47194289266471
6.247068672,0.9985494787929431,105.3364811795126
6.2493568,0.99868894912,105.19971146210173
6.251644416,0.9989120249830062,105.06031398368785
6.253932032,0.9992045761474897,104.91718929264104
6.256219648,0.9995481789965937,104.76944715283658
6.258507264,0.9999209592538161,104.61654151261335
6.26079488,1.0002994061081005,104.45822012572367
6.263082496,1.0006597171865226,104.29453440390688
6.265370112,1.0009788290154646,104.12597706653705
6.26765824,1.0012369993205819,103.95325449249802
6.269945856,1.0014175597902233,103.77737547180959
6.272233472,1.0015095640473743,103.59956217052353
6.274521088,1.0015067286400245,103.42112115959266
6.276808704,1.0014094547617227,103.24344124089545
6.27909632,1.0012237451008401,103.0677846497682
6.281383936,1.0009612673821036,102.8954214541091
6.283671552,1.0006386139316394,102.72732140099323
6.285959168,1.0002759743422518,102.5642013893344
6.288247296,0.9998964565102235,102.40650565223345
6.290534912,0.9995238200481021,102.25428721868614
6.292822528,0.9991817178564236,102.10727116080575
6.295110144,0.9988918826706273,101.96490273363754
6.29739776,0.9986725818123541,101.82627302802938
6.299685376,0.9985379078757634,101.69025505812107
6.301972992,0.9984963907350098,101.55552816291333
6.304260608,0.9985506971587477,101.42073936572476
6.306548224,0.998697342630541,101.28455621658124
6.308836352,0.9989270754912424,101.14561671158195
6.311123968,0.9992252802384186,101.00287359772247
6.313411584,0.9995732842397254,100.85545375997962
6.3156992,0.9999489487365399,100.70280529623567
6.317986816,1.000328434414377,100.54467829792459
6.320274432,1.0006879569118423,100.3812179622196
6.322562048,1.0010046622091207,100.21290662937976
6.324849664,1.0012586003836152,100.0404484761915
6.327137792,1.001433785249717,99.86494333505466
6.329425408,1.0015189563879934,99.6875768488936
6.331713024,1.0015091062458932,99.5096630949286
6.33400064,1.001404438510572,99.33261836292687
6.336288256,1.0012117578508024,99.15774166241181
6.338575872,1.0009430409603248,98.98621509523028
6.340863488,1.0006153294953828,98.81903174939418
6.343151104,1.000249048583621,98.65688818787879
6.34543872,0.9998675684578945,98.5002158094747
6.347726848,0.9994948517864282,98.3490337717368
6.350014464,0.9991544531230994,98.20308429880292
6.35230208,0.9988680973430127,98.06169336272144
6.354589696,0.9986537746662709,97.92396502114252
6.356877312,0.9985253665396204,97.78880735236329
6.359164928,0.9984907830383043,97.65483998917709
6.361452544,0.9985523985609209,97.52068811543762
6.36374016,0.9987062711366365,97.38500812982868
6.366027776,0.9989427067663559,97.246523452671
6.368315904,0.9992467154564594,97.10412311228436
6.37060352,0.9995991546799957,96.95698331838936
6.372891136,0.9999775749624197,96.8045046286224
6.375178752,1.0003579990760687,96.64658384849484
6.377466368,1.0007165676450884,96.4833188342164
6.379753984,1.0010305688475514,96.31519399905017
6.3820416,1.0012801742439887,96.14303864980653
6.384329216,1.001449583680058,95.96782515106577
6.386617344,1.0015281209471636,95.79087953382668
6.38890496,1.001510823366648,95.613489527839
6.391192576,1.0013988133566463,95.43705959048815
6.393480192,1.0011990273771656,95.26289418990116
6.395767808,1.000924106712932,95.09218936520878
6.398055424,1.000591202292563,94.92593304976188
6.40034304,1.0002213880967463,94.7647469506759
6.402630656,0.9998380465391277,94.60907001235371
6.404918272,0.9994653420109132,94.45892002175493
6.4072064,0.9991268931210011,94.31394117786223
6.409494016,0.9988442170912104,94.17352438014308
6.411781632,0.9986350804251511,94.03673593466496
6.414069248,0.9985129631494242,93.90236676200026
6.416356864,0.9984855304343005,93.769118149744
6.41864448,0.9985547417571478,93.63557866636762
6.420932096,0.9987160412537059,93.50039407090762
6.423219712,0.9989592092646378,93.36228662766587
6.425507328,0.9992690126590866,93.2201741590147
6.427795456,0.9996256509919356,93.07322878208804
6.430083072,1.0000068195421767,92.92096066568493
6.432370688,1.0003880878901266,92.763179172242
6.434658304,1.0007456191163024,92.60004230934705
6.43694592,1.0010565916483813,92.43209925828685
6.439233536,1.0013016815867752,92.26015272557473
6.441521152,1.0014651086703932,92.08526832125256
6.443808768,1.001536770360593,91.90869188958088
6.446096896,1.0015120938567386,91.73179919601688
6.448384512,1.0013925393898817,91.55599142362543
6.450672128,1.0011855177207165,91.3825201284433
6.452959744,1.0009042483827006,91.21262895352669
6.45524736,1.0005662413161125,91.04723984888301
6.457534976,1.0001929353931096,90.8870281273443
6.459822592,0.999807843499473,90.73232902895424
6.462110208,0.9994353961269816,90.58316549896628
6.464397824,0.9990989833094359,90.43919241993659
6.466685952,0.9988201395889653,90.29968668636577
6.468973568,0.9986163629697796,90.16374895094742
6.471261184,0.9985008429474453,90.03014319975907
6.4735488,0.9984807822652504,89.89759579907924
6.475836416,0.9985575898166892,89.7646174032069
6.478124032,0.9987263420836702,89.62989939539871
6.480411648,0.998976434655509,89.4921282920326
6.482699264,0.9992919497976461,89.3502881353271
6.48498688,0.9996529458544163,89.20353379228433
6.487275008,1.0000365702197034,89.05137230988696
6.489562624,1.0004185871391134,88.89368862631082
6.49185024,1.000774860270284,88.73069240454558
6.494137856,1.0010828443083815,88.56286025007373
6.496425472,1.0013230314473873,88.3911144334149
6.498713088,1.0014804309479741,88.2165000265093
6.501000704,1.0015450670632382,88.04027787564091
6.50328832,1.001512785634989,87.86386944678235
6.505576448,1.0013854953813621,87.68862204189698
6.507864064,1.00117127833153,87.51585520714384
6.51015168,1.0008836741353473,87.34673797863029
6.512439296,1.0005406159904124,87.18220333990755
6.514726912,1.0001639235437703,87.02293422892429
6.517014528,0.999777216244911,86.86919100355959
6.519302144,0.999405056528927,86.72100052145416
6.52158976,0.9990708891369197,86.5779526305057
6.523877376,0.9987959805678088,86.43938064383414
6.526165504,0.9985978244536695,86.30427864966856
6.52845312,0.99848910791394,86.1714171510427
6.530740736,0.9984765048053094,86.03947901859597
6.533028352,0.9985610653784478,85.90704107506541
6.535315968,0.9987373800666998,85.77272658387872
6.537603584,0.9989943273568559,85.63526578345154
6.5398912,0.9993155972474501,85.49362491749866
6.542178816,0.9996808121953495,85.34702839834125
6.544466432,1.000066986498808,85.19494847299157
6.54675456,1.0004495774796662,85.03732396794418
6.549042176,1.0008043817079328,84.87438513311129
6.551329792,1.0011090436476024,84.70670886765082
6.553617408,1.001344427325971,84.53512827250756
6.555905024,1.0014955731468131,84.36072466390395
6.55819264,1.001552856759388,84.1848431557612
6.560480256,1.0015128003181284,84.00887336381453
6.562767872,1.001377752304558,83.83419469490823
6.565056,1.0011562435437016,83.66209457886137
6.567343616,1.0008623011486988,83.4937440223178
6.569631232,1.000514287934135,83.33002805129918
6.571918848,1.0001341504816557,83.17166259327017
6.574206464,0.9997459304475743,83.01885088160587
6.57649408,0.9993742806074433,82.87160933694253
6.578781696,0.9990425733792347,82.72947559790677
6.581069312,0.9987719047195257,82.59180429858452
6.583356928,0.9985795906039245,82.45746557065445
6.585645056,0.9984776879728582,82.32533059575766
6.587932672,0.9984728310712806,82.1940058599133
6.590220288,0.9985653226567817,82.06205079912152
6.592507904,0.9987492844894952,81.92808830679246
6.59479552,0.9990131602724043,81.79088624950212
6.597083136,0.9993401822109136,81.64942302984596
6.599370752,0.9997095934568097,81.5029108984024
6.601658368,1.000098078095014,81.35091978632556
6.603945984,1.0004810227345957,81.19332590236141
6.606234112,1.0008343118817957,81.03039817985379
6.608521728,1.0011356685707322,80.86277795892244
6.610809344,1.0013658571451345,80.69129685793986
6.61309696,1.0015105069211478,80.5171195065608
6.615384576,1.0015604152871762,80.34155113734829
6.617672192,1.0015124293535127,80.16599600893528
6.619959808,1.001369570717688,79.99185484038296
6.622247424,1.0011407966095258,79.82039658453186
6.624535552,1.0008403683755462,79.65278612596717
6.626823168,1.000487292814386,79.48989975817969
6.629110784,1.0001039636006308,79.33238072274146
6.6313984,0.9997143390591945,79.18051658102226
6.633686016,0.999343269108066,79.03415958418003
6.635973632,0.9990141836468863,78.89295059833685
6.638261248,0.9987480055684868,78.75608138895045
6.640548864,0.9985615343284542,78.62253439449323
6.64283648,0.9984667075552542,78.49107412270666
6.645124608,0.9984696233324325,78.36028913037927
6.647412224,0.9985701536361357,78.22878775991532
6.64969984,0.9987618579768467,78.09516809531019
6.651987456,0.9990326104630003,77.9581762907842
6.654275072,0.9993653190844558,77.81681466109752
6.656562688,0.9997389136562194,77.67037177139412
6.658850304,1.0001295826611083,77.51835349029179
6.66113792,1.0005129535868191,77.36073881153983
6.663426048,1.000864478999307,77.19783663363448
6.665713664,1.0011620484510497,77.03022127337486
6.66800128,1.001386945658794,76.85883975960058
6.670288896,1.001524960464345,76.68488158016115
6.672576512,1.001567336355121,76.50959700710393
6.674864128,1.0015113419944661,76.33443659113787
6.677151744,1.0013604822182243,76.16076746489762
6.67943936,1.0011242488597765,75.9899289845778
6.681726976,1.0008175320966337,75.8230278675749
6.684015104,1.0004595678013617,75.66096086679697
6.68630272,1.0000729256421614,75.50430224501906
6.688590336,0.999682129986416,75.35331659444817
6.690877952,0.9993118742314381,75.20786841154232
6.693165568,0.9989856571776362,75.06750754156911
6.695453184,0.998723908980072,74.9314455488638
6.6977408,0.9985436706736198,74.79863331766589
6.700028416,0.9984561816560144,74.66780673201428
6.702316032,0.9984670697943088,74.53754082433541
6.70460416,0.9985756842674139,74.40641540727263
6.706891776,0.9987751893526127,74.27306882799748
6.709179392,0.9990528806587402,74.13628013730994
6.711467008,0.9993912471282208,73.9949975839336
6.713754624,0.9997689089956163,73.84855013403778
6.71604224,1.000161870089968,73.69650545254254
6.718329856,1.0005452680200784,73.53884799595085
6.720617472,1.0008948298383855,73.37586915051298
6.7229056,1.001188615703139,73.20826860975875
6.725193216,1.0014080227249775,73.03695683022107
6.727480832,1.0015391495552546,72.86312724098931
6.729768448,1.0015738325206265,72.68810021271442
6.732056064,1.0015096471286824,72.51328698579657
6.73434368,1.001350787100542,72.3401231481792
6.736631296,1.0011071787197086,72.16988759550966
6.738918912,1.0007940368286772,72.00367407634369
6.741206528,1.000431169814514,71.84237449896202
6.743494656,1.0000415037533088,71.68655762412452
6.745782272,0.9996495806281004,71.53639822162866
6.748069888,0.9992801878688053,71.39183004443895
6.750357504,0.9989569001291201,71.25231072676895
6.75264512,0.9987001143423242,71.11701703997157
6.754932736,0.9985261102246872,70.98489088289887
6.757220352,0.9984460988718349,70.85463291203381
6.759507968,0.9984650687375319,70.72483343443486
6.761795584,0.998581863773031,70.59408312902882
6.764083712,0.9987892471761635,70.46098066550731
6.766371328,0.9990739398704013,70.32431743495101
6.768658944,0.9994179672421488,70.18307682613803
6.77094656,0.9997994929699653,70.03658483576937
6.773234176,1.00019448746253,69.8844732156141
6.775521792,1.0005778638223684,69.72670685809032
6.777809408,1.0009252971862228,69.56367053414881
6.780097024,1.0012151238229459,69.39599749555116
6.782385152,1.001428833482844,69.2247158664736
6.784672768,1.001552926148513,69.05100361801374
6.786960384,1.0015796850124385,68.87622251937424
6.789248,1.001507280428966,68.70175033687956
6.791535616,1.0013403132046428,68.52906575093701
6.793823232,1.0010891975109495,68.3593602601136
6.796110848,1.0007698354473566,68.19381383896565
6.798398464,1.0004020683477024,68.03326564783399
6.80068608,1.0000094393652932,67.87826389755575
6.802974208,0.9996165140084552,67.72894897580753
6.805261824,0.9992483892225632,67.58519713027948
6.80754944,0.9989282326960615,67.44645898552831
6.809837056,0.998676358857605,67.3119304332358
6.812124672,0.9985089133990854,67.18047053968388
6.814412288,0.9984364478508458,67.05075566356334
6.816699904,0.9984636463440943,66.92139551339757
6.81898752,0.998588900302944,66.7909626113853
6.821275136,0.99880410080276,66.65802697090176
6.823563264,0.9990958038745622,66.52144634744508
6.82585088,0.9994454142251794,66.38020453448951
6.828138496,0.9998308366837123,66.23362304653088
6.830426112,1.000227605479695,66.08136323030965
6.832713728,1.0006107900652128,65.92347876650523
6.835001344,1.000956042250307,65.76030968825052
6.83728896,1.0012416125031995,65.59258034933198
6.839576576,1.0014494514689742,65.42130623159171
6.841864704,1.0015663855238819,65.24767229727671
6.84415232,1.0015850692319244,65.07308328708052
6.846439936,1.0015043299483077,64.8989267616165
6.848727552,1.0013291305883276,64.72664864291608
6.851015168,1.0010705114472103,64.55750369662002
6.853302784,1.000744709653269,64.39262654857349
6.8555904,1.0003722656920087,64.23279424266373
6.857878016,0.9999767664970172,64.07856561605914
6.860165632,0.9995830889387135,63.93005251077783
6.86245376,0.999216194780194,63.7870948102378
6.864741376,0.9988993717091013,63.649153496170136
6.867028992,0.9986527359680377,63.51530481109853
6.869316608,0.9984918993901164,63.38442820314777
6.871604224,0.9984271823666553,63.255258238300996
6.87389184,0.9984627646526294,63.126276021951796
6.876179456,0.9985963589163392,62.996102461857895
6.878467072,0.9988195451650181,62.86334259219034
6.880754688,0.9991181784393822,62.72678469883337
6.883042816,0.9994733273885753,62.58548315967971
6.885330432,0.9998625472901244,62.438764993524806
6.887618048,1.000261093166866,62.28635268091906
6.889905664,1.0006439834439314,62.128288368024414
6.89219328,1.0009867758837092,61.96496340409575
6.894480896,1.0012679193056466,61.79710868105389
6.896768512,1.0014696551678357,61.625797560933776
6.899056128,1.001579333215309,61.45224244469643
6.901344256,1.0015898708694637,61.27781761852165
6.903631872,1.0015005970983417,61.10395134964026
6.905919488,1.001317144049234,60.932079299370706
6.908207104,1.0010510089541877,60.76347305658764
6.91049472,1.0007189445661828,60.599195170936184
6.912782336,1.0003418564165845,60.44006947307432
6.915069952,0.9999435815037008,60.286586253789054
6.917357568,0.999549206791888,60.138846571329644
6.919645184,0.9991838764481819,59.996668431527624
6.921933312,0.9988705495062248,59.859444892224495
6.924220928,0.998629244407502,59.72625720349275
6.926508544,0.9984752967312376,59.595979999214926
6.92879616,0.99841855946581,59.46725804562881
6.931083776,0.998462573761618,59.338640956514176
6.933371392,0.9986047225582811,59.2086806602562
