freq,mag,phase
6.0,0.9999944935963281,86.60483046402553
6.008,0.999995064735044,86.47005829236882
6.016,0.9999956201720301,86.33524845899753
6.024,0.9999961601177373,86.20040094555175
6.032,0.9999966847812299,86.0655157337736
6.04,0.9999971943701903,85.93059280550763
6.048,0.9999976890909197,85.79563214270149
6.056,0.9999981691483408,85.66063372740642
6.064,0.9999986347460011,85.52559754177781
6.072,0.9999990860860741,85.39052356807574
6.08,0.9999995233693623,85.25541178866547
6.088,0.9999999467952995,85.1202621860181
6.096,0.9999999999999999,84.985074742711
6.104,1.0,84.84984944142845
6.112,1.0,84.71458626496202
6.12,1.0,84.57928519621133
6.128,1.0,84.44394621818442
6.136,1.0,84.30856931399832
6.144,1.0,84.17315446687965
6.152,1.0000000000000002,84.03770166016511
6.16,1.0,83.90221087730202
6.168,1.0,83.76668210184887
6.176,1.0,83.63111531747585
6.184,1.0,83.49551050796534
6.192,1.0,83.35986765721256
6.2,1.0,83.22418674922596
6.208,0.9999999999999999,83.08846776812788
6.216,1.0,82.95271069815499
6.224,1.0,82.81691552365888
6.232,0.9999999999999999,82.68108222910654
6.24,0.9999999999999999,82.54521079908092
6.248,1.0,82.4093012182815
6.256,1.0,82.27335347152473
6.264,1.0,82.13736754374463
6.272,1.0,82.00134341999328
6.28,0.9999999999999999,81.86528108544137
6.288,1.0,81.72918052537867
6.296,1.0,81.59304172521468
6.304,1.0,81.45686467047899
6.312,1.0,81.32064934682195
6.32,1.0,81.18439574001508
6.328,0.9999999999999999,81.04810383595166
6.336,1.0,80.91177362064728
6.344,0.9999999999999999,80.7754050802402
6.352,1.0,80.63899820099212
6.36,1.0,80.50255296928843
6.368,1.0,80.36606937163896
6.376,1.0,80.22954739467833
6.384,1.0,80.09298702516658
6.392,1.0,79.9563882499896
6.4,1.0,79.81975105615972
6.408,1.0,79.68307543081613
6.416,0.9999999999999999,79.5463613612255
6.424,1.0,79.40960883478239
6.432,1.0,79.27281783900987
6.44,1.0,79.13598836155995
6.448,1.0,78.99912039021409
6.456,0.9999999999999998,78.86221391288373
6.464,1.0,78.72526891761082
6.472,1.0,78.5882853925683
6.48,0.9999999999999999,78.45126332606057
6.4879999999999995,0.9999999999999999,78.3142027065241
6.496,1.0,78.17710352252777
6.504,1.0,78.0399657627736
6.5120000000000005,1.0,77.90278941609697
6.52,1.0,77.76557447146742
6.5280000000000005,1.0,77.62832091798886
6.536,1.0,77.49102874490035
6.5440000000000005,0.9999999999999999,77.3536979415763
6.552,1.0000000000000002,77.2163284975273
6.5600000000000005,0.9999999999999999,77.07892040240029
6.568,1.0,76.94147364597931
6.5760000000000005,0.9999999999999999,76.8039882181858
6.584,0.9999999999999999,76.66646410907927
6.592,1.0,76.52890130885763
6.6,0.9999999999999999,76.3912998078578
6.608,1.0,76.25365959655612
6.616,1.0,76.11598066556891
6.624,1.0,75.97826300565288
6.632,0.9999999999999999,75.84050660770566
6.64,1.0,75.70271146276632
6.648,0.9999999999999999,75.56487756201577
6.656,0.9999999999999999,75.4270048967773
6.664,0.9999999999999999,75.28909345851707
6.672,0.9999999999999999,75.15114323884455
6.68,1.0,75.01315422951302
6.688,0.9999999999999998,74.87512642242002
6.696,1.0,74.73705980960796
6.704,0.9999999999999999,74.59895438326433
6.712,1.0,74.46081013572247
6.72,1.0,74.32262705946187
6.728,0.9999999999999999,74.18440514710868
6.736,1.0,74.04614439143616
6.744,0.9999999999999999,73.90784478536519
6.752,0.9999999999999999,73.76950632196476
6.76,0.9999999999999998,73.63112899445235
6.768,1.0,73.4927127961945
6.776,1.0,73.35425772070714
6.784,1.0,73.21576376165623
6.792,1.0,73.07723091285807
6.8,0.9999999999999998,72.93865916827986
6.808,0.9999999999999999,72.80004852204009
6.816,1.0,72.66139896840903
6.824,1.0,72.52271050180924
6.832,1.0,72.38398311681591
6.84,1.0,72.24521680815742
6.848,1.0,72.10641157071574
6.856,1.0,71.96756739952687
6.864,1.0,71.82868428978142
6.872,1.0,71.6897622368248
6.88,1.0,71.55080123615798
6.888,1.0,71.41180128343768
6.896,1.0,71.27276237447695
6.904,1.0,71.13368450524563
6.912,1.0,70.99456767187064
6.92,0.9999999999999998,70.85541187063664
6.928,0.9999998653581821,70.71621709798629
6.936,0.9999996873090083,70.57698335052078
6.944,0.9999995094509461,70.43771062500025
6.952,0.9999993318538135,70.2983989183442
6.96,0.9999991545864281,70.15904822763197
6.968,0.9999989777166123,70.01965855010313
6.976,0.9999988013111969,69.88022988315795
6.984,0.9999986254360259,69.74076222435778
6.992,0.99999845015596,69.60125557142553
7.0,0.9999982755348815,69.46170992224607
7.008,0.9999981016356984,69.32212527486668
7.016,0.9999979285203482,69.18250162749742
7.024,0.9999977562498031,69.04283897851161
7.032,0.9999975848840733,68.90313732644626
7.04,0.9999974144822122,68.76339667000238
7.048,0.9999972451023199,68.62361700804558
7.056,0.9999970768015479,68.48379833960631
7.064,0.9999969096361038,68.34394066388039
7.072,0.9999967436612548,68.20404398022933
7.08,0.9999965789313331,68.06410828818088
7.088,0.9999964154997397,67.92413358742925
7.096,0.9999962534189484,67.78411987783576
7.104,0.9999960927405106,67.64406715942899
7.112,0.9999959335150603,67.50397543240535
7.12,0.9999957757923175,67.3638446971295
7.128,0.9999956196210931,67.22367495413457
7.136,0.9999954650492936,67.0834662041228
7.144,0.999995312123925,66.94321844796579
7.152,0.9999951608910971,66.80293168670491
7.16,0.9999950113960295,66.66260592155174
7.168,0.9999948636830539,66.52224115388843
7.176,0.99999471779562,66.38183738526811
7.184,0.9999945737762997,66.2413946174153
7.192,0.9999944316667921,66.10091285222622
7.2,0.9999942915079265,65.96039209176928
7.208,0.9999941533396682,65.8198323382854
7.216,0.9999940172011234,65.6792335941884
7.224,0.999993883130542,65.53859586206546
7.232,0.9999937511653247,65.39791914467735
7.24,0.9999936213420245,65.25720344495893
7.248,0.9999934936963542,65.1164487660195
7.256,0.9999933682631889,64.97565511114315
7.264,0.999993245076572,64.83482248378918
7.272,0.9999931241697185,64.69395088759242
7.28,0.999993005575021,64.55304032636361
7.288,0.9999928893240534,64.41209080408981
7.296,0.9999927754475751,64.27110232493472
7.304,0.9999926639755374,64.13007489323905
7.312,0.9999925549370863,63.98900851352094
7.32,0.999992448360568,63.847903190476245
7.328,0.999992344273534,63.70675892897891
7.336,0.9999922427027443,63.56557573408136
7.344,0.9999921436741739,63.424353611014844
7.352,0.9999920472130159,63.28309256518976
7.36,0.9999919533436877,63.141792602196084
7.368,0.9999918620898345,63.00045372780359
7.376,0.9999917734743339,62.85907594796232
7.384,0.9999916875193021,62.71765926880288
7.392,0.9999916042460971,62.576203696636775
7.4,0.9999915236753243,62.43470923795677
7.4079999999999995,0.9999914458268406,62.29317589943723
7.416,0.9999913707197599,62.151603687934404
7.4239999999999995,0.9999912983724571,62.009992610486904
7.432,0.9999912288025739,61.86834267431585
7.4399999999999995,0.999991162027022,61.72665388682538
7.448,0.9999910980619893,61.584926255602824
7.4559999999999995,0.9999910369229442,61.443159788419166
7.464,0.9999909786246404,61.30135449322924
7.4719999999999995,0.9999909231811213,61.15951037817222
7.48,0.9999908706057252,61.017627451571755
7.4879999999999995,0.999990820911091,60.875705721936505
7.496,0.9999907741091607,60.73374519796017
7.504,0.9999907302111862,60.591745888522134
7.5120000000000005,0.9999906892277344,60.449707802687506
7.52,0.9999906511686899,60.307630949707644
7.5280000000000005,0.9999906160432617,60.165515339020246
7.536,0.9999905838599874,60.023360980249905
7.5440000000000005,0.9999905546267385,59.88116788320819
7.552,0.9999905283507242,59.73893605789413
7.5600000000000005,0.9999905050384975,59.59666551449436
7.568,0.9999904846959592,59.454356263383616
7.5760000000000005,0.9999904673283635,59.31200831512474
7.584,0.9999904529403216,59.16962168046932
7.5920000000000005,0.9999904415358092,59.02719637035768
7.6,0.9999904331181672,58.88473239591943
7.6080000000000005,0.9999904276901111,58.74222976847349
7.616,0.9999904252537334,58.59968849952865
7.6240000000000006,0.9999904258105078,58.45710860078362
7.632,0.9999904293612967,58.314490084127506
7.640000000000001,0.999990435906354,58.17183296163991
7.648,0.9999904454453306,58.029137245591365
7.656000000000001,0.9999904579772794,57.886402948443504
7.664,0.9999904735006607,57.743630082849414
7.672,0.9999904920133461,57.60081866165384
7.68,0.9999905135126244,57.45796869789347
7.688,0.9999905379952055,57.31508020479726
7.696,0.9999905654572268,57.172153195786606
7.704,0.9999905958942567,57.02918768447571
7.712,0.9999906293013001,56.88618368467173
7.72,0.9999906656728037,56.74314121037514
7.728,0.9999907050026607,56.600060275779896
7.736,0.9999907472842153,56.456940895273796
7.744,0.9999907925102683,56.313783083438615
7.752,0.9999908406730817,56.170586855050445
7.76,0.999990891764384,56.027352225079866
7.768,0.9999909457753742,55.88407920869227
7.776,0.9999910026967286,55.74076782124807
7.784,0.9999910625186038,55.597418078302894
7.792,0.9999911252306432,55.4540299956079
7.8,0.99999119082198,55.31060358910995
7.808,0.9999912592812454,55.167138874951895
7.816,0.9999913305965702,55.023635869472756
7.824,0.9999914047555916,54.88009458920797
7.832,0.999991481745458,54.736515050889636
7.84,0.9999915615528335,54.592897271446745
7.848,0.9999916441639036,54.44924126800532
7.856,0.9999917295643794,54.30554705788874
7.864,0.9999918177395029,54.1618146586179
7.872,0.9999919086740517,54.018044087911434
7.88,0.9999920023523452,53.87423536368591
7.888,0.9999920987582477,53.73038850405609
7.896,0.9999921978751752,53.58650352733505
7.904,0.9999922996860992,53.44258045203451
7.912,0.9999924041735513,53.29861929686491
7.92,0.9999925113196303,53.15462008073569
7.928,0.9999926211060044,53.010582822755424
7.936,0.9999927335139189,52.86650754223207
7.944,0.9999928485241987,52.72239425867316
7.952,0.9999929661172554,52.57824299178595
7.96,0.99999308627309,52.43405376147759
7.968,0.9999932089713011,52.28982658785542
7.976,0.9999933341910863,52.145561491227035
7.984,0.9999934619112496,52.00125849210048
7.992,0.9999935921102053,51.856917611184514
8.0,0.9999937247659844,51.71253886938868
8.008,0.9999938598562368,51.56812228782355
8.016,0.9999939973582391,51.42366788780076
8.024000000000001,0.9999941372488981,51.27917569083344
8.032,0.9999942795047561,51.13464571863616
8.04,0.9999944241019961,50.99007799312507
8.048,0.999994571016446,50.84547253641821
8.056000000000001,0.9999947202235849,50.700829370835564
8.064,0.9999948716985466,50.556148518899306
8.072,0.9999950254161254,50.41143000333381
8.08,0.9999951813507806,50.26667384706588
8.088000000000001,0.9999953394766424,50.12188007322494
8.096,0.9999954997675161,49.977048705143154
8.104,0.999995662196886,49.83217976635546
8.112,0.9999958267379231,49.68727328059978
8.120000000000001,0.9999959933634868,49.542329271817245
8.128,0.9999961620461327,49.39734776415222
8.136,0.9999963327581156,49.25232878195247
8.144,0.9999965054713955,49.10727234976918
8.152000000000001,0.9999966801576416,48.962178492357296
8.16,0.9999968567882381,48.81704723467553
8.168,0.9999970353342889,48.6718786018864
8.176,0.9999972157666216,48.526672619356404
8.184000000000001,0.9999973980557942,48.38142931265625
8.192,0.9999975821720988,48.23614870756087
8.2,0.9999977680855656,48.09083083004944
8.208,0.99999795576597,47.945475706305565
8.216000000000001,0.9999981451828363,47.80008336271751
8.224,0.999998336305442,47.6546538258781
8.232,0.9999985291028236,47.509187122584905
8.24,0.9999987235437816,47.36368327984029
8.248000000000001,0.9999989195968839,47.21814232485161
8.256,0.999999117230473,47.07256428503127
8.264,0.9999993164126689,46.92694918799664
8.272,0.9999995171113744,46.78129706157032
8.280000000000001,0.9999997192942804,46.63560793378025
8.288,0.9999999229288707,46.48988183285965
8.296,1.0,46.34411878724717
8.304,1.0,46.19831882558689
8.312,1.0,46.052481976728565
8.32,1.0,45.90660826972744
8.328,1.0000000000000002,45.76069773384459
8.336,0.9999999999999999,45.614750398546676
8.344,1.0,45.46876629350638
8.352,0.9999999999999999,45.32274544860197
8.36,1.0,45.17668789391793
8.368,1.0,45.03059365974445
8.376,1.0,44.88446277657789
8.384,1.0,44.738295275120606
8.392,1.0,44.592091186281095
8.4,1.0,44.44585054117388
8.408,1.0,44.29957337111982
8.416,0.9999999999999999,44.15325970764579
8.424,1.0,44.0069095824851
8.432,1.0,43.8605230275771
8.44,1.0,43.714100075067634
8.448,1.0000000000000002,43.567640757308666
8.456,1.0,43.421145106858646
8.464,1.0,43.27461315648221
8.472,1.0,43.12804493915042
8.48,1.0,42.98144048804071
8.488,1.0,42.83479983653685
8.496,1.0,42.68812301822895
8.504,0.9999999999999999,42.54141006691357
8.512,1.0,42.3946610165935
8.52,1.0,42.247875901478054
8.528,1.0,42.101054755982766
8.536,1.0,41.95419761472959
8.544,1.0,41.80730451254672
8.552,0.9999999999999999,41.66037548446876
8.56,0.9999999999999999,41.51341056573649
8.568,0.9999999999999999,41.366409791797096
8.576,1.0,41.21937319830383
8.584,0.9999999999999999,41.0723008211163
8.592,1.0,40.925192696300186
8.6,1.0,40.7780488601274
8.608,1.0,40.63086934907586
8.616,1.0,40.48365419982963
8.624,1.0,40.336403449278706
8.632,0.9999999999999999,40.18911713451916
8.64,1.0,40.04179529285285
8.648,1.0,39.89443796178766
8.656,1.0,39.74704517903711
8.664,0.9999999999999999,39.599616982520615
8.672,0.9999999999999998,39.45215341036318
8.68,1.0000000000000002,39.304654500895495
8.688,1.0,39.157120292653744
8.696,0.9999999999999999,39.00955082437966
8.704,0.9999999999999999,38.861946135020304
8.712,0.9999999999999999,38.714306263728176
8.72,1.0,38.56663124986089
8.728,1.0,38.41892113298134
8.736,0.9999999999999999,38.27117595285741
8.744,0.9999999999999999,38.1233957494621
8.752,0.9999999999999999,37.9755805629731
8.76,0.9999999999999999,37.8277304337731
8.768,0.9999999999999998,37.67984540244938
8.776,0.9999999999999999,37.53192550979388
8.784,1.0,37.38397079680295
8.792,1.0,37.235981304677416
8.8,1.0,37.08795707482228
8.808,0.9999999999999999,36.939898148846844
8.815999999999999,1.0,36.791804568564295
8.824,0.9999999999999999,36.643676375991824
8.832,1.0000000000000002,36.4955136133504
8.84,0.9999999999999999,36.3473163230647
8.847999999999999,1.0,36.1990845477629
8.856,1.0,36.05081833027654
8.864,0.9999999999999999,35.902517713640506
8.872,1.0,35.75418274109284
8.879999999999999,1.0,35.60581345607447
8.888,1.0,35.457409902229195
8.896,1.0,35.308972123403585
8.904,0.9999999999999998,35.16050016364672
8.911999999999999,0.9999999999999999,35.01199406721
8.92,1.0,34.863453878547084
8.928,1.0,34.71487964231376
8.936,1.0,34.566271403367715
8.943999999999999,0.9999999999999999,34.4176292067683
8.952,0.9999999999999999,34.26895309777645
8.96,0.9999999999999999,34.12024312185455
8.968,1.0,33.9714993246662
8.975999999999999,0.9999999999999999,33.82272175207597
8.984,0.9999999999999999,33.67391045014929
8.992,0.9999999999999999,33.52506546515232
9.0,0.9999999999999999,33.376186843551714
9.008,1.0,33.22727463201432
9.016,0.9999999999999999,33.0783288774071
9.024000000000001,1.0,32.92934962679696
9.032,1.0,32.78033692745052
9.04,1.0,32.631290826833784
9.048,0.9999999999999999,32.48221137261204
9.056000000000001,1.0,32.33309861264973
9.064,0.9999999999999999,32.18395259501017
9.072,0.9999999999999999,32.03477336795517
9.08,1.0,31.885560979945012
9.088000000000001,0.9999999999999999,31.73631547963822
9.096,1.0,31.587036915891296
9.104,1.0,31.437725337758376
9.112,0.9999999999999999,31.288380794491115
9.120000000000001,1.0,31.139003335538504
9.128,1.0000000000000002,30.98959301054656
9.136,1.0,30.84014986935799
9.144,0.9999999999999999,30.69067396201207
9.152000000000001,0.9999999999999999,30.541165338744413
9.16,1.0,30.391624049986667
9.168,1.0,30.242050146366186
9.176,1.0,30.09244367870587
9.184000000000001,1.0,29.94280469802392
9.192,1.0,29.79313325553356
9.2,1.0,29.643429402642624
9.208,0.9999999999999999,29.49369319095347
9.216000000000001,1.0,29.34392467226265
9.224,1.0,29.194123898560655
9.232,1.0,29.044290922031507
9.24,1.0,28.894425795052623
9.248000000000001,1.0,28.744528570194465
9.256,1.0,28.594599300220306
9.264,1.0,28.444638038085827
9.272,1.0,28.294644836938872
9.280000000000001,1.0,28.144619750119226
9.288,0.9999999999999999,27.994562831158266
9.296,1.0,27.844474133778547
9.304,0.9999999999999999,27.694353711893612
9.312000000000001,1.0,27.54420161960769
9.32,0.9999999999999999,27.394017911215375
9.328,1.0,27.243802641201174
9.336,1.0,27.093555864239327
9.344,1.0,26.943277635193507
9.352,1.0,26.792968009116336
9.36,1.0,26.64262704124926
9.368,0.9999999999999999,26.49225478702196
9.376,1.0,26.3418513020523
9.384,0.9999999999999999,26.19141664214573
9.392,1.0,26.04095086329515
9.4,1.0,25.89045402168043
9.408,1.0,25.739926173668124
9.416,1.0,25.589367375811026
9.424,1.0,25.43877768484801
9.432,0.9999999999999999,25.288157157703424
9.44,0.9999999999999999,25.137505851486964
9.448,1.0000000000000002,24.986823823493065
9.456,0.9999999999999999,24.836111131200816
9.464,1.0,24.685367832273293
9.472,1.0,24.534593984557464
9.48,1.0,24.383789646083525
9.488,1.0,24.232954875064856
9.496,1.0,24.082089729897252
9.504,0.9999999999999999,23.93119426915894
9.512,0.9999999999999998,23.78026855160979
9.52,1.0,23.629312636191298
9.528,0.9999999999999999,23.47832658202586
9.536,0.9999999999999999,23.327310448416664
9.544,1.0000000000000002,23.176264294847
9.552,0.9999999999999999,23.025188180980177
9.56,1.0,22.874082166658745
9.568,1.0,22.72294631190447
9.576,0.9999999999999999,22.571780676917562
9.584,0.9999999999999999,22.420585322076583
9.592,0.9999999999999999,22.269360307937724
9.6,1.0,22.11810569523464
9.608,1.0,21.966821544877828
9.616,1.0,21.815507917954356
9.624,1.0,21.664164875727252
9.632,1.0,21.512792479635298
9.64,1.0,21.361390791292326
9.648,1.0,21.20995987248704
9.656,1.0,21.05849978518233
9.664,0.9999999999999999,20.907010591515053
9.672,1.0,20.755492353795336
9.68,1.0,20.6039451345064
9.688,1.0,20.452368996303804
9.696,1.0,20.300764002015274
9.704,0.9999999999999999,20.149130214639985
9.712,1.0,19.99746769734832
9.72,1.0,19.845776513481173
9.728,0.9999999999999999,19.694056726549746
9.736,1.0,19.542308400234738
9.744,0.9999999999999999,19.390531598386257
9.752,1.0,19.23872638502294
9.76,1.0,19.086892824331837
9.768,1.0,18.935030980667587
9.776,0.9999999999999999,18.78314091855224
9.784,0.9999999999999999,18.631222702674492
9.792,1.0,18.4792763978894
9.8,1.0,18.3273020692177
9.808,0.9999999999999999,18.17529978184552
9.816,0.9999999999999999,18.0232696011236
9.824,1.0,17.871211592567093
9.832,0.9999999999999999,17.719125821854753
9.84,0.9999999999999999,17.567012354828673
9.847999999999999,1.0,17.414871257493598
9.856,1.0000000000000002,17.262702596016435
9.864,1.0,17.11050643672584
9.872,0.9999999999999998,16.958282846111587
9.879999999999999,1.0,16.806031890824016
9.888,0.9999999999999999,16.653753637673535
9.896,1.0,16.50144815363016
9.904,1.0,16.349115505822944
9.911999999999999,1.0,16.196755761539272
9.92,1.0,16.04436898822449
9.928,1.0,15.891955253481385
9.936,0.9999999999999999,15.739514625069535
9.943999999999999,1.0,15.587047170904746
9.952,1.0,15.434552959058527
9.96,1.0,15.282032057757586
9.968,0.9999999999999999,15.129484535383252
9.975999999999999,0.9999999999999999,14.976910460470766
9.984,1.0,14.824309901708858
9.992,1.0,14.671682927939223
10.0,0.9999999999999999,14.519029608155797
10.008,1.0,14.366350011504242
10.016,0.9999999999999999,14.213644207281346
10.024000000000001,0.9999999999999999,14.060912264934531
10.032,1.0,13.908154254061214
10.04,1.0,13.755370244408109
10.048,0.9999999999999999,13.60256030587075
10.056000000000001,0.9999999999999999,13.449724508492938
10.064,1.0,13.29686292246607
10.072,0.9999999999999998,13.143975618128495
10.08,1.0,12.991062665964936
10.088000000000001,0.9999999999999999,12.838124136606
10.096,1.0,12.685160100827453
10.104,0.9999999999999999,12.53217062954958
10.112,1.0,12.379155793836604
10.120000000000001,1.0,12.226115664896152
10.128,0.9999999999999999,12.073050314078557
10.136,1.0,11.919959812876172
10.144,0.9999999999999999,11.76684423292279
10.152000000000001,1.0,11.613703645993114
10.16,0.9999999999999999,11.460538124002023
10.168,0.9999999999999998,11.307347739003875
10.176,1.0,11.154132563191949
