freq,mag,phase
6.0,0.99999949492786,104.46534108032598
6.008,0.9999995488977936,104.35937827184803
6.016,0.9999995987964423,104.25339628084667
6.024,0.9999996446995806,104.14739508686806
6.032,0.9999996866823606,104.04137466950719
6.04,0.9999997248193133,103.93533500840815
6.048,0.999999759184351,103.82927608326418
6.056,0.9999997898507695,103.72319787381792
6.064,0.9999998168912495,103.61710035986165
6.072,0.9999998403778593,103.51098352123725
6.08,0.9999998603820568,103.40484733783657
6.088,0.9999998769746907,103.29869178960153
6.096,0.9999998902260041,103.19251685652424
6.104,0.9999999002056348,103.08632251864725
6.112,0.9999999069826185,102.98010875606366
6.12,0.9999999106253906,102.87387554891734
6.128,0.9999999112017879,102.76762287740304
6.136,0.9999999087790513,102.66135072176662
6.144,0.999999903423827,102.55505906230516
6.152,0.9999998952021698,102.44874787936712
6.16,0.9999998841795436,102.3424171533526
6.168,0.9999998704208246,102.23606686471341
6.176,0.999999853990303,102.12969699395329
6.184,0.9999998349516854,102.02330752162803
6.192,0.9999998133680962,101.91689842834568
6.2,0.99999978930208,101.8104696947667
6.208,0.999999762815604,101.7040213016041
6.216,0.9999997339700597,101.59755322962366
6.224,0.9999997028262647,101.49106545964403
6.232,0.9999996694444657,101.38455797253695
6.24,0.9999996338843402,101.27803074922736
6.248,0.9999995962049979,101.17148377069361
6.256,0.9999995564649828,101.0649170179676
6.264,0.999999514722277,100.95833047213496
6.272,0.9999994710343008,100.85172411433516
6.28,0.9999994254579159,100.74509792576175
6.288,0.9999993780494268,100.63845188766247
6.296,0.9999993288645839,100.53178598133941
6.304,0.9999992779585841,100.4251001881492
6.312,0.9999992253860744,100.31839448950313
6.32,0.9999991712011531,100.21166886686738
6.328,0.9999991154573722,100.10492330176311
6.336,0.9999990582077394,99.99815777576661
6.344,0.9999989995047207,99.89137227050955
6.352,0.9999989394002412,99.78456676767905
6.36,0.9999988779456885,99.67774124901786
6.368,0.999998815191915,99.57089569632457
6.376,0.9999987511892385,99.46403009145367
6.384,0.9999986859874453,99.35714441631582
6.392,0.9999986196357932,99.25023865287793
6.4,0.9999985521830115,99.1433127831633
6.408,0.9999984836773046,99.03636678925186
6.416,0.999998414166354,98.92940065328027
6.424,0.9999983436973201,98.82241435744206
6.432,0.9999982723168442,98.71540788398785
6.44,0.9999982000710512,98.60838121522546
6.448,0.9999981270055515,98.50133433352002
6.456,0.9999980531654422,98.39426722129423
6.464,0.9999979785953111,98.28717986102843
6.472,0.9999979033392368,98.1800722352608
6.48,0.9999978274407922,98.07294432658749
6.4879999999999995,0.9999977509430464,97.96579611766276
6.496,0.9999976738885664,97.85862759119915
6.504,0.9999975963194192,97.75143872996769
6.5120000000000005,0.9999975182771751,97.6442295167979
6.52,0.9999974398029081,97.53699993457815
6.5280000000000005,0.9999973609371993,97.42974996625554
6.536,0.9999972817201387,97.32247959483641
6.5440000000000005,0.9999972021913268,97.21518880338608
6.552,0.9999971223898776,97.10787757502936
6.5600000000000005,0.9999970423544207,97.00054589295048
6.568,0.9999969621231021,96.89319374039333
6.5760000000000005,0.9999968817335882,96.78582110066155
6.584,0.999996801223067,96.67842795711877
6.592,0.9999967206282502,96.57101429318863
6.6,0.9999966399853751,96.46358009235507
6.608,0.9999965593302079,96.35612533816237
6.616,0.9999964786980443,96.24865001421533
6.624,0.9999963981237131,96.14115410417945
6.632,0.9999963176415776,96.033637591781
6.64,0.9999962372855372,95.92610046080726
6.648,0.9999961570890307,95.8185426951066
6.656,0.999996077085038,95.71096427858865
6.664,0.9999959973060822,95.60336519522441
6.672,0.9999959177842316,95.49574542904644
6.68,0.9999958385511019,95.38810496414901
6.688,0.9999957596378585,95.28044378468819
6.696,0.9999956810752191,95.17276187488204
6.704,0.999995602893455,95.0650592190107
6.712,0.9999955251223933,94.95733580141665
6.72,0.9999954477914204,94.84959160650467
6.728,0.9999953709294821,94.74182661874215
6.736,0.9999952945650874,94.63404082265914
6.744,0.9999952187263101,94.52623420284853
6.752,0.9999951434407905,94.41840674396616
6.76,0.9999950687357386,94.31055843073095
6.768,0.9999949946379356,94.20268924792514
6.776,0.9999949211737358,94.09479918039429
6.784,0.999994848369069,93.9868882130475
6.792,0.9999947762494434,93.87895633085752
6.8,0.9999947048399465,93.77100351886095
6.808,0.9999946341652486,93.66302976215826
6.816,0.9999945642496033,93.55503504591405
6.824,0.9999944951168518,93.44701935535711
6.832,0.9999944267904226,93.33898267578056
6.84,0.9999943592933366,93.23092499254204
6.848,0.9999942926482056,93.1228462910638
6.856,0.9999942268772386,93.01474655683283
6.864,0.9999941620022401,92.90662577540104
6.872,0.9999940980446154,92.79848393238532
6.88,0.9999940350253703,92.69032101346778
6.888,0.9999939729651153,92.5821370043958
6.896,0.9999939118840664,92.47393189098214
6.904,0.9999938518020476,92.3657056591052
6.912,0.9999937927384936,92.25745829470901
6.92,0.9999937347124513,92.14918978380346
6.928,0.9999936777425821,92.04090011246441
6.936,0.9999936218471642,91.93258926683376
6.944,0.9999935670440956,91.82425723311964
6.952,0.9999935133508937,91.71590399759657
6.96,0.9999934607847009,91.6075295466055
6.968,0.9999934093622842,91.49913386655405
6.976,0.9999933591000387,91.3907169439165
6.984,0.9999933100139886,91.28227876523407
6.992,0.999993262119791,91.17381931711492
7.0,0.9999932154327366,91.06533858623438
7.008,0.9999931699677521,90.956836559335
7.016,0.9999931257394036,90.84831322322673
7.024,0.999993082761897,90.739768564787
7.032,0.9999930410490814,90.6312025709609
7.04,0.999993000614451,90.52261522876124
7.048,0.9999929614711468,90.41400652526879
7.056,0.9999929236319598,90.30537644763223
7.064,0.9999928871093313,90.19672498306842
7.072,0.9999928519153576,90.08805211886249
7.08,0.9999928180617899,89.97935784236795
7.088,0.9999927855600375,89.87064214100678
7.096,0.9999927544211703,89.76190500226961
7.104,0.9999927246559205,89.65314641371583
7.112,0.9999926962746841,89.54436636297369
7.12,0.9999926692875242,89.43556483774043
7.128,0.9999926437041733,89.3267418257824
7.136,0.9999926195340337,89.2178973149352
7.144,0.9999925967861818,89.10903129310377
7.152,0.9999925754693684,89.00014374826254
7.16,0.9999925555920226,88.89123466845552
7.168,0.9999925371622529,88.78230404179646
7.176,0.9999925201878491,88.67335185646891
7.184,0.9999925046762856,88.5643781007264
7.192,0.9999924906347228,88.45538276289248
7.2,0.9999924780700087,88.34636583136094
7.208,0.9999924669886824,88.23732729459584
7.216,0.9999924573969753,88.12826714113169
7.224,0.9999924493008134,88.0191853595735
7.232,0.9999924427058199,87.91008193859692
7.24,0.9999924376173169,87.8009568669484
7.248,0.9999924340403276,87.69181013344526
7.256,0.9999924319795784,87.58264172697581
7.264,0.9999924314395016,87.47345163649943
7.272,0.9999924324242364,87.3642398510468
7.28,0.999992434937633,87.25500635971987
7.288,0.9999924389832521,87.14575115169202
7.296,0.9999924445643698,87.03647421620828
7.304,0.9999924516839773,86.92717554258522
7.312,0.9999924603447847,86.81785512021129
7.32,0.9999924705492226,86.70851293854678
7.328,0.9999924822994444,86.59914898712398
7.336,0.9999924955973283,86.4897632555473
7.344,0.9999925104444781,86.3803557334934
7.352,0.999992526842229,86.27092641071121
7.36,0.9999925447916457,86.16147527702209
7.368,0.9999925642935268,86.05200232232
7.376,0.9999925853484062,85.94250753657153
7.384,0.9999926079565555,85.83299090981595
7.392,0.9999926321179864,85.7234524321655
7.4,0.999992657832452,85.61389209380532
7.4079999999999995,0.999992685099449,85.50430988499367
7.416,0.9999927139182216,85.39470579606191
7.4239999999999995,0.9999927442877609,85.28507981741478
7.432,0.9999927762068092,85.17543193953031
7.4399999999999995,0.9999928096738604,85.06576215296012
7.448,0.9999928446871641,84.9560704483293
7.4559999999999995,0.9999928812447257,84.84635681633675
7.464,0.9999929193443104,84.73662124775508
7.4719999999999995,0.9999929589834439,84.62686373343087
7.48,0.9999930001594146,84.51708426428459
7.4879999999999995,0.9999930428692766,84.40728283131097
7.496,0.9999930871098511,84.29745942557875
7.504,0.9999931328777291,84.18761403823115
7.5120000000000005,0.9999931801692725,84.07774666048563
7.52,0.9999932289806174,83.96785728363427
7.5280000000000005,0.9999932793076752,83.85794589904366
7.536,0.9999933311461358,83.74801249815513
7.5440000000000005,0.999993384491468,83.63805707248474
7.552,0.9999934393389238,83.52807961362352
7.5600000000000005,0.9999934956835387,83.41808011323738
7.568,0.9999935535201341,83.30805856306742
7.5760000000000005,0.9999936128433207,83.19801495492979
7.584,0.9999936736474987,83.087949280716
7.5920000000000005,0.9999937359268616,82.97786153239285
7.6,0.9999937996753965,82.86775170200269
7.6080000000000005,0.9999938648868882,82.75761978166328
7.616,0.9999939315549199,82.64746576356814
7.6240000000000006,0.9999939996728752,82.53728963998643
7.632,0.9999940692339413,82.42709140326322
7.640000000000001,0.9999941402311099,82.3168710458194
7.648,0.9999942126571799,82.20662856015197
7.656000000000001,0.9999942865047596,82.0963639388339
7.664,0.9999943617662681,81.98607717451448
7.672,0.999994438433938,81.87576825991913
7.68,0.9999945164998171,81.76543718784973
7.688,0.9999945959557711,81.65508395118458
7.696,0.9999946767934845,81.54470854287851
7.704,0.9999947590044636,81.43431095596299
7.712,0.9999948425800382,81.32389118354617
7.72,0.9999949275113639,81.21344921881303
7.728,0.9999950137894238,81.1029850550254
7.736,0.9999951014050309,80.9924986855221
7.744,0.9999951903488294,80.88199010371898
7.752,0.9999952806112984,80.77145930310903
7.76,0.9999953721827519,80.66090627726248
7.768,0.9999954650533419,80.55033101982681
7.776,0.9999955592130609,80.43973352452696
7.784,0.9999956546517426,80.32911378516523
7.792,0.9999957513590652,80.21847179562157
7.8,0.9999958493245525,80.10780754985346
7.808,0.9999959485375767,79.99712104189618
7.816,0.99999604898736,79.8864122658627
7.824,0.9999961506629763,79.77568121594396
7.832,0.9999962535533541,79.66492788640875
7.84,0.9999963576472773,79.55415227160391
7.848,0.9999964629333888,79.4433543659544
7.856,0.9999965694001905,79.33253416396336
7.864,0.9999966770360476,79.22169166021216
7.872,0.9999967858291885,79.11082684936048
7.88,0.999996895767708,78.99993972614644
7.888,0.9999970068395689,78.88903028538661
7.896,0.9999971190326045,78.77809852197616
7.904,0.9999972323345192,78.66714443088884
7.912,0.9999973467328925,78.55616800717709
7.92,0.9999974622151795,78.4451692459722
7.928,0.999997578768713,78.33414814248418
7.936,0.9999976963807066,78.22310469200208
7.944,0.9999978150382549,78.11203888989387
7.952,0.9999979347283366,78.00095073160655
7.96,0.9999980554378174,77.88984021266636
7.968,0.9999981771534489,77.7787073286786
7.976,0.999998299861874,77.66755207532795
7.984,0.9999984235496274,77.55637444837834
7.992,0.9999985482031362,77.44517444367315
8.0,0.9999986738087243,77.33395205713519
8.008,0.9999988003526128,77.22270728476688
8.016,0.9999989278209224,77.11144012265012
8.024000000000001,0.9999990561996747,77.00015056694659
8.032,0.9999991854747957,76.88883861389766
8.04,0.9999993156321163,76.77750425982451
8.048,0.9999994466573742,76.66614750112811
8.056000000000001,0.9999995785362168,76.55476833428945
8.064,0.9999997112542023,76.44336675586948
8.072,0.9999998447968019,76.33194276250914
8.08,0.9999999791494022,76.22049635092954
8.088000000000001,1.0,76.10902751793193
8.096,0.9999999999999999,75.99753626039787
8.104,1.0,75.88602257528906
8.112,1.0,75.77448645964765
8.120000000000001,0.9999999999999998,75.66292791059621
8.128,1.0,75.55134692533778
8.136,0.9999999999999999,75.43974350115586
8.144,0.9999999999999999,75.32811763541454
8.152000000000001,1.0,75.2164693255586
8.16,1.0,75.10479856911356
8.168,1.0,74.99310536368553
8.176,1.0,74.88138970696154
8.184000000000001,0.9999999999999999,74.76965159670945
8.192,1.0,74.65789103077807
8.2,0.9999999999999998,74.54610800709712
8.208,1.0,74.43430252367733
8.216000000000001,0.9999999999999999,74.32247457861057
8.224,1.0,74.21062417006976
8.232,0.9999999999999999,74.09875129630906
8.24,0.9999999999999999,73.98685595566376
8.248000000000001,0.9999999999999999,73.87493814655048
8.256,0.9999999999999998,73.76299786746719
8.264,1.0,73.65103511699316
8.272,1.0,73.5390498937891
8.280000000000001,1.0,73.42704219659718
8.288,0.9999999999999999,73.31501202424114
8.296,1.0,73.20295937562621
8.304,1.0,73.09088424973916
8.312,1.0,72.97878664564857
8.32,0.9999999999999999,72.86666656250455
8.328,0.9999999999999999,72.75452399953909
8.336,0.9999999999999999,72.6423589560658
8.344,1.0,72.53017143148027
8.352,1.0,72.41796142525976
8.36,1.0,72.30572893696366
8.368,1.0,72.19347396623311
8.376,0.9999999999999999,72.08119651279135
8.384,1.0,71.96889657644357
8.392,0.9999999999999998,71.85657415707708
8.4,1.0,71.74422925466118
8.408,1.0,71.63186186924749
8.416,1.0,71.51947200096964
8.424,1.0,71.40705965004356
8.432,0.9999999999999999,71.29462481676734
8.44,0.9999999999999999,71.18216750152148
8.448,0.9999999999999999,71.06968770476867
8.456,1.0,70.95718542705403
8.464,1.0,70.844660669005
8.472,1.0,70.73211343133151
8.48,0.9999999999999999,70.61954371482585
8.488,0.9999999999999999,70.50695152036293
8.496,0.9999999999999999,70.39433684889995
8.504,1.0,70.2816997014769
8.512,1.0,70.16904007921612
8.52,1.0,70.05635798332271
8.528,0.9999999999999999,69.94365341508431
8.536,1.0,69.83092637587127
8.544,1.0,69.71817686713653
8.552,1.0,69.6054048904159
8.56,0.9999999999999999,69.4926104473277
8.568,1.0,69.37979353957327
8.576,0.9999999999999999,69.26695416893652
8.584,0.9999999999999999,69.1540923372843
8.592,1.0,69.0412080465662
8.6,1.0,68.92830129881476
8.608,1.0,68.81537209614531
8.616,0.9999999999999999,68.70242044075617
8.624,1.0,68.58944633492847
8.632,0.9999999999999999,68.47644978102639
8.64,0.9999999999999999,68.363430781497
8.648,1.0,68.25038933887038
8.656,1.0,68.13732545575958
8.664,0.9999999999999999,68.02423913486074
8.672,1.0,67.91113037895289
8.68,0.9999999999999999,67.79799919089828
8.688,0.9999999999999999,67.6848455736421
8.696,0.9999999999999999,67.57166953021269
8.704,1.0,67.45847106372143
8.712,0.9999999999999999,67.34525017736287
8.72,0.9999999999999999,67.23200687441462
8.728,0.9999999999999999,67.11874115823751
8.736,1.0,67.00545303227541
8.744,1.0,66.89214250005544
8.752,0.9999999999999999,66.77880956518781
8.76,1.0,66.66545423136603
8.768,0.9999999999999999,66.55207650236665
8.776,0.9999999999999999,66.43867638204954
8.784,1.0,66.32525387435767
8.792,1.0,66.21180898331737
8.8,1.0,66.09834171303802
8.808,1.0,65.98485206771237
8.815999999999999,1.0,65.87134005161634
8.824,1.0,65.75780566910905
8.832,1.0,65.6442489246329
8.84,0.9999999999999999,65.53066982271362
8.847999999999999,1.0,65.41706836796006
8.856,0.9999999999999999,65.30344456506434
8.864,1.0,65.1897984188019
8.872,1.0,65.07612993403141
8.879999999999999,1.0,64.96243911569478
8.888,1.0,64.84872596881715
8.896,0.9999999999999999,64.73499049850695
8.904,0.9999999999999999,64.62123270995589
8.911999999999999,0.9999999999999999,64.50745260843887
8.92,0.9999999999999999,64.39365019931404
8.928,1.0000000000000002,64.27982548802281
8.936,0.9999999999999999,64.1659784800899
8.943999999999999,0.9999999999999999,64.05210918112317
8.952,1.0,63.938217596813686
8.96,1.0,63.82430373293582
8.968,1.0,63.71036759534716
8.975999999999999,1.0,63.59640918998845
8.984,1.0,63.482428522883616
8.992,1.0,63.368425600139865
9.0,1.0,63.25440042794753
9.008,1.0,63.140353012580114
9.016,1.0,63.02628336039426
9.024000000000001,1.0,62.91219147782982
9.032,1.0,62.79807737140978
9.04,0.9999999999999999,62.683941047740205
9.048,0.9999999999999999,62.56978251351024
9.056000000000001,0.9999999999999999,62.45560177549223
9.064,1.0,62.34139884054156
9.072,0.9999999999999999,62.227173715596635
9.08,1.0,62.11292640767897
9.088000000000001,1.0,61.99865692389306
9.096,1.0,61.8843652714265
9.104,0.9999999999999999,61.77005145754981
9.112,0.9999999999999999,61.65571548961647
9.120000000000001,1.0,61.541357375062994
9.128,1.0,61.426977121408825
9.136,0.9999999999999999,61.31257473625627
9.144,1.0,61.19815022729054
9.152000000000001,1.0,61.083703602279776
9.16,0.9999999999999999,60.96923486907494
9.168,1.0,60.85474403560982
9.176,0.9999999999999999,60.74023110990099
9.184000000000001,0.9999999999999998,60.625696100047804
9.192,0.9999999999999998,60.51113901423245
9.2,1.0,60.39655986071974
9.208,1.0,60.28195864785721
9.216000000000001,1.0,60.16733538407507
9.224,1.0,60.052690077886254
9.232,1.0,59.93802273788619
9.24,1.0,59.823333372752934
9.248000000000001,1.0,59.708621991247135
9.256,1.0,59.59388860221193
9.264,1.0,59.47913321457296
9.272,1.0,59.36435583733827
9.280000000000001,0.9999999999999999,59.249556479598404
9.288,0.9999999999999999,59.13473515052631
9.296,0.9999999999999999,59.01989185937719
9.304,1.0,58.905026615488666
9.312000000000001,1.0,58.79013942828056
9.32,0.9999999999999999,58.67523030725509
9.328,0.9999999999999999,58.5602992619965
9.336,1.0,58.4453463021713
9.344,1.0,58.330371437528186
9.352,1.0,58.21537467789782
9.36,1.0,58.10035603319305
9.368,1.0,57.98531551340864
9.376,1.0,57.870253128621385
9.384,0.9999999999999999,57.755168888989964
9.392,1.0,57.640062804755004
9.4,1.0,57.52493488623887
9.408,1.0,57.40978514384589
9.416,1.0,57.29461358806196
9.424,1.0,57.17942022945482
9.432,1.0,57.064205078673794
9.44,1.0,56.948968146449886
9.448,1.0,56.83370944359561
9.456,1.0,56.71842898100502
9.464,1.0,56.60312676965361
9.472,1.0,56.487802820598354
9.48,1.0,56.372457144977524
9.488,1.0,56.25708975401076
9.496,1.0,56.14170065899891
9.504,1.0,56.02628987132408
9.512,1.0,55.91085740244954
9.52,1.0,55.79540326391964
9.528,1.0,55.67992746735973
9.536,1.0000000000000002,55.56443002447626
9.544,1.0,55.44891094705648
9.552,0.9999999999999999,55.33337024696865
9.56,0.9999999999999999,55.21780793616175
9.568,0.9999999999999999,55.102224026665596
9.576,0.9999999999999999,54.98661853059063
9.584,1.0,54.87099146012802
9.592,0.9999999999999999,54.755342827549406
9.6,1.0000000000000002,54.639672645207085
9.608,1.0,54.52398092553366
9.616,0.9999999999999999,54.408267681042275
9.624,1.0,54.29253292432624
9.632,1.0,54.176776668059304
9.64,1.0,54.06099892499528
9.648,1.0,53.9451997079682
9.656,1.0,53.829379029892095
9.664,1.0,53.713536903761074
9.672,0.9999999999999999,53.59767334264908
9.68,1.0,53.48178835971001
9.688,0.9999999999999999,53.3658819681775
9.696,0.9999999999999999,53.249954181364934
9.704,0.9999999999999999,53.13400501266532
9.712,0.9999999999999999,53.01803447555128
9.72,1.0,52.90204258357489
9.728,0.9999999999999999,52.78602935036776
9.736,1.0,52.66999478964074
9.744,0.9999999999999999,52.553938915184034
9.752,0.9999999999999999,52.437861740867014
9.76,1.0,52.32176328063825
9.768,1.0,52.205643548525295
9.776,1.0000000000000002,52.089502558634756
9.784,0.9999999999999999,51.97334032515202
9.792,1.0,51.85715686234144
9.8,1.0,51.74095218454597
9.808,1.0,51.62472630618735
9.816,1.0,51.50847924176578
9.824,0.9999999999999999,51.392211005860034
9.832,1.0,51.27592161312726
9.84,1.0,51.15961107830298
9.847999999999999,1.0,51.043279416200896
9.856,0.9999999999999999,50.92692664171288
9.864,1.0,50.8105527698089
9.872,1.0,50.69415781553693
9.879999999999999,0.9999999999999999,50.57774179402278
9.888,1.0000000000000002,50.46130472047007
9.896,0.9999999999999999,50.34484661016018
9.904,0.9999999999999999,50.228367478452135
9.911999999999999,1.0,50.11186734078246
9.92,0.9999999999999998,49.99534621266507
9.928,1.0,49.87880410969136
9.936,1.0,49.76224104752988
9.943999999999999,0.9999999999999999,49.64565704192642
9.952,0.9999999999999999,49.529052108703745
9.96,1.0,49.41242626376171
9.968,0.9999999999999999,49.295779523076995
9.975999999999999,0.9999999999999999,49.17911190270304
9.984,1.0,49.062423418769974
9.992,0.9999999999999999,48.94571408748457
10.0,1.0,48.82898392513005
10.008,1.0,48.712232948066
10.016,1.0,48.5954611727283
