freq,mag,phase
6.0,0.9999960583302266,58.08353488377497
6.008,0.9999969250665158,57.843591751701496
6.016,0.9999977653850147,57.60337994471576
6.024,0.9999985796818839,57.36289985724482
6.032,0.9999993683504205,57.12215189115195
6.04,0.9999999999999999,56.88113645576251
6.048,0.9999999999999999,56.639853967889536
6.056,1.0,56.398304851858946
6.064,1.0,56.15648953953451
6.072,1.0,55.91440847034243
6.08,0.9999999999999999,55.672062091295665
6.088,1.0,55.42945085701777
6.096,1.0,55.18657522976661
6.104,0.9999999999999999,54.94343567945754
6.112,1.0,54.700032683686345
6.12,1.0,54.456366727751764
6.128,1.0,54.21243830467772
6.136,0.9999999999999999,53.968247915235004
6.144,0.9999999999999999,53.72379606796298
6.152,1.0,53.479083279190355
6.16,0.9999999999999999,53.23411007305608
6.168,1.0,52.98887698152953
6.176,0.9999999999999999,52.74338454443053
6.184,1.0,52.49763330944871
6.192,0.9999999999999999,52.25162383216273
6.2,1.0,52.00535667605891
6.208,1.0,51.75883241254956
6.216,1.0,51.51205162099076
6.224,0.9999999999999999,51.26501488869991
6.232,1.0,51.01772281097266
6.24,1.0,50.770175991099464
6.248,0.9999999999999999,50.5223750403818
6.256,1.0,50.27432057814778
6.264,1.0,50.026013231767365
6.272,1.0,49.77745363666727
6.28,1.0,49.52864243634515
6.288,1.0,49.27958028238353
6.296,1.0,49.030267834463125
6.304,1.0,48.780705760375874
6.312,1.0,48.530894736037155
6.32,1.0,48.280835445497985
6.328,0.9999999999999999,48.030528580956215
6.336,1.0,47.77997484276769
6.344,1.0,47.52917493945655
6.352,1.0000000000000002,47.27812958772527
6.36,0.9999999999999999,47.02683951246407
6.368,1.0,46.775305446759816
6.376,1.0,46.52352813190445
6.384,1.0,46.27150831740283
6.392,1.0,46.01924676098011
6.4,1.0,45.76674422858854
6.408,0.9999999999999999,45.514001494413755
6.416,0.9999999999999999,45.261019340880424
6.424,1.0,45.00779855865754
6.432,1.0,44.754339946662995
6.44,1.0,44.500644312067614
6.448,1.0,44.24671247029877
6.456,1.0,43.99254524504315
6.464,0.9999999999999999,43.738143468249355
6.472,1.0,43.483507980129474
6.48,1.0,43.22863962916047
6.4879999999999995,0.9999999999999999,42.973539272084736
6.496,1.0,42.718207773910045
6.504,1.0,42.46264600790932
6.5120000000000005,0.9999999999999999,42.20685485561905
6.52,0.9999999999999999,41.950835206837986
6.5280000000000005,0.9999999999999999,41.69458795962443
6.536,1.0,41.43811402029362
6.5440000000000005,1.0,41.18141430341379
6.552,1.0,40.92448973180241
6.5600000000000005,1.0,40.667341236521
6.568,1.0,40.40996975687005
6.5760000000000005,0.9999999999999999,40.15237624038266
6.584,1.0,39.89456164281818
6.592,1.0,39.636526928154616
6.6,0.9999999999999999,39.37827306858086
6.608,1.0,39.1198010444881
6.616,1.0,38.86111184446054
6.624,1.0,38.602206465265525
6.632,0.9999999999999999,38.343085911843076
6.64,1.0,38.08375119729471
6.648,0.9999999999999999,37.82420334287158
6.656,0.9999999999999999,37.56444337796198
6.664,0.9999999999999999,37.30447234007825
6.672,1.0,37.04429127484299
6.68,0.9999999999999999,36.78390123597445
6.688,1.0,36.52330328527163
6.696,1.0,36.2624984925982
6.704,1.0,36.001487935866194
6.712,0.9999999999999999,35.740272701018824
6.72,1.0,35.47885388201259
6.728,0.9999999999999999,35.2172325807988
6.736,1.0,34.95540990730443
6.744,1.0,34.693386979412104
6.752,0.9999999999999999,34.43116492293965
6.76,1.0,34.16874487161885
6.768,1.0,33.90612796707341
6.776,0.9999999999999999,33.64331535879642
6.784,0.9999999999999999,33.380308204127005
6.792,0.9999999999999999,33.11710766822627
6.8,1.0,32.85371492405266
6.808,1.0,32.59013115233653
6.816,1.0,32.326357541554074
6.824,0.9999999999999999,32.06239528790046
6.832,1.0,31.7982455952624
6.84,1.0,31.53390967518998
6.848,1.0,31.26938874686771
6.856,1.0,31.004684037084978
6.864,1.0,30.73979678020573
6.872,1.0,30.47472821813753
6.88,0.9999999999999998,30.209479600299844
6.888,1.0,29.94405218359164
6.896,0.9999999999999999,29.67844723235832
6.904,0.9999999999999999,29.412666018357925
6.912,1.0000000000000002,29.146709820726656
6.92,0.9999999999999999,28.880579925943653
6.928,1.0,28.614277627795175
6.936,1.0,28.34780422733795
6.944,1.0,28.081161032861903
6.952,0.9999999412588031,27.814349359852212
6.96,0.9999996854996863,27.5473705309506
6.968,0.9999994313407183,27.280225875916
6.976,0.999999178869512,27.012916731584408
6.984,0.9999989281716168,26.745444441828262
6.992,0.9999986793305347,26.47781035751486
7.0,0.9999984324277306,26.210015836464308
7.008,0.9999981875426496,25.942062243406667
7.016,0.9999979447527274,25.673950949938448
7.024,0.9999977041334069,25.405683334478404
7.032,0.9999974657581507,25.13726078222267
7.04,0.9999972296984553,24.868684685099204
7.048,0.9999969960238654,24.599956441721556
7.056,0.9999967648019892,24.33107745734194
7.064,0.9999965360985112,24.062049143803645
7.072,0.9999963099772078,23.792872919492847
7.08,0.999996086499961,23.523550209289606
7.088,0.9999958657267741,23.254082444518325
7.096,0.9999956477157858,22.98447106289748
7.104,0.9999954325232852,22.714717508488754
7.112,0.9999952202037266,22.44482323164539
7.12,0.9999950108097451,22.17478968896011
7.128,0.9999948043921711,21.904618343212128
7.136,0.9999946010000454,21.6343106633137
7.144,0.9999944006806356,21.363868124255962
7.152,0.9999942034794502,21.09329220705415
7.16,0.9999940094402545,20.82258439869217
7.168,0.9999938186050867,20.551746192066535
7.176,0.9999936310142726,20.280779085929723
7.184,0.999993446706442,20.00968458483284
7.192,0.9999932657185442,19.73846419906775
7.2,0.9999930880858638,19.46711944460847
7.208,0.9999929138420366,19.195651843052133
7.216,0.999992743019066,18.92406292155917
7.224,0.9999925756473387,18.652354212793
7.232,0.9999924117556401,18.380527254859107
7.24,0.9999922513711725,18.10858359124353
7.248,0.9999920945195694,17.8365247707507
7.256,0.9999919412249124,17.564352347440852
7.264,0.9999917915097486,17.292067880566712
7.272,0.9999916453951049,17.01967293450966
7.28,0.9999915029005064,16.747169078715427
7.288,0.999991364043993,16.474557887629096
7.296,0.9999912288421338,16.201840940629626
7.304,0.9999910973100465,15.929019821963854
7.312,0.9999909694614124,15.656096120679893
7.32,0.9999908453084936,15.383071430560042
7.328,0.9999907248621501,15.109947350053204
7.336,0.9999906081318561,14.836725482206704
7.344,0.9999904951257168,14.563407434597638
7.352,0.9999903858504864,14.289994819263741
7.36,0.9999902803115839,14.01648925263371
7.368,0.9999901785131107,13.742892355457066
7.376,0.9999900804578667,13.469205752733531
7.384,0.9999899861473697,13.195431073641894
7.392,0.9999898955818691,12.921569951468447
7.4,0.9999898087603661,12.647624023534956
7.4079999999999995,0.9999897256806287,12.373594931126156
7.416,0.9999896463392105,12.099484319416677
7.4239999999999995,0.9999895707314665,11.82529383739797
7.432,0.9999894988515715,11.55102513780407
7.4399999999999995,0.9999894306925357,11.276679877037777
7.448,0.9999893662462238,11.00225971509554
7.4559999999999995,0.9999893055033716,10.727766315492849
7.464,0.9999892484536023,10.453201345188287
7.4719999999999995,0.9999891950854451,10.17856647450814
7.48,0.9999891453863523,9.90386337706961
7.4879999999999995,0.9999890993427146,9.629093729704737
7.496,0.9999890569398823,9.354259212382841
7.504,0.999989018162178,9.079361508133703
7.5120000000000005,0.9999889829929177,8.804402302969274
7.52,0.999988951414426,8.529383285806192
7.5280000000000005,0.9999889234080537,8.254306148386823
7.536,0.9999888989541955,7.979172585201043
7.5440000000000005,0.9999888780323065,7.703984293406733
7.552,0.9999888606209206,7.42874297275087
7.5600000000000005,0.9999888466976666,7.153450325489403
7.568,0.9999888362392857,6.878108056307804
7.5760000000000005,0.9999888292216491,6.602717872240333
7.584,0.9999888256197745,6.327281482590021
7.5920000000000005,0.9999888254078438,6.05180059884745
7.6,0.9999888285592203,5.776276934610147
7.6080000000000005,0.9999888350464645,5.500712205500919
7.616,0.9999888448413529,5.225108129086756
7.6240000000000006,0.9999888579148933,4.949466424796657
7.632,0.9999888742373437,4.673788813840144
7.640000000000001,0.9999888937782279,4.39807701912463
7.648,0.9999889165063518,4.122332765173533
7.656000000000001,0.999988942389822,3.84655777804324
7.664,0.9999889713960615,3.570753785240904
7.672,0.9999890034918265,3.29492251564101
7.68,0.999989038643223,3.0190656994027356
7.688,0.9999890768157244,2.7431850678865253
7.696,0.999989117974187,2.4672823535708033
7.704,0.999989162082867,2.1913592899684784
7.712,0.9999892091054365,1.9154176115433255
7.72,0.9999892590050011,1.6394590536262885
7.728,0.9999893117441153,1.36348535233165
7.736,0.9999893672847987,1.0874982444731036
7.744,0.9999894255885527,0.8114994674797803
7.752,0.9999894866163767,0.5354907593121704
7.76,0.999989550328784,0.2594738583779841
7.768,0.9999896166858168,-0.016549496552018556
7.776,0.9999896856470651,-0.29257756642827343
7.784,0.9999897571716789,-0.5686086120066576
7.792,0.9999898312183865,-0.8446408939327873
7.8,0.9999899077455093,-1.120672672826302
7.808,0.9999899867109774,-1.3967022093651875
7.816,0.9999900680723451,-1.6727277643700484
7.824,0.9999901517868071,-1.9487475988883938
7.832,0.9999902378112127,-2.224759974278895
7.84,0.9999903261020819,-2.500763152295596
7.848,0.9999904166156206,-2.7767553951720942
7.856,0.9999905093077346,-3.0527349657056306
7.864,0.9999906041340467,-3.328700127341158
7.872,0.9999907010499087,-3.6046491442553057
7.88,0.9999908000104191,-3.8805802814402663
7.888,0.9999909009704353,-4.156491804787582
7.896,0.9999910038845905,-4.4323819811718295
7.904,0.9999911087073065,-4.708249078534201
7.912,0.9999912153928083,-4.984091365965927
7.92,0.9999913238951387,-5.259907113791614
7.928,0.9999914341681728,-5.535694593652377
7.936,0.9999915461656317,-5.811452078588874
7.944,0.9999916598410954,-6.087177843124151
7.952,0.9999917751480186,-6.362870163346306
7.96,0.9999918920397428,-6.638527316990985
7.968,0.9999920104695107,-6.91414758352368
7.976,0.9999921303904791,-7.189729244221825
7.984,0.9999922517557325,-7.465270582256681
7.992,0.9999923745182965,-7.740769882774994
8.0,0.9999924986311506,-8.016225432980445
8.008,0.9999926240472414,-8.291635522214783
8.016,0.9999927507194947,-8.566998442038964
8.024000000000001,0.9999928786008294,-8.84231248631351
8.032,0.9999930076441692,-9.117575951279147
8.04,0.9999931378024552,-9.392787135637006
8.048,0.9999932690286584,-9.667944340628402
8.056000000000001,0.9999934012757915,-9.94304587011427
8.064,0.9999935344969217,-10.218090030654512
8.072,0.9999936686451815,-10.493075131587128
8.08,0.9999938036737815,-10.767999485106674
8.088000000000001,0.999993939536021,-11.042861406342459
8.096,0.9999940761853007,-11.317659213436624
8.104,0.9999942135751332,-11.592391227621865
8.112,0.9999943516591541,-11.867055773298613
8.120000000000001,0.9999944903911334,-12.141651178111744
8.128,0.9999946297249872,-12.416175773027271
8.136,0.9999947696147863,-12.690627892408605
8.144,0.9999949100147691,-12.965005874092167
8.152000000000001,0.999995050879351,-13.239308059462642
8.16,0.9999951921631351,-13.513532793528046
8.168,0.9999953338209209,-13.787678424994416
8.176,0.9999954758077173,-14.061743306339746
8.184000000000001,0.9999956180787503,-14.33572579388764
8.192,0.9999957605894723,-14.609624247880653
8.2,0.9999959032955733,-14.883437032553221
8.208,0.9999960461529902,-15.157162516203908
8.216000000000001,0.9999961891179143,-15.430799071267222
8.224,0.999996332146803,-15.70434507438512
8.232,0.9999964751963863,-15.977798906478169
8.24,0.9999966182236775,-16.251158952815857
8.248000000000001,0.9999967611859804,-16.52442360308654
8.256,0.9999969040408997,-16.79759125146697
8.264,0.9999970467463466,-17.07066029669156
8.272,0.9999971892605503,-17.34362914212062
8.280000000000001,0.9999973315420633,-17.616496195808384
8.288,0.9999974735497704,-17.889259870570474
8.296,0.9999976152428975,-18.16191858405104
8.304,0.9999977565810163,-18.434470758788997
8.312,0.9999978975240548,-18.70691482228376
8.32,0.9999980380323032,-18.979249207061002
8.328,0.9999981780664208,-19.251472350736893
8.336,0.999998317587443,-19.52358269608288
8.344,0.9999984565567889,-19.795578691088767
8.352,0.9999985949362671,-20.06745878902643
8.36,0.999998732688083,-20.339221448511687
8.368,0.9999988697748434,-20.610865133566882
8.376,0.9999990061595655,-20.882388313681627
8.384,0.9999991418056803,-21.153789463874134
8.392,0.9999992766770395,-21.42506706475087
8.4,0.9999994107379218,-21.69621960256665
8.408,0.9999995439530374,-21.967245569283055
8.416,0.9999996762875341,-22.23814346262735
8.424,0.9999998077070016,-22.508911786149728
8.432,0.9999999381774786,-22.779549049280902
8.44,0.9999999999999999,-23.050053767388178
8.448,1.0,-23.320424461831756
8.456,1.0,-23.59065966001958
8.464,1.0,-23.860757895462363
8.472,0.9999999999999998,-24.130717707827152
8.48,0.9999999999999999,-24.400537642991114
8.488,1.0000000000000002,-24.670216253093752
8.496,1.0,-24.93975209658946
8.504,0.9999999999999999,-25.209143738298394
8.512,1.0,-25.47838974945773
8.52,0.9999999999999999,-25.747488707771232
8.528,1.0,-26.01643919745919
8.536,0.9999999999999999,-26.28523980930666
8.544,0.9999999999999999,-26.553889140712034
8.552,1.0,-26.822385795734018
8.56,1.0,-27.090728385138792
8.568,1.0,-27.358915526445635
8.576,1.0,-27.626945843972834
8.584,1.0,-27.89481796888184
8.592,0.9999999999999999,-28.162530539221834
8.6,1.0,-28.430082199972606
8.608,1.0,-28.697471603087646
8.616,1.0,-28.964697407535688
8.624,1.0,-29.23175827934246
8.632,1.0,-29.49865289163081
8.64,1.0,-29.765379924661083
8.648,1.0,-30.031938065869834
8.656,1.0,-30.298326009908944
8.664,1.0,-30.56454245868278
8.672,0.9999999999999999,-30.83058612138597
8.68,0.9999999999999999,-31.09645571453927
8.688,1.0,-31.36214996202583
8.696,1.0,-31.627667595125725
8.704,1.0000000000000002,-31.893007352550768
8.712,0.9999999999999999,-32.15816798047774
8.72,1.0,-32.42314823258169
8.728,1.0,-32.687946870067876
8.736,1.0,-32.95256266170364
8.744,1.0,-33.216994383848885
8.752,1.0,-33.48124082048663
8.76,1.0,-33.745300763252054
8.768,0.9999999999999999,-34.00917301146164
8.776,0.9999999999999999,-34.2728563721409
8.784,1.0,-34.53634966005208
8.792,0.9999999999999999,-34.799651697720414
8.8,1.0,-35.062761315460605
8.808,0.9999999999999999,-35.325677351401566
8.815999999999999,1.0,-35.588398651511454
8.824,0.9999999999999999,-35.85092406962143
8.832,1.0,-36.11325246744864
8.84,0.9999999999999999,-36.375382714618986
8.847999999999999,1.0,-36.637313688689
8.856,0.9999999999999999,-36.8990442751669
8.864,1.0,-37.160573367532876
8.872,1.0,-37.42189986725906
8.879999999999999,1.0,-37.683022683828746
8.888,1.0,-37.94394073475461
8.896,1.0,-38.20465294559645
8.904,1.0,-38.46515824997829
8.911999999999999,0.9999999999999999,-38.725455589604884
8.92,1.0,-38.98554391427747
8.928,1.0,-39.24542218190851
8.936,1.0,-39.505089358536374
8.943999999999999,0.9999999999999999,-39.764544418339085
8.952,0.9999999999999999,-40.02378634364731
8.96,0.9999999999999999,-40.282814124956715
8.968,1.0,-40.54162676093977
8.975999999999999,1.0000000000000002,-40.800223258456995
8.984,1.0,-41.058602632567286
8.992,1.0,-41.31676390653771
9.0,0.9999999999999999,-41.574706111852734
9.008,0.9999999999999999,-41.832428288222786
9.016,1.0,-42.089929483592236
9.024000000000001,0.9999999999999999,-42.34720875414639
9.032,1.0,-42.604265164318306
9.04,1.0,-42.8610977867949
9.048,1.0,-43.11770570252228
9.056000000000001,1.0,-43.374088000710316
9.064,0.9999999999999998,-43.63024377883696
9.072,1.0,-43.88617214265194
9.08,0.9999999999999999,-44.141872206179514
9.088000000000001,1.0,-44.39734309172072
9.096,1.0,-44.65258392985528
9.104,1.0,-44.907593859442734
9.112,1.0,-45.162372027623
9.120000000000001,1.0,-45.41691758981615
9.128,0.9999999999999999,-45.67122970972191
9.136,0.9999999999999999,-45.92530755931859
9.144,1.0,-46.17915031886116
9.152000000000001,0.9999999999999999,-46.43275717687885
9.16,1.0,-46.686127330172276
9.168,1.0,-46.939259983810146
9.176,0.9999999999999999,-47.192154351125026
9.184000000000001,1.0,-47.444809653708724
9.192,1.0,-47.69722512140726
9.2,1.0,-47.949399992315236
9.208,1.0,-48.20133351276954
9.216000000000001,1.0,-48.453024937342526
9.224,1.0,-48.70447352883476
9.232,1.0,-48.95567855826737
9.24,1.0,-49.20663930487361
9.248000000000001,1.0,-49.45735505608985
9.256,0.9999999999999999,-49.70782510754644
9.264,1.0,-49.958048763057796
9.272,1.0,-50.20802533461209
9.280000000000001,1.0,-50.45775414236017
9.288,0.9999999999999999,-50.70723451460434
9.296,0.9999999999999999,-50.95646578778669
9.304,1.0,-51.20544730647657
9.312000000000001,1.0,-51.454178423357746
9.32,0.9999999999999999,-51.70265849921526
9.328,1.0,-51.95088690292172
9.336,0.9999999999999999,-52.198863011423136
9.344,1.0,-52.44658620972389
9.352,0.9999999999999999,-52.69405589087227
9.36,0.9999999999999999,-52.94127145594429
9.368,1.0,-53.18823231402821
9.376,0.9999999999999999,-53.434937882207684
9.384,0.9999999999999999,-53.68138758554535
9.392,1.0,-53.92758085706506
9.4,0.9999999999999999,-54.17351713773468
9.408,1.0,-54.41919587644745
9.416,1.0,-54.66461653000405
9.424,1.0,-54.90977856309303
9.432,1.0000000000000002,-55.154681448272136
9.44,0.9999999999999999,-55.399324665947994
9.448,1.0,-55.64370770435649
9.456,1.0,-55.88783005954186
9.464,1.0,-56.131691235336255
9.472,0.9999999999999999,-56.37529074333798
9.48,1.0,-56.61862810289049
9.488,1.0,-56.861702841059824
9.496,1.0,-57.10451449261274
9.504,1.0,-57.347062599993684
9.512,1.0,-57.58934671330215
9.52,1.0,-57.83136639026884
9.528,1.0,-58.073121196232385
9.536,1.0,-58.31461070411506
9.544,0.9999999999999999,-58.555834494398596
9.552,0.9999999999999999,-58.79679215509923
9.56,1.0,-59.037483281743164
9.568,1.0,-59.27790747734071
9.576,1.0000000000000002,-59.518064352361215
9.584,1.0,-59.757953524706686
9.592,1.0,-59.99757461968604
9.6,1.0,-60.23692726998814
9.608,1.0,-60.47601111565556
9.616,0.9999999999999999,-60.71482580405697
9.624,0.9999999999999999,-60.95337098986034
9.632,1.0,-61.19164633500487
9.64,1.0000000000000002,-61.42965150867361
9.648,0.9999999111375689,-61.667386187264874
9.656,0.9999997910697697,-61.90485005436435
9.664,0.9999996702605315,-62.14204280071603
9.672,0.9999995487336045,-62.37896412419375
9.68,0.9999994265127768,-62.61561372977175
9.688,0.9999993036218686,-62.85199132949574
9.696,0.999999180084727,-63.08809664245291
9.704,0.9999990559252223,-63.32392939474258
9.712,0.9999989311672421,-63.559489319445795
9.72,0.9999988058346869,-63.79477615659552
9.728,0.9999986799514666,-64.0297896531459
9.736,0.9999985535414928,-64.26452956294189
9.744,0.9999984266286771,-64.49899564668817
9.752,0.9999982992369253,-64.73318767191851
9.76,0.9999981713901323,-64.96710541296412
9.768,0.9999980431121783,-65.2007486509227
9.776,0.9999979144269242,-65.43411717362655
9.784,0.999997785358207,-65.6672107756111
9.792,0.9999976559298348,-65.90002925808268
9.8,0.9999975261655834,-66.1325724288869
9.808,0.9999973960891909,-66.36484010247592
9.816,0.9999972657243545,-66.59683209987651
9.824,0.9999971350947249,-66.8285482486571
9.832,0.9999970042239033,-67.05998838289554
9.84,0.9999968731354364,-67.2911523431458
9.847999999999999,0.9999967418528121,-67.52203997640541
9.856,0.9999966103994559,-67.75265113608219
9.864,0.9999964787987273,-67.98298568196091
9.872,0.9999963470739138,-68.21304348017006
9.879999999999999,0.9999962152482292,-68.44282440314849
9.888,0.9999960833448082,-68.67232832961164
9.896,0.9999959513867027,-68.90155514451787
9.904,0.9999958193968788,-69.13050473903463
9.911999999999999,0.9999956873982114,-69.35917701050472
9.92,0.999995555413482,-69.58757186241212
9.928,0.9999954234653737,-69.81568920434786
9.936,0.9999952915764686,-70.04352895197587
9.943999999999999,0.9999951597692431,-70.27109102699877
9.952,0.9999950280660653,-70.49837535712352
9.96,0.9999948964891907,-70.72538187602672
9.968,0.999994765060759,-70.95211052332027
9.975999999999999,0.9999946338027902,-71.17856124451691
9.984,0.9999945027371825,-71.40473399099542
9.992,0.9999943718857066,-71.63062871996576
10.0,0.9999942412700052,-71.85624539443444
10.008,0.9999941109115873,-72.0815839831698
