freq,mag,phase
6.0,0.9999932814467095,82.76609504559778
6.008,0.9999950928302179,82.62042804878972
6.016,0.9999968682733988,82.47470401865432
6.024,0.9999986081342527,82.32892295430244
6.032,0.9999999999999999,82.18308485513313
6.04,1.0,82.0371897208347
6.048,0.9999999999999999,81.89123755138594
6.056,1.0,81.74522834705718
6.064,1.0,81.59916210841155
6.072,0.9999999999999999,81.453038836306
6.08,0.9999999999999999,81.30685853189257
6.088,1.0,81.16062119661942
6.096,1.0,81.014326832232
6.104,1.0,80.86797544077426
6.112,1.0,80.72156702458972
6.12,1.0,80.57510158632256
6.128,1.0,80.42857912891887
6.136,1.0,80.28199965562771
6.144,0.9999999999999999,80.13536317000222
6.152,0.9999999999999999,79.98866967590078
6.16,1.0,79.84191917748817
6.168,1.0,79.6951116792366
6.176,0.9999999999999999,79.54824718592695
6.184,0.9999999999999999,79.40132570264976
6.192,1.0,79.25434723480645
6.2,1.0,79.10731178811038
6.208,0.9999999999999998,78.96021936858803
6.216,1.0,78.81306998258
6.224,1.0,78.66586363674226
6.232,0.9999999999999999,78.51860033804708
6.24,0.9999999999999999,78.37128009378432
6.248,1.0,78.22390291156243
6.256,0.9999999999999999,78.07646879930955
6.264,1.0,77.92897776527464
6.272,0.9999999999999999,77.78142981802854
6.28,0.9999999999999999,77.63382496646516
6.288,0.9999999999999999,77.48616321980236
6.296,1.0,77.33844458758335
6.304,0.9999999999999999,77.19066907967746
6.312,1.0,77.04283670628145
6.32,1.0,76.89494747792047
6.328,1.0,76.74700140544918
6.336,0.9999999999999998,76.59899850005284
6.344,1.0,76.45093877324837
6.352,1.0,76.30282223688539
6.36,0.9999999999999998,76.15464890314732
6.368,0.9999999999999999,76.0064187845525
6.376,0.9999999999999999,75.85813189395509
6.384,1.0,75.70978824454633
6.392,1.0,75.56138784985546
6.4,0.9999999999999999,75.41293072375085
6.408,0.9999999999999999,75.26441688044095
6.416,1.0,75.11584633447548
6.424,1.0,74.96721910074635
6.432,1.0,74.81853519448877
6.44,1.0,74.66979463128234
6.448,1.0,74.52099742705194
6.456,1.0,74.37214359806885
6.464,1.0000000000000002,74.22323316095182
6.472,1.0,74.07426613266806
6.48,0.9999999999999999,73.92524253053419
6.4879999999999995,1.0,73.77616237221744
6.496,0.9999999999999999,73.62702567573642
6.504,0.9999999999999999,73.47783245946243
6.5120000000000005,0.9999999999999999,73.32858274212016
6.52,1.0,73.17927654278898
6.5280000000000005,1.0,73.02991388090373
6.536,1.0,72.8804947762559
6.5440000000000005,1.0,72.7310192489944
6.552,1.0,72.58148731962685
6.5600000000000005,1.0,72.43189900902026
6.568,1.0,72.28225433840232
6.5760000000000005,0.9999999999999999,72.13255332936208
6.584,0.9999999999999999,71.98279600385126
6.592,1.0,71.83298238418486
6.6,1.0,71.68311249304246
6.608,0.9999999999999999,71.533186353469
6.616,1.0,71.38320398887582
6.624,0.9999999999999998,71.23316542304157
6.632,1.0,71.08307068011322
6.64,1.0,70.93291978460697
6.648,1.0,70.78271276140927
6.656,1.0,70.63244963577768
6.664,1.0,70.48213043334184
6.672,0.9999999999999999,70.33175518010444
6.68,1.0,70.18132390244214
6.688,1.0,70.03083662710647
6.696,1.0,69.8802933812248
6.704,0.9999999999999999,69.72969419230125
6.712,0.9999999999999999,69.57903908821753
6.72,0.9999999999999999,69.42832809723404
6.728,0.9999999999999999,69.27756124799058
6.736,0.9999999999999999,69.12673856950732
6.744,1.0,68.9758600911858
6.752,1.0,68.82492584280966
6.76,1.0,68.6739358545457
6.768,1.0,68.52289015694463
6.776,1.0,68.37178878094198
6.784,1.0,68.22063175785911
6.792,1.0,68.06941911940388
6.8,1.0,67.91815089767165
6.808,0.9999999999999999,67.76682712514616
6.816,0.9999999999999999,67.61544783470029
6.824,1.0,67.464013059597
6.832,1.0,67.31252283349015
6.84,0.9999999999999999,67.16097719042534
6.848,0.9999999999999999,67.00937616484079
6.856,0.9999999999999999,66.85771979156812
6.864,0.9999999999999999,66.70600810583322
6.872,0.9999999999999999,66.55424114325704
6.88,1.0,66.40241893985652
6.888,1.0,66.25054153204523
6.896,1.0,66.09860895663434
6.904,1.0,65.94662125083336
6.912,1.0,65.79457845225092
6.92,0.9999999999999999,65.64248059889563
6.928,1.0,65.49032772917683
6.936,1.0,65.33811988190534
6.944,1.0,65.18585709629437
6.952,0.9999999999999999,65.03353941196018
6.96,1.0,64.8811668689228
6.968,0.9999999999999999,64.72873950760702
6.976,1.0,64.57625736884292
6.984,0.9999999999999999,64.42372049386672
6.992,1.0,64.27112892432157
7.0,1.0,64.11848270225822
7.008,1.0,63.96578187013576
7.016,0.9999999999999999,63.81302647082243
7.024,0.9999999999999999,63.66021654759629
7.032,1.0,63.50735214414591
7.04,0.9999999999999998,63.35443330457119
7.048,0.9999999999999999,63.201460073383956
7.056,1.0,63.048432495508735
7.064,0.9999999999999999,62.89535061628344
7.072,0.9999999999999999,62.742214481460046
7.08,1.0,62.58902413720531
7.088,1.0,62.43577963010144
7.096,1.0,62.282481007146714
7.104,1.0,62.129128315756276
7.112,1.0,61.97572160376266
7.12,0.9999999999999999,61.82226091941654
7.128,0.9999999999999999,61.66874631138736
7.136,0.9999999999999999,61.51517782876397
7.144,1.0,61.361555521055266
7.152,0.9999999999999999,61.20787943819084
7.16,1.0,61.05414963052157
7.168,1.0,60.90036614882032
7.176,1.0,60.74652904428242
7.184,1.0,60.59263836852644
7.192,0.9999999999999999,60.43869417359467
7.2,1.0000000000000002,60.284696511953754
7.208,0.9999999999999999,60.13064543649531
7.216,1.0,59.976541000536415
7.224,1.0,59.822383257820356
7.232,0.9999999999999999,59.668172262517004
7.24,1.0,59.51390806922355
7.248,0.9999999999999999,59.35959073296489
7.256,1.0,59.20522030919434
7.264,1.0,59.0507968537941
7.272,1.0,58.89632042307575
7.28,1.0,58.741791073780895
7.288,1.0,58.587208863081585
7.296,0.9999999999999999,58.43257384858091
7.304,1.0,58.27788608831338
7.312,1.0,58.12314564074563
7.32,1.0,57.96835256477676
7.328,1.0,57.813506919738835
7.336,0.9999999999999999,57.65860876539746
7.344,1.0,57.50365816195221
7.352,0.9999999999999999,57.34865517003701
7.36,1.0,57.193599850720766
7.368,1.0,57.038492265507664
7.376,0.9999999999999998,56.88333247633769
7.384,1.0,56.72812054558712
7.392,0.9999999999999999,56.57285653606882
7.4,0.9999999999999999,56.4175405110328
7.4079999999999995,1.0,56.26217253416657
7.416,1.0,56.10675266959552
7.4239999999999995,1.0,55.951280981883436
7.432,1.0,55.79575753603275
7.4399999999999995,1.0,55.64018239748515
7.448,1.0,55.48455563212157
7.4559999999999995,1.0,55.32887730626309
7.464,1.0,55.17314748667078
7.4719999999999995,0.9999999999999999,55.01736624054652
7.48,0.9999999999999999,54.86153363553298
7.4879999999999995,0.9999999999999999,54.70564973971422
7.496,1.0,54.549714621615806
7.504,1.0,54.39372835020542
7.5120000000000005,0.9999999999999999,54.23769099489289
7.52,1.0,54.08160262553071
7.5280000000000005,1.0,53.92546331241421
7.536,0.9999999999999999,53.76927312628203
7.5440000000000005,1.0,53.61303213831612
7.552,0.9999999999999999,53.456740420142395
7.5600000000000005,1.0,53.30039804383061
7.568,1.0,53.14400508189505
7.5760000000000005,1.0,52.98756160729434
7.584,1.0,52.83106769343211
7.5920000000000005,1.0,52.674523414156916
7.6,0.9999999999999999,52.51792884376273
7.6080000000000005,0.9999999999999999,52.36128405698893
7.616,1.0,52.20458912902072
7.6240000000000006,1.0,52.047844135489186
7.632,1.0,51.89104915247167
7.640000000000001,1.0,51.73420425649171
7.648,0.9999999999999999,51.57730952451955
7.656000000000001,1.0,51.420365033971976
7.664,1.0,51.26337086271281
7.672,1.0,51.10632708905278
7.68,0.9999998263830769,50.94923379174988
7.688,0.9999994682708535,50.79209105000944
7.696,0.9999991145491121,50.634898943484224
7.704,0.9999987652640396,50.47765755227462
7.712,0.9999984204607533,50.32036695692876
7.72,0.9999980801833054,50.16302723844255
7.728,0.9999977444746913,50.00563847825988
7.736,0.9999974133768521,49.84820075827263
7.744,0.9999970869306842,49.69071416082078
7.752,0.999996765176042,49.53317876869255
7.76,0.9999964481517465,49.37559466512434
7.768,0.999996135895589,49.217961933800936
7.776,0.9999958284443388,49.060280658855405
7.784,0.9999955258337487,48.902550924869274
7.792,0.9999952280985609,48.74477281687251
7.8,0.999994935272513,48.586946420343494
7.808,0.9999946473883445,48.429071821209114
7.816,0.9999943644778034,48.271149105844714
7.824,0.9999940865716508,48.11317836107414
7.832,0.9999938136996684,47.95515967416969
7.84,0.9999935458906647,47.797093132852126
7.848,0.9999932831724808,47.6389788252906
7.856,0.9999930255719964,47.480816840102634
7.864,0.9999927731151372,47.32260726635412
7.872,0.9999925258268798,47.16435019355921
7.88,0.9999922837312597,47.00604571168023
7.888,0.9999920468513758,46.847693911127685
7.896,0.9999918152093983,46.68929488276007
7.904,0.9999915888265746,46.53084871788395
7.912,0.9999913677232356,46.372355508253605
7.92,0.9999911519188028,46.21381534607116
7.928,0.9999909414317939,46.0552283239863
7.936,0.9999907362798303,45.89659453509625
7.944,0.9999905364796418,45.73791407294558
7.952,0.9999903420470769,45.579187031526054
7.96,0.9999901529971051,45.42041350527648
7.968,0.999989969343827,45.261593589082544
7.976,0.999989791100478,45.102727378276704
7.984,0.9999896182794378,44.94381496863784
7.992,0.9999894508922358,44.784856456391225
8.0,0.9999892889495571,44.62585193820822
8.008,0.999989132461251,44.46680151120615
8.016,0.9999889814363363,44.3077052729479
8.024000000000001,0.9999888358830096,44.14856332144195
8.032,0.9999886958086506,43.98937575514193
8.04,0.9999885612198302,43.83014267294641
8.048,0.9999884321223173,43.67086417419863
8.056000000000001,0.9999883085210852,43.51154035868632
8.064,0.9999881904203194,43.35217132664137
8.072,0.9999880778234231,43.19275717873943
8.08,0.9999879707330267,43.03329801609974
8.088000000000001,0.9999878691509934,42.873793940284806
8.096,0.9999877730784252,42.7142450533001
8.104,0.9999876825156727,42.55465145759359
8.112,0.9999875974623412,42.39501325605551
8.120000000000001,0.9999875179172967,42.23533055201807
8.128,0.9999874438786747,42.07560344925503
8.136,0.999987375343887,41.91583205198123
8.144,0.99998731230963,41.75601646485237
8.152000000000001,0.9999872547718893,41.59615679296457
8.16,0.999987202725951,41.436253141854024
8.168,0.9999871561664059,41.27630561749639
8.176,0.9999871150871585,41.11631432630657
8.184000000000001,0.9999870794814355,40.95627937513829
8.192,0.9999870493417902,40.79620087128357
8.2,0.9999870246601141,40.636078922472265
8.208,0.9999870054276416,40.475913636871574
8.216000000000001,0.9999869916349594,40.31570512308584
8.224,0.9999869832720126,40.155453490155764
8.232,0.9999869803281154,39.99515884755799
8.24,0.9999869827919553,39.83482130520464
8.248000000000001,0.999986990651604,39.674440973442884
8.256,0.9999870038945236,39.51401796305437
8.264,0.9999870225075757,39.35355238525453
8.272,0.9999870464770289,39.19304435169225
8.280000000000001,0.9999870757885668,39.03249397444924
8.288,0.9999871104272964,38.87190136603958
8.296,0.9999871503777568,38.711266639408905
8.304,0.9999871956239268,38.55058990793402
8.312,0.9999872461492331,38.3898712854223
8.32,0.9999873019365597,38.22911088611098
8.328,0.9999873629682561,38.06830882466671
8.336,0.9999874292261441,37.9074652161847
8.344,0.9999875006915298,37.74658017618833
8.352,0.9999875773452092,37.585653820628316
8.36,0.9999876591674783,37.42468626588224
8.368,0.9999877461381419,37.263677628753584
8.376,0.9999878382365232,37.1026280264715
8.384,0.9999879354414705,36.94153757668963
8.392,0.9999880377313689,36.780406397485834
8.4,0.9999881450841482,36.619234607361165
8.408,0.9999882574772926,36.45802232523941
8.416,0.9999883748878488,36.2967696704661
8.424,0.9999884972924379,36.13547676280801
8.432,0.9999886246672625,35.97414372245221
8.44,0.9999887569881176,35.81277067000549
8.448,0.9999888942304005,35.65135772649337
8.456,0.99998903636912,35.48990501335958
8.464,0.9999891833789072,35.328412652464934
8.472,0.9999893352340241,35.1668807660869
8.48,0.999989491908376,35.00530947691841
8.488,0.9999896533755203,34.84369890806735
8.496,0.9999898196086772,34.68204918305549
8.504,0.9999899905807409,34.52036042581779
8.512,0.9999901662642903,34.35863276070133
8.52,0.9999903466315991,34.19686631246477
8.528,0.9999905316546484,34.035061206277064
8.536,0.9999907213051363,33.87321756771693
8.544,0.9999909155544902,33.711335522771606
8.552,0.9999911143738789,33.54941519783625
8.56,0.9999913177342238,33.387456719712716
8.568,0.9999915256062103,33.22546021560885
8.576,0.9999917379603014,33.06342581313731
8.584,0.999991954766749,32.90135364031482
8.592,0.9999921759956069,32.739243825560955
8.6,0.999992401616744,32.577096497697426
8.608,0.9999926315998565,32.414911785946714
8.616,0.999992865914483,32.252689819931454
8.624,0.9999931045300156,32.090430729673
8.632,0.9999933474157161,31.928134645590777
8.64,0.9999935945407293,31.765801698500812
8.648,0.9999938458740971,31.603432019615067
8.656,0.9999941013847741,31.441025740540027
8.664,0.9999943610416416,31.27858299327582
8.672,0.9999946248135251,31.11610391021492
8.68,0.9999948926692077,30.953588624141318
8.688,0.9999951645774489,30.791037268228887
8.696,0.9999954405069985,30.628449976040844
8.704,0.999995720426616,30.465826881528034
8.712,0.9999960043050865,30.303168119028143
8.72,0.9999962921112406,30.140473823264195
8.728,0.9999965838139704,29.977744129343634
8.736,0.9999968793822503,29.814979172756797
8.744,0.9999971787851557,29.65217908937598
8.752,0.9999974819918835,29.489344015453874
8.76,0.9999977889717728,29.326474087622547
8.768,0.9999980996943254,29.16356944289197
8.776,0.9999984141292287,29.000630218648865
8.784,0.999998732246378,28.837656552655186
8.792,0.9999990540159003,28.67464858304702
8.8,0.9999993794081773,28.511606448332977
8.808,0.9999997083938718,28.348530287393036
8.815999999999999,1.0,28.18542023947697
8.824,1.0000000000000002,28.02227644420298
8.832,1.0,27.859099041556377
8.84,1.0,27.69588817188798
8.847999999999999,1.0,27.53264397591266
8.856,1.0,27.36936659470784
8.864,1.0,27.20605616971209
8.872,1.0,27.04271284272347
8.879999999999999,1.0,26.87933675589792
8.888,1.0,26.715928051747706
8.896,1.0,26.552486873139955
8.904,0.9999999999999999,26.38901336329477
8.911999999999999,0.9999999999999998,26.22550766578369
8.92,1.0,26.061969924527883
8.928,1.0,25.898400283796622
8.936,1.0,25.73479888820534
8.943999999999999,1.0,25.571165882713835
8.952,0.9999999999999998,25.407501412624466
8.96,0.9999999999999999,25.24380562358041
8.968,1.0,25.080078661563615
8.975999999999999,1.0,24.916320672892866
8.984,0.9999999999999999,24.752531804221807
8.992,1.0,24.588712202537014
9.0,0.9999999999999999,24.424862015155867
9.008,1.0000000000000002,24.26098138972434
9.016,0.9999999999999999,24.09707047421489
9.024000000000001,1.0,23.933129416924306
9.032,1.0,23.769158366471427
9.04,1.0,23.605157471794598
9.048,1.0,23.441126882149483
9.056000000000001,1.0,23.277066747106538
9.064,1.0,23.112977216548483
9.072,1.0,22.94885844066758
9.08,0.9999999999999999,22.784710569962996
9.088000000000001,1.0,22.62053375523809
9.096,0.9999999999999998,22.456328147597482
9.104,1.0,22.292093898444005
9.112,1.0,22.127831159475612
9.120000000000001,1.0,21.963540082682368
9.128,1.0,21.799220820342978
9.136,1.0,21.634873525021273
9.144,1.0,21.470498349562703
9.152000000000001,1.0,21.30609544709061
9.16,1.0,21.141664971002367
9.168,0.9999999999999999,20.977207074965072
9.176,0.9999999999999999,20.812721912911407
9.184000000000001,0.9999999999999998,20.648209639035205
9.192,1.0,20.483670407786697
9.2,0.9999999999999999,20.31910437386737
9.208,0.9999999999999999,20.154511692225018
9.216000000000001,1.0,19.989892518047988
9.224,1.0,19.82524700675956
9.232,1.0,19.660575314011545
9.24,0.9999999999999999,19.495877595677822
9.248000000000001,1.0,19.33115400784742
9.256,1.0,19.166404706817065
9.264,0.9999999999999999,19.001629849083127
9.272,1.0,18.83682959133331
9.280000000000001,0.9999999999999999,18.672004090437483
9.288,1.0,18.50715350343812
9.296,0.9999999999999999,18.34227798753953
9.304,1.0,18.177377700096706
9.312000000000001,1.0,18.012452798603388
9.32,1.0,17.84750344067862
9.328,0.9999999999999999,17.68252978405242
9.336,0.9999999999999999,17.517531986550512
9.344,1.0,17.352510206077426
9.352,0.9999999999999999,17.1874646005978
9.36,0.9999999999999999,17.02239532811674
9.368,1.0,16.857302546657248
9.376,1.0,16.692186414236517
9.384,0.9999999999999999,16.527047088838913
9.392,0.9999999999999999,16.361884728386883
9.4,1.0,16.196699490708266
9.408,1.0,16.031491533500503
9.416,1.0,15.866261014290647
9.424,0.9999999999999999,15.701008090390722
9.432,1.0,15.535732918848359
9.44,0.9999999999999999,15.370435656390898
9.448,1.0,15.20511645936323
9.456,1.0,15.039775483657651
9.464,0.9999999999999999,14.874412884634584
9.472,0.9999999999999999,14.709028817033042
9.48,0.9999999999999999,14.543623434869353
9.488,0.9999999999999999,14.378196891320986
9.496,1.0,14.212749338594639
9.504,1.0,14.047280927775363
9.512,1.0,13.88179180865221
9.52,1.0,13.71628212951769
9.528,1.0,13.550752036935998
9.536,1.0,13.385201675472931
9.544,1.0,13.219631187380704
9.552,0.9999999999999999,13.054040712229773
9.56,1.0,12.888430386474315
9.568,1.0,12.72280034293934
9.576,1.0,12.557150710210447
9.584,1.0,12.391481611906539
9.592,1.0,12.225793165805161
9.6,0.9999999999999999,12.060085482787818
9.608,1.0,11.8943586655569
9.616,1.0,11.72861280706883
9.624,1.0,11.56284798860364
9.632,1.0,11.397064277371033
9.64,1.0,11.231261723517997
9.648,1.0000000000000002,11.065440356355282
9.656,0.9999999999999999,10.899600179557936
9.664,0.9999999999999999,10.733741164997012
9.672,1.0,10.567863244729716
9.68,1.0,10.401966300475099
9.688,0.9999999999999999,10.23605014961211
9.696,0.9999999999999999,10.07011452628617
9.704,1.0,9.90415905552816
9.712,1.0,9.738183217195113
9.72,1.0,9.572186294774623
9.728,1.0,9.406167301164597
9.736,0.9999999999999999,9.240124868493764
9.744,1.0,9.074057080108915
9.752,0.9999999999999999,8.90796120640681
9.76,0.9999999999999999,8.741833274471631
9.768,1.0,8.575667337315366
9.776,1.0,8.409454170637689
9.784,1.0,8.243178807133122
9.792,0.9999999999999998,8.076815520477206
9.8,0.9999999999999999,7.910316645028261
9.808,0.9999999999999999,7.743584511868998
9.816,0.9999999999999999,7.576388657163664
9.824,0.9999999999999999,7.408057219731117
9.832,1.0,7.235807280845054
9.84,1.0,7.037649545168088
9.847999999999999,0.9989820339257269,6.860849896897296
9.856,0.9994631300578068,6.743678273729161
9.864,0.9996885577073973,6.582294324923357
9.872,0.9997895789351672,6.4170559488277705
9.879999999999999,0.9998458248028674,6.251080897466631
9.888,0.9998815149423649,6.084892833021117
9.896,0.9999061568177454,5.918625786528989
9.904,0.9999241981842776,5.752323027499113
9.911999999999999,0.9999379878590352,5.586000613553378
9.92,0.9999488803858374,5.419665021936346
9.928,0.9999577108239573,5.253318977099431
9.936,0.9999650216140453,5.086963627678929
9.943999999999999,0.9999711802595016,4.9205994346052035
9.952,0.9999764445063382,4.754226557016255
9.96,0.9999810004298603,4.587845027274341
9.968,0.999984985704411,4.421454832212604
9.975999999999999,0.9999885043665898,4.255055950884115
9.984,0.9999916364891247,4.0886483715365936
9.992,0.9999944446998228,3.92223209850778
10.0,0.9999969786834624,3.755807154234961
10.008,0.9999992783586961,3.589373578954478
10.016,1.0,3.422931429383702
10.024000000000001,0.9999999999999999,3.256480777032682
10.032,1.0,3.0900217064633075
10.04,1.0,2.923554313645106
10.048,1.0,2.7570787044684972
10.056000000000001,0.9999999999999999,2.590594993432872
10.064,1.0,2.424103302504913
10.072,1.0,2.2576037601325716
10.08,0.9999999999999999,2.091096500397867
10.088000000000001,1.0,1.9245816622901286
10.096,1.0,1.758059389082469
10.104,1.0,1.5915298277970091
10.112,0.9999999999999999,1.424993128745723
10.120000000000001,0.9999999999999998,1.2584494451349109
10.128,0.9999999999999999,1.0918989327244377
10.136,1.0,0.9253417495327935
10.144,0.9999999999999999,0.758778055581849
10.152000000000001,0.9999999999999999,0.5922080126752282
10.16,1.0,0.4256317842046617
10.168,1.0,0.25904953498138955
10.176,0.9999999999999999,0.09246143108829197
10.184000000000001,1.0,-0.07413236024987996
10.192,1.0,-0.24073167078080648
