freq,mag,phase
6.0,0.999995962206994,-145.1773576513164
6.008,0.9999964827651623,-145.58867807758608
6.016,0.9999969871183271,-145.99981287745877
6.024,0.9999974755072466,-146.41076338421001
6.032,0.9999979481707137,-146.82153094140813
6.04,0.9999984053455561,-147.2321169027868
6.048,0.9999988472666389,-147.64252263211793
6.056,0.999999274166867,-148.05274950308538
6.064,0.9999996862771876,-148.46279889915908
6.072,0.9999999999999998,-148.87267221347
6.08,1.0,-149.28237084868553
6.088,1.0,-149.6918962168856
6.096,1.0,-150.10124973943942
6.104,1.0,-150.5104328468826
6.112,0.9999999999999999,-150.91944697879535
6.12,0.9999999999999998,-151.32829358368087
6.128,1.0,-151.73697411884493
6.136,0.9999999999999999,-152.1454900502751
6.144,0.9999999999999999,-152.55384285252183
6.152,1.0,-152.9620340085792
6.16,1.0,-153.37006500976688
6.168,0.9999999999999999,-153.7779373556125
6.176,1.0,-154.18565255373457
6.184,1.0,-154.59321211972642
6.192,1.0,-155.0006175770403
6.2,0.9999999999999999,-155.40787045687244
6.208,1.0,-155.81497229804876
6.216,0.9999999999999999,-156.22192464691085
6.224,1.0,-156.62872905720332
6.232,1.0,-157.03538708996098
6.24,1.0,-157.44190031339716
6.248,1.0,-157.84827030279257
6.256,1.0,-158.25449864038484
6.264,1.0,-158.66058691525842
6.272,1.0,-159.06653672323563
6.28,1.0,-159.4723496667677
6.288,0.9999999999999999,-159.87802735482728
6.296,1.0,-160.28357140280062
6.304,1.0,-160.68898343238104
6.312,0.9999999999999999,-161.09426507146316
6.32,1.0,-161.4994179540369
6.328,1.0,-161.9044437200832
6.336,1.0,-162.30934401546958
6.344,1.0,-162.7141204918463
6.352,0.9999999999999999,-163.11877480654414
6.36,0.9999999999999999,-163.52330862247118
6.368,0.9999999999999999,-163.9277236080119
6.376,0.9999999999999998,-164.33202143692552
6.384,1.0,-164.73620378824552
6.392,0.9999999999999999,-165.14027234618018
6.4,1.0,-165.54422880001292
6.408,0.9999999999999999,-165.94807484400343
6.416,1.0,-166.35181217729007
6.424,1.0,-166.7554425037919
6.432,0.9999999999999999,-167.15896753211197
6.44,1.0,-167.56238897544108
6.448,1.0,-167.9657085514615
6.456,0.9999999999999999,-168.3689279822524
6.464,1.0,-168.7720489941947
6.472,1.0,-169.17507331787726
6.48,1.0,-169.57800268800352
6.4879999999999995,0.9999999999999998,-169.98083884329807
6.496,1.0,-170.38358352641475
6.504,0.9999999999999999,-170.78623848384424
6.5120000000000005,1.0,-171.18880546582355
6.52,1.0,-171.59128622624422
6.5280000000000005,0.9999999999999999,-171.99368252256298
6.536,0.9999999999999998,-172.3959961157114
6.5440000000000005,0.9999999999999999,-172.79822877000714
6.552,1.0,-173.20038225306482
6.5600000000000005,1.0,-173.60245833570832
6.568,1.0,-174.00445879188257
6.5760000000000005,1.0,-174.40638539856693
6.584,1.0,-174.80823993568805
6.592,0.9999999999999999,-175.21002418603402
6.6,1.0,-175.61173993516837
6.608,1.0,-176.01338897134514
6.616,1.0,-176.4149730854238
6.624,1.0,-176.81649407078532
6.632,1.0,-177.21795372324794
6.64,0.9999999999999999,-177.61935384098413
6.648,1.0,-178.02069622443744
6.656,1.0,-178.4219826762402
6.664,1.0000000000000002,-178.8232150011312
6.672,1.0,-179.22439500587438
6.68,1.0,-179.6255244991774
6.688,1.0,179.97339470838898
6.696,0.9999999999999999,179.57236080447146
6.704,0.9999999999999998,179.1713719750139
6.712,0.9999999999999999,178.77042640433714
6.72,1.0,178.36952227521806
6.728,0.9999999999999999,177.96865776896828
6.736,1.0,177.56783106551273
6.744,1.0,177.1670403434675
6.752,1.0000000000000002,176.7662837802177
6.76,0.9999999999999999,176.36555955199458
6.768,1.0,175.96486583395253
6.776,0.999999984981607,175.56420080024577
6.784,0.9999997821792491,175.16356262410446
6.792,0.9999995782061978,174.76294947791072
6.8,0.9999993731429808,174.3623595332742
6.808,0.9999991670689214,173.96179096110728
6.816,0.9999989600621492,173.56124193170015
6.824,0.9999987521996092,173.1607106147953
6.832,0.9999985435570719,172.76019517966196
6.84,0.9999983342091436,172.3596937951702
6.848,0.9999981242292744,171.95920462986447
6.856,0.9999979136897699,171.55872585203733
6.864,0.9999977026618002,171.15825562980243
6.872,0.999997491215408,170.75779213116755
6.88,0.9999972794195215,170.35733352410728
6.888,0.9999970673419605,169.95687797663527
6.896,0.9999968550494479,169.5564236568766
6.904,0.9999966426076187,169.15596873313956
6.912,0.9999964300810301,168.75551137398725
6.92,0.9999962175331697,168.3550497483092
6.928,0.9999960050264664,167.9545820253925
6.936,0.9999957926222981,167.55410637499284
6.944,0.999995580381003,167.15362096740512
6.952,0.9999953683618867,166.7531239735343
6.96,0.9999951566232341,166.35261356496562
6.968,0.9999949452223158,165.9520879140349
6.976,0.9999947342153992,165.55154519389845
6.984,0.9999945236577573,165.15098357860293
6.992,0.9999943136036777,164.750401243155
7.0,0.999994104106471,164.34979636359094
7.008,0.9999938952184816,163.94916711704585
7.016,0.9999936869910939,163.54851168182282
7.024,0.9999934794747448,163.14782823746208
7.032,0.9999932727189289,162.7471149648098
7.04,0.9999930667722102,162.3463700460869
7.048,0.9999928616822296,161.94559166495767
7.056,0.9999926574957148,161.54477800659834
7.064,0.9999924542584869,161.14392725776537
7.072,0.9999922520154706,160.74303760686382
7.08,0.9999920508107037,160.34210724401555
7.088,0.9999918506873443,159.94113436112727
7.096,0.9999916516876787,159.5401171519585
7.104,0.9999914538531315,159.13905381218964
7.112,0.9999912572242738,158.7379425394897
7.12,0.9999910618408313,158.33678153358397
7.128,0.9999908677416917,157.93556899632202
7.136,0.9999906749649156,157.53430313174502
7.144,0.9999904835477411,157.13298214615358
7.152,0.999990293526596,156.73160424817505
7.16,0.9999901049371027,156.33016764883126
7.168,0.9999899178140883,155.9286705616058
7.176,0.9999897321915922,155.52711120251155
7.184,0.9999895481028735,155.12548779015808
7.192,0.9999893655804191,154.72379854581894
7.2,0.9999891846559528,154.32204169349913
7.208,0.9999890053604428,153.92021546000245
7.216,0.9999888277241069,153.51831807499886
7.224,0.9999886517764256,153.11634777109177
7.232,0.9999884775461434,152.71430278388547
7.24,0.9999883050612829,152.31218135205262
7.248,0.9999881343491472,151.90998171740134
7.256,0.9999879654363302,151.50770212494302
7.264,0.999987798348724,151.10534082295953
7.272,0.9999876331115254,150.70289606307077
7.28,0.9999874697492437,150.30036610030217
7.288,0.9999873082857088,149.89774919315238
7.296,0.9999871487440778,149.49504360366075
7.304,0.9999869911468422,149.09224759747502
7.312,0.9999868355158358,148.68935944391924
7.32,0.9999866818722408,148.28637741606133
7.328,0.9999865302365962,147.88329979078102
7.336,0.9999863806288036,147.48012484883787
7.344,0.9999862330681357,147.07685087493928
7.352,0.9999860875732423,146.67347615780847
7.36,0.9999859441621564,146.26999899025276
7.368,0.9999858028523032,145.86641766923188
7.376,0.9999856636605051,145.46273049592628
7.384,0.9999855266029897,145.0589357758056
7.392,0.9999853916953959,144.65503181869732
7.4,0.9999852589527798,144.25101693885534
7.4079999999999995,0.9999851283896233,143.8468894550289
7.416,0.9999850000198395,143.44264769053132
7.4239999999999995,0.999984873856777,143.03828997330925
7.432,0.9999847499132326,142.63381463601164
7.4399999999999995,0.9999846282014505,142.22922001605926
7.448,0.9999845087331329,141.8245044557136
7.4559999999999995,0.9999843915194464,141.41966630214725
7.464,0.9999842765710257,141.01470390751268
7.4719999999999995,0.9999841638979825,140.6096156290128
7.48,0.9999840535099092,140.20439982897037
7.4879999999999995,0.9999839454158883,139.79905487489862
7.496,0.9999838396244946,139.39357913957102
7.504,0.9999837361438041,138.98797100109232
7.5120000000000005,0.9999836349813997,138.58222884296833
7.52,0.9999835361443746,138.1763510541775
7.5280000000000005,0.9999834396393423,137.77033602924107
7.536,0.9999833454724385,137.36418216829486
7.5440000000000005,0.9999832536493289,136.9578878771597
7.552,0.9999831641752153,136.55145156741375
7.5600000000000005,0.9999830770548402,136.14487165646312
7.568,0.9999829922924924,135.73814656761454
7.5760000000000005,0.9999829098920145,135.33127473014645
7.584,0.9999828298568046,134.9242545793818
7.5920000000000005,0.9999827521898266,134.51708455675978
7.6,0.999982676893612,134.10976310990887
7.6080000000000005,0.9999826039702666,133.70228869271875
7.616,0.9999825334214766,133.294659765414
7.6240000000000006,0.9999824652485119,132.88687479462638
7.632,0.999982399452234,132.47893225346854
7.640000000000001,0.9999823360330987,132.0708306216071
7.648,0.9999822749911633,131.66256838533656
7.656000000000001,0.9999822163260904,131.25414403765265
7.664,0.9999821600371536,130.84555607832706
7.672,0.9999821061232425,130.43680301398066
7.68,0.9999820545828672,130.02788335815862
7.688,0.9999820054141638,129.61879563140474
7.696,0.9999819586149002,129.20953836133612
7.704,0.9999819141824786,128.80011008271828
7.712,0.9999818721139423,128.39050933754015
7.72,0.9999818324059796,127.9807346750897
7.728,0.9999817950549293,127.57078465202923
7.736,0.9999817600567849,127.16065783247119
7.744,0.9999817274071984,126.75035278805424
7.752,0.9999816971014873,126.3398680980193
7.76,0.999981669134636,125.92920234928593
7.768,0.9999816435013034,125.5183541365288
7.776,0.9999816201958254,125.10732206225462
7.784,0.9999815992122196,124.69610473687881
7.792,0.9999815805441912,124.28470077880277
7.8,0.9999815641851348,123.87310881449127
7.808,0.9999815501281413,123.46132747854975
7.816,0.9999815383660006,123.04935541380218
7.824,0.9999815288912066,122.63719127136889
7.832,0.9999815216959606,122.22483371074466
7.84,0.9999815167721765,121.81228139987694
7.848,0.9999815141114846,121.39953301524429
7.856,0.9999815137052349,120.98658724193504
7.864,0.999981515544502,120.57344277372606
7.872,0.9999815196200897,120.16009831316178
7.88,0.9999815259225334,119.74655257163322
7.888,0.9999815344421049,119.33280426945743
7.896,0.9999815451688167,118.9188521359569
7.904,0.9999815580924254,118.50469490953927
7.912,0.9999815732024349,118.09033133777709
7.92,0.999981590488102,117.67576017748786
7.928,0.9999816099384385,117.26098019481405
7.936,0.9999816315422156,116.8459901653035
7.944,0.9999816552879676,116.43078887398981
7.952,0.9999816811639947,116.0153751154728
7.96,0.999981709158369,115.5997476939994
7.968,0.9999817392589354,115.18390542354442
7.976,0.9999817714533162,114.76784712789153
7.984,0.9999818057289154,114.35157164071434
7.992,0.9999818420729208,113.9350778056577
8.0,0.9999818804723088,113.51836447641898
8.008,0.9999819209138469,113.10143051682965
8.016,0.9999819633840972,112.6842748009366
8.024000000000001,0.9999820078694206,112.26689621308418
8.032,0.9999820543559792,111.84929364799576
8.04,0.9999821028297398,111.43146601085553
8.048,0.9999821532764772,111.01341221739038
8.056000000000001,0.999982205681778,110.59513119395243
8.064,0.9999822600310432,110.1766218776007
8.072,0.9999823163094919,109.75788321618317
8.08,0.9999823745021632,109.3389141684193
8.088000000000001,0.9999824345939214,108.91971370398231
8.096,0.9999824965694571,108.50028080358155
8.104,0.999982560413292,108.08061445904451
8.112,0.9999826261097797,107.66071367339951
8.120000000000001,0.9999826936431118,107.24057746095833
8.128,0.9999827629973177,106.82020484739846
8.136,0.9999828341562705,106.39959486984532
8.144,0.9999829071036873,105.97874657695506
8.152000000000001,0.9999829818231336,105.55765902899714
8.16,0.9999830582980266,105.13633129793652
8.168,0.9999831365116364,104.71476246751612
8.176,0.9999832164470902,104.29295163333917
8.184000000000001,0.9999832980873749,103.870897902952
8.192,0.9999833814153396,103.44860039592596
8.2,0.9999834664136978,103.02605824393976
8.208,0.999983553065032,102.60327059086156
8.216000000000001,0.9999836413517941,102.18023659283155
8.224,0.9999837312563096,101.7569554183437
8.232,0.9999838227607797,101.33342624832754
8.24,0.9999839158472847,100.90964827623019
8.248000000000001,0.9999840104977853,100.48562070809834
8.256,0.9999841066941259,100.06134276265965
8.264,0.9999842044180377,99.63681367140403
8.272,0.9999843036511403,99.2120326786652
8.280000000000001,0.9999844043749451,98.78699904170209
8.288,0.9999845065708571,98.36171203077963
8.296,0.9999846102201773,97.93617092924944
8.304,0.9999847153041064,97.51037503363067
8.312,0.9999848218037455,97.08432365369075
8.32,0.9999849297000999,96.658016112525
8.328,0.9999850389740815,96.23145174663739
8.336,0.9999851496065103,95.80462990601961
8.344,0.9999852615781164,95.37754995423137
8.352,0.9999853748695443,94.95021126847888
8.36,0.9999854894613539,94.52261323969479
8.368,0.9999856053340228,94.09475527261598
8.376,0.9999857224679487,93.66663678586293
8.384,0.999985840843452,93.23825721201703
8.392,0.9999859604407781,92.8096159976991
8.4,0.9999860812400989,92.38071260364626
8.408,0.9999862032215162,91.9515465047897
8.416,0.9999863263650633,91.52211719033077
8.424,0.9999864506507058,91.09242416381811
8.432,0.9999865760583466,90.66246694322292
8.44,0.9999867025678268,90.2322450610153
8.448,0.9999868301589272,89.8017580642388
8.456,0.9999869588113702,89.37100551458573
8.464,0.9999870885048238,88.939986988471
8.472,0.9999872192189023,88.50870207710648
8.48,0.9999873509331689,88.0771503865738
8.488,0.9999874836271365,87.64533153789796
8.496,0.9999876172802723,87.21324516711896
8.504,0.9999877518719978,86.78089092536443
8.512,0.9999878873816908,86.34826847892028
8.52,0.9999880237886892,85.91537750930213
8.528,0.9999881610722917,85.48221771332494
8.536,0.9999882992117594,85.0487888031733
8.544,0.9999884381863188,84.61509050646977
8.552,0.9999885779751636,84.18112256634414
8.56,0.9999887185574566,83.74688474150037
8.568,0.9999888599123313,83.31237680628463
8.576,0.9999890020188937,82.877598550751
8.584,0.9999891448562257,82.44254978072816
8.592,0.9999892884033851,82.00723031788358
8.6,0.999989432639409,81.57163999978899
8.608,0.999989577543315,81.13577867998313
8.616,0.999989723094103,80.69964622803553
8.624,0.9999898692707575,80.26324252960806
8.632,0.9999900160522497,79.82656748651704
8.64,0.9999901634175387,79.38962101679306
8.648,0.9999903113455734,78.95240305474182
8.656,0.9999904598152951,78.51491355100214
8.664,0.9999906088056393,78.07715247260502
8.672,0.9999907582955361,77.63911980303014
8.68,0.9999909082639138,77.2008155422631
8.688,0.9999910586897,76.76223970685014
8.696,0.9999912095518231,76.32339232995358
8.704,0.9999913608292154,75.88427346140475
8.712,0.9999915125008124,75.44488316775742
8.72,0.9999916645455578,75.00522153233895
8.728,0.9999918169424027,74.5652886553018
8.736,0.9999919696703089,74.12508465367247
8.744,0.9999921227082499,73.68460966140125
8.752,0.9999922760352128,73.24386382940902
8.76,0.9999924296302007,72.80284732563479
8.768,0.9999925834722335,72.36156033508057
8.776,0.9999927375403508,71.92000305985665
8.784,0.9999928918136122,71.47817571922425
8.792,0.9999930462711006,71.03607854963863
8.8,0.9999932008919227,70.59371180478945
8.808,0.9999933556552116,70.15107575564157
8.815999999999999,0.9999935105401279,69.70817069047315
8.824,0.999993665525862,69.26499691491372
8.832,0.9999938205916354,68.82155475198056
8.84,0.9999939757167027,68.37784454211388
8.847999999999999,0.9999941308803536,67.9338666432105
8.856,0.9999942860619134,67.48962143065673
8.864,0.9999944412407461,67.04510929735993
8.872,0.9999945963962555,66.60033065377847
8.879999999999999,0.9999947515078871,66.15528592795023
8.888,0.9999949065551296,65.70997556552028
8.896,0.9999950615175164,65.26440002976716
8.904,0.9999952163746277,64.81855980162737
8.911999999999999,0.9999953711060925,64.37245537971855
8.92,0.9999955256915897,63.926087280361564
8.928,0.9999956801108495,63.479456037601175
8.936,0.999995834343656,63.03256220322496
8.943999999999999,0.9999959883698486,62.585406346780736
8.952,0.999996142169323,62.13798905559284
8.96,0.9999962957220339,61.690310934776974
8.968,0.9999964490079958,61.24237260725324
8.975999999999999,0.9999966020072854,60.79417471375745
8.984,0.9999967547000425,60.34571791285149
8.992,0.9999969070664726,59.89700288093203
9.0,0.9999970590868479,59.44803031223729
9.008,0.9999972107415089,58.99880091885223
9.016,0.9999973620108668,58.54931543071253
9.024000000000001,0.9999975128754042,58.099574595606896
9.032,0.999997663315677,57.64957917917749
9.04,0.9999978133123174,57.19932996491861
9.048,0.9999979628460334,56.74882775417399
9.056000000000001,0.9999981118976119,56.29807336613271
9.064,0.9999982604479198,55.84706763782281
9.072,0.999998408477906,55.395811424103165
9.08,0.9999985559686029,54.94430559765427
9.088000000000001,0.9999987029011277,54.49255104896701
9.096,0.9999988492566846,54.04054868632953
9.104,0.9999989950165662,53.58829943581218
9.112,0.9999991401621552,53.13580424125119
9.120000000000001,0.9999992846749255,52.68306406423046
9.128,0.9999994285364447,52.23007988406127
9.136,0.9999995717283756,51.77685269776007
9.144,0.9999997142324771,51.32338352002497
9.152000000000001,0.9999998560306068,50.86967338321028
9.16,0.9999999971047215,50.415723337298786
9.168,1.0,49.9615344498724
9.176,1.0,49.507107806081045
9.184000000000001,0.9999999999999999,49.052444508609796
9.192,1.0,48.59754567764378
9.2,1.0,48.14241245083118
9.208,1.0,47.68704598324452
9.216000000000001,1.0,47.23144744734037
9.224,0.9999999999999999,46.7756180329164
9.232,1.0,46.31955894706677
9.24,0.9999999999999999,45.86327141413577
9.248000000000001,0.9999999999999999,45.40675667566957
9.256,1.0,44.950015990365785
9.264,0.9999999999999999,44.493050634020676
9.272,0.9999999999999999,44.03586189947526
9.280000000000001,0.9999999999999998,43.57845109655905
9.288,1.0,43.120819552031605
9.296,1.0,42.66296860952212
9.304,1.0,42.204899629467135
9.312000000000001,0.9999999999999999,41.74661398904666
9.32,0.9999999999999999,41.28811308211759
9.328,1.0,40.8293983191452
9.336,1.0,40.370471127132994
9.344,1.0,39.91133294955076
9.352,1.0,39.45198524625941
9.36,0.9999999999999999,38.99242949343541
9.368,0.9999999999999999,38.5326671834916
9.376,1.0,38.072699824997514
9.384,1.0000000000000002,37.61252894259619
9.392,1.0,37.15215607692035
9.4,1.0,36.69158278450511
9.408,0.9999999999999999,36.2308106377003
9.416,1.0,35.76984122457894
9.424,1.0,35.30867614884548
9.432,0.9999999999999999,34.847317029740346
9.44,1.0,34.38576550194408
9.448,1.0,33.92402321547783
9.456,0.9999999999999999,33.46209183560341
9.464,1.0,32.99997304271969
9.472,1.0,32.53766853225883
9.48,0.9999999999999999,32.075180014578564
9.488,1.0,31.61250921485427
9.496,0.9999999999999999,31.14965787296741
9.504,1.0,30.686627743393593
9.512,0.9999999999999999,30.223420595086974
9.52,0.9999999999999999,29.76003821136437
9.528,1.0,29.29648238978574
9.536,0.9999999999999999,28.832754942034274
9.544,1.0000000000000002,28.368857693793057
9.552,1.0,27.90479248462122
9.56,0.9999999999999999,27.440561167826633
9.568,1.0,26.97616561033823
9.576,1.0,26.51160769257495
9.584,0.9999999999999999,26.04688930831414
9.592,1.0,25.582012364556594
9.6,0.9999999999999999,25.116978781391342
9.608,1.0,24.651790491856868
9.616,1.0,24.186449441802107
9.624,0.9999999999999999,23.720957589744025
9.632,1.0,23.255316906724865
9.64,1.0,22.789529376166094
9.648,1.0,22.323596993722113
9.656,0.9999999999999999,21.857521767130415
9.664,1.0,21.391305716061844
9.672,1.0,20.924950871967265
9.68,0.9999999999999999,20.458459277924202
9.688,0.9999999999999999,19.991832988480084
9.696,1.0,19.52507406949546
9.704,1.0,19.05818459798387
9.712,1.0,18.5911666619516
9.72,0.9999999999999998,18.12402236023431
9.728,1.0,17.65675380233349
9.736,1.0,17.18936310824978
9.744,0.9999999999999999,16.721852408316288
9.752,1.0,16.25422384302869
9.76,0.9999999999999999,15.78647956287545
9.768,1.0,15.318621728164814
9.776,1.0,14.850652508852008
9.784,1.0,14.382574084363222
9.792,1.0,13.914388643419844
9.8,1.0,13.446098383859587
9.808,1.0,12.977705512457812
9.816,1.0,12.509212244745866
9.824,0.9999999999999999,12.040620804829658
9.832,1.0,11.571933425205277
9.84,1.0,11.103152346574879
9.847999999999999,1.0,10.634279817659836
9.856,1.0,10.16531809501355
9.864,1.0000000000000002,9.69626944283298
9.872,0.9999999999999999,9.227136132768553
