freq,mag,phase
6.0,0.9999948124750244,148.66928042570453
6.008,0.9999949854201486,148.62455432213227
6.016,0.9999951537118523,148.57981630605343
6.024,0.9999953173957983,148.5350663574975
6.032,0.9999954765174403,148.49030445648336
6.04,0.9999956311220242,148.4455305830193
6.048,0.9999957812545872,148.40074471710298
6.056,0.9999959269599598,148.35594683872154
6.064,0.9999960682827637,148.31113692785155
6.072,0.9999962052674137,148.26631496445899
6.08,0.9999963379581189,148.22148092849932
6.088,0.9999964663988806,148.17663479991748
6.096,0.9999965906334944,148.13177655864789
6.104,0.9999967107055495,148.08690618461438
6.112,0.9999968266584296,148.04202365773034
6.12,0.9999969385353135,147.99712895789867
6.128,0.9999970463791735,147.9522220650117
6.136,0.9999971502327789,147.90730295895136
6.144,0.9999972501386933,147.86237161958906
6.152,0.9999973461392769,147.81742802678576
6.16,0.9999974382766851,147.772472160392
6.168,0.9999975265928706,147.7275040002478
6.176,0.999997611129582,147.68252352618276
6.184,0.9999976919283656,147.63753071801617
6.192,0.9999977690305649,147.59252555555668
6.2,0.9999978424773209,147.54750801860277
6.208,0.9999979123095724,147.50247808694232
6.216,0.9999979785680566,147.45743574035296
6.224,0.9999980412933093,147.4123809586018
6.232,0.9999981005256652,147.3673137214457
6.24,0.9999981563052579,147.3222340086311
6.248,0.9999982086720209,147.27714179989405
6.256,0.9999982576656868,147.2320370749603
6.264,0.9999983033257893,147.18691981354522
6.272,0.9999983456916617,147.1417899953539
6.28,0.9999983848024381,147.09664760008096
6.288,0.9999984206970537,147.05149260741095
6.296,0.9999984534142453,147.00632499701788
6.304,0.9999984829925511,146.96114474856557
6.312,0.9999985094703115,146.91595184170757
6.32,0.9999985328856686,146.87074625608702
6.328,0.9999985532765677,146.82552797133692
6.336,0.999998570680757,146.78029696707995
6.344,0.9999985851357874,146.7350532229285
6.352,0.9999985966790136,146.6897967184848
6.36,0.9999986053475944,146.64452743334076
6.368,0.9999986111784926,146.599245347078
6.376,0.9999986142084751,146.55395043926808
6.384,0.9999986144741145,146.50864268947217
6.392,0.9999986120117875,146.46332207724134
6.4,0.999998606857677,146.41798858211644
6.408,0.9999985990477712,146.37264218362805
6.416,0.9999985886178652,146.32728286129668
6.424,0.9999985756035589,146.28191059463254
6.432,0.9999985600402608,146.23652536313577
6.44,0.9999985419631845,146.1911271462963
6.448,0.9999985214073533,146.14571592359388
6.456,0.999998498407596,146.10029167449818
6.464,0.9999984729985512,146.05485437846866
6.472,0.9999984452146642,146.00940401495467
6.48,0.9999984150901903,145.96394056339545
6.4879999999999995,0.9999983826591927,145.91846400322012
6.496,0.9999983479555452,145.87297431384766
6.504,0.9999983110129301,145.827471474687
6.5120000000000005,0.9999982718648404,145.78195546513692
6.52,0.999998230544579,145.73642626458619
6.5280000000000005,0.9999981870852594,145.69088385241335
6.536,0.9999981415198068,145.645328207987
6.5440000000000005,0.9999980938809565,145.59975931066566
6.552,0.999998044201256,145.55417713979782
6.5600000000000005,0.9999979925130655,145.50858167472174
6.568,0.9999979388485561,145.46297289476593
6.5760000000000005,0.9999978832397128,145.41735077924852
6.584,0.9999978257183327,145.37171530747793
6.592,0.9999977663160264,145.32606645875236
6.6,0.9999977050642181,145.28040421236014
6.608,0.9999976419941463,145.23472854757935
6.616,0.9999975771368632,145.18903944367835
6.624,0.9999975105232365,145.14333687991538
6.632,0.9999974421839477,145.09762083553866
6.64,0.9999973721494945,145.05189128978654
6.648,0.9999973004501899,145.0061482218872
6.656,0.9999972271161628,144.96039161105912
6.664,0.999997152177359,144.91462143651063
6.672,0.9999970756635396,144.86883767744013
6.68,0.9999969976042845,144.82304031303622
6.688,0.9999969180289896,144.77722932247735
6.696,0.9999968369668687,144.73140468493222
6.704,0.9999967544469544,144.68556637955948
6.712,0.9999966704980962,144.63971438550794
6.72,0.9999965851489636,144.59384868191648
6.728,0.9999964984280444,144.5479692479141
6.736,0.9999964103636468,144.5020760626198
6.744,0.9999963209838972,144.45616910514286
6.752,0.9999962303167435,144.41024835458254
6.76,0.9999961383899527,144.3643137900283
6.768,0.9999960452311139,144.31836539055965
6.776,0.9999959508676362,144.27240313524632
6.784,0.999995855326751,144.22642700314813
6.792,0.9999957586355107,144.18043697331507
6.8,0.9999956608207905,144.13443302478734
6.808,0.9999955619092883,144.08841513659522
6.816,0.9999954619275238,144.04238328775915
6.824,0.999995360901841,143.99633745728985
6.832,0.9999952588584067,143.95027762418812
6.84,0.9999951558232117,143.904203767445
6.848,0.9999950518220723,143.8581158660417
6.856,0.9999949468806271,143.81201389894963
6.864,0.9999948410243417,143.76589784513047
6.872,0.9999947342785062,143.71976768353602
6.88,0.999994626668236,143.6736233931084
6.888,0.9999945182184732,143.6274649527798
6.896,0.999994408953986,143.58129234147285
6.904,0.9999942988993696,143.53510553810025
6.912,0.9999941880790456,143.48890452156505
6.92,0.999994076517264,143.44268927076044
6.928,0.9999939642381016,143.39645976457
6.936,0.9999938512654641,143.35021598186748
6.944,0.9999937376230855,143.30395790151695
6.952,0.9999936233345286,143.2576855023727
6.96,0.9999935084231857,143.21139876327936
6.968,0.9999933929122781,143.1650976630718
6.976,0.9999932768248574,143.11878218057524
6.984,0.9999931601838065,143.07245229460509
6.992,0.9999930430118373,143.0261079839672
7.0,0.9999929253314934,142.9797492274576
7.008,0.9999928071651505,142.93337600386278
7.016,0.9999926885350152,142.88698829195943
7.024,0.9999925694631266,142.84058607051463
7.032,0.9999924499713562,142.79416931828573
7.04,0.9999923300814083,142.74773801402054
7.048,0.9999922098148208,142.70129213645708
7.056,0.9999920891929649,142.6548316643238
7.064,0.999991968237046,142.6083565763395
7.072,0.9999918469681032,142.56186685121332
7.08,0.9999917254070113,142.51536246764474
7.088,0.999991603574479,142.46884340432365
7.096,0.9999914814910518,142.4223096399304
7.104,0.9999913591771099,142.37576115313558
7.112,0.99999123665287,142.3291979226002
7.12,0.9999911139383859,142.28261992697574
7.128,0.9999909910535474,142.23602714490403
7.136,0.9999908680180823,142.1894195550173
7.144,0.9999907448515558,142.1427971359382
7.152,0.9999906215733712,142.0961598662798
7.16,0.9999904982027701,142.0495077246456
7.168,0.9999903747588331,142.0028406896295
7.176,0.9999902512604801,141.95615873981586
7.184,0.99999012772647,141.9094618537795
7.192,0.9999900041754018,141.8627500100856
7.2,0.9999898806257154,141.81602318728986
7.208,0.9999897570956909,141.7692813639384
7.216,0.9999896336034492,141.7225245185678
7.224,0.9999895101669529,141.67575262970516
7.232,0.9999893868040064,141.62896567586796
7.24,0.9999892635322569,141.5821636355642
7.248,0.9999891403691927,141.5353464872924
7.256,0.9999890173321468,141.48851420954145
7.264,0.999988894438294,141.44166678079083
7.272,0.9999887717046538,141.39480417951052
7.28,0.9999886491480897,141.34792638416087
7.288,0.9999885267853089,141.3010333731929
7.296,0.9999884046328648,141.25412512504806
7.304,0.9999882827071549,141.20720161815828
7.312,0.9999881610244226,141.1602628309461
7.32,0.9999880396007577,141.11330874182443
7.328,0.9999879184520962,141.0663393291969
7.336,0.9999877975942209,141.01935457145757
7.344,0.9999876770427616,140.972354446991
7.352,0.9999875568131962,140.92533893417237
7.36,0.9999874369208498,140.8783080113674
7.368,0.9999873173808961,140.8312616569323
7.376,0.9999871982083586,140.78419984921388
7.384,0.9999870794181077,140.73712256654954
7.392,0.9999869610248658,140.6900297872672
7.4,0.9999868430432034,140.64292148968536
7.4079999999999995,0.9999867254875423,140.59579765211313
7.416,0.9999866083721544,140.5486582528501
7.4239999999999995,0.9999864917111634,140.5015032701866
7.432,0.9999863755185433,140.4543326824034
7.4399999999999995,0.9999862598081214,140.40714646777195
7.448,0.9999861445935764,140.35994460455427
7.4559999999999995,0.9999860298884395,140.312727071003
7.464,0.9999859157060959,140.2654938453614
7.4719999999999995,0.9999858020597832,140.21824490586323
7.48,0.9999856889625937,140.17098023073302
7.4879999999999995,0.9999855764274732,140.12369979818584
7.496,0.9999854644672229,140.0764035864274
7.504,0.9999853530944985,140.02909157365406
7.5120000000000005,0.9999852423218121,139.98176373805273
7.52,0.9999851321615297,139.93442005780105
7.5280000000000005,0.9999850226258761,139.88706051106726
7.536,0.9999849137269303,139.83968507601028
7.5440000000000005,0.9999848054766304,139.7922937307796
7.552,0.9999846978867704,139.74488645351545
7.5600000000000005,0.999984590969003,139.69746322234872
7.568,0.9999844847348394,139.65002401540087
7.5760000000000005,0.9999843791956491,139.6025688107841
7.584,0.99998427436266,139.55509758660136
7.5920000000000005,0.9999841702469607,139.50761032094601
7.6,0.9999840668594991,139.4601069919024
7.6080000000000005,0.9999839642110834,139.41258757754537
7.616,0.9999838623123825,139.3650520559405
7.6240000000000006,0.9999837611739262,139.31750040514413
7.632,0.9999836608061066,139.26993260320316
7.640000000000001,0.9999835612191769,139.22234862815523
7.648,0.9999834624232533,139.17474845802883
7.656000000000001,0.9999833644283141,139.1271320708429
7.664,0.9999832672442013,139.07949944460734
7.672,0.9999831708806203,139.03185055732257
7.68,0.99998307534714,138.98418538697987
7.688,0.9999829806531946,138.93650391156118
7.696,0.9999828868080823,138.88880610903917
7.704,0.9999827938209673,138.84109195737722
7.712,0.9999827017008788,138.7933614345295
7.72,0.9999826104567123,138.74561451844085
7.728,0.9999825200972299,138.69785118704692
7.736,0.9999824306310604,138.65007141827405
7.744,0.9999823420666998,138.6022751900394
7.752,0.9999822544125123,138.55446248025075
7.76,0.9999821676767295,138.5066332668068
7.768,0.9999820818674525,138.45878752759688
7.776,0.9999819969926504,138.41092524050114
7.784,0.9999819130601625,138.3630463833905
7.792,0.9999818300776977,138.31515093412668
7.8,0.9999817480528348,138.2672388705621
7.808,0.9999816669930236,138.21931017053993
7.816,0.9999815869055849,138.1713648118943
7.824,0.9999815077977109,138.12340277244996
7.832,0.9999814296764659,138.07542403002253
7.84,0.9999813525487864,138.02742856241835
7.848,0.999981276421482,137.9794163474346
7.856,0.9999812013012357,137.93138736285928
7.864,0.9999811271946026,137.88334158647118
7.872,0.9999810541080141,137.83527899603985
7.88,0.9999809820477743,137.7871995693257
7.888,0.9999809110200635,137.7391032840799
7.896,0.9999808410309361,137.69099011804457
7.904,0.9999807720863233,137.64286004895243
7.912,0.9999807041920322,137.59471305452723
7.92,0.9999806373537463,137.5465491124834
7.928,0.9999805715770261,137.4983682005263
7.936,0.9999805068673104,137.45017029635207
7.944,0.9999804432299149,137.40195537764768
7.952,0.9999803806700346,137.35372342209095
7.96,0.9999803191927421,137.30547440735057
7.968,0.9999802588029906,137.25720831108606
7.976,0.9999801995056122,137.20892511094775
7.984,0.9999801413053191,137.1606247845768
7.992,0.9999800842067044,137.11230730960537
8.0,0.9999800282142415,137.06397266365636
8.008,0.9999799733322858,137.0156208243435
8.016,0.9999799195650746,136.96725176927148
8.024000000000001,0.9999798669167272,136.9188654760358
8.032,0.999979815391246,136.8704619222228
8.04,0.9999797649925156,136.82204108540978
8.048,0.9999797157243054,136.7736029431649
8.056000000000001,0.9999796675902682,136.72514747304703
8.064,0.9999796205939415,136.67667465260624
8.072,0.9999795747387475,136.62818445938322
8.08,0.9999795300279941,136.57967687090957
8.088000000000001,0.9999794864648749,136.53115186470794
8.096,0.9999794440524693,136.4826094182917
8.104,0.9999794027937441,136.43404950916525
8.112,0.9999793626915532,136.38547211482376
8.120000000000001,0.9999793237486375,136.33687721275342
8.128,0.9999792859676265,136.28826478043123
8.136,0.999979249351038,136.2396347953252
8.144,0.9999792139012785,136.19098723489412
8.152000000000001,0.9999791796206446,136.14232207658785
8.16,0.9999791465113221,136.093639297847
8.168,0.9999791145753872,136.0449388761032
8.176,0.9999790838148067,135.99622078877897
8.184000000000001,0.9999790542314392,135.94748501328777
8.192,0.9999790258270339,135.898731527034
8.2,0.9999789986032335,135.8499603074129
8.208,0.999978972561572,135.80117133181076
8.216000000000001,0.9999789477034767,135.7523645776047
8.224,0.9999789240302691,135.7035400221629
8.232,0.9999789015431637,135.65469764284433
8.24,0.9999788802432695,135.60583741699904
8.248000000000001,0.9999788601315909,135.5569593219679
8.256,0.999978841209027,135.5080633350828
8.264,0.9999788234763728,135.4591494336666
8.272,0.9999788069343196,135.41021759503306
8.280000000000001,0.9999787915834553,135.36126779648686
8.288,0.9999787774242647,135.31230001532379
8.296,0.9999787644571304,135.2633142288304
8.304,0.9999787526823332,135.21431041428437
8.312,0.9999787421000518,135.16528854895424
8.32,0.9999787327103645,135.11624861009952
8.328,0.9999787245132489,135.06719057497077
8.336,0.9999787175085819,135.01811442080938
8.344,0.9999787116961417,134.96902012484793
8.352,0.9999787070756063,134.91990766430973
8.36,0.9999787036465556,134.87077701640925
8.368,0.9999787014084714,134.8216281583518
8.376,0.999978700360737,134.77246106733384
8.384,0.9999787005026389,134.72327572054263
8.392,0.9999787018333666,134.6740720951566
8.4,0.9999787043520135,134.62485016834498
8.408,0.9999787080575764,134.57560991726814
8.416,0.9999787129489572,134.52635131907738
8.424,0.9999787190249632,134.47707435091496
8.432,0.9999787262843058,134.42777898991426
8.44,0.9999787347256038,134.37846521319952
8.448,0.9999787443473814,134.32913299788606
8.456,0.9999787551480711,134.27978232108023
8.464,0.9999787671260107,134.23041315987925
8.472,0.9999787802794478,134.18102549137154
8.48,0.999978794606537,134.13161929263634
8.488,0.9999788101053431,134.08219454074404
8.496,0.9999788267738386,134.032751212756
8.504,0.9999788446099069,133.9832892857246
8.512,0.9999788636113409,133.93380873669315
8.52,0.9999788837758447,133.8843095426962
8.528,0.9999789051010335,133.83479168075903
8.536,0.9999789275844341,133.78525512789824
8.544,0.9999789512234856,133.7356998611212
8.552,0.9999789760155392,133.68612585742642
8.56,0.9999790019578604,133.63653309380354
8.568,0.9999790290476267,133.586921547233
8.576,0.9999790572819313,133.5372911946865
8.584,0.9999790866577808,133.48764201312665
8.592,0.999979117172097,133.43797397950706
8.6,0.9999791488217179,133.38828707077252
8.608,0.9999791816033974,133.33858126385874
8.616,0.9999792155138046,133.28885653569256
8.624,0.9999792505495277,133.2391128631918
8.632,0.999979286707071,133.18935022326528
8.64,0.9999793239828568,133.13956859281296
8.648,0.9999793623732263,133.0897679487259
8.656,0.9999794018744396,133.039948267886
8.664,0.999979442482676,132.99010952716645
8.672,0.9999794841940355,132.9402517034313
8.68,0.9999795270045369,132.8903747735358
8.688,0.9999795709101216,132.84047871432614
8.696,0.999979615906652,132.79056350263966
8.704,0.9999796619899115,132.74062911530473
8.712,0.9999797091556069,132.69067552914075
8.72,0.9999797573993676,132.64070272095825
8.728,0.9999798067167462,132.5907106675587
8.736,0.9999798571032196,132.54069934573482
8.744,0.999979908554189,132.49066873227025
8.752,0.9999799610649799,132.4406188039397
8.76,0.9999800146308441,132.3905495375091
8.768,0.9999800692469583,132.3404609097352
8.776,0.9999801249084264,132.29035289736615
8.784,0.999980181610279,132.24022547714085
8.792,0.9999802393474739,132.1900786257895
8.8,0.9999802981148967,132.13991232003323
8.808,0.9999803579073618,132.0897265365844
8.815999999999999,0.9999804187196123,132.0395212521463
8.824,0.9999804805463207,131.9892964434134
8.832,0.9999805433820894,131.93905208707116
8.84,0.9999806072214512,131.88878815979632
8.847999999999999,0.9999806720588695,131.8385046382564
8.856,0.9999807378887402,131.7882014991103
8.864,0.9999808047053899,131.7378787190078
8.872,0.9999808725030783,131.68753627458992
8.879999999999999,0.999980941275998,131.63717414248862
8.888,0.9999810110182752,131.5867922993271
8.896,0.9999810817239694,131.53639072171956
8.904,0.9999811533870756,131.4859693862713
8.911999999999999,0.9999812260015228,131.43552826957873
8.92,0.9999812995611767,131.38506734822934
8.928,0.9999813740598376,131.33458659880176
8.936,0.9999814494912437,131.28408599786573
8.943999999999999,0.9999815258490694,131.23356552198192
8.952,0.9999816031269267,131.18302514770232
8.96,0.9999816813183667,131.13246485156992
8.968,0.9999817604168779,131.08188461011878
8.975999999999999,0.9999818404158879,131.03128439987412
8.984,0.9999819213087657,130.9806641973522
8.992,0.9999820030888181,130.93002397906048
9.0,0.9999820857492944,130.87936372149747
9.008,0.9999821692833842,130.82868340115272
9.016,0.9999822536842192,130.777982994507
9.024000000000001,0.9999823389448732,130.7272624780321
9.032,0.9999824250583633,130.676521828191
9.04,0.9999825120176485,130.62576102143774
9.048,0.9999825998156335,130.57498003421742
9.056000000000001,0.9999826884451664,130.52417884296634
9.064,0.9999827778990397,130.47335742411187
9.072,0.9999828681699925,130.4225157540725
9.08,0.9999829592507091,130.3716538092578
9.088000000000001,0.9999830511338204,130.32077156606852
9.096,0.999983143811904,130.26986900089645
9.104,0.999983237277486,130.21894609012452
9.112,0.9999833315230394,130.16800281012684
9.120000000000001,0.999983426540987,130.11703913726848
9.128,0.9999835223236995,130.06605504790582
9.136,0.9999836188634981,130.01505051838618
9.144,0.9999837161526539,129.9640255250481
9.152000000000001,0.9999838141833894,129.9129800442212
9.16,0.9999839129478769,129.86191405222624
9.168,0.999984012438242,129.8108275253751
9.176,0.9999841126465622,129.75972043997072
9.184000000000001,0.9999842135648673,129.7085927723072
9.192,0.9999843151851415,129.65744449866986
9.2,0.9999844174993225,129.60627559533492
9.208,0.9999845204993022,129.55508603856987
9.216000000000001,0.9999846241769281,129.50387580463328
9.224,0.9999847285240032,129.4526448697749
9.232,0.9999848335322862,129.40139321023548
9.24,0.9999849391934932,129.35012080224698
9.248000000000001,0.999985045499297,129.29882762203243
9.256,0.9999851524413285,129.24751364580607
9.264,0.9999852600111766,129.19617884977313
9.272,0.9999853682003893,129.14482321013006
9.280000000000001,0.9999854770004742,129.0934467030644
9.288,0.9999855864028988,129.04204930475478
9.296,0.9999856963990911,128.990630991371
9.304,0.9999858069804395,128.93919173907395
9.312000000000001,0.9999859181382951,128.88773152401566
9.32,0.9999860298639708,128.8362503223392
9.328,0.9999861421487423,128.78474811017892
9.336,0.9999862549838482,128.73322486366015
9.344,0.9999863683604915,128.6816805588994
9.352,0.9999864822698394,128.63011517200425
9.36,0.9999865967030239,128.57852867907346
9.368,0.999986711651143,128.52692105619687
9.376,0.9999868271052599,128.4752922794555
9.384,0.9999869430564057,128.42364232492133
9.392,0.9999870594955776,128.37197116865764
9.4,0.999987176413741,128.32027878671877
9.408,0.9999872938018303,128.26856515515013
9.416,0.9999874116507477,128.21683024998825
9.424,0.9999875299513651,128.1650740472608
9.432,0.9999876486945253,128.1132965229866
9.44,0.999987767871041,128.06149765317548
9.448,0.9999878874716958,128.00967741382857
9.456,0.9999880074872458,127.95783578093787
9.464,0.999988127908419,127.90597273048665
9.472,0.9999882487259161,127.85408823844931
9.48,0.9999883699304116,127.80218228079121
9.488,0.999988491512554,127.75025483346901
9.496,0.9999886134629664,127.69830587243034
9.504,0.9999887357722471,127.64633537361397
9.512,0.9999888584309696,127.59434331294976
9.52,0.9999889814296848,127.54232966635878
9.528,0.9999891047589197,127.49029440975305
9.536,0.9999892284091788,127.43823751903582
9.544,0.9999893523709452,127.38615897010138
9.552,0.9999894766346805,127.3340587388351
9.56,0.9999896011908253,127.28193680111353
9.568,0.9999897260297996,127.22979313280423
