freq,mag,phase
6.0,1.0011636525135024,52.82187363920455
6.002286592,1.0009455525819215,52.64385408034771
6.004572672,1.0006674638294961,52.46940394871763
6.006859264,1.0003466786317161,52.29926247696078
6.009145344,1.0000034527113089,52.133931937907676
6.011431936,0.99965937060647,51.97357666952908
6.013718016,0.9993363670649366,51.81803967985258
6.016004608,0.9990547042823066,51.666872468859104
6.018290688,0.9988323029062391,51.519368906961496
6.02057728,0.9986833696806463,51.37454993942908
6.022863872,0.9986171617251778,51.231285522331405
6.025149952,0.998638122322074,51.08832733122783
6.027436544,0.998744922068771,50.944419015646645
6.029722624,0.9989307746864171,50.79837383263231
6.032009216,0.9991839049222491,50.64910273468609
6.034295296,0.9994883732016461,50.49575688061765
6.036581888,0.9998248547466578,50.33773662540232
6.03886848,1.0001720766031024,50.174718956800454
6.04115456,1.0005081997269385,50.00674173357117
6.043441152,1.000811907859627,49.83408439408723
6.045727232,1.0010639913996793,49.657387599324736
6.048013824,1.0012486609011708,49.477516963445495
6.050299904,1.001354227011584,49.29549483037217
6.052586496,1.001373882493999,49.112563733728244
6.054872576,1.0013065108791046,48.92993685443042
6.057159168,1.0011563269644923,48.7488540741437
6.05944576,1.0009326126881897,48.570465598959814
6.06173184,1.0006495258691517,48.39570266044935
6.064018432,1.0003248214197835,48.225327351908355
6.066304512,0.9999791343016774,48.05978530221421
6.068591104,0.9996341505253415,47.899231812972666
6.070877184,0.99931165810792,47.743514700286504
6.073163776,0.9990322515949288,47.59214734738187
6.075450368,0.9988134353320754,47.44437903930178
6.077736448,0.9986692152433742,47.299255894796026
6.08002304,0.9986087133714572,47.15557045858689
6.08230912,0.9986358806450049,47.012135174658056
6.084595712,0.9987489806968626,46.86762567474312
6.086881792,0.9989408783311189,46.720906217768196
6.089168384,0.9991994738778545,46.57086366118502
6.091454464,0.9995082907942818,46.4166812674882
6.093741056,0.9998479919728909,46.2577651929307
6.096027648,1.0001969025727422,46.09380100833791
6.098313728,1.0005331284956331,45.9248665925294
6.10060032,1.000835345274098,45.75126540953634
6.1028864,1.001084480580139,45.57363321361668
6.105172992,1.0012649575868082,45.392880562904466
6.107459072,1.0013652316390682,45.210053206988306
6.109745664,1.0013790496293131,45.026381930683385
6.112032256,1.0013053155290776,44.843114642031104
6.114318336,1.0011488903075265,44.66146707173712
6.116604928,1.0009194707161313,44.482602168184826
6.118891008,1.0006314033074617,44.30742753028888
6.1211776,1.0003030254216323,44.136683383504874
6.12346368,0.9999549397063716,43.970844675190975
6.125750272,0.9996089539371223,43.81000449705332
6.128036352,0.9992872474648059,43.65399060552902
6.130322944,0.9990100247890841,43.50228806098203
6.132609536,0.9987948038894291,43.35417779963796
6.134895616,0.9986554292281192,43.20860631659037
6.137182208,0.9986005640717079,43.06442174047179
6.139468288,0.998633955805185,42.92037600415919
6.14175488,0.9987533106305495,42.77519225788167
6.14404096,0.9989512395712732,42.62766534609966
6.146327552,0.9992150392319368,42.476767142374925
6.148614144,0.9995282763401955,42.321627712519195
6.150900224,0.9998709916950418,42.16170442401794
6.153186816,1.0002216450623431,41.996696976200305
6.155472896,1.0005578499512962,41.826687382366146
6.157759488,1.0008585610902754,41.65204844765184
6.160045568,1.0011047321671647,41.47338328417442
6.16233216,1.001280998033041,41.29165594356527
6.16461824,1.001375957078932,41.107934840945184
6.166904832,1.0013838406953801,40.92341590384669
6.169191424,1.0013039263419061,40.73939249851805
6.171477504,1.0011413774392657,40.557088543696516
6.173764096,1.0009063060728947,40.37762664742196
6.176050176,1.0006134466073522,40.20193465813687
6.178336768,1.0002813961668569,40.0307626658823
6.180622848,0.999930868791376,39.86448739065609
6.18290944,0.9995842006411303,39.703247711143625
6.18519552,0.9992631490312812,39.54683018365164
6.187482112,0.9989882077098121,39.39472091802548
6.189768704,0.9987766723951068,39.24610879911321
6.192054784,0.9986420482201197,39.10000977890858
6.194341376,0.9985928856283118,38.955222781915474
6.196627456,0.99863228843287,38.810452249415846
6.198914048,0.9987579328442289,38.664480320241786
6.201200128,0.998961694869476,38.51604470496839
6.20348672,0.9992308568720447,38.364169204247105
6.205773312,0.9995482826412194,38.20796717276866
6.208059392,0.9998940169817158,38.046938569494216
6.210345984,1.0002461143472436,37.8808001661664
6.212632064,1.0005824053025816,37.709639350918266
6.214918656,1.0008815128491664,37.533815877724514
6.217204736,1.001124719444007,37.354056415697926
6.219491328,1.001296707802192,37.171243497343646
6.221777408,1.0013864864644808,36.986487232091534
6.224064,1.0013884385147434,36.80103906039133
6.226350592,1.0013024157465225,36.616177013073674
6.228636672,1.0011337688245496,36.433100119255364
6.230923264,1.000893107762077,36.252954141661334
6.233209344,1.0005954991865489,36.076656192750576
6.235495936,1.000259825675761,35.90489456105129
6.237782016,0.9999070681618715,35.738099957145515
6.240068608,0.9995595630968519,35.57637462211139
6.2423552,0.9992394281289253,35.419446336128644
6.24464128,0.9989667149296695,35.26679958439237
6.246927872,0.998758873564429,35.117612938741026
6.249213952,0.9986289200593834,34.97085750442363
6.251500544,0.9985853562675465,34.82533175527594
6.253786624,0.9986308637966043,34.67977021271259
6.256073216,0.9987626389907653,34.53287309556812
6.258359296,0.9989722872197071,34.383457027186594
6.260645888,0.9992465510780245,34.23047199219831
6.26293248,0.9995682143441963,34.073131061417804
6.26521856,0.9999167916011413,33.9108780980299
6.267505152,1.0002703825910269,33.74347954764539
6.269791232,1.0006066016111397,33.57106529361223
6.272077824,1.0009041787362107,33.39400111201465
6.274363904,1.0011444266699916,33.21301015621116
6.276650496,1.001312154497169,33.02902643883422
6.278937088,1.0013967282698923,32.84317234047145
6.281223168,1.0013929266790151,32.65668101819042
6.28350976,1.0013008577463678,32.47084752114303
6.28579584,1.0011261761575458,32.286909452599
6.288082432,1.0008799815296394,32.105964945611724
6.290368512,1.0005778561317584,31.928949932297087
6.292655104,1.0002385767479571,31.756537228346605
6.294941184,0.9998836496364654,31.58911372786675
6.297227776,0.9995354662687123,31.426744810658597
6.299514368,0.9992160528147502,31.26921195567798
6.301800448,0.9989456218112531,31.11591968809607
6.30408704,0.998741378427365,30.96603654070438
6.30637312,0.9986162066543918,30.81851487686366
6.308659712,0.9985781222083371,30.672151503466743
6.310945792,0.9986296263926766,30.525667142333123
6.313232384,0.9987673545160377,30.37775535701441
6.315518464,0.9989826761453777,30.227225691080854
6.317805056,0.9992620673131527,30.073066376455763
6.320091648,0.9995877823932093,29.91446277637141
6.322377728,0.9999392073994106,29.750905329748495
6.32466432,1.0002941466885351,29.582163501708
6.3269504,1.0006302605951596,29.40838709546179
6.329236992,1.0009262874902618,29.2299602610005
6.331523072,1.0011635454206822,29.04765603335914
6.333809664,1.0013270937504515,28.862388975656344
6.336096256,1.0014065975590862,28.67533567572454
6.338382336,1.001396993662131,28.487718354523448
6.340668928,1.0012988793606257,28.30082541231068
6.342955008,1.001118460263381,28.11592035016531
6.3452416,1.0008668898278603,27.934073478484795
6.34752768,1.0005601217186426,27.756209974572062
6.349814272,1.000217428093523,27.583027166455754
6.352100352,0.9998603080356768,27.41487548964684
6.354386944,0.9995115385571262,27.251784124831804
6.356673536,0.9991929480107011,27.093509012590346
6.358959616,0.9989248340969197,26.939457440171104
6.361246208,0.9987240753512313,26.78878084701854
6.363532288,0.9986036098666488,26.64038240578968
6.36581888,0.9985709473749131,26.493089951739936
6.36810496,0.9986282801485483,26.345563973647685
6.370391552,0.9987719737689139,26.19652544294716
6.372678144,0.9989929223120609,26.04480310737004
6.374964224,0.9992772726360367,25.889354940406182
6.377250816,0.9996069471707274,25.729384220522526
6.379536896,0.9999610892776553,25.564419484805992
6.381823488,1.0003174135075519,25.394243833369977
6.384109568,1.000653498854186,25.219000849173984
6.38639616,1.000947915246252,25.039141137030885
6.38868224,1.0011822927829943,24.8553964852861
6.390968832,1.001341699063763,24.668782708051324
6.393255424,1.0014162541671234,24.48041396756184
6.395541504,1.001400975119224,24.291542976810184
6.397828096,1.0012970827281442,24.10348908817196
6.400114176,1.001110852488462,23.917508033584784
6.402400768,1.000854036299659,23.734646079855683
6.404686848,1.000542851464365,23.555859988045828
6.40697344,1.0001968069781522,23.381783239128517
6.409260032,0.9998376985408756,23.212762560368258
6.411546112,0.9994882716953088,23.04885045078818
6.413832704,0.9991705122190515,22.889719647245713
6.416118784,0.9989046290323131,22.734809827385366
6.418405376,0.9987074392216405,22.583211169450276
6.420691456,0.9985914625581477,22.4338656229015
6.422978048,0.998564108246605,22.285500440176072
6.425264128,0.9986271654467518,22.136846594950793
6.42755072,0.9987766655343641,21.986579765985635
6.429837312,0.9990031003155431,21.833548141210173
6.432123392,0.9992922233990905,21.676685388582623
6.434409984,0.9996257703860743,21.515271540866603
6.436696064,0.9999826620117158,21.348815940327945
6.438982656,1.000340320437225,21.1770855993868
6.441268736,1.0006761446593722,21.000284184710942
6.443555328,1.000969090619255,20.818883500648013
6.44584192,1.0012005978177358,20.633621889996178
6.448128,1.0013560239417794,20.445524259930064
6.450414592,1.0014255667879681,20.255747888698437
6.452700672,1.0014048720004018,20.065541279898113
6.454987264,1.0012952510641135,19.87623982613586
6.457273344,1.0011034257067652,19.689063450136192
6.459559936,1.0008415299886513,19.505096318720383
6.461846016,1.0005259658329395,19.32527293942079
6.464132608,1.0001766338321376,19.15019412369541
6.4664192,0.999815521844017,18.980213096075015
6.46870528,0.9994654286089872,18.8153359793932
6.470991872,0.999148552299865,18.65528593602857
6.473277952,0.9988848038627723,18.499372607053
6.475564544,0.9986911108692115,18.34675443441573
6.477850624,0.9985795596004652,18.196314922007133
6.480137216,0.9985574460444716,18.046779702772866
6.482423296,0.9986260377954007,17.896866606294
6.484709888,0.9987811383980433,17.745293372814544
6.48699648,0.999012988335027,17.590846332128976
6.48928256,0.999306893839947,17.43251576647105
6.491569152,0.9996441689510577,17.269546048869962
6.493855232,1.000003630292656,17.1014525945391
6.496141824,1.000362588388719,16.928087515929292
6.498427904,1.0006983296973895,16.749650534509172
6.500714496,1.0009897620649624,16.566591664076245
6.503001088,1.0012184019600223,16.379733910235988
6.505287168,1.0013699295226017,16.190078354650783
6.50757376,1.001434697870685,15.998773898306455
6.50985984,1.00140874425856,15.807137046923193
6.512146432,1.0012934848430923,15.616467738728897
6.514432512,1.001096239044922,15.427983871912375
6.516719104,1.0008292792045255,15.242816687287313
6.519005184,1.0005094735188587,15.061801102987408
6.521291776,1.0001569849917948,14.885617425626572
6.523578368,0.999793869706688,14.71457001244251
6.525864448,0.999443227502004,14.548661589280236
6.52815104,0.9991271344676833,14.387511138943973
6.53043712,0.9988654816385052,14.230526612168779
6.532723712,0.9986751475886815,14.076758728611205
6.535009792,0.9985678480833439,13.925121787180672
6.537296384,0.9985508003658237,13.774338729901478
6.539582976,0.9986248962660266,13.623092028265537
6.541869056,0.9987855026147322,13.47006271283147
6.544155648,0.9990224871792223,13.314095516945192
6.546441728,0.9993209093166302,13.15417668420664
6.54872832,0.9996619023090538,12.989548749415128
6.5510144,1.0000239923044496,12.819759541085796
6.553300992,1.0003842243737284,12.64468339661051
6.555587072,1.0007199187331797,12.464472963931987
6.557873664,1.0010097988359796,12.279714693760205
6.560160256,1.00123574342273,12.091133418803354
6.562446336,1.001383482275581,11.899797470794663
6.564732928,1.0014436266062592,11.706899770444425
6.567019008,1.001412469883855,11.513710761282054
6.5693056,1.001291831313806,11.321565660136027
6.57159168,1.001089231293039,11.131697692524465
6.573878272,1.0008174955367724,10.945188521052984
6.576164864,1.000493571561104,10.762929844153856
6.578450944,1.0001379908010597,10.58551621514735
6.580737536,0.9997729870669914,10.41327411920785
6.583023616,0.9994217405414472,10.246189091218817
6.585310208,0.9991063551936075,10.083867306142238
6.587596288,0.998846772023185,9.92568198012636
6.58988288,0.9986594697155772,9.770663370589677
6.59216896,0.9985565348494106,9.617729053267876
6.594455552,0.9985442475853616,9.465561930543446
6.596742144,0.9986236158624082,9.312839448943482
6.599028224,0.998789507162658,9.158307967464706
6.601314816,0.9990315872892714,9.000729662638992
6.603600896,0.9993345180662497,8.839105668343594
6.605887488,0.9996791002990404,8.672756500676684
6.608173568,1.0000436283080016,8.501171015295679
6.61046016,1.0004050513194163,8.324259527458423
6.612746752,1.00074070460888,8.142244214472413
6.615032832,1.0010292919622166,7.955628495315053
6.617319424,1.001252692402752,7.765234684639391
6.619605504,1.0013968828889483,7.572156284083077
6.621892096,1.0014524701827088,7.3775329867113575
6.624178176,1.0014162895949104,7.182719559051056
6.626464768,1.0012904351708865,6.9889845895573695
6.628750848,1.0010827187866367,6.79760924385778
6.63103744,1.0008063271340144,6.609663444677281
6.633324032,1.0004784180082738,6.426023443570413
6.635610112,1.0001197448743873,6.247300319762165
6.637896704,0.9997528819509268,6.073744515394156
6.640182784,0.9994009331980912,5.905369173865617
6.642469376,0.999086174412583,5.741752369559135
6.644755456,0.998828550061338,5.582249403678165
6.647042048,0.9986443984828737,5.425877768795933
6.649328128,0.9985453666714798,5.271524323231322
6.65161472,0.9985377396258763,5.117880736042051
6.653901312,0.9986222412359924,4.963637066448328
6.656187392,0.9987932052780947,4.807443099553689
6.658473984,0.9990402392082454,4.648139386054587
6.660760064,0.9993474161789493,4.484758266220786
6.663046656,0.9996954558217767,4.316568703096687
6.665332736,1.0000624822923443,4.143097073107327
6.667619328,1.0004250842592821,3.9642589334086775
6.66990592,1.00076069355016,3.7803322117529015
6.672192,1.00104803036001,3.591804640021425
6.674478592,1.001268908680461,3.3995108930205715
6.676764672,1.0014095566750363,3.20457424041784
6.679051264,1.0014611090186218,3.0081438510054443
6.681337344,1.0014200354922143,2.8115722459086805
6.683623936,1.0012891975573182,2.616183041624425
6.685910016,1.0010764756789883,2.4231834994200128
6.688196608,1.00079560415231,2.2336965648826905
6.6904832,1.000463747598879,2.0485531930509118
6.69276928,1.0001020584791638,1.8683724344012216
6.695055872,0.9997333474561684,1.693419216423641
6.697341952,0.9993808362256753,1.5236484290407182
6.699628544,0.9990667196799052,1.3586274062113266
6.701914624,0.9988108253998446,1.1976819722098881
6.704201216,0.998629648442627,1.0398773741358733
6.706487808,0.9985343794006329,0.8840145678702843
6.708773888,0.9985313510434035,0.728777440770589
6.71106048,0.99862053858008,0.5728829468470787
6.71334656,0.998796550884481,0.4149605668934891
6.715633152,0.9990482047113862,0.25386368171333656
6.717919232,0.9993596704860391,0.08861580411070012
6.720205824,0.999711094765468,-0.08151521165031818
6.722491904,1.0000805107962178,-0.25696774792790233
6.724778496,1.000444409938915,-0.4377873942872229
6.727065088,1.0007801616650092,-0.6237478999346336
6.729351168,1.0010662155574037,-0.8142904425527916
6.73163776,1.0012848645763035,-1.008545984501694
6.73392384,1.0014223039440269,-1.2054502849757995
6.736210432,1.0014697749639965,-1.403791367387258
6.738496512,1.001424113613238,-1.602216714650383
6.740783104,1.0012883917402264,-1.7993936944737097
6.743069696,1.0010710355593069,-1.9941089032462191
6.745355776,1.0007856164536824,-2.1852414805018117
6.747642368,1.0004500313579676,-2.371972582209791
6.749928448,1.0000854753781923,-2.5537135130462727
6.75221504,0.9997148526259811,-2.7301819950718897
6.75450112,0.999361639349664,-2.901497745611445
6.756787712,0.9990480463655961,-3.0680176238905186
6.759073792,0.9987938612678086,-3.230497474951431
6.761360384,0.998615311333773,-3.389887067474647
6.763646976,0.9985235830161001,-3.547363924414356
6.765933056,0.9985248521562371,-3.704268700287035
6.768219648,0.9986186700796189,-3.861925421659491
6.770505728,0.9987994161585783,-4.021663301833302
6.77279232,0.9990556100900588,-4.184649884634178
6.7750784,0.9993710295866072,-4.3518593005979955
6.777364992,0.9997257620646308,-4.523999116189943
6.779651584,1.0000976156046506,-4.7014968581592536
6.781937664,1.000462929840281,-4.884411035100685
6.784224256,1.0007987234271727,-5.0724949446781915
6.786510336,1.0010838604889156,-5.265123920564202
6.788796928,1.0013004114831277,-5.46146461599741
6.791083008,1.0014347374857346,-5.660415292220862
6.7933696,1.0014783182664218,-5.860747709613483
6.79565568,1.0014284351599458,-6.061107417838631
6.797942272,1.0012881594205776,-6.260179294680692
6.800228864,1.0010661962894467,-6.456715875059003
6.802514944,1.0007764859860975,-6.649615634322204
6.804801536,1.0004372400772825,-6.838061575856889
6.807087616,1.0000698956904248,-7.021461620128955
6.809374208,0.9996973516411669,-7.1995933837917265
6.811660288,0.9993433801362672,-7.372508525267544
6.81394688,0.9990300053261902,-7.540667520332147
6.81623296,0.9987774108546824,-7.704783480235608
6.818519552,0.9986013275375212,-7.865840639277541
6.820806144,0.9985130408024757,-8.025052957199069
6.823092224,0.9985181367095313,-8.183732041521003
6.825378816,0.9986164796115681,-8.34322715251068
6.827664896,0.9988016052888068,-8.504876876532094
6.829951488,0.9990621654934316,-8.669829459720082
6.832237568,0.9993815337092291,-8.83909285215121
6.83452416,0.9997395139839965,-9.013336800745714
6.836810752,1.0001137026245708,-9.192958126578374
6.839096832,1.000480342700137,-9.378047850674069
6.841383424,1.0008163316423662,-9.56830403999701
6.843669504,1.0011006652918226,-9.76313020939021
6.845956096,1.001315387915182,-9.961640500520613
6.848242176,1.00144684633686,-10.162722210991777
6.850528768,1.0014868950203508,-10.365149537432613
6.852814848,1.001432942847914,-10.567549256188888
6.85510144,1.0012882566536279,-10.76860952444402
6.857388032,1.0010619510979137,-10.967063438915549
6.859674112,1.0007683046698619,-11.16184751926787
6.861960704,1.000425605477809,-11.35211044068991
6.864246784,1.0000552824113436,-11.53728596684971
6.866533376,0.9996810218596442,-11.71715771287201
6.868819456,0.9993260327433936,-11.891815392268672
6.871106048,0.9990130717806874,-12.061690059500158
6.87339264,0.9987616026633462,-12.22754001481457
6.87567872,0.9985878105447745,-12.390390618178149
6.877965312,0.9985025548455795,-12.551419627517182
6.880251392,0.9985114397559611,-12.711986843828688
6.882537984,0.9986138009646955,-12.873418787950687
6.884824064,0.9988033448097956,-13.037051445897998
6.887110656,0.9990679132048611,-13.204069471908847
6.889396736,0.9993910369332843,-13.375448706331655
6.891683328,0.9997522326994053,-13.551865870234582
6.89396992,1.0001287190697579,-13.733704583670036
6.896256,1.0004967160623839,-13.921050124182582
6.898542592,1.0008331658283895,-14.11355719001419
6.900828672,1.0011168433432565,-14.310646921897424
6.903115264,1.0013298259370158,-14.511399678547988
6.905401344,1.001458685595318,-14.714730162876627
6.907687936,1.001495515725198,-14.919325385276421
6.909974528,1.001437745029586,-15.1238640585983
6.912260608,1.0012889837499357,-15.326981397536564
6.9145472,1.0010586955364573,-15.527501928100802
6.91683328,1.000761064921344,-15.724239323861845
6.919119872,1.000414864222199,-15.916422976298868
6.921405952,1.0000418610998485,-16.103498939285103
6.923692544,0.9996656166527903,-16.2852189424162
6.925978624,0.9993097811364353,-16.461713621656553
