freq,mag,phase
6.0,0.999990543078193,-163.01796308226872
6.008,0.9999926348603126,-163.43271535516985
6.016,0.9999946496381077,-163.8472536253072
6.024,0.9999965888597447,-164.2615808155895
6.032,0.9999984539578555,-164.67569986123468
6.04,0.9999999999999999,-165.08961370956837
6.048,0.9999999999999999,-165.5033253198246
6.056,1.0,-165.91683766294787
6.064,0.9999999999999999,-166.33015372139758
6.072,1.0,-166.7432764889541
6.08,1.0,-167.15620897052662
6.088,1.0,-167.56895418196285
6.096,0.9999999999999998,-167.98151514986068
6.104,1.0,-168.39389491138147
6.112,0.9999999999999999,-168.80609651406513
6.12,1.0,-169.21812301564714
6.128,0.9999999999999999,-169.62997748387696
6.136,1.0,-170.04166299633863
6.144,1.0,-170.45318264027284
6.152,1.0,-170.86453951240057
6.16,1.0,-171.2757367187487
6.168,0.9999999999999999,-171.68677737447717
6.176,0.9999999999999999,-172.09766460370773
6.184,1.0,-172.50840153935442
6.192,1.0,-172.91899132295563
6.2,0.9999999999999999,-173.32943710450766
6.208,1.0,-173.73974204230015
6.216,1.0,-174.1499093027527
6.224,1.0,-174.55994206025338
6.232,1.0,-174.96984349699832
6.24,1.0,-175.37961680283345
6.248,1.0,-175.78926517509703
6.256,1.0,-176.19879181846414
6.264,1.0,-176.6081999447924
6.272,1.0,-177.01749277296926
6.28,1.0,-177.42667352876032
6.288,1.0,-177.83574544465975
6.296,0.9999999999999999,-178.244711759741
6.304,0.9999999999999999,-178.65357571951017
6.312,0.9999999999999999,-179.06234057575952
6.32,1.0,-179.47100958642298
6.328,0.9999999999999999,-179.87958601543266
6.336,0.9999999999999999,179.7119268674233
6.344,1.0,179.30352578664173
6.352,1.0,178.89520746114388
6.36,0.9999999999999999,178.4869686044145
6.368,0.9999999999999998,178.0788059246387
6.376,0.9999999999999999,177.67071612483844
6.384,1.0,177.2626959030074
6.392,1.0,176.85474195224535
6.4,1.0,176.4468509608908
6.408,0.9999999999999999,176.03901961265302
6.416,0.9999999999999999,175.6312445867428
6.424,1.0,175.22352255800232
6.432,1.0,174.81585019703402
6.44,1.0,174.40822417032868
6.448,0.9999999999999998,174.000641140392
6.456,0.9999999999999999,173.59309776587097
6.464,0.9999999999999999,173.18559070167908
6.472,0.9999999999999999,172.77811659912035
6.48,1.0,172.370672106013
6.4879999999999995,1.0,171.9632538668121
6.496,1.0,171.55585852273123
6.504,1.0,171.14848271186398
6.5120000000000005,1.0,170.74112306930377
6.52,1.0,170.33377622726394
6.5280000000000005,0.9999999999999999,169.92643881519632
6.536,1.0,169.51910745990995
6.5440000000000005,1.0,169.1117787856879
6.552,0.9999999999999999,168.7044494144054
6.5600000000000005,1.0,168.297115965645
6.568,0.9999999999999999,167.8897750568135
6.5760000000000005,1.0,167.48242330325635
6.584,0.9999999999999998,167.07505731837307
6.592,1.0,166.66767371373098
6.6,0.9999999999999999,166.2602690991793
6.608,1.0,165.85284008296253
6.616,1.0,165.44538327183295
6.624,0.9999999999999998,165.0378952711636
6.632,1.0,164.63037268506014
6.64,0.9999999999999999,164.22281211647268
6.648,1.0,163.81521016730736
6.656,1.0,163.40756343853724
6.664,1.0,162.99986853031348
6.672,1.0,162.5921220420758
6.68,1.0,162.1843205726629
6.688,1.0,161.77646072042265
6.696,0.9999999999999999,161.36853908332225
6.704,0.9999999999999999,160.960552259058
6.712,0.9999999999999999,160.552496845165
6.72,1.0,160.14436943912688
6.728,1.0,159.73616663848543
6.736,0.9999999999999999,159.32788504095
6.744,1.0,158.91952124450714
6.752,1.0,158.51107184752982
6.76,1.0,158.10253344888733
6.768,0.9999999409342777,157.6939026480546
6.776,0.9999992714013847,157.28517604522187
6.784,0.99999860403939,156.87635024140445
6.792,0.9999979391695474,156.46742183855267
6.8,0.9999972771055214,156.05838743966171
6.808,0.999996618153465,155.64924364888188
6.816,0.9999959626120998,155.239987071629
6.824,0.9999953107727924,154.83061431469505
6.832,0.9999946629196345,154.4211219863588
6.84,0.9999940193295171,154.0115066964972
6.848,0.9999933802722109,153.60176505669662
6.856,0.9999927460104393,153.1918936803645
6.864,0.9999921167999574,152.78188918284167
6.872,0.9999914928896254,152.37174818151453
6.88,0.9999908745214858,151.9614672959281
6.888,0.9999902619308367,151.55104314789898
6.896,0.9999896553463069,151.14047236162938
6.904,0.9999890549899297,150.729751563821
6.912,0.9999884610772163,150.31887738378975
6.92,0.9999878738172298,149.907846453581
6.928,0.9999872934126562,149.49665540808502
6.936,0.9999867200598788,149.08530088515354
6.944,0.9999861539490479,148.6737795257163
6.952,0.9999855952641541,148.26208797389867
6.96,0.9999850441830989,147.8502228771396
6.968,0.9999845008777637,147.43818088631053
6.976,0.9999839655140828,147.02595865583447
6.984,0.9999834382521096,146.6135528438064
6.992,0.999982919246091,146.20096011211393
7.0,0.9999824086445298,145.788177126559
7.008,0.9999819065902597,145.37520055698005
7.016,0.9999814132205082,144.96202707737532
7.024,0.9999809286669676,144.5486533660268
7.032,0.9999804530558614,144.1350761056248
7.04,0.99997998650801,143.72129198339394
7.048,0.9999795291388992,143.30729769121942
7.056,0.9999790810587433,142.89308992577458
7.064,0.9999786423725557,142.4786653886493
7.072,0.9999782131802065,142.0640207864792
7.08,0.9999777935764959,141.64915283107615
7.088,0.9999773836512124,141.2340582395592
7.096,0.9999769834891992,140.8187337344874
7.104,0.9999765931704186,140.4031760439927
7.112,0.9999762127700133,139.98738190191443
7.12,0.9999758423583692,139.57134804793503
7.128,0.9999754820011808,139.15507122771638
7.136,0.9999751317595106,138.73854819303767
7.144,0.9999747916898504,138.32177570193397
7.152,0.9999744618441848,137.90475051883672
7.16,0.9999741422700514,137.4874694147144
7.168,0.9999738330105988,137.06992916721535
7.176,0.9999735341046511,136.65212656081104
7.184,0.9999732455867648,136.2340583869412
7.192,0.999972967487288,135.8157214441599
7.2,0.999972699832421,135.39711253828267
7.208,0.9999724426442758,134.97822848253574
7.216,0.9999721959409301,134.5590660977055
7.224,0.9999719597364907,134.13962221229033
7.232,0.999971734041147,133.7198936626529
7.24,0.999971518861231,133.2998772931747
7.248,0.9999713141992724,132.87956995641107
7.256,0.9999711200540554,132.45896851324844
7.264,0.9999709364206771,132.03806983306268
7.272,0.9999707632906001,131.61687079387846
7.28,0.9999706006517106,131.19536828253086
7.288,0.9999704484883717,130.773559194828
7.296,0.9999703067814805,130.35144043571515
7.304,0.9999701755085205,129.92900891944052
7.312,0.9999700546436175,129.50626156972237
7.32,0.9999699441575932,129.08319531991796
7.328,0.9999698440180166,128.65980711319366
7.336,0.9999697541892609,128.2360939026971
7.344,0.9999696746325545,127.8120526517305
7.352,0.9999696053060326,127.38768033392567
7.36,0.9999695461647935,126.96297393342094
7.368,0.9999694971609449,126.53793044503927
7.376,0.9999694582436617,126.11254687446815
7.384,0.9999694293592325,125.68682023844154
7.392,0.9999694104511144,125.26074756492274
7.4,0.9999694014599814,124.83432589328957
7.4079999999999995,0.9999694023237765,124.40755227452091
7.416,0.9999694129777611,123.98042377138485
7.4239999999999995,0.9999694333545668,123.5529374586293
7.432,0.9999694633842422,123.12509042317278
7.4399999999999995,0.9999695029943054,122.69687976429884
7.448,0.9999695521097915,122.26830259385054
7.4559999999999995,0.9999696106533014,121.83935603642783
7.464,0.9999696785450519,121.41003722958595
7.4719999999999995,0.9999697557029239,120.98034332403617
7.48,0.9999698420425088,120.55027148384754
7.4879999999999995,0.999969937477158,120.1198188866515
7.496,0.999970041918031,119.68898272384698
7.504,0.9999701552741413,119.25776020080853
7.5120000000000005,0.9999702774524051,118.826148537095
7.52,0.999970408357687,118.3941449666615
7.5280000000000005,0.999970547892848,117.96174673807135
7.536,0.9999706959587901,117.5289511147117
7.5440000000000005,0.999970852454505,117.09575537500926
7.552,0.9999710172771169,116.6621568126493
7.5600000000000005,0.9999711903219325,116.2281527367951
7.568,0.9999713714824826,115.79374047231056
7.5760000000000005,0.9999715606505696,115.35891735998334
7.584,0.9999717577163114,114.92368075675085
7.5920000000000005,0.9999719625681873,114.48802803592707
7.6,0.9999721750930826,114.05195658743244
7.6080000000000005,0.9999723951763316,113.61546381802387
7.616,0.9999726227017645,113.1785471515284
7.6240000000000006,0.9999728575517477,112.74120402907693
7.632,0.9999730996072324,112.30343190934119
7.640000000000001,0.9999733487477935,111.86522826877118
7.648,0.9999736048516747,111.42659060183574
7.656000000000001,0.9999738677958347,110.98751642126352
7.664,0.9999741374559844,110.54800325828691
7.672,0.9999744137066352,110.10804866288677
7.68,0.999974696421138,109.6676502040396
7.688,0.999974985471727,109.22680546996597
7.696,0.9999752807295617,108.78551206838105
7.704,0.9999755820647698,108.3437676267465
7.712,0.9999758893464866,107.90156979252419
7.72,0.9999762024428994,107.4589162334318
7.728,0.9999765212212877,107.01580463769973
7.736,0.9999768455480642,106.57223271433001
7.744,0.9999771752888158,106.1281981933565
7.752,0.9999775103083455,105.683698826107
7.76,0.9999778504707117,105.2387323854669
7.768,0.9999781956392712,104.79329666614422
7.776,0.9999785456767147,104.34738948493647
7.784,0.9999789004451132,103.90100868099883
7.792,0.9999792598059529,103.4541521161141
7.8,0.9999796236201773,103.0068176749639
7.808,0.9999799917482266,102.55900326540133
7.816,0.9999803640500768,102.11070681872546
7.824,0.9999807403852784,101.66192628995672
7.832,0.999981120612997,101.21265965811403
7.84,0.9999815045920505,100.76290492649322
7.848,0.9999818921809492,100.31266012294668
7.856,0.9999822832379329,99.86192330016446
7.864,0.9999826776210103,99.41069253595653
7.872,0.9999830751879971,98.9589659335364
7.88,0.9999834757965531,98.50674162180582
7.888,0.9999838793042211,98.05401775564069
7.896,0.9999842855684629,97.60079251617823
7.904,0.9999846944466988,97.14706411110508
7.912,0.9999851057963436,96.69283077494649
7.92,0.9999855194748435,96.23809076935667
7.928,0.9999859353397128,95.78284238341
7.936,0.9999863532485723,95.32708393389318
7.944,0.9999867730591828,94.87081376559829
7.952,0.9999871946294842,94.4140302516168
7.96,0.9999876178176297,93.95673179363426
7.968,0.9999880424820231,93.4989168222258
7.976,0.9999884684813526,93.04058379715231
7.984,0.9999888956746285,92.58173120765744
7.992,0.9999893239212166,92.122357572765
8.0,0.9999897530808748,91.66246144157704
8.008,0.9999901830137864,91.20204139357247
8.016,0.9999906135805965,90.7410960389059
8.024000000000001,0.9999910446424439,90.27962401870741
8.032,0.9999914760609993,89.81762400538223
8.04,0.9999919076984946,89.35509470291049
8.048,0.9999923394177608,88.89203484714777
8.056000000000001,0.9999927710822586,88.42844320612575
8.064,0.9999932025561137,87.96431858035263
8.072,0.9999936337041487,87.49965980311347
8.08,0.9999940643919166,87.0344657407711
8.088000000000001,0.9999944944857332,86.56873529306675
8.096,0.9999949238527099,86.10246739342027
8.104,0.9999953523607847,85.63566100923009
8.112,0.9999957798787557,85.16831514217324
8.120000000000001,0.9999962062763117,84.70042882850507
8.128,0.9999966314240638,84.23200113935818
8.136,0.9999970551935765,83.76303118104074
8.144,0.9999974774573993,83.2935180953347
8.152000000000001,0.9999978980890954,82.82346105979337
8.16,0.9999983169632747,82.3528592880378
8.168,0.9999987339556222,81.88171203005244
8.176,0.999999148942927,81.41001857248023
8.184000000000001,0.9999995618031138,80.93777823891674
8.192,0.9999999724152712,80.46499039020306
8.2,1.0,79.99165442471708
8.208,0.9999999999999999,79.51776977866463
8.216000000000001,1.0,79.04333592636864
8.224,0.9999999999999999,78.56835238055703
8.232,1.0,78.09281869264885
8.24,1.0,77.61673445303934
8.248000000000001,0.9999999999999999,77.14009929138341
8.256,0.9999999999999999,76.66291287687683
8.264,1.0,76.18517491853567
8.272,0.9999999999999999,75.70688516547423
8.280000000000001,1.0,75.22804340718099
8.288,0.9999999999999999,74.74864947379186
8.296,0.9999999999999999,74.26870323636146
8.304,0.9999999999999999,73.78820460713224
8.312,1.0,73.30715353980163
8.32,1.0,72.82555002978529
8.328,1.0,72.34339411447954
8.336,0.9999999999999999,71.86068587351939
8.344,0.9999999999999998,71.3774254290353
8.352,1.0,70.89361294590563
8.36,1.0,70.4092486320074
8.368,0.9999999999999998,69.92433273846254
8.376,1.0,69.43886555988246
8.384,1.0,68.95284743460763
8.392,0.9999999999999999,68.46627874494547
8.4,1.0,67.97915991740288
8.408,1.0,67.491491422917
8.416,1.0,67.00327377708034
8.424,1.0,66.51450754036381
8.432,0.9999999999999998,66.02519331833413
8.44,1.0,65.53533176186879
8.448,0.9999999999999999,65.04492356736512
8.456,1.0,64.5539694769468
8.464,1.0,64.06247027866422
8.472,1.0,63.57042680669194
8.48,1.0,63.07783994152
8.488,1.0,62.58471061014206
8.496,0.9999999999999999,62.0910397862369
8.504,1.0,61.59682849034684
8.512,1.0,61.102077790049236
8.52,1.0,60.60678880012446
8.528,0.9999999999999999,60.11096268271711
8.536,1.0,59.61460064749309
8.544,1.0,59.117703951789856
8.552,0.9999999999999999,58.620273900762555
8.56,1.0,58.12231184752258
8.568,1.0,57.6238191932723
8.576,1.0,57.124797387431684
8.584,0.9999999999999999,56.625247927760974
8.592,1.0,56.12517236047514
8.6,1.0,55.62457228035389
8.608,1.0000000000000002,55.12344933084352
8.616,0.9999999999999999,54.62180520415403
8.624,0.9999999999999998,54.11964164134774
8.632,0.9999999999999999,53.616960432423085
8.64,1.0,53.11376341638971
8.648,1.0,52.6100524813384
8.656,0.9999999999999999,52.10582956450234
8.664,1.0,51.601096652312705
8.672,1.0,51.09585578044557
8.68,1.0,50.590109033863
8.688,1.0,50.08385854684507
8.696,1.0,49.57710650301602
8.704,1.0,49.06985513536109
8.712,0.9999999999999999,48.56210672623726
8.72,0.9999999999999999,48.05386360737459
8.728,0.9999999999999999,47.545128159871254
8.736,0.9999999999999999,47.035902814178826
8.744,1.0,46.52619005008131
8.752,0.9999999999999998,46.015992396664195
8.76,0.9999999999999999,45.50531243227694
8.768,0.9999999999999999,44.994152784485486
8.776,1.0,44.48251613001794
8.784,0.9999999999999999,43.97040519470015
8.792,1.0,43.45782275338433
8.8,1.0,42.944771629867454
8.808,1.0,42.431254696802355
8.815999999999999,1.0,41.917274875598785
8.824,1.0,41.402835136316334
8.832,1.0,40.8879384975487
8.84,1.0,40.37258802629808
8.847999999999999,1.0,39.85678683784092
8.856,1.0,39.34053809558472
8.864,1.0,38.82384501091587
8.872,1.0,38.30671084303773
8.879999999999999,0.9999999999999999,37.789138898799386
8.888,1.0,37.27113253251577
8.896,1.0,36.75269514577819
8.904,1.0,36.233830187255144
8.911999999999999,1.0,35.71454115248368
8.92,1.0,35.19483158365183
8.928,0.9999999999999999,34.67470506937136
8.936,1.0,34.15416524444082
8.943999999999999,0.9999999999999999,33.63321578959878
8.952,1.0,33.11186043126817
8.96,1.0,32.59010294129096
8.968,1.0,32.067947136652755
8.975999999999999,1.0,31.545396879197874
8.984,0.9999999999999998,31.022456075335242
8.992,1.0,30.499128675734553
9.0,1.0,29.975418675012737
9.008,1.0,29.45133011141023
9.016,0.9999999999999999,28.926867066458712
9.024000000000001,1.0,28.402033664638804
9.032,1.0,27.876834073028025
9.04,1.0,27.35127250093903
9.048,0.9999999999999999,26.82535319954882
9.056000000000001,1.0,26.29908046151851
9.064,0.9999999999999999,25.772458620603047
9.072,0.9999999999999999,25.245492051251606
9.08,1.0,24.71818516819899
9.088000000000001,1.0,24.190542426047625
9.096,1.0000000000000002,23.662568318839906
9.104,1.0,23.13426737962119
9.112,1.0,22.605644179993973
9.120000000000001,1.0,22.07670332966313
9.128,0.9999999999999999,21.547449475971383
9.136,1.0,21.017887303425862
9.144,0.9999999999999999,20.488021533216177
9.152000000000001,1.0,19.957856922723526
9.16,1.0,19.42739826502062
9.168,0.9999999999999998,18.896650388362904
9.176,1.0,18.36561815567148
9.184000000000001,0.9999999999999998,17.834306464007604
9.192,0.9999999999999999,17.302720244038248
9.2,1.0,16.770864459493225
9.208,1.0,16.238744106614618
9.216000000000001,1.0,15.706364213598011
9.224,0.9999999999999999,15.173729840025254
9.232,1.0,14.640846076289197
9.24,1.0,14.107718043011202
9.248000000000001,0.9999999999999999,13.574350890450862
9.256,0.9999999999999999,13.040749797907784
9.264,0.9999999999999999,12.506919973115796
9.272,1.0,11.972866651630431
9.280000000000001,0.9999999999999999,11.438595096209154
9.288,0.9999999999999999,10.904110596184138
9.296,1.0,10.36941846682806
9.304,0.9999999999999999,9.834524048713703
9.312000000000001,1.0,9.299432707066888
9.32,1.0,8.764149831112505
9.328,1.0,8.228680833414211
9.336,1.0,7.693031149208499
9.344,1.0,7.157206235732862
9.352,0.9999999999999999,6.621211571546986
9.36,1.0,6.085052655849989
9.368,0.9999999999999999,5.54873500779044
9.376,1.0,5.012264165772728
9.384,1.0,4.475645686756613
9.392,1.0,3.938885145553583
9.4,0.9999999999999999,3.401988134116562
9.408,1.0000000000000002,2.864960260826912
9.416,1.0,2.327807149775166
9.424,1.0,1.790534440039336
9.432,0.9999999999999999,1.2531477849574442
9.44,1.0,0.7156528513978188
9.448,1.0,0.1780553190241821
9.456,0.9999999999999999,-0.35963912044106316
9.464,0.9999999999999999,-0.8974247639586302
9.472,1.0,-1.435295897915345
9.48,1.0,-1.9732467988718265
9.488,1.0,-2.5112717343110544
9.496,1.0,-3.0493649633911986
9.504,1.0,-3.5875207376988594
9.512,0.9999999999999999,-4.125733302006199
9.52,1.0,-4.663996895028132
9.528,0.999999813864264,-5.202305750182913
9.536,0.9999995357469162,-5.740654096352362
9.544,0.9999992589145796,-6.2790361586452
9.552,0.9999989834587851,-6.817446159159404
9.56,0.9999987094700415,-7.3558783177473765
9.568,0.9999984370378016,-7.894326852779732
9.576,0.9999981662504294,-8.432785981911442
9.584,0.9999978971951649,-8.971249922846111
9.592,0.9999976299580927,-9.509712894102295
9.6,0.9999973646241123,-10.048169115777458
9.608,0.9999971012769007,-10.586612810313579
9.616,0.9999968399988876,-11.125038203260027
9.624,0.9999965808712211,-11.663439524037475
9.632,0.9999963239737403,-12.201811006698913
9.64,0.9999960693849449,-12.740146890691125
9.648,0.9999958171819662,-13.27844142161288
9.656,0.9999955674405414,-13.816688851973176
9.664,0.9999953202349842,-14.354883441945766
9.672,0.9999950756381594,-14.893019460123378
9.68,0.999994833721457,-15.431091184267727
9.688,0.9999945945547667,-15.9690929020589
9.696,0.9999943582064537,-16.507018911840042
9.704,0.999994124743334,-17.04486352336107
9.712,0.9999938942306537,-17.58262105851726
9.72,0.9999936667320634,-18.120285852086507
9.728,0.9999934423096001,-18.657852252460977
9.736,0.9999932210236627,-19.195314622377158
9.744,0.9999930029329952,-19.732667339639836
9.752,0.9999927880946651,-20.269904797844053
9.76,0.9999925765640464,-20.80702140709078
9.768,0.9999923683948003,-21.344011594700003
9.776,0.9999921636388591,-21.880869805917264
9.784,0.9999919623464102,-22.41759050461723
9.792,0.9999917645658788,-22.95416817400036
9.8,0.999991570343917,-23.4905973172862
9.808,0.999991379725385,-24.026872458399527
9.816,0.9999911927533415,-24.56298814265274
9.824,0.9999910094690311,-25.09893893742056
9.832,0.9999908299118714,-25.634719432811035
9.84,0.9999906541194431,-26.170324242328274
9.847999999999999,0.9999904821274803,-26.70574800353097
9.856,0.9999903139698616,-27.240985378683263
9.864,0.9999901496786013,-27.77603105539934
9.872,0.9999899892838424,-28.310879747281728
9.879999999999999,0.9999898328138493,-28.84552619455281
9.888,0.9999896802950036,-29.379965164678975
9.896,0.9999895317517976,-29.91419145298763
9.904,0.9999893872068307,-30.448199883277493
9.911999999999999,0.9999892466808058,-30.981985308421486
9.92,0.9999891101925279,-31.515542610961756
9.928,0.9999889777588997,-32.048866703696966
9.936,0.9999888493949252,-32.581952530262456
9.943999999999999,0.9999887251137037,-33.114795065702495
9.952,0.9999886049264362,-33.64738931703407
9.96,0.999988488842423,-34.17973032380266
9.968,0.9999883768690676,-34.7118131586303
9.975999999999999,0.9999882690118795,-35.24363292775533
9.984,0.9999881652744782,-35.77518477156326
9.992,0.999988065658597,-36.30646386510932
10.0,0.9999879701640896,-36.83746541863274
10.008,0.999987878788935,-37.36818467806242
