freq,mag,phase
6.0,0.9999972908367412,159.7094466256697
6.008,0.9999960846057396,159.32714004942648
6.016,0.9999949080320766,158.94438068404259
6.024,0.9999937607111467,158.56116168316885
6.032,0.9999926422416572,158.1774761721298
6.04,0.9999915522256118,157.7933172478781
6.048,0.9999904902682932,157.40867797895163
6.056,0.9999894559782487,157.02355140543239
6.064,0.9999884489672727,156.63793053890814
6.072,0.9999874688503887,156.25180836243652
6.08,0.9999865152458359,155.86517783051175
6.088,0.9999855877750516,155.4780318690341
6.096,0.9999846860626517,155.0903633752825
6.104,0.9999838097364195,154.70216521788964
6.112,0.9999829584272841,154.31343023682123
6.12,0.999982131769308,153.9241512433575
6.128,0.9999813293996663,153.53432102007898
6.136,0.9999805509586331,153.14393232085544
6.144,0.9999797960895657,152.75297787083872
6.152,0.9999790644388848,152.36145036645968
6.16,0.999978355656059,151.96934247542876
6.168,0.9999776693935907,151.57664683674116
6.176,0.999977005306997,151.18335606068626
6.184,0.999976363054793,150.7894627288615
6.192,0.9999757422984782,150.3949593941911
6.2,0.9999751427025161,149.99983858094959
6.208,0.9999745639343218,149.60409278479034
6.216,0.9999740056642425,149.20771447277943
6.224,0.9999734675655424,148.81069608343478
6.232,0.9999729493143873,148.41303002677103
6.24,0.9999724505898276,148.01470868435007
6.248,0.9999719710737797,147.6157244093373
6.256,0.999971510451017,147.21606952656487
6.264,0.9999710684091444,146.81573633260004
6.272,0.9999706446385896,146.41471709582115
6.28,0.9999702388325848,146.01300405649977
6.288,0.999969850687151,145.6105894268902
6.296,0.9999694799010815,145.2074653913254
6.304,0.9999691261759263,144.8036241063214
6.312,0.9999687892159789,144.39905770068827
6.32,0.999968468728258,143.9937582756497
6.328,0.9999681644224919,143.58771790497013
6.336,0.9999678760111067,143.1809286350903
6.344,0.999967603209209,142.77338248527164
6.352,0.9999673457345658,142.3650714477487
6.36,0.999967103307601,141.95598748789166
6.368,0.9999668756513712,141.54612254437677
6.376,0.9999666624915506,141.13546852936756
6.384,0.9999664635564228,140.72401732870478
6.392,0.9999662785768612,140.31176080210733
6.4,0.9999661072863165,139.89869078338248
6.408,0.9999659494208019,139.48479908064746
6.416,0.9999658047188767,139.0700774765614
6.424,0.9999656729216378,138.6545177285687
6.432,0.9999655537726998,138.2381115691533
6.44,0.9999654470181834,137.8208507061054
6.448,0.9999653524067034,137.40272682279945
6.456,0.9999652696893511,136.98373157848454
6.464,0.9999651986196861,136.56385660858783
6.472,0.9999651389537184,136.14309352503022
6.48,0.9999650904498976,135.72143391655567
6.4879999999999995,0.9999650528690978,135.29886934907387
6.496,0.999965025974608,134.8753913660163
6.504,0.9999650095321161,134.4509914887075
6.5120000000000005,0.9999650033096991,134.02566121674948
6.52,0.9999650070778061,133.5993920284223
6.5280000000000005,0.9999650206092523,133.17217538109819
6.536,0.999965043679202,132.74400271167318
6.5440000000000005,0.9999650760651583,132.31486543701217
6.552,0.9999651175469508,131.88475495441276
6.5600000000000005,0.999965167906725,131.45366264208317
6.568,0.9999652269289292,131.02157985963916
6.5760000000000005,0.9999652944003036,130.5884979486162
6.584,0.9999653701098704,130.15440823300162
6.592,0.9999654538489207,129.71930201978222
6.6,0.9999655454110045,129.28317059951237
6.608,0.9999656445919216,128.84600524689984
6.616,0.9999657511897071,128.40779722141065
6.624,0.9999658650046253,127.96853776789419
6.632,0.9999659858391571,127.5282181172277
6.64,0.9999661134979894,127.0868294869812
6.648,0.9999662477880078,126.64436308210348
6.656,0.9999663885182839,126.20081009562868
6.664,0.9999665355000693,125.75616170940488
6.672,0.9999666885467817,125.31040909484457
6.68,0.9999668474739993,124.86354341369727
6.688,0.9999670120994513,124.41555581884528
6.696,0.999967182243007,123.96643745512232
6.704,0.9999673577266697,123.51617946015622
6.712,0.9999675383745671,123.06477296523529
6.72,0.9999677240129424,122.61220909619941
6.728,0.9999679144701478,122.15847897435619
6.736,0.999968109576634,121.70357371742209
6.744,0.9999683091649457,121.2474844404899
6.752,0.9999685130697116,120.79020225702197
6.76,0.9999687211276375,120.33171827987051
6.768,0.9999689331775001,119.87202362232476
6.776,0.9999691490601387,119.41110939918603
6.784,0.9999693686184489,118.94896672787046
6.792,0.9999695916973763,118.4855867295404
6.8,0.999969818143909,118.02096053026482
6.808,0.9999700478070721,117.55507926220874
6.816,0.9999702805379215,117.08793406485293
6.824,0.9999705161895376,116.61951608624332
6.832,0.9999707546170199,116.14981648427168
6.84,0.9999709956774808,115.67882642798678
6.848,0.9999712392300406,115.20653709893777
6.856,0.9999714851358225,114.73293969254907
6.864,0.9999717332579467,114.25802541952785
6.872,0.9999719834615262,113.7817855073045
6.88,0.9999722356136617,113.30421120150623
6.888,0.9999724895834367,112.82529376746443
6.896,0.999972745241914,112.34502449175613
6.904,0.9999730024621305,111.86339468378009
6.912,0.9999732611190932,111.38039567736774
6.92,0.9999735210897763,110.89601883242953
6.928,0.9999737822531155,110.41025553663701
6.936,0.9999740444900062,109.92309720714094
6.944,0.9999743076832985,109.4345352923261
6.952,0.9999745717177955,108.94456127360283
6.96,0.9999748364802482,108.4531666672358
6.968,0.9999751018593541,107.96034302621042
6.976,0.9999753677457527,107.46608194213725
6.984,0.9999756340320244,106.9703750471944
6.992,0.9999759006126857,106.47321401610888
7.0,0.9999761673841896,105.97459056817641
7.008,0.9999764342449193,105.4744964693208
7.016,0.9999767010951901,104.97292353419242
7.024,0.9999769678372431,104.46986362830654
7.032,0.9999772343752458,103.96530867022167
7.04,0.9999775006152898,103.45925063375795
7.048,0.9999777664653873,102.95168155025587
7.056,0.9999780318354717,102.44259351087581
7.064,0.9999782966373931,101.93197866893807
7.072,0.9999785607849176,101.4198292423038
7.08,0.9999788241937279,100.90613751579731
7.088,0.9999790867814178,100.39089584366887
7.096,0.9999793484674944,99.87409665209945
7.104,0.9999796091733738,99.35573244174606
7.112,0.9999798688223812,98.83579579032892
7.12,0.9999801273397497,98.3142793552596
7.128,0.9999803846526168,97.79117587631066
7.136,0.9999806406900265,97.26647817832634
7.144,0.9999808953829245,96.74017917397462
7.152,0.9999811486641593,96.21227186654018
7.16,0.9999814004684798,95.68274935275828
7.168,0.9999816507325331,95.15160482568945
7.176,0.9999818993948649,94.61883157763462
7.184,0.9999821463959176,94.0844230030906
7.192,0.9999823916780275,93.54837260174547
7.2,0.9999826351854229,93.01067398151368
7.208,0.9999828768642252,92.4713208616105
7.216,0.9999831166624463,91.93030707566533
7.224,0.9999833545299839,91.38762657487341
7.232,0.9999835904186215,90.84327343118579
7.24,0.999983824282029,90.29724184053637
7.248,0.9999840560757559,89.7495261261061
7.256,0.9999842857572319,89.20012074162332
7.264,0.9999845132857625,88.64902027469981
7.272,0.999984738622529,88.09621945020153
7.28,0.9999849617305825,87.54171313365359
7.288,0.9999851825748435,86.98549633467854
7.296,0.9999854011220962,86.42756421046704
7.304,0.9999856173409891,85.86791206927997
7.312,0.9999858312020249,85.30653537398102
7.32,0.9999860426775629,84.74342974559904
7.328,0.999986251741811,84.17859096691848
7.336,0.9999864583708227,83.61201498609707
7.344,0.9999866625424904,83.0436979203098
7.352,0.999986864236544,82.47363605941746
7.36,0.999987063434541,81.90182586965854
7.368,0.9999872601198644,81.32826399736345
7.376,0.9999874542777138,80.75294727268891
7.384,0.9999876458951006,80.17587271337202
7.392,0.9999878349608401,79.59703752850106
7.4,0.9999880214655459,79.01643912230286
7.4079999999999995,0.999988205401619,78.43407509794378
7.416,0.9999883867632432,77.84994326134304
7.4239999999999995,0.9999885655463733,77.26404162499747
7.432,0.9999887417487271,76.67636841181296
7.4399999999999995,0.9999889153697784,76.08692205894492
7.448,0.9999890864107431,75.49570122164099
7.4559999999999995,0.9999892548745694,74.90270477708809
7.464,0.9999894207659282,74.30793182825815
7.4719999999999995,0.9999895840912013,73.71138170775343
7.48,0.9999897448584665,73.11305398164563
7.4879999999999995,0.999989903077488,72.51294845331053
7.496,0.9999900587597013,71.91106516725097
7.504,0.9999902119181995,71.30740441291084
7.5120000000000005,0.9999903625677176,70.7019667284719
7.52,0.9999905107246193,70.09475290463645
7.5280000000000005,0.9999906564068789,69.48576398838782
7.536,0.9999907996340666,68.87500128673068
7.5440000000000005,0.9999909404273286,68.26246637040369
7.552,0.9999910788093712,67.64816107756637
7.5600000000000005,0.9999912148044425,67.03208751745221
7.568,0.9999913484383104,66.41424807399005
7.5760000000000005,0.9999914797382436,65.79464540938558
7.584,0.9999916087329925,65.17328246766466
7.5920000000000005,0.9999917354527645,64.55016247817079
7.6,0.9999918599292035,63.925288959017536
7.6080000000000005,0.9999919821953653,63.298665720488614
7.616,0.9999921022856952,62.670296868386316
7.6240000000000006,0.9999922202360023,62.040186807320815
7.632,0.9999923360834327,61.40834024394077
7.640000000000001,0.9999924498664454,60.77476219009807
7.648,0.9999925616247827,60.139457965946775
7.656000000000001,0.9999926713994441,59.50243320296877
7.664,0.9999927792326567,58.86369384692684
7.672,0.9999928851678448,58.2232461607372
7.68,0.9999929892496002,57.5810967272614
7.688,0.9999930915236501,56.93725245201179
7.696,0.9999931920368264,56.291720565767335
7.704,0.9999932908370298,55.64450862709647
7.712,0.9999933879731997,54.99562452478287
7.72,0.9999934834952766,54.34507648015052
7.728,0.9999935774541676,53.692873049284124
7.736,0.9999936699017101,53.039023125141696
7.744,0.9999937608906352,52.38353593955477
7.752,0.9999938504745294,51.72642106511332
7.76,0.9999939387077948,51.067688416931176
7.768,0.9999940256456109,50.4073482542883
7.776,0.9999941113438958,49.74541118214668
7.784,0.999994195859262,49.08188815253562
7.792,0.9999942792489763,48.41679046580334
7.8,0.9999943615709187,47.7501297717311
7.808,0.9999944428835369,47.08191807050658
7.816,0.999994523245804,46.41216771355266
7.824,0.9999946027171741,45.74089140420879
7.832,0.9999946813575361,45.068102198261414
7.84,0.9999947592271696,44.39381350431991
7.848,0.9999948363866973,43.718039084035524
7.856,0.9999949128970385,43.040793052159735
7.864,0.9999949888193621,42.362089876439406
7.872,0.9999950642150399,41.68194437734548
7.88,0.9999951391455947,41.000371727633016
7.888,0.9999952136726553,40.31738745172944
7.896,0.9999952878579055,39.633007424948524
7.904,0.999995361763035,38.94724787252812
7.912,0.99999543544969,38.26012536848878
7.92,0.9999955089794212,37.5716568343114
7.928,0.9999955824136362,36.88185953743208
7.936,0.9999956558135461,36.19075108955189
7.944,0.9999957292401177,35.49834944476018
7.952,0.9999958027540194,34.8046728974698
7.96,0.999995876415573,34.109740080162766
7.968,0.9999959502847003,33.413569960945175
7.976,0.9999960244208743,32.7161818409105
7.984,0.9999960988830664,32.01759535130997
7.992,0.9999961737296967,31.31783045053003
8.0,0.9999962490185831,30.61690742087555
8.008,0.99999632480689,29.9148468651592
8.016,0.9999964011510788,29.21166970309621
8.024000000000001,0.9999964781068581,28.507397167505754
8.032,0.9999965557291336,27.802050800317662
8.04,0.9999966340719594,27.095652448385643
8.048,0.9999967131884883,26.388224259108508
8.056000000000001,0.9999967931309249,25.67978867585963
8.064,0.9999968739504773,24.97036843322506
8.072,0.999996955697309,24.259986552052403
8.08,0.9999970384204949,23.54866633431245
8.088000000000001,0.9999971221679738,22.83643135777493
8.096,0.9999972069865035,22.12330547049948
8.104,0.9999972929216184,21.40931278514494
8.112,0.9999973800175842,20.69447767309974
8.120000000000001,0.9999974683173573,19.97882475843565
8.128,0.9999975578625421,19.262378911686906
8.136,0.9999976486933524,18.545165243458563
8.144,0.9999977408485713,17.8272090978679
8.152000000000001,0.9999978343655127,17.108536045821733
8.16,0.9999979292799855,16.389171878132807
8.168,0.999998025626257,15.669142598479679
8.176,0.9999981234370193,14.94847441621486
8.184000000000001,0.9999982227433559,14.227193739025072
8.192,0.9999983235747099,13.505327165447154
8.2,0.9999984259588545,12.782901477245225
8.208,0.9999985299218616,12.059943631654566
8.216000000000001,0.9999986354880785,11.33648075349652
8.224,0.9999987426800977,10.612540127169154
8.232,0.9999988515187354,9.888149188519549
8.24,0.9999989620230079,9.163335516604171
8.248000000000001,0.9999990742101104,8.438126825342191
8.256,0.9999991880953961,7.712550955066973
8.264,0.9999993036923607,6.986635863982577
8.272,0.9999994210126252,6.260409619531816
8.280000000000001,0.99999954006592,5.533900389681674
8.288,0.999999660860074,4.8071364341316505
8.296,0.9999997834010023,4.080146095452404
8.304,0.9999999076926976,3.3529577901615863
8.312,0.9999999999999998,2.625599999743407
8.32,0.9999999999999999,1.8981012616166486
8.328,0.9999999999999999,1.1704901600621036
8.336,1.0,0.4427953171113637
8.344,1.0,-0.2849546165910698
8.352,1.0,-1.0127309709504935
8.36,0.9999999999999998,-1.7405050655971206
8.368,0.9999999999999999,-2.4682482190722745
8.376,0.9999999999999999,-3.195931758012795
8.384,1.0,-3.9235270263323154
8.392,1.0,-4.651005394386906
8.4,0.9999999999999999,-5.37833826812326
8.408,0.9999999999999999,-6.105497098197496
8.416,0.9999999999999999,-6.832453389062418
8.424,1.0,-7.559178708011459
8.432,1.0,-8.28564469417755
8.44,1.0,-9.011823067474907
8.448,1.0,-9.737685637482286
8.456,0.9999999999999999,-10.463204312255801
8.464,1.0,-11.188351107070275
8.472,1.0,-11.91309815307699
8.48,1.0,-12.637417705877315
8.488,1.0,-13.361282154000493
8.496,1.0,-14.084664027284715
8.504,0.9999999999999999,-14.807536005150638
8.512,1.0,-15.529870924766508
8.52,1.0,-16.251641789094343
8.528,1.0,-16.972821774816577
8.536,0.9999999999999999,-17.693384240133085
8.544,1.0,-18.413302732428328
8.552,1.0,-19.132550995798766
8.56,1.0,-19.851102978440817
8.568,0.9999999999999999,-20.56893283988957
8.576,1.0,-21.28601495810931
8.584,0.9999999999999999,-22.00232393642624
8.592,0.9999999999999999,-22.717834610304738
8.6,1.0,-23.432522053958255
8.608,1.0,-24.14636158679635
8.616,0.9999999999999999,-24.859328779699407
8.624,1.0,-25.571399461123132
8.632,1.0,-26.282549723024648
8.64,1.0,-26.99275592661268
8.648,1.0,-27.701994707914228
8.656,1.0,-28.410242983160575
8.664,1.0,-29.117477953985457
8.672,0.9999999999999999,-29.823677112438627
8.68,1.0,-30.52881824580827
8.688,1.0000000000000002,-31.232879441255665
8.696,0.9999999999999999,-31.9358390902562
8.704,1.0,-32.637675892850424
8.712,1.0,-33.33836886169974
8.72,1.0,-34.037897325950915
8.728,1.0,-34.73624093490415
8.736,1.0,-35.43337966148959
8.744,1.0,-36.12929380554734
8.752,1.0,-36.82396399691619
8.76,1.0,-37.51737119832648
8.768,0.9999999999999999,-38.20949670810284
8.776,1.0,-38.90032216267253
8.784,1.0,-39.589829538885375
8.792,0.9999999999999999,-40.278001156141485
8.8,1.0,-40.96481967833326
8.808,1.0,-41.650268115597726
8.815999999999999,1.0,-42.334329825886364
8.824,0.9999999999999999,-43.01698851634972
8.832,0.9999999999999999,-43.69822824454086
8.84,0.9999999999999999,-44.37803341944015
8.847999999999999,1.0,-45.05638880230296
8.856,0.9999999999999999,-45.73327950733198
8.864,1.0,-46.40869100217743
8.872,1.0,-47.08260910826824
8.879999999999999,0.9999999999999999,-47.75502000097637
8.888,1.0,-48.42591020961663
8.896,1.0,-49.09526661728518
8.904,0.9999999999999999,-49.76307646054084
8.911999999999999,1.0,-50.42932732893121
8.92,0.9999999999999998,-51.094007164366744
8.928,1.0,-51.75710426034612
8.936,1.0,-52.418607261037096
8.943999999999999,0.9999999999999999,-53.07850516021597
8.952,0.9999999999999999,-53.73678730006774
8.96,1.0,-54.39344336985195
8.968,1.0,-55.048463404437726
8.975999999999999,1.0,-55.70183778271137
8.984,0.9999999999999999,-56.35355722585945
8.992,1.0000000000000002,-57.00361279553161
9.0,1.0,-57.651995891887495
9.008,0.9999999999999999,-58.29869825153077
9.016,1.0,-58.94371194533355
9.024000000000001,0.9999999999999999,-59.58702937615535
9.032,1.0,-60.22864327646118
9.04,0.9999999999999999,-60.86854670584151
9.048,1.0,-61.50673304843785
9.056000000000001,1.0,-62.143196010277634
9.064,1.0,-62.77792961652306
9.072,1.0,-63.4109282086371
9.08,0.9999999999999999,-64.0421864414694
9.088000000000001,1.0,-64.6716992802666
9.096,1.0000000000000002,-65.29946199761127
9.104,1.0,-65.92547017029226
9.112,0.9999999999999999,-66.54971967610959
9.120000000000001,1.0,-67.17220669061813
9.128,1.0,-67.79292768381373
9.136,1.0,-68.41187941676503
9.144,0.9999999999999999,-69.02905893819359
9.152000000000001,1.0,-69.64446358100624
9.16,1.0,-70.25809095878354
9.168,1.0,-70.86993896222715
9.176,0.9999999999999998,-71.48000575556833
9.184000000000001,1.0,-72.0882897729418
9.192,0.9999999999999999,-72.69478971472817
9.2,1.0,-73.2995045438674
9.208,1.0,-73.90243348214602
9.216000000000001,1.0,-74.50357600646116
9.224,0.9999999999999999,-75.10293184506493
9.232,0.9999999999999998,-75.70050097379132
9.24,1.0,-76.29628361226787
9.248000000000001,0.9999999999999999,-76.89028022011492
9.256,1.0,-77.48249149313601
9.264,1.0,-78.07291835950109
9.272,1.0,-78.66156197592427
9.280000000000001,0.9999999999999998,-79.24842372383957
9.288,1.0,-79.8335052055766
9.296,1.0,-80.4168082405389
9.304,1.0,-80.99833486138533
9.312000000000001,1.0,-81.57808731021856
9.32,1.0,-82.15606803478168
9.328,0.9999999999999999,-82.73227968466553
9.336,1.0,-83.30672510752737
9.344,0.9999999999999999,-83.87940734532361
9.352,1.0,-84.45032963055925
9.36,1.0,-85.0194953825528
9.368,1.0,-85.58690820372229
9.376,1.0,-86.15257187588952
9.384,1.0,-86.71649035660853
9.392,1.0,-87.27866777551525
9.4,1.0,-87.83910843070387
9.408,1.0,-88.39781678512736
9.416,1.0,-88.95479746302712
9.424,1.0,-89.51005524638903
9.432,1.0,-90.06359507143105
9.44,1.0,-90.61542202511949
9.448,1.0,-91.16554134171867
9.456,1.0,-91.71395839937124
9.464,1.0,-92.26067871671393
9.472,0.9999999999999999,-92.80570794952537
9.48,1.0,-93.34905188741128
9.488,1.0,-93.89071645052296
9.496,1.0,-94.43070768631473
9.504,0.9999999999999999,-94.96903176633609
9.512,1.0,-95.50569498306383
9.52,1.0000000000000002,-96.04070374677022
9.528,1.0,-96.57406458243194
9.536,1.0,-97.10578412667637
9.544,0.9999999999999999,-97.63586912476917
9.552,1.0,-98.16432642764035
9.56,1.0,-98.69116298895209
9.568,1.0,-99.21638586220567
9.576,1.0,-99.74000219789092
9.584,0.9999999999999999,-100.26201924067513
9.592,1.0,-100.78244432663492
9.6,1.0,-101.3012848805278
9.608,1.0,-101.81854841310725
9.616,0.9999999999999999,-102.33424251847751
9.624,1.0,-102.84837487149197
9.632,1.0,-103.36095322519158
9.64,1.0,-103.87198540828679
9.648,0.9999999999999999,-104.38147932267945
9.656,1.0,-104.88944294102832
9.664,1.0,-105.3958843043543
9.672,1.0,-105.90081151968901
9.68,1.0,-106.4042327577632
9.688,0.9999999999999998,-106.90615625073802
9.696,1.0,-107.40659028997568
9.704,1.0000000000000002,-107.90554322385303
9.712,0.9999999999999999,-108.40302345561386
9.72,0.9999999999999999,-108.8990394412637
9.728,1.0,-109.39359968750304
9.736,1.0,-109.8867127497025
9.744,1.0,-110.3783872299159
9.752,1.0,-110.8686317749347
9.76,0.9999999999999999,-111.35745507437977
9.768,1.0,-111.844865858834
9.776,1.0,-112.33087289801169
9.784,0.9999999999999999,-112.81548499896779
9.792,1.0,-113.29871100434355
9.8,1.0,-113.78055979065141
9.808,1.0,-114.26104026659526
9.816,1.0,-114.74016137142937
9.824,1.0,-115.21793207335209
9.832,1.0,-115.69436136793722
9.84,1.0,-116.16945827659946
9.847999999999999,1.0,-116.64323184509671
9.856,1.0,-117.11569114206624
9.864,1.0,-117.58684525759531
9.872,1.0,-118.05670330182645
9.879999999999999,0.9999999999999999,-118.52527440359626
9.888,1.0,-118.992567709107
9.896,1.0,-119.45859238063113
9.904,1.0,-119.9233575952485
9.911999999999999,1.0,-120.38687254361535
9.92,0.9999999999999999,-120.84914642876483
9.928,1.0,-121.31018846493814
9.936,1.0,-121.77000787644687
