freq,mag,phase
6.0,0.9998492897345742,-131.04860978232247
6.024539648,0.9998422896056798,-132.36485864359346
6.049079808,0.9998395291777685,-133.6809803265666
6.073619456,0.9998412170798855,-134.99699788149496
6.098159616,0.9998471414389519,-136.31297968543478
6.122699264,0.9998572265331893,-137.62893674569685
6.147239424,0.9998713411484516,-138.94489967372928
6.171779072,0.999888954075419,-140.2608383053794
6.196319232,0.9999095123814398,-141.57689188749143
6.22085888,0.9999326518996042,-142.89296476107106
6.245398528,0.999957758995559,-144.20916099254953
6.269938688,0.9999839477189858,-145.52547005365741
6.294478336,1.0000106966074547,-146.84183009132823
6.319018496,1.0000373114595007,-148.1582747745824
6.343558144,1.0000628132517646,-149.4748283249067
6.368098304,1.0000868378554841,-150.79140570958725
6.392637952,1.0001084687879136,-152.10802723347751
6.417178112,1.0001272333637674,-153.42463185395232
6.44171776,1.000142655864695,-154.74117986910161
6.46625792,1.0001542368368375,-156.0576768212121
6.490797568,1.0001617084855075,-157.37403457792098
6.515337216,1.0001648168534656,-158.6901862607833
6.539877376,1.0001634336226422,-160.00615396750243
6.564417024,1.0001576644322874,-161.3218240885186
6.588957184,1.0001476145555914,-162.63717889543818
6.613496832,1.0001336755076122,-163.95216550874613
6.638036992,1.0001160047024176,-165.2667379801014
6.66257664,1.0000952446049856,-166.58086599379718
6.6871168,1.0000719114965158,-167.8945074078405
6.711656448,1.0000464734034185,-169.20763394408334
6.736196096,1.0000198491536363,-170.52021544864317
6.760736256,0.9999926565608733,-171.83225163467787
6.785275904,0.999965621960991,-173.1437526348769
6.809816064,0.9999395108993692,-174.4546520271459
6.834355712,0.9999150080978363,-175.7650158115645
6.858895872,0.9998927703526929,-177.07481594142655
6.88343552,0.9998735650099421,-178.38412557051163
6.90797568,0.999857542186283,-179.69290223982296
6.932515328,0.999845573834038,178.99876735263365
6.957054976,0.9998376770617867,177.6909060271994
6.981595136,0.9998342760812109,176.38344144718343
7.006134784,0.999835444103108,175.07636216017391
7.030674944,0.9998410309567001,173.7695863644249
7.055214592,0.9998509585421635,172.4631283272554
7.079754752,0.9998650661379939,171.15692957723684
7.1042944,0.9998828484283485,169.85096962915867
7.12883456,0.9999038304371541,168.5451879109829
7.153374208,0.9999276386429841,167.23959402596415
7.177913856,0.9999532890641377,165.93415980056076
7.202454016,0.9999803995868928,164.628887677698
7.226993664,1.0000082079689283,163.32375183562726
7.251533824,1.0000356814282034,162.01875277063124
7.276073472,1.0000624269986151,160.71393326067843
7.300613632,1.0000875996555287,159.40926368509184
7.32515328,1.0001103499296675,158.1047976716179
7.34969344,1.0001302333762068,156.80056005792022
7.374233088,1.0001465520537314,155.49656542597776
7.398773248,1.0001591034932154,154.1928637470036
7.423312896,1.000167270940285,152.88951758924154
7.447852544,1.0001711177470862,151.58655321747122
7.472392704,1.000170177092442,150.28403208531975
7.496932352,1.0001646014605934,148.9819583272965
7.521472512,1.0001547358339637,147.68042165211207
7.54601216,1.000140582533008,146.37945780879272
7.57055232,1.0001225415973192,145.0790849896729
7.595091968,1.0001012750977853,143.77937813892933
7.619632128,1.0000771305945728,142.48036010679644
7.644171776,1.0000509465284573,141.1820106703381
7.668711424,1.0000232630400339,139.88441995738333
7.693251584,0.999994860874983,138.58754682719078
7.717791232,0.9999667040490581,137.29142756274533
7.742331392,0.9999393739989207,135.99604951273264
7.76687104,0.999913758300922,134.70139767702742
7.7914112,0.9998902527573316,133.40746775840213
7.815950848,0.9998698750367585,132.11422779403932
7.840491008,0.9998529088327598,130.82166987347676
7.865030656,0.9998400175938937,129.52969782596594
7.889570304,0.9998314485905194,128.23837396776315
7.914110464,0.9998276359738286,126.94756484336823
7.938650112,0.9998283040355145,125.6572861224939
7.963190272,0.9998338648734142,124.36745757668153
7.98772992,0.9998438757977176,123.0780500157382
8.01227008,0.9998583038933164,121.78904333865482
8.036809728,0.9998766681054465,120.50035453220141
8.061349888,0.9998983196954256,119.2120120297611
8.085889536,0.999922965319405,117.9239211208737
8.110429696,0.9999498436066726,116.63608839888226
8.134969344,0.999978078858863,115.34849384175845
8.159508992,1.0000070154671796,114.06113550290334
8.184049152,1.0000359092711941,112.77402090846759
8.2085888,1.0000638566166924,111.48710366968852
8.23312896,1.000090207417798,110.20044007497675
8.257668608,1.0001142067115572,108.91404927977815
8.282208768,1.0001351788811037,107.62794524906099
8.306748416,1.0001525508084694,106.34214098306437
8.331288576,1.000165813712917,105.05669435244103
8.355828224,1.0001746178610713,103.77165177061057
8.380367872,1.0001786891193978,102.48703894204212
8.404908032,1.0001779362877934,101.20291687840802
8.42944768,1.0001723744747288,99.91930211925796
8.45398784,1.0001620977695542,98.63626151172076
8.478527488,1.0001473264877336,97.35384402819155
8.503067648,1.0001285996042535,96.07206974515383
8.527607296,1.000106453340767,94.79100030282414
8.552147456,1.0000811590179512,93.51062255091438
8.576687104,1.0000536907992732,92.23099784585698
8.601227264,1.0000247648886837,90.9521209714455
8.6257664,0.9999950243391619,89.67402666850356
8.65030656,0.9999654353418005,88.39668344110851
8.67484672,0.9999367361258655,87.12009536483076
8.69938688,0.9999097522348214,85.8442853698513
8.723926016,0.9998850655803199,84.56918766767842
8.748466176,0.999863593891231,83.29480195426025
8.773006336,0.9998458095741025,82.02104606485558
8.797546496,0.9998321957240662,80.74794853302431
8.822085632,0.9998232779552586,79.47542388066765
8.846625792,0.9998190732934694,78.20343603002414
8.871165952,0.9998198733694317,76.93191490310645
8.895705088,0.9998256443163912,75.6608525545015
8.920245248,0.999836303767852,74.39015655602842
8.944785408,0.9998514316211381,73.1198179509388
8.969325568,0.9998706718345397,71.84976663223473
8.993864704,0.9998935371619259,70.57998437010184
9.018404864,0.9999194292622882,69.31038873656537
9.042945024,0.9999477528546165,68.04099820470896
9.06748416,0.9999774611280663,66.77178436580097
9.09202432,1.0000079349286013,65.50271830079508
9.11656448,1.0000383174381848,64.23379687943567
9.14110464,1.0000678094815638,62.96503236982682
9.165643776,1.0000954841094052,61.69641154952541
9.190183936,1.0001206838061647,60.42797739841382
9.214724096,1.000142709267905,59.15973671558594
9.239264256,1.0001608077323565,57.8917382366901
9.263803392,1.0001746407856462,56.623968719063804
9.288343552,1.000183759510766,55.35651140084368
9.312883712,1.0001879471294404,54.08942199703491
9.337422848,1.0001869649747686,52.82267485181059
9.361963008,1.0001809179751135,51.55637356198414
9.386503168,1.0001698456766404,50.29055036935347
9.411043328,1.000154186271704,49.02525975892804
9.435582464,1.0001342718999695,47.76048361370483
9.460122624,1.0001106026130469,46.496326675717825
9.484662784,1.000083890140724,45.23277859950891
9.509202944,1.000054816819717,43.96985584714046
9.53374208,1.0000241703938946,42.70758283022438
9.55828224,0.9999928142668308,41.44597112258854
9.5828224,0.9999616257416576,40.18502478911287
9.607361536,0.9999314032198245,38.9247328727428
9.631901696,0.9999028962073314,37.665052158068406
9.656441856,0.9998770518886446,36.40598441643308
9.680982016,0.9998545916338143,35.14747868007685
9.705521152,0.999836040264025,33.88951544874444
9.730061312,0.9998219874406585,32.632045147480106
9.754601472,0.9998127103126998,31.3750000595431
9.779140608,0.9998086608306777,30.118336736468766
9.803680768,0.9998098633657102,28.86202147542479
9.828220928,0.9998162406982801,27.605969266873185
9.852761088,0.9998278131499405,26.35013957808303
9.877300224,0.9998441492817969,25.094471903784026
9.901840384,0.9998648024689075,23.838934571540094
9.926380544,0.9998893301765723,22.58347282258082
9.950920704,0.9999168783436035,21.328035715155465
9.97545984,0.9999469223970715,20.072621468289647
10.0,0.9999784682488337,18.817172289022327
10.02454016,1.0000108344864862,17.56168305873913
10.049079296,1.0000428349579034,16.30613686072883
10.073619456,1.000073948045839,15.050549785040804
10.098159616,1.000103140365722,13.79493191629045
10.122699776,1.0001295967473274,12.539281431200452
10.147238912,1.000152465100572,11.28364775372434
10.171779072,1.0001714234103263,10.028034609373684
10.196319232,1.000185593235335,8.77246264947662
10.220859392,1.0001949225490085,7.51703304919488
10.245398528,1.0001987920608342,6.261726937638928
10.269938688,1.0001972425458012,5.00662485521269
10.294478848,1.0001903681069122,3.751759001580364
10.319017984,1.0001781507186462,2.497167529702956
10.343558144,1.000161112263847,1.2429127020218325
10.368098304,1.0001394932483707,-0.010984374367713516
10.392638464,1.0001140820465544,-1.2644736888617312
10.4171776,1.0000854413304083,-2.5175459457569684
10.44171776,1.0000543303748095,-3.770165617027409
10.46625792,1.000021666568354,-5.022313990213173
10.490797056,0.9999882411999548,-6.274008301410099
10.515337216,0.9999550459590376,-7.525229237457244
10.539877376,0.9999231069636418,-8.77601651017265
10.564417536,0.9998929768774302,-10.026363544280356
10.588956672,0.999865796134973,-11.276304408659419
10.613496832,0.999842194523969,-12.525889365426554
10.638036992,0.9998228210336383,-13.775130893868736
10.662577152,0.9998082630408762,-15.024106336195214
10.687116288,0.9997988074592103,-16.272861819614114
10.711656448,0.999795052040748,-17.521455933551913
10.736196608,0.9997966567107693,-18.769944660161965
10.760735744,0.9998040182282621,-20.01839135176521
10.785275904,0.9998166553882766,-21.26685809703754
10.809816064,0.9998343847157302,-22.515368544480484
10.834356224,0.9998567291124603,-23.764025512026688
10.85889536,0.9998829472203637,-25.012844309792786
10.88343552,0.9999125075734523,-26.261867969177707
10.90797568,0.9999445445595174,-27.511144894047128
10.93251584,0.9999782062990696,-28.760681233891706
10.957054976,1.0000125326572487,-30.01053276052512
10.981595136,1.0000465506841274,-31.260641260442007
11.006135296,1.0000793616351087,-32.51107859418753
11.030674432,1.0001100631920545,-33.761784615856506
11.055214592,1.000137823994628,-35.01277304004971
11.079754752,1.0001617813997206,-36.263996331105226
11.104294912,1.0001812820965768,-37.51542884157887
11.128834048,1.0001959551173947,-38.76704575306287
11.153374208,1.0002051195871469,-40.01879128294099
11.177914368,1.0002086945148563,-41.27061773269621
11.202453504,1.0002064076043191,-42.52248157678419
11.226993664,1.0001984371724242,-43.77433764149087
11.251533824,1.0001849851297573,-45.02613094293665
11.276073984,1.0001662249819137,-46.27781778978086
11.30061312,1.000142876958634,-47.529371214812265
11.32515328,1.000115371324333,-48.7807198003591
11.34969344,1.0000845399613796,-50.03186638960107
11.3742336,1.0000511374651702,-51.282781875146945
11.398772736,1.0000161487800077,-52.53343432057527
11.423312896,0.9999805603904762,-53.7838452865614
11.447853056,0.9999453345096183,-55.03400481822304
11.472392192,0.9999114363489797,-56.28391974673954
11.496932352,0.9998797565558064,-57.53361724512416
11.521472512,0.9998511548284807,-58.78314502021053
11.546012672,0.9998265151369634,-60.03250863346441
11.570551808,0.999806470843434,-61.28179168128952
11.595091968,0.9997916135150675,-62.5310027753962
11.619632128,0.9997823169421879,-63.78023490699546
11.644172288,0.9997790411408258,-65.02954400995941
11.668711424,0.9997817030267322,-66.27897930573475
11.693251584,0.99979030449117,-67.52860553941207
11.717791744,0.9998046585537532,-68.77848102347546
11.74233088,0.9998245451874802,-70.02868237450427
11.76687104,0.9998491277011765,-71.27924946292025
11.7914112,0.9998779417338581,-72.53023540260241
11.81595136,0.9999102462421996,-73.78167699331564
11.840490496,0.9999451086480347,-75.03361067220537
11.865030656,0.9999815334196107,-76.28607111268842
11.889570816,1.0000186986965782,-77.53907541533117
11.914109952,1.0000554373945092,-78.79261999484383
11.938650112,1.0000907800580707,-80.046688494673
11.963190272,1.0001237520415625,-81.30131441642838
11.987730432,1.0001535333479414,-82.55644437783519
12.012269568,1.000179127242919,-83.81205292331926
12.036809728,1.0001999558664953,-85.06809734867865
12.061349888,1.000215360258021,-86.3245523281564
12.085890048,1.0002248558709332,-87.58134572113798
12.110429184,1.000228300444762,-88.83845868257572
12.134969344,1.0002255116857364,-90.09580246564438
12.159509504,1.0002164236101865,-91.35334786669273
12.18404864,1.0002014189113606,-92.61102582924549
12.2085888,1.000180810424233,-93.86880650114675
12.23312896,1.0001552043642543,-95.12661474797137
12.25766912,1.0001251699548492,-96.38441782253078
12.282208256,1.000091427276833,-97.64221802818314
12.306748416,1.0000551474625778,-98.8999370578534
12.331288576,1.0000171518203098,-100.15759262837307
12.355827712,0.9999785407984502,-101.41514846952545
12.380367872,0.9999402180540748,-102.6726345121137
12.404908032,0.9999034522572686,-103.93004821731486
12.429448192,0.9998691337126515,-105.18742917476756
12.453987328,0.9998381973450264,-106.44478154956995
12.478527488,0.9998115011276644,-107.70216443929051
12.503067648,0.9997899606123942,-108.9596120860762
12.527607808,0.9997739495692959,-110.21719532893401
12.552146944,0.9997639896240009,-111.47496511701321
12.576687104,0.9997605282502666,-112.73296168345573
12.601227264,0.9997636124521342,-113.99128455457026
12.6257664,0.9997731140174144,-115.24998811162178
12.65030656,0.9997889487446524,-116.50913340204589
12.67484672,0.9998105410126644,-117.7687869940096
12.69938688,0.9998374824305026,-119.0289995732136
12.723926016,0.9998689528107367,-120.28981926163583
12.748466176,0.9999042866517486,-121.55130207497466
12.773006336,0.9999422497242747,-122.81347096198319
12.797546496,0.9999820840384496,-124.07635881191031
12.822085632,1.0000225611458045,-125.33997513063001
12.846625792,1.0000627049348125,-126.60433988242148
12.871165952,1.0001012498499393,-127.86942415722893
12.895705088,1.000137278991153,-129.13523633680805
12.920245248,1.0001697824347284,-130.4017274672702
12.944785408,1.0001977146144714,-131.6688696476849
12.969325568,1.0002205051185376,-132.93663493138757
12.993864704,1.0002372984138377,-134.20496712829947
13.018404864,1.0002476982931037,-135.473799712733
13.042945024,1.0002513763252048,-136.74307952840906
13.06748416,1.0002482180589214,-138.01276288762145
13.09202432,1.0002383013177059,-139.2827532318151
13.11656448,1.0002217736883472,-140.55301351890236
13.14110464,1.0001990742862554,-141.8234741804143
13.165643776,1.0001707740792902,-143.09409496247784
13.190183936,1.0001377532731757,-144.3648010530599
13.214724096,1.0001006679631932,-145.63558636975986
13.239264256,1.0000606268662968,-146.90639168765836
13.263803392,1.000018710104219,-148.17718839491852
13.288343552,0.99997596355622,-149.44799151174692
13.312883712,0.9999336491299304,-150.71879407638966
13.337422848,0.9998928883337762,-151.98959258535416
13.361963008,0.9998548209515072,-153.26040130058345
13.386503168,0.9998204268004593,-154.53127799792074
13.411043328,0.9997907669432331,-155.8022387243403
13.435582464,0.9997665550621909,-157.07334890893637
13.460122624,0.9997486306466624,-158.34463453803033
13.484662784,0.999737368257161,-159.61619067482715
13.509202944,0.9997332733025545,-160.88806673545508
13.53374208,0.9997363269785821,-162.16035590660223
13.55828224,0.999746710950672,-163.43307561519205
13.5828224,0.9997640302891347,-164.7063372883931
13.607361536,0.9997879076754916,-165.9801989344399
13.631901696,0.9998176579119948,-167.25470545021082
13.656441856,0.9998525917900762,-168.52991714150573
13.680982016,0.999891800856217,-169.80588986090217
13.705521152,0.9999342413888967,-171.08264102335195
13.730061312,0.9999787376642261,-172.36021751629013
13.754601472,1.0000241170388358,-173.63862212470713
13.779140608,1.0000691508442185,-174.91786856861057
13.803680768,1.000112510828309,-176.19792789287007
13.828220928,1.0001532239834998,-177.47879484154768
13.852761088,1.0001900078000296,-178.76044902179837
13.877300224,1.0002218894206019,179.95717820852315
13.901840384,1.0002477843507507,178.67410802531236
13.926380544,1.0002673297758338,177.3904245691432
13.950920704,1.0002795639244664,176.1061746146325
13.97545984,1.0002843925000668,174.82142758654282
14.0,1.0002814372760376,173.53626126787339
