freq,mag,phase
6.0,0.9999981577993101,-4.09685398589731
6.008,0.9999989411887132,-4.374156685500023
6.016,0.9999996907969587,-4.651529799073549
6.024,1.0,-4.9289730646438965
6.032,0.9999999999999999,-5.20648621923155
6.04,0.9999999999999999,-5.484068998854916
6.048,0.9999999999999999,-5.7617211385337805
6.056,1.0,-6.039442372292902
6.064,1.0,-6.317232433165539
6.072,0.9999999999999999,-6.595091053197189
6.08,1.0,-6.873017963449248
6.088,0.9999999999999999,-7.151012894002806
6.096,0.9999999999999999,-7.429075573962482
6.104,1.0,-7.707205731460308
6.112,1.0,-7.9854030936596745
6.12,1.0,-8.263667386759355
6.128,1.0,-8.541998335997539
6.136,1.0,-8.820395665655974
6.144,0.9999999999999999,-9.098859099064127
6.152,1.0,-9.377388358603426
6.16,0.9999999999999999,-9.65598316571154
6.168,0.9999999999999999,-9.934643240886766
6.176,1.0,-10.213368303692338
6.184,0.9999999999999999,-10.492158072760997
6.192,1.0,-10.771012265799419
6.2,1.0,-11.049930599592843
6.208,1.0,-11.328912790009662
6.216,1.0,-11.607958552006115
6.224,1.0,-11.887067599631006
6.232,0.9999999999999999,-12.166239646030558
6.24,0.9999999999999999,-12.445474403453169
6.248,1.0,-12.724771583254377
6.256,1.0,-13.004130895901802
6.264,0.9999999999999999,-13.283552050980125
6.272,1.0,-13.563034757196219
6.28,0.9999999999999999,-13.842578722384182
6.288,0.9999999999999999,-14.122183653510564
6.296,1.0,-14.401849256679595
6.304,0.9999999999999999,-14.681575237138436
6.312,1.0,-14.961361299282515
6.32,1.0,-15.241207146660921
6.328,1.0,-15.521112481981817
6.336,1.0,-15.80107700711797
6.344,0.9999999999999999,-16.08110042311227
6.352,0.9999999999999999,-16.361182430183277
6.36,1.0,-16.641322727730966
6.368,0.9999999999999999,-16.921521014342325
6.376,0.9999999999999999,-17.20177698779713
6.384,1.0,-17.482090345073757
6.392,1.0,-17.762460782355046
6.4,1.0,-18.042887995034157
6.408,0.9999999999999999,-18.323371677720512
6.416,0.9999999999999999,-18.60391152424584
6.424,1.0,-18.884507227670166
6.432,1.0,-19.165158480287978
6.44,0.9999999999999999,-19.445864973634283
6.448,0.9999999999999999,-19.726626398490883
6.456,1.0,-20.007442444892533
6.464,1.0,-20.288312802133323
6.472,1.0,-20.569237158772907
6.48,0.9999999999999999,-20.850215202643
6.4879999999999995,0.9999999999999998,-21.13124662085365
6.496,0.9999999999999999,-21.412331099800017
6.504,1.0,-21.693468325168418
6.5120000000000005,1.0,-21.974657981943448
6.52,0.9999999999999999,-22.25589975441403
6.5280000000000005,1.0,-22.537193326180674
6.536,1.0,-22.818538380161566
6.5440000000000005,1.0,-23.099934598599894
6.552,1.0,-23.381381663070112
6.5600000000000005,1.0,-23.662879254485297
6.568,1.0,-23.944427053103492
6.5760000000000005,1.0,-24.22602473853521
6.584,1.0,-24.50767198974976
6.592,0.9999998905324529,-24.78936848508289
6.6,0.9999995269221174,-25.071113902243397
6.608,0.999999161083402,-25.35290791832038
6.616,0.999998793238584,-25.63475020979037
6.624,0.9999984236055328,-25.916640452524526
6.632,0.999998052397752,-26.198578321795782
6.64,0.999997679824419,-26.480563492286183
6.648,0.9999973060904257,-26.762595638094137
6.656,0.9999969313964201,-27.04467443274174
6.664,0.9999965559388458,-27.326799549182223
6.672,0.9999961799099837,-27.608970659807266
6.68,0.9999958034979908,-27.89118743645453
6.688,0.9999954268869428,-28.173449550415118
6.696,0.9999950502568722,-28.45575667244111
6.704,0.9999946737838105,-28.73810847275312
6.712,0.9999942976398272,-29.020504621047902
6.72,0.9999939219930706,-29.302944786506007
6.728,0.999993547007807,-29.585428637799428
6.736,0.9999931728444624,-29.86795584309932
6.744,0.9999927996596599,-30.150526070083796
6.752,0.9999924276062624,-30.433138985945586
6.76,0.9999920568334096,-30.715794257400013
6.768,0.99999168748656,-30.998491550692695
6.776,0.9999913197075286,-31.281230531607505
6.784,0.999990953634528,-31.564010865474508
6.792,0.999990589402206,-31.846832217177806
6.8,0.9999902271416871,-32.12969425116362
6.808,0.9999898669806093,-32.41259663144829
6.816,0.9999895090431651,-32.69553902162621
6.824,0.9999891534501395,-32.97852108487807
6.832,0.9999888003189492,-33.261542483978815
6.84,0.9999884497636811,-33.544602881305885
6.848,0.9999881018951318,-33.82770193884728
6.856,0.9999877568208442,-34.110839318209806
6.864,0.999987414645149,-34.394014680627336
6.872,0.9999870754691994,-34.67722768696897
6.88,0.9999867393910128,-34.96047799774736
6.888,0.999986406505506,-35.243765273127025
6.896,0.9999860769045354,-35.52708917293266
6.904,0.9999857506769331,-35.81044935665751
6.912,0.9999854279085453,-36.09384548347169
6.92,0.9999851086822702,-36.37727721223069
6.928,0.999984793078095,-36.660744201483766
6.936,0.9999844811731332,-36.944246109482314
6.944,0.9999841730416622,-37.227782594188525
6.952,0.9999838687551595,-37.511353313283756
6.96,0.9999835683823404,-37.794957924177034
6.968,0.9999832719891945,-38.078596084013746
6.976,0.9999829796390218,-38.36226744968409
6.984,0.9999826913924699,-38.645971677831696
6.992,0.9999824073075699,-38.92970842486226
7.0,0.9999821274397727,-39.21347734695216
7.008,0.9999818518419848,-39.497278100057144
7.016,0.9999815805646043,-39.78111033992094
7.024,0.9999813136555561,-40.064973722084
7.032,0.9999810511603285,-40.34886790189219
7.04,0.9999807931220075,-40.63279253450557
7.048,0.9999805395813128,-40.91674727490702
7.056,0.9999802905766324,-41.200731777911166
7.064,0.999980046144057,-41.484745698172986
7.072,0.9999798063174158,-41.7687886901968
7.08,0.9999795711283106,-42.05286040834487
7.088,0.9999793406061489,-42.33696050684641
7.096,0.9999791147781812,-42.621088639806345
7.104,0.9999788936695314,-42.905244461214146
7.112,0.9999786773032325,-43.189427624952756
7.12,0.9999784657002613,-43.47363778480744
7.128,0.999978258879569,-43.757874594474664
7.136,0.9999780568581172,-44.04213770757106
7.144,0.9999778596509097,-44.32642677764225
7.152,0.9999776672710252,-44.6107414581719
7.16,0.9999774797296518,-44.89508140259053
7.168,0.9999772970361166,-45.179446264284586
7.176,0.9999771191979213,-45.4638356966053
7.184,0.9999769462207718,-45.74824935287769
7.192,0.999976778108612,-46.03268688640961
7.2,0.9999766148636542,-46.317147950500555
7.208,0.9999764564864119,-46.60163219845088
7.216,0.9999763029757301,-46.88613928357062
7.224,0.9999761543288176,-47.17066885918859
7.232,0.9999760105412773,-47.45522057866134
7.24,0.9999758716071366,-47.73979409538224
7.248,0.9999757375188789,-48.02438906279043
7.256,0.9999756082674746,-48.30900513437987
7.264,0.999975483842409,-48.593641963708436
7.272,0.999975364231714,-48.87829920440683
7.28,0.999975249421998,-49.16297651018765
7.288,0.9999751393984747,-49.44767353485457
7.296,0.9999750341449933,-49.732389932311186
7.304,0.999974933644066,-50.01712535657014
7.312,0.999974837876899,-50.301879461762205
7.32,0.99997474682342,-50.58665190214522
7.328,0.999974660462308,-50.87144233211325
7.336,0.9999745787710189,-51.156250406205515
7.344,0.9999745017258166,-51.44107577911558
7.352,0.999974429301799,-51.725918105700174
7.36,0.999974361472927,-52.01077704098847
7.368,0.9999742982120506,-52.2956522401909
7.376,0.999974239490937,-52.58054335870835
7.384,0.9999741852802967,-52.86545005214107
7.392,0.9999741355498124,-53.15037197629781
7.4,0.9999740902681622,-53.43530878720468
7.4079999999999995,0.9999740494030496,-53.7202601411143
7.416,0.9999740129212259,-54.005225694514834
7.4239999999999995,0.99997398078852,-54.290205104138714
7.432,0.9999739529698604,-54.57519802697209
7.4399999999999995,0.9999739294293031,-54.86020412026324
7.448,0.9999739101300559,-55.1452230415322
7.4559999999999995,0.9999738950345032,-55.43025444857906
7.464,0.9999738841042318,-55.71529799949357
7.4719999999999995,0.9999738773000535,-56.000353352663495
7.48,0.9999738745820314,-56.28542016678409
7.4879999999999995,0.9999738759095027,-56.570498100866516
7.496,0.999973881241103,-56.85558681424729
7.504,0.9999738905347899,-57.14068596659664
7.5120000000000005,0.9999739037478663,-57.42579521792797
7.52,0.9999739208370038,-57.71091422860617
7.5280000000000005,0.9999739417582649,-57.99604265935705
7.536,0.9999739664671268,-58.28118017127565
7.5440000000000005,0.9999739949185018,-58.56632642583561
7.552,0.9999740270667629,-58.851481084897486
7.5600000000000005,0.9999740628657622,-59.13664381071804
7.568,0.9999741022688546,-59.42181426595866
7.5760000000000005,0.9999741452289193,-59.70699211369441
7.584,0.9999741916983803,-59.99217701742261
7.5920000000000005,0.9999742416292285,-60.27736864107174
7.6,0.9999742949730406,-60.56256664900999
7.6080000000000005,0.9999743516810021,-60.847770706054256
7.616,0.9999744117039259,-61.13298047747842
7.6240000000000006,0.9999744749922725,-61.41819562902254
7.632,0.9999745414961713,-61.70341582690102
7.640000000000001,0.9999746111654387,-61.98864073781168
7.648,0.999974683949598,-62.27387002894394
7.656000000000001,0.9999747597978984,-62.5591033679879
7.664,0.9999748386593346,-62.84434042314243
7.672,0.9999749204826642,-63.129580863124154
7.68,0.9999750052164279,-63.414824357175725
7.688,0.9999750928089659,-63.700070575074406
7.696,0.9999751832084371,-63.98531918714057
7.704,0.9999752763628368,-64.2705698642462
7.712,0.9999753722200128,-64.55582227782328
7.72,0.9999754707276844,-64.84107609987224
7.728,0.9999755718334593,-65.12633100297032
7.736,0.9999756754848486,-65.41158666028004
7.744,0.9999757816292857,-65.69684274555739
7.752,0.9999758902141412,-65.9820989331603
7.76,0.9999760011867389,-66.26735489805684
7.768,0.9999761144943731,-66.55261031583352
7.776,0.9999762300843221,-66.83786486270354
7.784,0.9999763479038659,-67.12311821551498
7.792,0.9999764679002993,-67.408370051759
7.8,0.9999765900209479,-67.69362004957797
7.808,0.9999767142131828,-67.97886788777367
7.816,0.9999768404244355,-68.2641132458153
7.824,0.9999769686022102,-68.54935580384756
7.832,0.9999770986941006,-68.83459524269881
7.84,0.9999772306478006,-69.11983124388892
7.848,0.9999773644111213,-69.4050634896373
7.856,0.9999774999320012,-69.69029166287093
7.864,0.999977637158521,-69.97551544723217
7.872,0.999977776038916,-70.26073452708668
7.88,0.9999779165215888,-70.5459485875313
7.888,0.9999780585551213,-70.8311573144018
7.896,0.9999782020882881,-71.11636039428079
7.904,0.9999783470700669,-71.40155751450533
7.912,0.9999784934496515,-71.68674836317474
7.92,0.999978641176462,-71.97193262915825
7.928,0.9999787902001575,-72.25711000210268
7.936,0.9999789404706465,-72.54228017244
7.944,0.9999790919380972,-72.82744283139499
7.952,0.9999792445529494,-73.11259767099274
7.96,0.9999793982659234,-73.3977443840661
7.968,0.9999795530280315,-73.68288266426329
7.976,0.9999797087905873,-73.96801220605523
7.984,0.9999798655052156,-74.25313270474297
7.992,0.9999800231238618,-74.53824385646504
8.0,0.9999801815988014,-74.82334535820482
8.008,0.9999803408826488,-75.10843690779774
8.016,0.9999805009283665,-75.3935182039387
8.024000000000001,0.9999806616892741,-75.67858894618901
8.032,0.9999808231190553,-75.96364883498376
8.04,0.9999809851717683,-76.24869757163894
8.048,0.9999811478018522,-76.5337348583586
8.056000000000001,0.9999813109641356,-76.81876039824157
8.064,0.9999814746138433,-77.10377389528877
8.072,0.9999816387066053,-77.38877505441023
8.08,0.9999818031984629,-77.67376358143188
8.088000000000001,0.9999819680458756,-77.95873918310235
8.096,0.9999821332057284,-78.24370156709996
8.104,0.9999822986353384,-78.52865044203958
8.112,0.9999824642924608,-78.81358551747932
8.120000000000001,0.9999826301352962,-79.09850650392717
8.128,0.9999827961224942,-79.38341311284769
8.136,0.9999829622131626,-79.6683050566689
8.144,0.9999831283668698,-79.95318204878865
8.152000000000001,0.9999832945436525,-80.23804380358112
8.16,0.9999834607040194,-80.5228900364034
8.168,0.9999836268089579,-80.80772046360208
8.176,0.9999837928199369,-81.09253480251961
8.184000000000001,0.9999839586989131,-81.37733277150046
8.192,0.9999841244083344,-81.66211408989766
8.2,0.9999842899111455,-81.94687847807914
8.208,0.9999844551707905,-82.23162565743392
8.216000000000001,0.9999846201512178,-82.5163553503781
8.224,0.9999847848168831,-82.80106728036122
8.232,0.9999849491327543,-83.08576117187242
8.24,0.9999851130643126,-83.37043675044639
8.248000000000001,0.9999852765775584,-83.65509374266931
8.256,0.9999854396390123,-83.93973187618488
8.264,0.9999856022157184,-84.22435087970037
8.272,0.9999857642752478,-84.50895048299243
8.280000000000001,0.9999859257856999,-84.79353041691274
8.288,0.9999860867157058,-85.07809041339391
8.296,0.9999862470344297,-85.36263020545533
8.304,0.9999864067115712,-85.64714952720882
8.312,0.9999865657173673,-85.93164811386393
8.32,0.9999867240225937,-86.21612570173413
8.328,0.999986881598566,-86.50058202824168
8.336,0.9999870384171426,-86.78501683192381
8.344,0.9999871944507238,-87.06942985243752
8.352,0.9999873496722542,-87.35382083056548
8.36,0.9999875040552225,-87.63818950822102
8.368,0.9999876575736639,-87.92253562845374
8.376,0.9999878102021592,-88.2068589354544
8.384,0.9999879619158355,-88.49115917456058
8.392,0.9999881126903668,-88.77543609226127
8.4,0.999988262501973,-89.05968943620256
8.408,0.9999884113274222,-89.34391895519215
8.416,0.9999885591440277,-89.62812439920489
8.424,0.99998870592965,-89.91230551938712
8.432,0.9999888516626948,-90.19646206806225
8.44,0.999988996322113,-90.48059379873493
8.448,0.9999891398873998,-90.76470046609649
8.456,0.9999892823385944,-91.04878182602911
8.464,0.9999894236562776,-91.33283763561113
8.472,0.9999895638215724,-91.61686765312099
8.48,0.999989702816141,-91.90087163804257
8.488,0.9999898406221851,-92.18484935106909
8.496,0.9999899772224424,-92.46880055410817
8.504,0.9999901126001869,-92.75272501028574
8.512,0.9999902467392255,-93.03662248395098
8.52,0.9999903796238974,-93.32049274068011
8.528,0.9999905112390707,-93.60433554728127
8.536,0.9999906415701417,-93.88815067179816
8.544,0.9999907706030314,-94.1719378835148
8.552,0.9999908983241833,-94.45569695295919
8.56,0.9999910247205621,-94.73942765190779
8.568,0.9999911497796491,-95.02312975338923
8.576,0.9999912734894412,-95.3068030316886
8.584,0.9999913958384472,-95.59044726235108
8.592,0.999991516815685,-95.87406222218613
8.6,0.999991636410678,-96.15764768927099
8.608,0.999991754613454,-96.44120344295487
8.616,0.9999918714145387,-96.7247292638622
8.624,0.9999919868049552,-97.0082249338968
8.632,0.9999921007762189,-97.291690236245
8.64,0.9999922133203348,-97.57512495537978
8.648,0.9999923244297932,-97.85852887706363
8.656,0.9999924340975663,-98.14190178835271
8.664,0.999992542317105,-98.42524347759966
8.672,0.9999926490823335,-98.70855373445747
8.68,0.9999927543876462,-98.99183234988234
8.688,0.9999928582279038,-99.27507911613738
8.696,0.9999929605984286,-99.55829382679536
8.704,0.9999930614950007,-99.84147627674238
8.712,0.9999931609138533,-100.12462626218047
8.72,0.9999932588516678,-100.40774358063106
8.728,0.999993355305571,-100.69082803093765
8.736,0.9999934502731289,-100.97387941326912
8.744,0.9999935437523422,-101.25689752912214
8.752,0.9999936357416424,-101.53988218132466
8.76,0.9999937262398859,-101.82283317403798
8.768,0.999993815246351,-102.10575031276018
8.776,0.9999939027607307,-102.38863340432825
8.784,0.999993988783129,-102.67148225692121
8.792,0.9999940733140562,-102.95429668006219
8.8,0.9999941563544221,-103.23707648462158
8.808,0.9999942379055331,-103.51982148281886
8.815999999999999,0.999994317969085,-103.80253148822555
8.824,0.9999943965471588,-104.08520631576744
8.832,0.9999944736422153,-104.36784578172673
8.84,0.9999945492570893,-104.65044970374448
8.847999999999999,0.9999946233949841,-104.93301790082295
8.856,0.9999946960594668,-105.21555019332766
8.864,0.9999947672544615,-105.49804640298937
8.872,0.9999948369842451,-105.78050635290636
8.879999999999999,0.9999949052534404,-106.06292986754644
8.888,0.9999949720670117,-106.34531677274897
8.896,0.999995037430258,-106.62766689572653
8.904,0.9999951013488075,-106.90998006506697
8.911999999999999,0.9999951638286125,-107.19225611073537
8.92,0.9999952248759425,-107.47449486407568
8.928,0.9999952844973795,-107.75669615781231
8.936,0.9999953426998109,-108.0388598260519
8.943999999999999,0.999995399490425,-108.32098570428519
8.952,0.9999954548767032,-108.6030736293883
8.96,0.9999955088664159,-108.88512343962422
8.968,0.9999955614676156,-109.16713497464447
8.975999999999999,0.9999956126886305,-109.44910807549051
8.984,0.9999956625380593,-109.73104258459507
8.992,0.9999957110247649,-110.01293834578341
9.0,0.9999957581578676,-110.29479520427455
9.008,0.9999958039467406,-110.5766130066828
9.016,0.9999958484010014,-110.85839160101877
9.024000000000001,0.9999958915305086,-111.14013083669026
9.032,0.999995933345353,-111.42183056450362
9.04,0.999995973855854,-111.70349063666481
9.048,0.999996013072551,-111.98511090678033
9.056000000000001,0.9999960510061994,-112.26669122985797
9.064,0.9999960876677625,-112.54823146230783
9.072,0.9999961230684071,-112.82973146194334
9.08,0.9999961572194959,-113.11119108798185
9.088000000000001,0.9999961901325821,-113.39261020104537
9.096,0.999996221819403,-113.67398866316121
9.104,0.9999962522918735,-113.95532633776295
9.112,0.9999962815620809,-114.23662308969078
9.120000000000001,0.9999963096422773,-114.51787878519198
9.128,0.9999963365448745,-114.7990932919216
9.136,0.9999963622824377,-115.08026647894293
9.144,0.9999963868676791,-115.36139821672796
9.152000000000001,0.9999964103134515,-115.64248837715742
9.16,0.9999964326327425,-115.92353683352145
9.168,0.9999964538386689,-116.20454346051979
9.176,0.9999964739444694,-116.48550813426208
9.184000000000001,0.9999964929634997,-116.76643073226778
9.192,0.9999965109092254,-117.04731113346648
9.2,0.9999965277952166,-117.3281492181982
9.208,0.9999965436351419,-117.60894486821317
9.216000000000001,0.9999965584427619,-117.88969796667183
9.224,0.999996572231924,-118.17040839814487
9.232,0.9999965850165549,-118.45107604861332
9.24,0.9999965968106566,-118.73170080546814
9.248000000000001,0.999996607628299,-119.0122825575102
9.256,0.9999966174836152,-119.29282119494995
9.264,0.9999966263907943,-119.57331660940736
9.272,0.9999966343640766,-119.8537686939115
9.280000000000001,0.9999966414177477,-120.13417734290016
9.288,0.9999966475661317,-120.41454245221945
9.296,0.9999966528235874,-120.6948639191235
9.304,0.9999966572045002,-120.97514164227401
9.312000000000001,0.9999966607232788,-121.25537552173948
9.32,0.9999966633943479,-121.53556545899477
9.328,0.9999966652321434,-121.81571135692072
9.336,0.9999966662511065,-122.0958131198033
9.344,0.9999966664656785,-122.3758706533328
9.352,0.9999966658902949,-122.6558838646035
9.36,0.999996664539381,-122.93585266211242
9.368,0.9999966624273442,-123.21577695575905
9.376,0.9999966595685719,-123.49565665684396
9.384,0.9999966559774239,-123.77549167806842
9.392,0.9999966516682274,-124.05528193353298
9.4,0.9999966466552728,-124.33502733873705
9.408,0.9999966409528079,-124.61472781057728
9.416,0.9999966345750326,-124.89438326734714
9.424,0.9999966275360944,-125.17399362873535
9.432,0.9999966198500833,-125.45355881582505
9.44,0.9999966115310257,-125.73307875109239
9.448,0.9999966025928817,-126.01255335840568
9.456,0.9999965930495387,-126.29198256302371
9.464,0.9999965829148074,-126.57136629159498
9.472,0.9999965722024154,-126.8507044721558
9.48,0.9999965609260059,-127.12999703412962
9.488,0.999996549099129,-127.40924390832491
9.496,0.999996536735241,-127.68844502693442
9.504,0.9999965238476969,-127.96760032353318
9.512,0.9999965104497478,-128.24670973307738
9.52,0.9999964965545358,-128.52577319190252
9.528,0.99999648217509,-128.80479063772222
9.536,0.999996467324322,-129.08376200962613
9.544,0.999996452015022,-129.36268724807883
9.552,0.9999964362598547,-129.6415662949176
9.56,0.999996420071355,-129.9203990933513
9.568,0.9999964034619241,-130.19918558795797
9.576,0.999996386443826,-130.4779257246837
9.584,0.9999963690291831,-130.75661945084025
9.592,0.9999963512299723,-131.03526671510366
9.6,0.999996333058023,-131.31386746751198
9.608,0.9999963145250106,-131.59242165946378
9.616,0.9999962956424557,-131.87092924371566
9.624,0.999996276421719,-132.1493901743809
9.632,0.999996256873998,-132.42780440692673
